# SAXS profile: number of points = 501, q_min = 0, q_max = 0.5, delta_q = 0.001
#    q    intensity    error
0.00000000 1664650.74656091 324.60689558
0.00100000 1664582.21775209 649.18708034
0.00200000 1664376.57922641 898.76338124
0.00300000 1664033.99224636 1797.15677565
0.00400000 1663554.33100397 1372.43237523
0.00500000 1662938.06083744 1646.30874539
0.00600000 1662184.89359552 1745.29420933
0.00700000 1661295.50399676 2192.91015641
0.00800000 1660269.31460869 2465.50003629
0.00900000 1659107.73478290 2488.66170856
0.01000000 1657809.85020340 2735.38637095
0.01100000 1656376.96796725 4472.21800823
0.01200000 1654808.50577095 4194.93974605
0.01300000 1653105.85461691 5207.28367171
0.01400000 1651268.27455781 4086.88916071
0.01500000 1649297.54951675 3958.31429510
0.01600000 1647192.52738276 4620.37524586
0.01700000 1644955.31724410 7106.20728927
0.01800000 1642585.47415895 6553.91633680
0.01900000 1640083.73161717 6396.32684193
0.02000000 1637450.73104723 5157.97003612
0.02100000 1634688.12927189 5933.91817829
0.02200000 1631794.01115608 6755.62751311
0.02300000 1628771.46104427 7622.65078466
0.02400000 1625620.14168504 8534.50613300
0.02500000 1622341.51052991 8857.98505204
0.02600000 1618935.74700941 7212.35908281
0.02700000 1615403.78905407 8141.63546973
0.02800000 1611745.63992788 8413.31262625
0.02900000 1607963.82233308 9406.58879254
0.03000000 1604058.62541766 9696.53483635
0.03100000 1600030.31703795 9216.17505020
0.03200000 1595879.87731383 8689.56633220
0.03300000 1591610.07977172 11364.09649346
0.03400000 1587218.90759342 8332.89964935
0.03500000 1582709.81221604 13674.61340901
0.03600000 1578082.49639011 12261.70156361
0.03700000 1573338.68757424 8968.03093392
0.03800000 1568479.69647379 9175.60664901
0.03900000 1563506.78070587 10319.14523054
0.04000000 1558419.06900605 13417.98880592
0.04100000 1553220.23510163 10763.81672834
0.04200000 1547910.65288403 10982.42659172
0.04300000 1542490.45782999 13234.56874250
0.04400000 1536963.42393402 13486.85467138
0.04500000 1531328.97873243 10566.17044421
0.04600000 1525587.44207644 13982.00955661
0.04700000 1519742.24483723 10942.14467172
0.04800000 1513793.20359520 11126.38056411
0.04900000 1507743.41971664 13569.69140908
0.05000000 1501592.22589505 12635.89916931
0.05100000 1495342.95302677 12830.04313464
0.05200000 1488993.88021595 16572.50265910
0.05300000 1482550.46162143 14410.39115874
0.05400000 1476010.96606796 13394.80014172
0.05500000 1469379.40146082 16045.62381247
0.05600000 1462654.11407998 20009.10921432
0.05700000 1455840.23081721 15198.97271920
0.05800000 1448936.43739964 12823.08806973
0.05900000 1441944.72476911 12977.50312905
0.06000000 1434867.50468486 19693.55742186
0.06100000 1427706.62146135 17260.97386010
0.06200000 1420462.67257463 16108.04745994
0.06300000 1413138.41591782 14922.74236981
0.06400000 1405732.12888172 15076.47778733
0.06500000 1398250.00773765 17995.47844137
0.06600000 1390690.24085934 15374.08133203
0.06700000 1383055.41104096 19750.03219395
0.06800000 1375348.67394765 24199.26105085
0.06900000 1367570.73654769 17231.39208726
0.07000000 1359720.94033285 15929.13156194
0.07100000 1351804.44938276 14599.48873714
0.07200000 1343819.91809775 16186.31167176
0.07300000 1335772.30366824 14827.07326545
0.07400000 1327660.76161734 22404.27640225
0.07500000 1319487.85017795 21059.02707593
0.07600000 1311253.53694458 21202.97068640
0.07700000 1302963.54415424 16769.14159955
0.07800000 1294615.65669195 21477.67475174
0.07900000 1286212.18453276 27782.18448900
0.08000000 1277757.42829274 23287.13022306
0.08100000 1269250.81944757 31223.57162336
0.08200000 1260693.74129090 18834.76537871
0.08300000 1252089.15788948 17353.95654280
0.08400000 1243437.53494718 17439.21224621
0.08500000 1234743.12655885 19113.82449643
0.08600000 1226004.70241973 20799.17075310
0.08700000 1217226.21510162 17674.12547321
0.08800000 1208405.87108570 20971.88487761
0.08900000 1199550.23810069 17813.32187248
0.09000000 1190657.63776941 16252.47751902
0.09100000 1181731.08907965 16307.88979546
0.09200000 1172771.31966037 21268.20888136
0.09300000 1163781.96603928 21332.12443994
0.09400000 1154760.86320473 18100.87738143
0.09500000 1145712.91381638 19797.92008130
0.09600000 1136638.85050335 18191.90565747
0.09700000 1127541.79058053 26519.78416122
0.09800000 1118422.42607079 21591.14595046
0.09900000 1109282.59235858 24958.85950170
0.10000000 1100122.05992361 28333.64498578
0.10100000 1090943.63830929 18360.58229628
0.10200000 1081749.60410627 20055.63860347
0.10300000 1072541.10674561 20077.97046276
0.10400000 1063320.22349181 18422.02373866
0.10500000 1054090.03902153 16760.03240899
0.10600001 1044846.75658458 18446.77035549
0.10700001 1035598.33321910 16776.69378762
0.10800001 1026341.50054004 20136.82118827
0.10900001 1017080.91459531 20138.20305680
0.11000001 1007816.47184699 18458.15955069
0.11100001 998550.47270041 16775.64873105
0.11200001 989285.05840553 16768.38252938
0.11300001 980019.31222260 20109.99723360
0.11400001 970757.74536689 21769.24346484
0.11500001 961500.40834356 18403.11868226
0.11600001 952248.43536517 18383.15691041
0.11700001 943004.63747701 16691.18286941
0.11800001 933767.45664627 20001.29986339
0.11900001 924541.52139037 21634.27261954
0.12000001 915326.40977107 18274.49263190
0.12100001 906125.61747804 26531.35932960
0.12200001 896937.78360284 21513.05375322
0.12300001 887766.03979682 24768.67367729
0.12400001 878610.66896312 16473.95081927
0.12500001 869473.74316514 16433.05452015
0.12600001 860357.88259105 16389.81843570
0.12700001 851262.49624178 26150.78511694
0.12800001 842188.09205878 24444.51052406
0.12900001 833137.96355225 19495.42926598
0.13000001 824112.50513862 24290.71723390
0.13100001 815111.75234694 19367.05614868
0.13200001 806139.39224820 16082.48163348
0.13300001 797196.22814227 17626.00943517
0.13400001 788280.96891915 20751.49748514
0.13500001 779397.41053011 22259.59109424
0.13600001 770544.65897742 22168.57088405
0.13700001 761725.59328055 18921.26462929
0.13800001 752939.02853986 18838.53538241
0.13900001 744190.04226886 20316.38911202
0.14000001 735475.48722687 17110.83801729
0.14100001 726798.63460730 21673.13630616
0.14200001 718158.91586079 15404.50947177
0.14300001 709561.04610790 16859.17125073
0.14400001 700999.04102321 21345.42180602
0.14500001 692482.15753475 18198.43195847
0.14600001 684004.55745406 25639.91204571
0.14700001 675572.80937260 23996.34732098
0.14800001 667182.60883667 17893.83841321
0.14900001 658836.97173947 20753.36558895
0.15000001 650537.53135287 20628.54609251
0.15100001 642284.40562126 17572.90216697
0.15200001 634079.28024443 16007.33218511
0.15300001 625922.16292377 18796.44343959
0.15400001 617811.85892988 18673.36431737
0.15500001 609752.97055390 14268.22018432
0.15600001 601742.27414869 15588.13434750
0.15700001 593786.20088164 19701.82707512
0.15800001 585877.05698448 19562.43585603
0.15900001 578023.38662101 13872.56193370
0.16000001 570220.19236249 17902.06378424
0.16100001 562473.77930410 15034.92483051
0.16200001 554779.33409359 14920.79089480
0.16300001 547140.78227003 16151.59665509
0.16400001 539556.99040003 17360.24698569
0.16500001 532029.50552120 18546.54943808
0.16600001 524558.07170349 15768.21637987
0.16700001 517143.17747417 16941.61129395
0.16800001 509784.52868558 14215.34225359
0.16900001 502486.08733304 23064.11249763
0.17000001 495244.72856912 15243.63346516
0.17100001 488062.26700281 12592.00708328
0.17200001 480939.14246209 14976.44560350
0.17300001 473875.23105397 13604.95852605
0.17400001 466872.17220576 14706.47411901
0.17500001 459928.68802156 20641.60049326
0.17600001 453043.88726266 20448.13681735
0.17700001 446222.46749938 13105.55448944
0.17800001 439461.13713955 12979.48529847
0.17900001 432761.11230793 16358.37081790
0.18000001 426123.50877570 13883.10457168
0.18100001 419548.82483739 14889.78849682
0.18200001 413033.44348563 12471.54541518
0.18300001 406582.84467153 11221.68704304
0.18400001 400193.48433006 12215.90668626
0.18500001 393867.67968642 12087.79966063
0.18600001 387604.51458540 10872.30714777
0.18700001 381403.90097793 10755.59051572
0.18800001 375266.01153555 12766.55031561
0.18900001 369193.31942118 18939.61818116
0.19000001 363179.98533484 11445.61777862
0.19100001 357234.76786604 11317.19798073
0.19200001 351349.44172165 12205.88018215
0.19300001 345530.03124342 10054.92438430
0.19400001 339772.85224478 14907.53459668
0.19500001 334079.68229223 10804.13743588
0.19600001 328448.90428029 10676.23213815
0.19700001 322882.39373399 14384.41132062
0.19800001 317379.23564048 12315.90182106
0.19900001 311940.32216868 11229.85212879
0.20000001 306562.59054570 12940.00755849
0.20100001 301249.90417232 10040.65978061
0.20200001 295999.09629937 13519.75936246
0.20300001 290812.23447903 12458.39671392
0.20400001 285688.11119697 14934.34671870
0.20500001 280626.02338444 12139.88234543
0.20600001 275627.07333912 10269.86523805
0.20700001 270690.39246786 11823.75690189
0.20800001 265815.88125595 9166.66109842
0.20900001 261005.79235759 9043.85113270
0.21000001 256254.96832818 8921.51714409
0.21100001 251566.31738737 11199.73297954
0.21200001 246938.96397803 14201.46048974
0.21300001 242372.78848789 9336.20025393
0.21400001 237868.65159328 9205.51725187
0.21500001 233425.84437571 9831.89702993
0.21600001 229041.91422705 10437.44052479
0.21700001 224719.19334125 8817.98156362
0.21800001 220456.34710389 12311.38528611
0.21900001 216252.18610252 7136.32247880
0.22000001 212107.26648321 8437.62745965
0.22100001 208023.74798101 10390.78670296
0.22200001 203997.81579464 8188.47271318
0.22300001 200030.25209885 11425.72854016
0.22400001 196119.09450359 9266.62765348
0.22500001 192269.02084967 7169.71212652
0.22600001 188474.26943040 9626.32376637
0.22700001 184738.01129795 6949.84431368
0.22800001 181057.54306976 6841.25958841
0.22900001 177433.05750042 6733.58485058
0.23000001 173864.85064758 6024.41735984
0.23100001 170353.93332385 8892.47574005
0.23200001 166895.92985793 7582.91693172
0.23300001 163494.21715069 5738.64729340
0.23400001 160146.83438528 9032.28188651
0.23500001 156852.20356566 7218.33874949
0.23600001 153612.27425949 10375.74155560
0.23700001 150425.37246606 10203.35349697
0.23800001 147290.98813684 7920.57326169
0.23900001 144209.41413692 8306.46264718
0.24000001 141179.23112739 6124.35533599
0.24100001 138201.87682760 5518.40120275
0.24200001 135274.83173498 6409.99820497
0.24300001 132398.55685051 5330.36615094
0.24400001 129572.00781451 4761.77151243
0.24500001 126795.55639141 5614.50750260
0.24600001 124068.52333903 5056.41290788
0.24700001 121390.87121706 5870.46280976
0.24800001 118760.53887323 7097.13013881
0.24900001 116178.39548000 5663.69704758
0.25000001 113644.02286205 5562.30696213
0.25100001 111156.11180964 6302.55183777
0.25200001 108715.78970844 5363.49373901
0.25300001 106321.66296809 4861.02666088
0.25400001 103972.26915180 4374.63343153
0.25500001 101668.13951378 5856.08511306
0.25600001 99409.17819298  4215.44640072
0.25700001 97194.10442970  6394.40043297
0.25800001 95022.63387431  4799.11835089
0.25900001 92894.82761727  5434.34767274
0.26000001 90810.27108410  3910.74450928
0.26100001 88765.86868763  5581.59808718
0.26200001 86765.88007233  3422.91413081
0.26300001 84805.67663262  4365.79643963
0.26400001 82886.24104571  3624.20106121
0.26500001 81008.13222003  3232.22462852
0.26600001 79168.99582650  3487.79027618
0.26700001 77370.32375555  4043.37331080
0.26800001 75610.42531180  4576.32120855
0.26900001 73888.43395428  4488.72257514
0.27000001 72205.02187596  4696.21484505
0.27100001 70558.93942771  4318.20729733
0.27200001 68950.44348395  4235.28119143
0.27300001 67377.87737112  2769.23089100
0.27400001 65840.37072558  4073.87313144
0.27500001 64340.76758830  2930.07869464
0.27600001 62874.16996138  2873.66407408
0.27700001 61444.15224156  4355.77615855
0.27800001 60047.04736834  2764.26595643
0.27900001 58684.54748853  2711.22622229
0.28000001 57354.78458415  3626.25642696
0.28100001 56057.83975847  3082.62075422
0.28200001 54793.69001283  2791.19070136
0.28300001 53561.39285799  2738.05853249
0.28400001 52360.72654192  4476.84233123
0.28500001 51191.23283874  2196.10399273
0.28600001 50051.45781278  3232.07304124
0.28700001 48942.49309350  2114.31580171
0.28800001 47862.30861171  2489.79741183
0.28900001 46813.07365010  2443.64256020
0.29000001 45791.04148005  2998.16858282
0.29100001 44798.64899003  2550.83519424
0.29200001 43833.47157276  2889.72175022
0.29300001 42895.78339021  2459.21537817
0.29400001 41984.96263669  2229.40162154
0.29500001 41101.94722200  2007.41919735
0.29600001 40243.88025488  2689.29742534
0.29700001 39411.47097925  2818.70853787
0.29800001 38604.91254670  2077.71649162
0.29900001 37823.29827343  2723.27760460
0.30000001 37065.99451350  2008.23567781
0.30100001 36333.65569956  1975.09761733
0.30200001 35623.72361568  1619.09831498
0.30300001 34937.75090830  1911.79382021
0.30400001 34275.28001054  1568.09413472
0.30500001 33634.07199709  2161.32556885
0.30600001 33015.38966226  1672.39464252
0.30700001 32418.84386210  1797.30078880
0.30800001 31843.31638394  2066.31289798
0.30900001 31288.67554985  1600.41583015
0.31000001 30755.38514814  1865.16042061
0.31100001 30240.63932807  2264.41918010
0.31200001 29746.87778993  1396.61597836
0.31300001 29271.85395679  2481.66789595
0.31400001 28817.39185711  2042.43274457
0.31500001 28380.61132519  1479.76514456
0.31600002 27962.18145146  1329.60179097
0.31700002 27561.33556766  1577.61092259
0.31800002 27178.69438839  2080.80094090
0.31900002 26813.49457020  1415.75258034
0.32000002 26464.81377805  1656.56509687
0.32100002 26133.21440080  1640.90460992
0.32200002 25817.87343805  1876.31404095
0.32300002 25517.79611110  1736.23092961
0.32400002 25233.67806417  1476.17023665
0.32500002 24964.42485588  1953.21669321
0.32600002 24710.64283157  1939.29134125
0.32700002 24471.19282903  1324.38101862
0.32800002 24246.75100517  1316.23494064
0.32900002 24035.07918432  1665.63106635
0.33000002 23838.65163713  1657.02475376
0.33100002 23653.25607286  1649.10509149
0.33200002 23483.40342420  1524.89487356
0.33300002 23324.99053153  1752.87312145
0.33400002 23179.64246685  1281.25479803
0.33500002 23046.10549276  1626.13328058
0.33600002 22924.42038930  1738.24425834
0.33700002 22813.60356385  1272.31473101
0.33800002 22715.49003812  1386.09926777
0.33900002 22627.14302240  1500.17965343
0.34000002 22550.20638599  1499.47604465
0.34100002 22483.57399069  1730.11110052
0.34200002 22428.04883456  1384.70780062
0.34300002 22381.10832175  1385.83829292
0.34400002 22344.64442105  1387.60248426
0.34500002 22317.27866476  1621.57354458
0.34600002 22300.25016878  1741.09211439
0.34700002 22289.99666437  1745.30682148
0.34800002 22290.05233723  1166.88429512
0.34900002 22298.09196637  1755.97482552
0.35000002 22314.38386195  1527.30807577
0.35100002 22338.63045279  1179.47974377
0.35200002 22369.93256437  1895.18077661
0.35300002 22409.08595574  1308.91477267
0.35400002 22455.93892486  1554.51244570
0.35500002 22509.42281594  2043.40550001
0.35600002 22569.31526645  1571.16295669
0.35700002 22635.96237974  1458.66148484
0.35800002 22709.53758786  1589.78125414
0.35900002 22788.76823168  1353.65289708
0.36000002 22874.65425131  1238.66258638
0.36100002 22965.41406892  1745.83086021
0.36200002 23062.91478000  1506.93092310
0.36300002 23163.87362605  1644.17182786
0.36400002 23270.89405394  1528.89781176
0.36500002 23382.35419625  1412.06043680
0.36600002 23499.17049558  1422.99233676
0.36700002 23620.06695149  1694.97608473
0.36800002 23746.71085419  1314.38050804
0.36900002 23876.50005366  1722.68956047
0.37000002 24009.40129279  1736.96021881
0.37100002 24146.72608339  1616.86485513
0.37200002 24288.12853887  1630.70502735
0.37300002 24432.28891959  2193.04235731
0.37400002 24580.88412296  1935.74471638
0.37500002 24731.45245153  1534.33938278
0.37600002 24886.11515976  2110.96481843
0.37700002 25042.27297155  1703.87633370
0.37800002 25202.18270152  1719.29298534
0.37900002 25364.33129191  2024.07373298
0.38000002 25528.84103197  1896.66533432
0.38100002 25695.11755309  1766.79636665
0.38200002 25863.70604366  1485.86998260
0.38300002 26034.04687229  1499.56117088
0.38400002 26206.77595549  1816.12965975
0.38500002 26379.98718125  1832.88159618
0.38600002 26555.94551426  2004.04452317
0.38700002 26732.16286053  2644.88031872
0.38800002 26909.64191239  2041.23098397
0.38900002 27088.36255875  1584.66928476
0.39000002 27268.75497548  1599.31255508
0.39100002 27449.10719488  2421.01136929
0.39200002 27630.73156591  1791.71487328
0.39300002 27812.47570373  2794.31956634
0.39400002 27995.64374968  1990.49036491
0.39500002 28178.25397473  2175.92487502
0.39600002 28361.12863976  1857.79581957
0.39700002 28543.83961622  1874.47403641
0.39800002 28727.70633704  1719.35330573
0.39900002 28910.42351651  1734.62549318
0.40000002 29093.15003078  1749.95305726
0.40100002 29275.31609881  2294.89213772
0.40200002 29458.32380500  2314.98248590
0.40300002 29639.73975040  2335.01880817
0.40400002 29820.59889582  2536.24205626
0.40500002 30000.86563278  2192.46336432
0.40600002 30180.66913922  2395.28891973
0.40700002 30359.41906831  2043.79618852
0.40800002 30537.52320669  3184.91113375
0.40900002 30713.77620549  2266.67679136
0.41000002 30889.88598934  2856.54234221
0.41100002 31064.32954984  2111.75322286
0.41200002 31236.95606276  1935.12951978
0.41300002 31408.69012806  2145.52772431
0.41400002 31578.95735880  2752.10626422
0.41500002 31748.17194288  2971.62903466
0.41600002 31914.54348804  2395.50574772
0.41700002 32080.21861913  2011.42980273
0.41800002 32244.89303962  2026.59162357
0.41900002 32405.88931794  2041.57112377
0.42000002 32565.91306689  2262.19125838
0.42100002 32724.49608365  2900.04498035
0.42200002 32880.98409259  2294.92839349
0.42300002 33034.90017140  3151.52962569
0.42400002 33186.81418650  2750.35735603
0.42500002 33337.06786675  2769.31035892
0.42600002 33483.77020944  2788.02625860
0.42700002 33629.58756559  2590.82354882
0.42800002 33772.48602436  2825.23745225
0.42900002 33913.63613826  2624.91556149
0.43000002 34052.38104411  2641.78384659
0.43100002 34187.32920512  2879.94074871
0.43200002 34320.73345927  2452.04491819
0.43300002 34451.19233581  3364.15909101
0.43400002 34579.55648965  2256.31616787
0.43500002 34704.85148807  2950.60661334
0.43600002 34828.43649986  2511.30453283
0.43700002 34948.34878024  2296.10662367
0.43800002 35064.87045994  2539.92401213
0.43900002 35179.71298257  3018.41951695
0.44000002 35291.07565613  2567.95524181
0.44100002 35400.34050025  2816.45122367
0.44200002 35506.42273955  3067.22247371
0.44300002 35609.88157681  3557.42733811
0.44400002 35709.87270633  3575.45117416
0.44500002 35806.16386972  3353.60546697
0.44600002 35900.43131380  2647.83643703
0.44700002 35991.75159560  3386.10415059
0.44800002 36079.18754131  4373.88011292
0.44900002 36164.85417656  3173.46610439
0.45000002 36247.19312584  3678.18409676
0.45100002 36325.18545630  2462.84769066
0.45200002 36401.15542912  2720.80449150
0.45300002 36473.32928726  2732.21722640
0.45400002 36543.05613502  3242.28280924
0.45500002 36609.49881453  2504.08983759
0.45600002 36672.47034915  3519.45714621
0.45700002 36732.37542901  3028.21717389
0.45800002 36788.49697915  3039.46576447
0.45900002 36841.70231151  3050.49309597
0.46000002 36892.61469804  3571.57419819
0.46100002 36938.97824985  3071.84557685
0.46200002 36982.92978856  3082.15751466
0.46300002 37023.33657023  2576.82434742
0.46400002 37060.03128205  2843.43103488
0.46500002 37094.46488050  2592.90321804
0.46600002 37124.88841449  3380.77812370
0.46700002 37152.04278917  2608.07352741
0.46800002 37176.69888827  4707.68560335
0.46900002 37197.31613061  2884.65200265
0.47000002 37214.47831887  3155.04362141
0.47100002 37228.89043518  3162.96668129
0.47200002 37239.84097927  3434.81689552
0.47300002 37248.10840907  3178.00876009
0.47400002 37251.78290200  3981.28448635
0.47500002 37253.36496210  3191.86846124
0.47600002 37252.05792665  3465.00033228
0.47700002 37246.33275981  4272.89949673
