# SAXS profile: number of points = 501, q_min = 0, q_max = 0.5, delta_q = 0.001
#    q    intensity    error
0.00000000 1664650.74656091 274.66737318
0.00100000 1664582.24028024 499.37468394
0.00200000 1664376.65970450 748.96952058
0.00300000 1664034.18643601 1597.47287589
0.00400000 1663554.67803820 1746.73247831
0.00500000 1662938.59480677 2244.96719185
0.00600000 1662185.66174437 2268.88352065
0.00700000 1661296.55415759 2392.26713741
0.00800000 1660270.68589584 3362.04828088
0.00900000 1659109.45204170 2737.53071289
0.01000000 1657811.98469846 3008.92888215
0.01100000 1656379.55197578 3577.77998804
0.01200000 1654811.59160534 3872.25929413
0.01300000 1653109.47914430 3818.68306525
0.01400000 1651272.45574605 5573.04478520
0.01500000 1649302.34827773 4354.15839334
0.01600000 1647197.97605273 5880.49703739
0.01700000 1644961.47838769 4885.53580997
0.01800000 1642592.36322883 5149.52729044
0.01900000 1640091.43449774 6396.35688316
0.02000000 1637459.23793428 6189.59619938
0.02100000 1634697.48461633 9170.65330448
0.02200000 1631804.33155723 7881.61527950
0.02300000 1628782.67606756 6449.97969082
0.02400000 1625632.35465357 8534.57025109
0.02500000 1622354.77174905 8858.05745830
0.02600000 1618950.04899691 9179.44719766
0.02700000 1615419.22183982 7463.23714672
0.02800000 1611762.24230634 7712.28268312
0.02900000 1607981.60763792 8683.10107992
0.03000000 1604077.64588667 10442.54595472
0.03100000 1600050.57629497 9216.29174353
0.03200000 1595901.45270378 8689.68381020
0.03300000 1591632.94842910 8929.06125232
0.03400000 1587243.17060296 10832.93513920
0.03500000 1582735.53780507 11110.80398847
0.03600000 1578109.63310054 9634.35975532
0.03700000 1573367.32996777 8968.19419557
0.03800000 1568509.89758943 11010.93999066
0.03900000 1563538.55614503 9381.23177132
0.04000000 1558452.43062574 11501.37947098
0.04100000 1553255.24234355 10764.05932853
0.04200000 1547947.37270106 10982.68711883
0.04300000 1542528.96678048 12216.82998398
0.04400000 1537003.64062071 12449.73006722
0.04500000 1531370.87778556 11623.10550246
0.04600000 1525631.23813366 21511.40145768
0.04700000 1519787.79447007 14225.21441782
0.04800000 1513840.79766817 14464.74949474
0.04900000 1507792.91160873 11308.44736345
0.05000000 1501643.56231887 18380.11805867
0.05100000 1495396.35261225 15163.31972186
0.05200000 1489049.38345210 15389.32609514
0.05300000 1482607.91053895 20415.51187985
0.05400000 1476070.43041421 18266.37242821
0.05500000 1469441.00592841 14811.96603073
0.05600000 1462717.84909063 16258.10965131
0.05700000 1455906.20456170 20266.21531350
0.05800000 1449004.57165321 14106.06016369
0.05900000 1442015.03180604 15573.76307089
0.06000000 1434940.09701111 13129.70250106
0.06100000 1427781.67248450 14606.20719208
0.06200000 1420539.89291019 17451.33340014
0.06300000 1413217.93812896 14923.58212440
0.06400000 1405814.11489268 15077.35708734
0.06500000 1398334.48847955 13843.51208352
0.06600000 1390777.02482519 16772.77170417
0.06700000 1383144.65477276 22572.92182228
0.06800000 1375440.32021813 18506.55037481
0.06900000 1367664.80849459 20104.67362615
0.07000000 1359817.60258308 17378.46977482
0.07100000 1351903.57706295 21900.83897421
0.07200000 1343921.67428451 17659.13162737
0.07300000 1335876.57600977 20759.52296389
0.07400000 1327767.71070872 17924.86493460
0.07500000 1319597.50889838 21060.77722919
0.07600000 1311365.80529288 15146.27576120
0.07700000 1303078.38161521 19819.82311369
0.07800000 1294733.20755762 18411.10707488
0.07900000 1286332.49592857 29328.38228278
0.08000000 1277880.37407191 20184.12145532
0.08100000 1269376.52927909 23419.99806402
0.08200000 1260822.36175737 20406.41088262
0.08300000 1252220.42940821 17355.77596614
0.08400000 1243571.62907495 15855.53901494
0.08500000 1234879.91824691 22301.93237051
0.08600000 1226144.28235165 19201.42036316
0.08700000 1217368.68785906 20890.04766461
0.08800000 1208551.12728840 17747.57413772
0.08900000 1199698.41708571 19435.11526965
0.09000000 1190808.78037560 19505.44873883
0.09100000 1181885.01808265 16310.01401580
0.09200000 1172928.02768137 16362.34675497
0.09300000 1163941.56931068 16411.57689850
0.09400000 1154923.41005460 16457.65936675
0.09500000 1145878.41193891 19800.77988899
0.09600000 1136807.25145971 19848.65554353
0.09700000 1127713.04222786 19892.85900012
0.09800000 1118596.54470372 18272.27541686
0.09900000 1109459.68879949 21634.46494890
0.10000000 1100302.10718236 23337.40879083
0.10100000 1091126.68326577 18363.66294304
0.10200000 1081935.55280220 23402.26710787
0.10300000 1072729.83736339 18408.04487508
0.10400000 1063511.87485621 18425.34409871
0.10500000 1054284.78379266 23468.38039140
0.10600001 1045044.42297163 18450.26015571
0.10700001 1035798.75567662 18457.93469474
0.10800001 1026545.12794646 18462.41499499
0.10900001 1017287.41383011 20142.29174185
0.11000001 1008025.97424899 25175.44989187
0.11100001 998762.75625539 20135.05811393
0.11200001 989500.51891257 23480.84841921
0.11300001 980237.57920981 25143.09509049
0.11400001 970979.03404735 23449.14477633
0.11500001 961724.33427297 18407.40462475
0.11600001 952475.36287491 26745.50944901
0.11700001 943234.47183800 18364.77603157
0.11800001 934000.27926970 20006.28692422
0.11900001 924777.04659665 21639.78390963
0.12000001 915564.75108901 21602.75131954
0.12100001 906366.71963450 23221.11645094
0.12200001 897181.70783560 19863.60394728
0.12300001 888013.11501673 19820.45366100
0.12400001 878860.46862002 21422.22493197
0.12500001 869726.42474118 19725.39624260
0.12600001 860613.25681211 18034.15164633
0.12700001 851520.65534868 21253.95655912
0.12800001 842448.98122067 17931.52741038
0.12900001 833401.64156025 21126.73260930
0.13000001 824378.67622444 17818.94592648
0.13100001 815380.73035151 19373.44706637
0.13200001 806411.16851021 17696.69392718
0.13300001 797470.57209567 19234.99110574
0.13400001 788558.01818752 17565.13068325
0.13500001 779677.06810634 15905.41293928
0.13600001 770826.83804794 19008.59072253
0.13700001 762010.20118484 15773.61190830
0.13800001 753226.20578188 15704.76713112
0.13900001 744479.62191427 15634.07279747
0.14000001 735767.66184176 28010.67620732
0.14100001 727093.34112859 17035.79778610
0.14200001 718456.14738322 18493.06210587
0.14300001 709860.57301986 21466.18474063
0.14400001 701300.86627770 16778.62401714
0.14500001 692786.18478897 21240.82542760
0.14600001 684311.07100408 21124.68375844
0.14700001 675881.71580831 21006.40471833
0.14800001 667493.83416681 16410.33668721
0.14900001 659150.20158968 16313.96825905
0.15000001 650852.92083062 16216.00128761
0.15100001 642601.97809815 17581.59095035
0.15200001 634399.10832386 16015.40624535
0.15300001 626243.99204477 18806.10796855
0.15400001 618135.67652650 21557.48273618
0.15500001 610078.71203339 15703.42678883
0.15600001 602070.15016364 18432.37851717
0.15700001 594115.96562012 14080.54904975
0.15800001 586208.77170442 15379.18785154
0.15900001 578357.02971997 15268.62630530
0.16000001 570555.61773519 16534.70258244
0.16100001 562811.06981582 16411.57157053
0.16200001 555118.18494903 16287.16831526
0.16300001 547481.27613149 18855.25604008
0.16400001 539899.22749014 20043.75976683
0.16500001 532373.26233756 17232.92331546
0.16600001 524903.45340622 17093.48176721
0.16700001 517490.02688400 15648.89915183
0.16800001 510132.96237441 19397.80681018
0.16900001 502835.84944171 12822.31476621
0.17000001 495596.04154221 15254.44687898
0.17100001 488414.84399272 12601.10357005
0.17200001 481292.92572503 14987.46241483
0.17300001 474230.32800604 14852.89457457
0.17400001 467228.48526321 17170.64764432
0.17500001 460286.03947756 14581.86241932
0.17600001 453402.37322051 12037.83357754
0.17700001 446581.94363884 13116.11230415
0.17800001 439821.64102957 18894.73859107
0.17900001 433122.46365621 15202.59919241
0.18000001 426485.85712824 11579.09156797
0.18100001 419911.99859930 16049.03734457
0.18200001 413397.32753439 12482.53289455
0.18300001 406947.51973056 12354.92728266
0.18400001 400558.82488391 13338.60949876
0.18500001 394233.69896342 15398.76900898
0.18600001 387971.12333750 17412.14483800
0.18700001 381771.02028052 15072.32059276
0.18800001 375633.69224282 11714.13724604
0.18900001 369561.36604380 14745.49920184
0.19000001 363548.25675027 11457.22385282
0.19100001 357603.44882616 11328.87779410
0.19200001 351718.29781658 10182.24520291
0.19300001 345898.97039100 14091.92471961
0.19400001 340142.10653778 12933.90421228
0.19500001 334449.06254915 12782.64377467
0.19600001 328818.14590681 9716.57667072
0.19700001 323251.76864702 9600.57798252
0.19800001 317748.40230753 11381.74830854
0.19900001 312309.20376180 10306.20421121
0.20000001 306931.35198894 14806.36911971
0.20100001 301618.37280639 10966.84455356
0.20200001 296367.24288139 10829.25956671
0.20300001 291180.02567250 8910.10920671
0.20400001 286055.48226865 12314.68909373
0.20500001 280992.81077224 8682.67826327
0.20600001 275993.36751152 12854.39169945
0.20700001 271056.07357030 10148.33987418
0.20800001 266180.86992329 8344.77066655
0.20900001 261370.04921169 9879.78832723
0.21000001 256618.46811969 8934.17238993
0.21100001 251928.88872224 8812.47294410
0.21200001 247300.65550888 10271.63321215
0.21300001 242733.41988271 7791.74314659
0.21400001 238228.23855617 7682.86105666
0.21500001 233784.25167245 8332.07112353
0.21600001 229399.32429784 10453.72770249
0.21700001 225075.39139909 7359.96564673
0.21800001 220811.27108104 12331.20601655
0.21900001 216605.73092443 11436.78313356
0.22000001 212459.42516342 9860.24238805
0.22100001 208374.37534211 11102.18724318
0.22200001 204347.01906422 8202.48973309
0.22300001 200377.84963495 8752.50488592
0.22400001 196465.00987732 8619.90271597
0.22500001 192613.36616683 7182.55276400
0.22600001 188816.79681035 7715.05468250
0.22700001 185078.58600261 9494.53191092
0.22800001 181396.36019265 8723.35137419
0.22900001 177770.00739224 6746.37209958
0.23000001 174199.80452652 7243.22821476
0.23100001 170686.76947701 7721.86981633
0.23200001 167226.79993544 7013.49232099
0.23300001 163822.88085988 6900.22006816
0.23400001 160473.34228597 5656.68558312
0.23500001 157176.47333132 7233.26164481
0.23600001 153934.17903592 6019.59635591
0.23700001 150744.79813427 7534.22536710
0.23800001 147608.03424372 5291.74827793
0.23900001 144523.83264509 5202.85822132
0.24000001 141491.31620714 8183.85811652
0.24100001 138511.30792014 6033.55285840
0.24200001 135581.70972165 7412.93032968
0.24300001 132702.73177440 5828.30425523
0.24400001 129873.35348757 8113.83814295
0.24500001 127094.06528975 5158.74835414
0.24600001 124364.17062065 5529.23128736
0.24700001 121683.63186214 7695.27324299
0.24800001 119050.48490402 5335.84298582
0.24900001 116465.10387872 4804.18576227
0.25000001 113927.77133071 4289.38079352
0.25100001 111436.71132553 4633.53867612
0.25200001 108993.26547884 5377.18300679
0.25300001 106595.88103187 6091.95488918
0.25400001 104243.20802708 5183.49376438
0.25500001 101935.86891543 4305.77130670
0.25600001 99673.58972781  4610.90047896
0.25700001 97455.17082277  3771.51528928
0.25800001 95280.22769855  4812.12812760
0.25900001 93148.89536426  5812.49134575
0.26000001 91060.88765689  4634.54409658
0.26100001 89012.83105342  4197.84531111
0.26200001 87009.27670508  3775.76774127
0.26300001 85045.38195536  3704.57701327
0.26400001 83122.37695295  4956.17196034
0.26500001 81240.47283909  3565.64452163
0.26600001 79397.50635427  3497.85730795
0.26700001 77595.10632429  3743.18810621
0.26800001 75831.29917305  3977.73098635
0.26900001 74105.47594036  4501.90787641
0.27000001 72418.22977249  3238.18129751
0.27100001 70768.18438996  3176.07626572
0.27200001 69155.64693428  2831.92387598
0.27300001 67579.08408074  4721.75082817
0.27400001 66037.54095975  4086.07304026
0.27500001 64533.71302608  2671.69584572
0.27600001 63063.16228536  3144.32942036
0.27700001 61628.90054974  3340.90285692
0.27800001 60227.81179076  3276.69425555
0.27900001 58860.97259189  2472.16096586
0.28000001 57527.02893427  2424.76438434
0.28100001 56225.72216196  3567.52224002
0.28200001 54957.33654129  2332.93904659
0.28300001 53720.81196095  2746.20803742
0.28400001 52515.75591718  2469.55353889
0.28500001 51341.86975973  2643.07958033
0.28600001 50197.76642988  2161.01394709
0.28700001 49084.45094501  3392.71740991
0.28800001 47999.88842987  2288.87478812
0.28900001 46946.12594794  2042.15657540
0.29000001 45919.61953366  2806.14808253
0.29100001 44922.84103597  2361.14463661
0.29200001 43953.15374450  2124.91531836
0.29300001 43010.90689993  2086.45919248
0.29400001 42095.64770019  2421.55224858
0.29500001 41207.98284304  2561.48833478
0.29600001 40345.41269302  1797.38822056
0.29700001 39508.39053654  2295.83268276
0.29800001 38697.42554241  2082.69554128
0.29900001 37911.18753979  2217.80457607
0.30000001 37149.25062508  2180.47536866
0.30100001 36412.33710206  1979.37473857
0.30200001 35697.89983151  1622.46962415
0.30300001 35007.30328952  1915.59972669
0.30400001 34340.23710486  1885.27910631
0.30500001 33694.45636390  1855.89074439
0.30600001 33071.02532602  1522.92078836
0.30700001 32469.89185285  1950.14179701
0.30800001 31889.80973748  1921.52057670
0.30900001 31330.47865780  2185.30098984
0.31000001 30792.64356002  1867.41995711
0.31100001 30273.25719024  2125.18275537
0.31200001 29774.90138649  1537.72485491
0.31300001 29295.27996029  1379.80775146
0.31400001 28836.17929498  1362.50953620
0.31500001 28394.87050847  1480.50861841
0.31600002 27971.88719123  1463.06962881
0.31700002 27566.59472465  1446.41929369
0.31800002 27179.24767611  1560.63247546
0.31900002 26809.51508238  1286.85678489
0.32000002 26456.26050210  1401.25590384
0.32100002 26120.12348881  1892.40303637
0.32200002 25800.37003440  1375.03078609
0.32300002 25495.85133724  1734.73780713
0.32400002 25207.22996274  1597.50827453
0.32500002 24933.46095999  1706.94481815
0.32600002 24675.23326080  1452.38429850
0.32700002 24431.30868489  1803.03066632
0.32800002 24202.49223518  1433.27165804
0.32900002 23986.39764099  1187.32673945
0.33000002 23785.67141396  1299.05450579
0.33100002 23595.91541157  1527.59963608
0.33200002 23421.71159489  1754.87182435
0.33300002 23259.00299711  1281.80371587
0.33400002 23109.53391227  1393.50496090
0.33500002 22971.65607701  1273.54867322
0.33600002 22845.73643256  1847.76325017
0.33700002 22730.71433807  1267.69199867
0.33800002 22628.43167541  1380.78696622
0.33900002 22536.00624285  1494.13728466
0.34000002 22454.99213283  1263.43019219
0.34100002 22384.25491700  1492.80603111
0.34200002 22324.70195281  1493.18776083
0.34300002 22273.73420868  1379.18968752
0.34400002 22233.35917430  1380.69167011
0.34500002 22202.06400000  1843.65948188
0.34600002 22181.18336872  1500.88984373
0.34700002 22167.10449094  1388.54749108
0.34800002 22163.20567479  1276.26825923
0.34900002 22167.53975847  2211.21219563
0.35000002 22180.05729317  1634.89210051
0.35100002 22200.59034067  1289.41034806
0.35200002 22228.26813569  1294.68553888
0.35300002 22263.83841312  1655.09382602
0.35400002 22307.03825337  1425.41981190
0.35500002 22357.03169704  1552.02521392
0.35600002 22413.34154878  1200.23449679
0.35700002 22476.56309510  1689.78809353
0.35800002 22546.71122476  1335.55450266
0.35900002 22622.58748980  1221.61978231
0.36000002 22705.15007226  1475.38072158
0.36100002 22792.65593536  1485.16953109
0.36200002 22886.96696285  1246.19541016
0.36300002 22984.78217436  1254.96916616
0.36400002 23088.68429800  1769.74773527
0.36500002 23196.96565877  2037.62155998
0.36600002 23310.82084197  1539.91289776
0.36700002 23428.72560336  1681.24542893
0.36800002 23552.42374920  1694.71473115
0.36900002 23679.32673246  1971.30404386
0.37000002 23809.44733728  1457.49538779
0.37100002 23943.96548893  1469.68067133
0.37200002 24082.64737537  1347.42418448
0.37300002 24224.16749014  1766.66861874
0.37400002 24370.08913826  1782.06285265
0.37500002 24518.19010006  1521.10858586
0.37600002 24670.27406922  1534.61447117
0.37700002 24824.04035638  1407.52315488
0.37800002 24981.52415453  1846.25963010
0.37900002 25141.32448186  1862.97223236
0.38000002 25303.59565713  1446.10056031
0.38100002 25467.62874249  1897.08375490
0.38200002 25634.03533988  2503.54818007
0.38300002 25802.24837574  1932.07244991
0.38400002 25972.98187477  1799.92772919
0.38500002 26144.18734807  1816.49822300
0.38600002 26318.14969560  1527.76866221
0.38700002 26492.50608103  2158.60949775
0.38800002 26668.12983898  1711.69399481
0.38900002 26845.14628237  1884.52935830
0.39000002 27023.77474292  1743.43891014
0.39100002 27202.47079103  2399.25803744
0.39200002 27382.59473534  1614.20403612
0.39300002 27562.80704417  1628.96197349
0.39400002 27744.53103204  2301.40895814
0.39500002 27925.65796683  1824.66257800
0.39600002 28107.18571692  2678.05278199
0.39700002 28288.63756121  2026.59809090
0.39800002 28471.26850150  1874.40605060
0.39900002 28652.79285790  1891.08441822
0.40000002 28834.42726070  2254.70814648
0.40100002 29015.57681754  1924.60330149
0.40200002 29197.56245201  2117.99128062
0.40300002 29378.00592024  2848.49158899
0.40400002 29557.93702680  2513.90266324
0.40500002 29737.50106069  2173.21668048
0.40600002 29916.52306288  2556.96534733
0.40700002 30094.60244778  2946.86361131
0.40800002 30272.07396846  3342.94528673
0.40900002 30447.74422285  2621.55090180
0.41000002 30623.24984118  2265.50813059
0.41100002 30797.31800996  1903.27434320
0.41200002 30969.53842147  2110.41929573
0.41300002 31140.95699969  2320.62422557
0.41400002 31310.94951506  3313.48138943
0.41500002 31479.92009418  1964.34710695
0.41600002 31646.18645043  1979.46905627
0.41700002 31811.71813359  2194.05430364
0.41800002 31976.38034427  2411.65871984
0.41900002 32137.38870170  2024.65558414
0.42000002 32297.40841949  2447.49772600
0.42100002 32456.15963998  2876.26500359
0.42200002 32612.77343457  2483.13668697
0.42300002 32767.03297501  2292.38173556
0.42400002 32919.17905399  2728.17709338
0.42500002 33069.80538172  2535.79279683
0.42600002 33216.91035514  2340.29752997
0.42700002 33363.16570186  2356.10687351
0.42800002 33506.57466096  2371.76299977
0.42900002 33648.34507664  2387.35019632
0.43000002 33787.72917563  2621.25215366
0.43100002 33923.34748506  2637.87962544
0.43200002 34057.45961284  2654.43852801
0.43300002 34188.68701683  4228.79889751
0.43400002 34317.88169996  2687.09026444
0.43500002 34444.05501621  2252.64130481
0.43600002 34568.58240197  2492.56775221
0.43700002 34689.51486458  2734.92148153
0.43800002 34807.00795348  3208.85821530
0.43900002 34923.03939551  3226.88899307
0.44000002 35035.49994850  3012.87796085
0.44100002 35145.95820266  3262.24799497
0.44200002 35253.30095243  2811.09835116
0.44300002 35358.06594619  2590.33203397
0.44400002 35459.33009189  3550.36559371
0.44500002 35557.06705747  2854.52147865
0.44600002 35652.64499851  2868.61195253
0.44700002 35745.56319238  2882.52235244
0.44800002 35834.47092793  2896.14207765
0.44900002 35921.66716249  3152.12644289
0.45000002 36005.59064896  2922.93398741
0.45100002 36085.25945705  2935.89684856
0.45200002 36162.82574330  2457.26412571
0.45300002 36236.81078130  2961.27231739
0.45400002 36308.31551258  2725.84691629
0.45500002 36376.53595972  3234.60173084
0.45600002 36441.36296311  2747.86110446
0.45700002 36503.14099280  3510.87226708
0.45800002 36561.16621956  2517.23641352
0.45900002 36616.36321073  3537.14085380
0.46000002 36669.26887661  2789.24806929
0.46100002 36717.64396195  3307.89270131
0.46200002 36763.75267861  2808.56701899
0.46300002 36806.13629525  3586.39009059
0.46400002 36845.06160768  2826.93748583
0.46500002 36881.64467235  3093.63250174
0.46600002 36914.23517602  2585.84229664
0.46700002 36943.69425092  3371.48169713
0.46800002 36970.60378999  3381.14672987
0.46900002 36993.50891467  3651.25950293
0.47000002 37013.02106432  3399.46108078
0.47100002 37029.76558867  3146.04903353
0.47200002 37043.03071359  2891.02346907
0.47300002 37053.75582182  4478.68767846
0.47400002 37059.90006357  2904.56980515
0.47500002 37063.95404180  2911.00308842
0.47600002 37065.08109574  4243.21068496
0.47700002 37061.92892124  4517.47873033
