# SAXS profile: number of points = 501, q_min = 0, q_max = 0.5, delta_q = 0.001
#    q    intensity    error
0.00000000 1682732.95097188 328.13292544
0.00100000 1682663.87073294 555.27909053
0.00200000 1682456.57058483 757.10548074
0.00300000 1682111.22515657 1211.12012526
0.00400000 1681627.69874131 1513.46498638
0.00500000 1681006.46848542 1664.19646967
0.00600000 1680247.21118006 2469.96350099
0.00700000 1679350.64591106 3022.83128827
0.00800000 1678316.19091664 2718.87234408
0.00900000 1677145.22589923 2767.28974103
0.01000000 1675836.86356359 3041.64403870
0.01100000 1674392.42583769 4520.85974660
0.01200000 1672811.30996131 4892.97329616
0.01300000 1671094.90630960 3860.22940383
0.01400000 1669242.46530799 4131.37528479
0.01500000 1667255.80482727 4801.69693172
0.01600000 1665133.74212197 5095.30947867
0.01700000 1662878.46533715 6734.65808672
0.01800000 1660489.39173984 6152.11347323
0.01900000 1657967.40506326 6963.46341548
0.02000000 1655313.06051043 6257.08365177
0.02100000 1652528.04155695 5998.67706282
0.02200000 1649610.50430038 7967.61909776
0.02300000 1646563.36726408 10076.96826634
0.02400000 1643386.42204041 8011.50917275
0.02500000 1640081.16973597 7675.58022491
0.02600000 1636647.64235621 6628.42325472
0.02700000 1633086.98519650 13717.93130395
0.02800000 1629399.07555472 7087.88630371
0.02900000 1625586.37911786 10972.70856285
0.03000000 1621649.30236702 8294.73656288
0.03100000 1617588.07980939 7764.42314035
0.03200000 1613403.75102188 8784.98382893
0.03300000 1609098.96301989 9027.04559869
0.03400000 1604671.83858517 11794.33855780
0.03500000 1600125.81414699 11232.88373402
0.03600000 1595460.48849252 11511.24795645
0.03700000 1590677.68683606 11786.92220457
0.03800000 1585778.75827781 10204.48678178
0.03900000 1580764.90277044 10433.04884144
0.04000000 1575635.22158255 9690.15706176
0.04100000 1570393.50164344 12861.52337480
0.04200000 1565040.14108399 14132.31312963
0.04300000 1559575.17275834 12351.83594159
0.04400000 1554002.26830137 11538.46737801
0.04500000 1548321.00716853 11751.75699045
0.04600000 1542531.84055885 15224.78997407
0.04700000 1536637.97233586 12170.17330691
0.04800000 1530639.56007512 12375.22141900
0.04900000 1524539.30123938 16007.66340813
0.05000000 1518336.77268166 12776.80453708
0.05100000 1512035.28533572 15332.03850753
0.05200000 1505633.22441464 11969.78469190
0.05300000 1499135.63426704 13357.29912401
0.05400000 1492541.18255803 16007.50492943
0.05500000 1485853.90029209 13729.29067916
0.05600000 1479071.96879949 16439.88570036
0.05700000 1472200.60873366 15369.77507262
0.05800000 1465238.48242368 14264.09729242
0.05900000 1458187.44065473 13123.68757885
0.06000000 1451050.35921902 14604.82254786
0.06100000 1443828.80230105 13427.60848889
0.06200000 1436523.07948657 19005.20122998
0.06300000 1429136.43086838 16463.65245337
0.06400000 1421666.99587084 19405.75540118
0.06500000 1414120.92910213 16799.75742359
0.06600000 1406496.30548435 15548.81738464
0.06700000 1398795.91686003 18548.03472559
0.06800000 1391022.99536543 18716.21527873
0.06900000 1383177.98329936 23237.39120738
0.07000000 1375260.44767338 16111.17689896
0.07100000 1367275.46310728 22149.86353979
0.07200000 1359221.67695362 17860.17367186
0.07300000 1351104.21932571 17996.70904466
0.07400000 1342922.10131745 22661.81152176
0.07500000 1334677.93011037 16736.86202808
0.07600000 1326371.64695261 26043.30850884
0.07700000 1318008.98418643 16962.77642184
0.07800000 1309587.81408939 17070.47795720
0.07900000 1301110.41484336 24981.32113671
0.08000000 1292581.18919137 23557.29327811
0.08100000 1283999.54772084 15793.19517795
0.08200000 1275366.70788072 20641.81113567
0.08300000 1266685.79311835 15960.24174234
0.08400000 1257957.22798111 20850.64203249
0.08500000 1249185.14325479 20948.83583583
0.08600000 1240368.66860047 16186.81188523
0.08700000 1231511.44339485 16255.95181615
0.08800000 1222612.05841339 17954.05892099
0.08900000 1213676.76643923 16384.63711651
0.09000000 1204703.87890926 18088.62959154
0.09100000 1195696.50546590 21450.79631584
0.09200000 1186655.48762877 18209.22931326
0.09300000 1177584.32121282 18264.33368029
0.09400000 1168481.14978537 18315.94288369
0.09500000 1159350.53312174 20033.57815398
0.09600000 1150193.20922416 23429.43677326
0.09700000 1141012.49070122 25159.32660277
0.09800000 1131809.23820709 23530.31516867
0.09900000 1122584.87157760 18522.65125201
0.10000000 1113339.52253390 18553.80401556
0.10100000 1104075.75211633 18581.59578204
0.10200000 1094796.25120391 23680.44402738
0.10300000 1085501.59386824 23707.35592529
0.10400000 1076194.37596819 16950.06221892
0.10500000 1066877.56156356 18659.68942967
0.10600001 1057547.31776211 27157.81639800
0.10700001 1048211.14749354 18679.12352733
0.10800001 1038866.98346533 23779.66637063
0.10900001 1029518.28298690 18685.75771567
0.11000001 1020165.67479036 18684.33521325
0.11100001 1010811.08901829 16981.62709489
0.11200001 1001456.94989229 23764.57453971
0.11300001 992101.84045395 20357.93072458
0.11400001 982751.00450248 22038.19231362
0.11500001 973403.96734463 18630.95281227
0.11600001 964062.42042746 23687.01478536
0.11700001 954728.56603847 21968.30533914
0.11800001 945401.32868992 16875.41451192
0.11900001 936084.89046542 18534.48170422
0.12000001 926779.05020468 16821.04055357
0.12100001 917487.64951002 20148.02973238
0.12200001 908208.83184400 18432.09911063
0.12300001 898946.35679809 16720.40302422
0.12400001 889699.76993559 16681.87147230
0.12500001 880471.65109639 16640.91498985
0.12600001 871264.31948368 21576.86188879
0.12700001 862077.49441020 23172.64414179
0.12800001 852911.39544036 26406.13804734
0.12900001 843769.74578973 16453.51081839
0.13000001 834652.54515907 21321.20027106
0.13100001 825560.03948059 19615.30746268
0.13200001 816496.03093507 17918.00624353
0.13300001 807460.93194062 17852.96204685
0.13400001 798453.99714616 19402.43304539
0.13500001 789478.54668051 20936.97204511
0.13600001 780533.90355344 19247.96696918
0.13700001 771622.94660104 17569.85532258
0.13800001 762744.55936830 17493.54729403
0.13900001 753903.81879966 20581.57522382
0.14000001 745097.59355870 17334.69633166
0.14100001 736329.23874201 26662.48299233
0.14200001 727598.03603598 20289.07219180
0.14300001 718908.70861545 21739.80037395
0.14400001 710255.17890584 21627.27121784
0.14500001 701646.79840060 16902.67217081
0.14600001 693078.24975947 19867.08896657
0.14700001 684555.43179254 19756.27069356
0.14800001 676074.39318295 18132.31608063
0.14900001 667637.78016047 19528.40599106
0.15000001 659247.72865490 16425.15793442
0.15100001 650904.09233435 22260.92100822
0.15200001 642608.83313102 19172.23544114
0.15300001 634361.57458582 14653.75306443
0.15400001 626161.20484265 16014.07356957
0.15500001 618012.50051614 15907.64251401
0.15600001 609912.66419854 15799.78831173
0.15700001 601867.08587279 17117.10073010
0.15800001 593869.01278195 18412.90961037
0.15900001 585926.47557274 16874.68329299
0.16000001 578034.64089270 13959.53723648
0.16100001 570200.14308231 26326.14184882
0.16200001 562417.43925721 22001.77126236
0.16300001 554691.03578914 17739.02016196
0.16400001 547019.79088021 14892.61450979
0.16500001 539405.19527637 16117.42799578
0.16600001 531846.64588011 14655.03501914
0.16700001 524345.19461637 19820.24929231
0.16800001 516900.32454124 15724.10861498
0.16900001 509515.93581802 12992.65697685
0.17000001 502189.19114138 16745.49936933
0.17100001 494921.43634533 15322.76839281
0.17200001 487713.28676842 16453.00850609
0.17300001 480564.88525676 17559.84173654
0.17400001 473477.71201745 19886.06484387
0.17500001 466450.34284055 18471.43444885
0.17600001 459482.10259162 12199.25039997
0.17700001 452577.53237003 15708.96689051
0.17800001 445733.68431558 15558.33498589
0.17900001 438951.34503832 13036.85556342
0.18000001 432231.99477635 14082.11905498
0.18100001 425575.85515129 12780.04353388
0.18200001 418979.49343032 13801.18516553
0.18300001 412448.45754599 17075.36694903
0.18400001 405978.89227392 11265.91479281
0.18500001 399573.59520844 12262.91421627
0.18600001 393231.12906433 14339.17379876
0.18700001 386951.84517483 13094.45105936
0.18800001 380735.58335675 14032.01058757
0.18900001 374585.14344585 12810.81251113
0.19000001 368494.38454224 12668.83753915
0.19100001 362472.23467340 11483.12093703
0.19200001 356510.69069222 11353.08348154
0.19300001 350615.29857391 12243.48680474
0.19400001 344782.84360924 17144.32770861
0.19500001 339014.84184812 12957.14786773
0.19600001 333309.71333013 12804.09324265
0.19700001 327669.31181277 10704.95692281
0.19800001 322092.82528289 11537.36554687
0.19900001 316581.02538000 11396.91745230
0.20000001 311131.12223139 11256.72453434
0.20100001 305746.62877891 9264.12328984
0.20200001 300424.65148913 9147.93107021
0.20300001 295167.20416066 13548.17531132
0.20400001 289973.08778252 10700.00744492
0.20500001 284841.36499546 14962.71761045
0.20600001 279773.44544762 12161.75224847
0.20700001 274768.31883485 9430.04914816
0.20800001 269825.90043780 12688.56356788
0.20900001 264948.53718754 10015.05517911
0.21000001 260131.07553916 9879.77871602
0.21100001 255376.16887732 12181.44383131
0.21200001 250683.34507500 11213.06655530
0.21300001 246052.16006364 10267.75712487
0.21400001 241483.64502811 11681.77188051
0.21500001 236976.94423088 12284.88536973
0.21600001 232529.81000988 9839.49937577
0.21700001 228144.45429976 9698.42121082
0.21800001 223819.57921270 11028.71028715
0.21900001 219553.88760121 7969.80649675
0.22000001 215348.16544294 9994.30883076
0.22100001 211204.46504154 10549.66352765
0.22200001 207118.93436667 8313.75441859
0.22300001 203092.39224483 6823.90470210
0.22400001 199122.67252638 7392.42956710
0.22500001 195214.78760094 7941.33793513
0.22600001 191362.90969239 7167.49812147
0.22700001 187569.88915828 8980.84671759
0.22800001 183833.58975295 6946.15251730
0.22900001 180153.68842655 6836.83279911
0.23000001 176530.77165488 6728.47067983
0.23100001 172965.71835415 6621.12801173
0.23200001 169454.24412689 9475.88177972
0.23300001 165999.63650348 6991.90502020
0.23400001 162599.96777240 8024.30878908
0.23500001 159253.73325442 7328.85715100
0.23600001 155962.75404190 6098.92378527
0.23700001 152725.30986985 5997.52320226
0.23800001 149541.30316105 5897.16156908
0.23900001 146410.41365805 5270.77514100
0.24000001 143331.89193163 5699.59295225
0.24100001 140306.46363963 8148.99979365
0.24200001 137332.21592418 5005.75950722
0.24300001 134409.29989588 7379.07091333
0.24400001 131536.59900493 4833.97024210
0.24500001 128714.67704424 5224.52898837
0.24600001 125942.72714561 5599.41391378
0.24700001 123220.96738617 6875.73030541
0.24800001 120547.17845186 5853.16852662
0.24900001 117921.87185059 4864.27744395
0.25000001 115345.18412513 4342.74638776
0.25100001 112815.61454273 5117.31651775
0.25200001 110334.14994598 4605.89930740
0.25300001 107899.42267758 4933.16183821
0.25400001 105510.19122523 5246.49450689
0.25500001 103166.76755176 4357.76446756
0.25600001 100869.14496571 4277.35629464
0.25700001 98616.01567218  4961.37198321
0.25800001 96407.10293995  6741.74902757
0.25900001 94242.35462454  4410.54240511
0.26000001 92121.49499218  5409.83504938
0.26100001 90041.30293942  3538.62337295
0.26200001 88006.36749406  3819.03649811
0.26300001 86011.69770322  3406.06339021
0.26400001 84058.39718220  3675.45359071
0.26500001 82146.84933946  3605.42538811
0.26600001 80275.06986951  3536.51837045
0.26700001 78444.18082796  4099.49308406
0.26800001 76652.73092783  3092.93783930
0.26900001 74899.75141145  3336.78408328
0.27000001 73185.96309090  2975.00954043
0.27100001 71510.09396868  4668.17915519
0.27200001 69872.26428686  4291.90403693
0.27300001 68271.00854962  4489.50173468
0.27400001 66705.28625485  3026.75250705
0.27500001 65178.08408846  2968.21008986
0.27600001 63684.62654721  3439.92526575
0.27700001 62227.91688232  2854.39468248
0.27800001 60805.05090201  4071.50640109
0.27900001 59416.99248757  3244.16794336
0.28000001 58062.44278934  3181.53170322
0.28100001 56741.13441932  2640.16510949
0.28200001 55453.24367986  3060.18739731
0.28300001 54197.72670972  3232.35257396
0.28400001 52974.31542101  2717.58250972
0.28500001 51782.57515448  2221.47257927
0.28600001 50621.19830622  2179.24269023
0.28700001 49490.97463958  2351.81122619
0.28800001 48390.22096660  2517.25941383
0.28900001 47320.91259308  2264.30577476
0.29000001 46279.10808855  2222.09148005
0.29100001 45267.58233991  1982.72020034
0.29200001 44283.80380052  2335.52792299
0.29300001 43327.90697638  2483.98902454
0.29400001 42399.41969781  2063.79185148
0.29500001 41499.03067719  2026.81275422
0.29600001 40624.35395002  2171.77806497
0.29700001 39775.60071298  1955.76637964
0.29800001 38953.33693661  1921.76296874
0.29900001 38156.35509129  2403.85048455
0.30000001 37384.14102288  2194.26226121
0.30100001 36637.50102871  1825.64676269
0.30200001 35913.64626677  2285.18542014
0.30300001 35214.01248293  2569.21447238
0.30400001 34538.52837265  2528.22039657
0.30500001 33884.65458057  1710.83629077
0.30600001 33253.60153848  1531.32842334
0.30700001 32645.21030030  1659.02966601
0.30800001 32058.33923661  1634.49450336
0.30900001 31492.73706778  1610.85357728
0.31000001 30948.81292615  1732.51462963
0.31100001 30423.91402579  1708.60709258
0.31200001 29920.33769552  1404.75992131
0.31300001 29436.00497175  1386.43589981
0.31400001 28972.53563645  1916.53332309
0.31500001 28527.11064712  1893.05915217
0.31600002 28100.48684946  1469.79603425
0.31700002 27691.86372798  1849.26274731
0.31800002 27301.61474691  1828.93525849
0.31900002 26929.24937227  2197.42685282
0.32000002 26573.83988367  1663.38958628
0.32100002 26235.81719535  2154.22305191
0.32200002 25914.41450387  1506.66413060
0.32300002 25608.60012831  1493.49363020
0.32400002 25319.06857563  1234.30465151
0.32500002 25044.69341656  1592.09123588
0.32600002 24786.15797146  1580.48943789
0.32700002 24542.17973833  1448.97036036
0.32800002 24313.68310768  1319.86835000
0.32900002 24098.16029396  1192.85899104
0.33000002 23898.32110922  1305.20686919
0.33100002 23709.59192971  1180.73773401
0.33200002 23536.85439610  1410.79911931
0.33300002 23375.74489117  1639.57482431
0.33400002 23228.17782870  1517.38078852
0.33500002 23092.41920642  1280.24378143
0.33600002 22968.94220580  1161.08008349
0.33700002 22856.59690150  1274.71246956
0.33800002 22757.13150061  1388.64022993
0.33900002 22667.87416600  1156.06163721
0.34000002 22590.04786738  1386.57720377
0.34100002 22522.90450636  1502.05257266
0.34200002 22467.09378227  1387.11843581
0.34300002 22420.02322885  1272.56057874
0.34400002 22383.83651678  1505.87267298
0.34500002 22356.80656967  1392.38197910
0.34600002 22340.43246446  1279.10152133
0.34700002 22330.97640172  1165.67702338
0.34800002 22331.96295199  1169.07831591
0.34900002 22341.22744745  1407.49739585
0.35000002 22359.01022299  1765.80291599
0.35100002 22384.90488317  1654.69224733
0.35200002 22417.95882857  1424.43717143
0.35300002 22459.13487142  1431.09614179
0.35400002 22508.09280857  1318.41159871
0.35500002 22563.90977723  1445.89540701
0.35600002 22626.26010790  1211.63628617
0.35700002 22695.59335795  1584.37944736
0.35800002 22771.97386836  1348.89793598
0.35900002 22854.16300916  1234.12486095
0.36000002 22943.09487905  1242.36864655
0.36100002 23037.14115638  1501.10018885
0.36200002 23138.01421723  1259.86493380
0.36300002 23242.59560215  2030.47324798
0.36400002 23353.26753196  2045.74633270
0.36500002 23468.42726204  1546.10006126
0.36600002 23589.13082980  1428.43988506
0.36700002 23714.06869170  1963.52498068
0.36800002 23844.82236452  1583.77317647
0.36900002 23978.78811432  1596.98736406
0.37000002 24116.02332375  2818.31919923
0.37100002 24257.67603295  1488.93622543
0.37200002 24403.61573654  1501.92060165
0.37300002 24552.37550566  1515.12716423
0.37400002 24705.58796731  1806.59620569
0.37500002 24860.93986671  1402.15707490
0.37600002 25020.38600064  1414.90289536
0.37700002 25181.45500926  2141.68284999
0.37800002 25346.25944320  1440.93491761
0.37900002 25513.40416132  1599.69051670
0.38000002 25683.02548346  1614.56347350
0.38100002 25854.35050086  2518.47240160
0.38200002 26028.12813102  2242.97404795
0.38300002 26203.61492949  1660.26112059
0.38400002 26381.66709963  1523.54134718
0.38500002 26560.19678883  1845.40256031
0.38600002 26741.36432308  1707.56989975
0.38700002 26922.91874516  2193.67952328
0.38800002 27105.71155201  1739.78017839
0.38900002 27289.88135551  2075.39557541
0.39000002 27475.61455570  1772.58935704
0.39100002 27661.30078824  1951.78147609
0.39200002 27848.42736738  1641.66487108
0.39300002 28035.58556865  1988.28382273
0.39400002 28224.18745395  2173.96814164
0.39500002 28412.09214970  1687.67835365
0.39600002 28600.38023555  2043.78326846
0.39700002 28788.48264331  1718.67249523
0.39800002 28977.80284918  2081.18589923
0.39900002 29165.89673823  1749.95388720
0.40000002 29353.83316190  1765.63314834
0.40100002 29541.46012508  2315.75516892
0.40200002 29729.68776654  2336.30762383
0.40300002 29916.33962910  1994.22329416
0.40400002 30102.43260751  2377.33972782
0.40500002 30287.96569156  2028.99091781
0.40600002 30472.94501209  2790.56007170
0.40700002 30656.81370139  1876.19708742
0.40800002 30839.96491460  2459.64151831
0.40900002 31021.29613669  2670.93372392
0.41000002 31202.30109832  2500.70854001
0.41100002 31381.79234277  2133.33434454
0.41200002 31559.20432311  2737.12992064
0.41300002 31735.80758150  2759.11124187
0.41400002 31910.80575476  2185.09252759
0.41500002 32084.70549955  2602.71143345
0.41600002 32255.79063587  2421.11975985
0.41700002 32426.01851602  2439.73374875
0.41800002 32595.21987907  2253.47063312
0.41900002 32760.63727572  3715.05644310
0.42000002 32925.02256745  2287.13680102
0.42100002 33087.90694851  2303.91107000
0.42200002 33248.52800900  2742.50496278
0.42300002 33406.65251099  2549.59584045
0.42400002 33562.58401330  2139.61483223
0.42500002 33716.80054691  2154.50365704
0.42600002 33867.34370831  2819.96450750
0.42700002 34016.94539944  2839.05439757
0.42800002 34163.58738691  3517.48312404
0.42900002 34308.39042667  2655.46954486
0.43000002 34450.68355056  2449.96047679
0.43100002 34589.09475807  2465.51079119
0.43200002 34725.74245711  2255.43707947
0.43300002 34859.47869641  4311.76912428
0.43400002 34990.99051978  2739.79468753
0.43500002 35119.26597113  2526.48011369
0.43600002 35245.79368044  2310.36188524
0.43700002 35368.63517895  2556.09138551
0.43800002 35487.81511422  2336.87273601
0.43900002 35605.36784849  2584.94982830
0.44000002 35719.28820910  2362.83102701
0.44100002 35830.95027787  2375.59211600
0.44200002 35939.35656561  3821.07257114
0.44300002 36045.03165013  2880.71906600
0.44400002 36147.06005190  3860.50619649
0.44500002 36245.41300842  2909.78189421
0.44600002 36341.52082386  2680.36899539
0.44700002 36434.76141823  3917.46573334
0.44800002 36523.71801322  2951.84702972
0.44900002 36610.96666752  3459.73651404
0.45000002 36694.77063044  2730.64148588
0.45100002 36774.14592364  2991.94465414
0.45200002 36851.25479648  2754.44717030
0.45300002 36924.53350055  3017.47302067
0.45400002 36995.29142575  3787.39313921
0.45500002 37062.57060117  2788.58794419
0.45600002 37126.39592931  3308.51893004
0.45700002 37186.88224392  3065.68671748
0.45800002 37243.52250244  4102.74663331
0.45900002 37297.19691563  3345.55872189
0.46000002 37348.33373933  3099.16488057
0.46100002 37394.82561483  3628.04615310
0.46200002 37438.93547019  3900.20128746
0.46300002 37479.25777191  3912.83469684
0.46400002 37515.84816355  2878.40358677
0.46500002 37550.00183556  2624.74525271
0.46600002 37579.98398462  3422.22140376
0.46700002 37606.68307389  3695.98498768
0.46800002 37630.71474242  2912.05299836
0.46900002 37650.62187365  3185.24276148
0.47000002 37666.89323341  3459.51597299
0.47100002 37680.35640260  4001.65403962
0.47200002 37690.19161779  2674.11922203
0.47300002 37697.37840489  4020.42559744
0.47400002 37699.71942645  4029.15770467
0.47500002 37699.94620969  3230.13154435
0.47600002 37697.08742656  3236.67207986
0.47700002 37689.74648697  3242.82594144
