# SAXS profile: number of points = 501, q_min = 0, q_max = 0.5, delta_q = 0.001
#    q    intensity    error
0.00000000 1646666.22097351 321.09991309
0.00100000 1646598.30916618 642.17335583
0.00200000 1646394.51630741 1037.22857812
0.00300000 1646055.02027075 1283.92296155
0.00400000 1645579.68554766 1357.60329216
0.00500000 1644968.95116791 1628.51932611
0.00600000 1644222.57297811 2417.00728068
0.00700000 1643341.20344775 1972.00952609
0.00800000 1642324.25026525 2217.13783147
0.00900000 1641173.10701081 3938.81562520
0.01000000 1639886.94904892 3517.55765760
0.01100000 1638466.96075135 3244.16472354
0.01200000 1636912.64469513 4468.77171595
0.01300000 1635225.36062844 3777.37074965
0.01400000 1633404.34495065 5145.22391469
0.01500000 1631451.38714361 4698.58020420
0.01600000 1629365.35699767 7063.29913834
0.01700000 1627148.32925633 6150.62096050
0.01800000 1624799.90721824 5093.74793834
0.01900000 1622320.79373531 6813.74764114
0.02000000 1619711.54905731 7653.13741549
0.02100000 1616973.92418236 8004.02128759
0.02200000 1614105.98796795 6682.39909378
0.02300000 1611110.75859815 8699.99849244
0.02400000 1607988.01074377 6029.95531524
0.02500000 1604739.02623710 7510.17898578
0.02600000 1601364.10271515 8431.18238642
0.02700000 1597864.19791337 7382.13293247
0.02800000 1594239.20125262 6934.94084348
0.02900000 1590491.71389370 8588.65564937
0.03000000 1586621.99529534 11066.68892587
0.03100000 1582630.26415491 10635.27586448
0.03200000 1578517.58944804 15627.32485530
0.03300000 1574286.59682609 8831.74821534
0.03400000 1569935.33888868 8242.16090946
0.03500000 1565467.37190866 10989.58145828
0.03600000 1560882.18997593 11261.76552112
0.03700000 1556181.58464746 11531.30607553
0.03800000 1551367.05568976 13613.24654369
0.03900000 1546439.56707847 11134.36539860
0.04000000 1541398.33548096 12323.48026323
0.04100000 1536247.06904254 10646.19268209
0.04200000 1530986.12966588 15799.77759115
0.04300000 1525615.64414120 12082.87646246
0.04400000 1520139.26009211 11287.03453038
0.04500000 1514556.48634413 13585.57231376
0.04600000 1508867.71836151 14892.52507253
0.04700000 1503076.21005198 10822.14921569
0.04800000 1497182.03543826 19807.71925046
0.04900000 1491187.98063571 12302.30141289
0.05000000 1485093.37963737 15905.35083657
0.05100000 1478901.86381814 14996.06559769
0.05200000 1472611.38199764 11707.26103245
0.05300000 1466227.59694448 16627.02172447
0.05400000 1459748.54740881 16860.09650882
0.05500000 1453178.46497089 14648.03961023
0.05600000 1446515.61805028 18551.56366719
0.05700000 1439765.03976752 13778.55207374
0.05800000 1432925.33995151 17753.94579097
0.05900000 1425998.72676011 17967.58479637
0.06000000 1418987.51239389 14282.10997949
0.06100000 1411893.51945902 18382.85448241
0.06200000 1404717.12417014 15929.49293269
0.06300000 1397461.32007676 16098.75515999
0.06400000 1390124.29164102 16264.45497284
0.06500000 1382712.57761922 19164.39722227
0.06600000 1375223.59224838 15203.09752364
0.06700000 1367660.58377813 16740.16632887
0.06800000 1360026.22075150 18299.15365678
0.06900000 1352321.47185294 29818.68985044
0.07000000 1344545.79829054 18615.23744906
0.07100000 1336704.07110288 18767.32603730
0.07200000 1328795.10338109 20370.42988912
0.07300000 1320823.71000402 19059.48702840
0.07400000 1312789.08470445 19199.54126357
0.07500000 1304693.80785069 16360.86111732
0.07600000 1296537.77918921 17970.01446201
0.07700000 1288326.68161199 24117.47661061
0.07800000 1280058.47101682 16685.56295219
0.07900000 1271735.43828795 22891.23896287
0.08000000 1263361.35038763 21489.77757820
0.08100000 1254936.18552470 18522.85896740
0.08200000 1246461.40905665 21725.82337935
0.08300000 1237939.28187275 20277.44638874
0.08400000 1229371.12990417 20376.82743462
0.08500000 1220760.42127861 22046.93424329
0.08600000 1212106.36348406 18981.58654337
0.08700000 1203412.81528097 25416.07985221
0.08800000 1194677.88138803 25518.32074488
0.08900000 1185908.19940273 17610.73758830
0.09000000 1177102.12976872 17674.18930873
0.09100000 1168262.46583310 27407.43873608
0.09200000 1159389.87498913 22642.88532245
0.09300000 1150488.32242733 17844.07471938
0.09400000 1141555.47071456 19520.59946664
0.09500000 1132596.22623741 16309.38642440
0.09600000 1123611.33603037 17983.40027853
0.09700000 1114603.67250033 18023.14223165
0.09800000 1105573.92552295 21343.10563572
0.09900000 1096524.53890616 16447.86885701
0.10000000 1087454.60214971 23064.91319627
0.10100000 1078367.05544070 24748.52508633
0.10200000 1069264.16637041 21476.17179171
0.10300000 1060147.15457343 23153.61494505
0.10400000 1051018.09655306 21519.59653932
0.10500000 1041880.14377955 18222.48457206
0.10600001 1032729.11799033 19890.36374841
0.10700001 1023573.47360329 18240.08015795
0.10800001 1014409.61148633 21561.27730685
0.10900001 1005242.10257656 19903.79456780
0.11000001 996070.95576933 16584.58219419
0.11100001 986898.25058424 18237.88052932
0.11200001 977726.76731590 19886.96338343
0.11300001 968555.11488648 19874.75189319
0.11400001 959387.50575538 19859.32230420
0.11500001 950224.27365876 28107.63533836
0.11600001 941066.62114932 19818.86397470
0.11700001 931917.29430106 16494.93688596
0.11800001 922774.82002114 23060.14383842
0.11900001 913643.35635572 18090.13930792
0.12000001 904522.93871964 18058.80132220
0.12100001 895416.61079185 21301.96217423
0.12200001 886323.71046979 22893.74251999
0.12300001 877247.02495459 19580.15451949
0.12400001 868186.44179782 19534.19586085
0.12500001 859144.45517669 17861.61406477
0.12600001 850123.34446115 19433.82057017
0.12700001 841122.98155229 17764.51820756
0.12800001 832143.42052431 20932.56872983
0.12900001 823188.32174179 19262.60763664
0.13000001 814257.16759993 20800.20032675
0.13100001 805351.32861586 19135.14846990
0.13200001 796473.68176330 20656.54591029
0.13300001 787625.14721312 22163.77268744
0.13400001 778804.14074930 25233.25534991
0.13500001 770015.05331543 20420.80017673
0.13600001 761256.43087620 17208.20243134
0.13700001 752531.13916376 17135.13484674
0.13800001 743838.64147790 21712.65096862
0.13900001 735183.29383528 16982.73488847
0.14000001 726562.40998939 16903.47526558
0.14100001 717978.88554123 19880.83627828
0.14200001 709432.53497528 15217.32859295
0.14300001 700927.29865765 21196.04251117
0.14400001 692458.16756268 18073.15902589
0.14500001 684033.60228876 16478.37025646
0.14600001 675648.29774688 14898.04566812
0.14700001 667308.84342898 25184.23693911
0.14800001 659010.41114400 25039.10175273
0.14900001 650756.10198885 14642.01298557
0.15000001 642547.81607128 29107.41744140
0.15100001 634385.61669009 15910.39201732
0.15200001 626271.05687010 17247.50572006
0.15300001 618204.16451828 14280.51687426
0.15400001 610183.88411457 18442.80876770
0.15500001 602214.54909058 14091.82111375
0.15600001 594293.01276533 16794.72133337
0.15700001 586425.97671400 13898.29630408
0.15800001 578605.40393995 15179.71348883
0.15900001 570840.07778673 19180.22751895
0.16000001 563124.58997339 14959.40543876
0.16100001 555465.56661186 16197.37668699
0.16200001 547858.02675017 17413.66820228
0.16300001 540305.98929269 13291.52796406
0.16400001 532808.45913577 17143.11298201
0.16500001 525366.69878721 15697.95770088
0.16600001 517980.74727968 14272.96016516
0.16700001 510650.53821777 14155.23358773
0.16800001 503376.28683383 15312.70736850
0.16900001 496161.65478202 13917.33507379
0.17000001 489003.92041460 20068.72184145
0.17100001 481904.40794304 12433.13431204
0.17200001 474863.74603884 17251.80070827
0.17300001 467882.08298358 13432.89523682
0.17400001 460960.40089188 15730.27442331
0.17500001 454097.91657256 15584.64123280
0.17600001 447293.60533772 13063.21036085
0.17700001 440552.26641083 12939.02067560
0.17800001 433870.28153539 12814.35937040
0.17900001 427249.21464286 17303.59401035
0.18000001 420690.05122194 15990.42960225
0.18100001 414193.14337629 12438.22068313
0.18200001 407755.06444102 19027.89098098
0.18300001 401381.35978925 12185.93865886
0.18400001 395068.15115813 12059.45588380
0.18500001 388818.01596582 11932.82547372
0.18600001 382629.94628922 11806.04755051
0.18700001 376503.61106534 11679.14256703
0.18800001 370439.94433351 12602.36750164
0.18900001 364440.54981374 14541.17862460
0.19000001 358499.76880351 11298.12074766
0.19100001 352626.97674526 12186.78889214
0.19200001 346812.85530575 11044.25589907
0.19300001 341064.24245247 11909.96390922
0.19400001 335377.60981219 12752.73421572
0.19500001 329754.25053674 10664.25296630
0.19600001 324192.44742015 10537.87600137
0.19700001 318694.55487195 11358.27447240
0.19800001 313259.14686849 11220.94317112
0.19900001 307887.39386409 13854.93337867
0.20000001 302576.33241761 10947.21222425
0.20100001 297329.70647642 13513.63579804
0.20200001 292144.21609652 10674.95016070
0.20300001 287022.09233370 12296.02701674
0.20400001 281961.95036023 13872.52861342
0.20500001 276963.24171243 9413.98103078
0.20600001 272027.15239494 8446.44348111
0.20700001 267152.55297396 10002.19205614
0.20800001 262339.64699142 10691.65281853
0.20900001 257590.38970607 8925.50742524
0.21000001 252899.71389003 8804.70395530
0.21100001 248270.50273529 9474.00283225
0.21200001 243702.07213551 7786.28157282
0.21300001 239194.21088441 10749.38834533
0.21400001 234747.53715387 10598.85180357
0.21500001 230361.67115357 9702.83404771
0.21600001 226034.12914450 8093.15237665
0.21700001 221767.01074318 13053.20686949
0.21800001 217559.13947991 9290.86349077
0.21900001 213409.22485798 8451.00570395
0.22000001 209317.98400299 11796.11554624
0.22100001 205287.22525807 8203.27790919
0.22200001 201313.78224098 11447.70876843
0.22300001 197397.77487138 6632.56554930
0.22400001 193537.70751265 8491.46731865
0.22500001 189738.13797110 8361.76013579
0.22600001 185992.89450786 7599.67002897
0.22700001 182305.60469020 6858.33717277
0.22800001 178673.52537329 7364.92306417
0.22900001 175096.92318295 9665.35061678
0.23000001 171575.66626242 7134.11654058
0.23100001 168111.20393290 6435.29719089
0.23200001 164699.07400508 7483.10278132
0.23300001 161342.38989398 7928.36541436
0.23400001 158039.48326910 6127.98125358
0.23500001 154788.79305468 9315.19000660
0.23600001 151591.94593818 6466.91271959
0.23700001 148447.73480374 5829.54282147
0.23800001 145355.09011001 7295.37231768
0.23900001 142314.81761453 6148.00041175
0.24000001 139325.21496014 6547.58878676
0.24100001 136387.98445527 4950.88406991
0.24200001 133500.41094675 5839.30825102
0.24300001 130662.91869027 4782.26305028
0.24400001 127874.33156491 5169.32009804
0.24500001 125135.36158070 5540.99407291
0.24600001 122445.29490715 4990.25823001
0.24700001 119803.97320818 4902.37881559
0.24800001 117209.30714292 4377.76782889
0.24900001 114662.10612131 6879.72669274
0.25000001 112162.27579758 6756.65581369
0.25100001 109708.11453336 4146.96692555
0.25200001 107301.08866525 6108.11476124
0.25300001 104939.64497877 5197.66086170
0.25400001 102622.18082177 5495.41804300
0.25500001 100349.66096146 5009.45531220
0.25600001 98121.51551213  5295.61844274
0.25700001 95936.72921400  4084.02675587
0.25800001 93794.96693765  4372.72156552
0.25900001 91696.34469353  3576.15761225
0.26000001 89640.41059178  3860.36446479
0.26100001 87624.05341666  4476.71310088
0.26200001 85651.49440257  4054.74193688
0.26300001 83718.11423607  3315.23748062
0.26400001 81825.13095615  4553.56875318
0.26500001 79972.88878752  4148.19393770
0.26600001 78158.84780097  4382.36680357
0.26700001 76385.01261341  3070.67765236
0.26800001 74649.22467454  3614.51562978
0.26900001 72950.95655957  3249.96526852
0.27000001 71290.78997215  3767.36197436
0.27100001 69667.23316908  3410.90789737
0.27200001 68080.81425443  3066.70042322
0.27300001 66529.85704458  3007.81497933
0.27400001 65013.49463219  3218.16813659
0.27500001 63534.40931925  3156.38960436
0.27600001 62087.93204029  3095.70443804
0.27700001 60677.56638660  2530.25463807
0.27800001 59299.62132618  2729.85819695
0.27900001 57955.79563148  2677.55788490
0.28000001 56644.12490381  3820.07996431
0.28100001 55364.86919773  2341.93407791
0.28200001 54118.00896878  2297.30958946
0.28300001 52902.50282097  2704.37607221
0.28400001 51718.22344324  2432.04957253
0.28500001 50564.52861672  2819.98389443
0.28600001 49440.27692742  2341.24442471
0.28700001 48346.30913678  2506.27278428
0.28800001 47280.70284783  2254.58042201
0.28900001 46245.44198325  2816.34755009
0.29000001 45237.19392200  2764.44505143
0.29100001 44258.24776298  2326.21361253
0.29200001 43305.78269046  2283.94708721
0.29300001 42380.62131815  2616.57968404
0.29400001 41481.90448644  2019.13179646
0.29500001 40610.74992973  2884.98781157
0.29600001 39763.80510660  2834.36416217
0.29700001 38942.38106987  1740.72451623
0.29800001 38146.45284731  1881.95534031
0.29900001 37375.09896226  2354.63134609
0.30000001 36627.54797993  2149.85403046
0.30100001 35904.57422160  1951.77274708
0.30200001 35203.79288182  2560.01993956
0.30300001 34526.60111706  1731.85439402
0.30400001 33872.48857172  2169.53299573
0.30500001 33239.49045901  1678.26195273
0.30600001 32628.48925250  1652.79620133
0.30700001 32039.38233713  2220.32930108
0.30800001 31470.84981522  1750.40874959
0.30900001 30923.02709950  2156.88124231
0.31000001 30396.32465422  1417.98861225
0.31100001 29887.62820142  1958.23749247
0.31200001 29399.82448165  1656.38618972
0.31300001 28930.29302873  1362.61686617
0.31400001 28480.95063743  1480.29747947
0.31500001 28049.43447275  1994.31488544
0.31600002 27635.62891001  1708.29648196
0.31700002 27239.30458758  1689.10935745
0.31800002 26860.76438211  1413.81640019
0.31900002 26499.49247234  2289.55625802
0.32000002 26154.41959245  1259.33536301
0.32100002 25826.22842076  1995.85102686
0.32200002 25514.18619659  1359.77861773
0.32300002 25217.08654957  1470.66055721
0.32400002 24935.57091679  1458.73096771
0.32500002 24668.82507164  1809.45840469
0.32600002 24417.29057933  1916.26905540
0.32700002 24179.85609454  1546.54366904
0.32800002 23957.26475194  1300.52017864
0.32900002 23747.21211059  1293.03576065
0.33000002 23552.16120703  1169.36485930
0.33100002 23368.01810508  1280.10009241
0.33200002 23199.09626363  1506.43338722
0.33300002 23041.52088455  1269.81827608
0.33400002 22896.91522684  1725.85506695
0.33500002 22763.83000168  1606.21592098
0.33600002 22642.43238335  1487.94751454
0.33700002 22531.71226509  1142.35786594
0.33800002 22433.52531394  1597.04274273
0.33900002 22344.94493106  1367.51069454
0.34000002 22267.75863798  1366.79508993
0.34100002 22200.65966238  1708.34084192
0.34200002 22144.41498574  1708.99530746
0.34300002 22096.76536667  1368.23177630
0.34400002 22059.34083888  1598.19931947
0.34500002 22030.90769327  1143.40416343
0.34600002 22012.72788068  1604.06755663
0.34700002 22001.19341107  1378.15482054
0.34800002 21999.81170611  1151.69019736
0.34900002 22006.37482696  1501.93515307
0.35000002 22020.95684330  1275.34377598
0.35100002 22043.53995544  1280.28886125
0.35200002 22073.03574247  1285.64402771
0.35300002 22110.23556078  1291.45892027
0.35400002 22155.01999284  1533.68133165
0.35500002 22206.46022224  1660.15504485
0.35600002 22264.10744525  1311.46731118
0.35700002 22328.47320734  1558.75078843
0.35800002 22399.65273585  1447.46562835
0.35900002 22476.48373606  2063.34130470
0.36000002 22559.88299241  1710.26481066
0.36100002 22648.08501629  1229.79107464
0.36200002 22742.95016639  1733.69517330
0.36300002 22841.25958039  2120.12581468
0.36400002 22945.53152741  2010.02865701
0.36500002 23054.22795822  1392.24489234
0.36600002 23168.23208680  1913.11685519
0.36700002 23286.19857047  1799.55751077
0.36800002 23409.90622382  1295.73837087
0.36900002 23536.83960976  2220.70092237
0.37000002 23666.77822461  1448.76189765
0.37100002 23801.15062236  1460.91469440
0.37200002 23939.44975950  1741.23596074
0.37300002 24080.60005456  1486.01389976
0.37400002 24226.09690207  1771.53341988
0.37500002 24373.69465490  1787.07937675
0.37600002 24525.13431403  1386.89641116
0.37700002 24678.32659680  1539.18730276
0.37800002 24835.07057402  1553.06121192
0.37900002 24994.00996433  2136.98795319
0.38000002 25155.54306314  1581.40328958
0.38100002 25318.70625945  1450.76193739
0.38200002 25484.15576125  2196.09722676
0.38300002 25651.44714427  1625.27576806
0.38400002 25821.01935111  2684.09508870
0.38500002 25991.06399073  2558.30054981
0.38600002 26163.98836347  1670.70155610
0.38700002 26337.22116916  1532.82634466
0.38800002 26511.67620561  2629.82584580
0.38900002 26687.37449554  1873.45377834
0.39000002 26864.81859322  1733.18385365
0.39100002 27042.16241581  1749.08714792
0.39200002 27220.85721560  1925.60353066
0.39300002 27399.75149192  2105.12300686
0.39400002 27580.07655644  2124.35549741
0.39500002 27759.83538381  2143.61458990
0.39600002 27939.96153667  2329.35470367
0.39700002 28119.90788623  2350.26201248
0.39800002 28300.99591203  2032.57762270
0.39900002 28481.10298174  2050.63951184
0.40000002 28661.27426602  2413.56602029
0.40100002 28840.82536543  2260.83240751
0.40200002 29021.31791027  2280.64037603
0.40300002 29200.29360211  2654.30681419
0.40400002 29378.66243246  2677.13074100
0.40500002 29556.62859254  2159.99851988
0.40600002 29734.09403302  1996.79317940
0.40700002 29910.58609837  2196.63354714
0.40800002 30086.58595513  1845.81213580
0.40900002 30260.57997382  2233.23090788
0.41000002 30434.56956164  2063.92043262
0.41100002 30607.07186771  2269.82055726
0.41200002 30777.80468971  2097.35359996
0.41300002 30947.68195474  3074.96182472
0.41400002 31116.05941765  2130.67226958
0.41500002 31283.59416255  2147.30600506
0.41600002 31448.25794256  2163.79749027
0.41700002 31612.33255119  2973.14001732
0.41800002 31775.50759131  2596.21797077
0.41900002 31934.96234823  2615.47354025
0.42000002 32093.52102482  2634.71773338
0.42100002 32250.85859884  2245.62739065
0.42200002 32406.09633581  2467.40029193
0.42300002 32558.82258318  2899.03770018
0.42400002 32709.65504759  3336.38497295
0.42500002 32858.88184392  2519.61917919
0.42600002 33004.67464947  2959.52931606
0.42700002 33149.59721158  2341.02466601
0.42800002 33291.70654936  3213.48212695
0.42900002 33432.25532081  3018.93279853
0.43000002 33570.34379778  2387.35511231
0.43100002 33704.65397921  3712.90485830
0.43200002 33837.63517647  2197.75450886
0.43300002 33967.71533854  3095.81772266
0.43400002 34095.78374001  3337.12499169
0.43500002 34220.89452817  3580.87457312
0.43600002 34344.29654324  3376.90311764
0.43700002 34464.13114993  4075.72834294
0.43800002 34580.71114518  2504.85393050
0.43900002 34695.71039972  2518.90869439
0.44000002 34807.19660074  2302.49616425
0.44100002 34916.77341007  2314.98218679
0.44200002 35023.22590098  2560.02281855
0.44300002 35127.10313263  2807.35821540
0.44400002 35227.66497939  2586.59142369
0.44500002 35324.59808845  3308.50201376
0.44600002 35419.44903264  3324.82383826
0.44700002 35511.59955528  2863.65552385
0.44800002 35599.92679203  3356.71725630
0.44900002 35686.50815377  2649.72335599
0.45000002 35769.88474332  2419.83281757
0.45100002 35848.94798347  2430.55878847
0.45200002 35926.05222820  2929.41043752
0.45300002 35999.56963806  2941.88497025
0.45400002 36070.63048598  3446.54890628
0.45500002 36138.57570926  4449.38165220
0.45600002 36203.01947987  2729.88881326
0.45700002 36264.52822617  2989.64784866
0.45800002 36322.32459432  3000.95060021
0.45900002 36377.30805792  2510.03437496
0.46000002 36430.05283936  3274.87975521
0.46100002 36478.43405878  3791.93340013
0.46200002 36524.40857536  3043.94435494
0.46300002 36566.73303605  2799.54921392
0.46400002 36605.67366304  3063.89503081
0.46500002 36642.32957532  3073.55875045
0.46600002 36675.07270904  2825.99786154
0.46700002 36704.64699555  2576.66634121
0.46800002 36731.77170112  2842.48828781
0.46900002 36754.92236845  3109.46657975
0.47000002 36774.75519676  3117.76389335
0.47100002 36791.81446305  3646.80482242
0.47200002 36805.54494010  2611.35353727
0.47300002 36816.57095161  3402.95581435
0.47400002 36823.20846072  3148.38447262
0.47500002 36827.76667684  2892.45293189
0.47600002 36829.45516997  3425.69193501
0.47700002 36826.93720254  3432.63897935
