# SAXS profile: number of points = 501, q_min = 0, q_max = 0.5, delta_q = 0.001
#    q    intensity    error
0.00000000 1664650.74656091 449.45570157
0.00100000 1664582.39243861 699.12462143
0.00200000 1664377.27897024 823.86677918
0.00300000 1664035.56888373 1198.10565228
0.00400000 1663557.14445123 1372.43469632
0.00500000 1662942.44003619 2693.96685949
0.00600000 1662191.21625835 2094.36101775
0.00700000 1661304.05050204 2392.27793215
0.00800000 1660280.53140185 3586.20609924
0.00900000 1659121.88344755 4977.36586311
0.01000000 1657827.33404592 2735.41521929
0.01100000 1656398.11400651 3577.82008203
0.01200000 1654833.61815647 4195.00340595
0.01300000 1653135.29982333 4860.21799584
0.01400000 1651302.45293394 4086.97375219
0.01500000 1649336.70354364 4354.24909124
0.01600000 1647236.99573509 5460.59088497
0.01700000 1645005.46045163 5329.81793095
0.01800000 1642641.63389135 5149.68175397
0.01900000 1640146.25517510 5904.52678506
0.02000000 1637519.89349012 5674.00668761
0.02100000 1634764.12795760 5934.19405353
0.02200000 1631877.42402104 7318.97057925
0.02300000 1628862.45489945 8795.85765683
0.02400000 1625718.98944467 7925.38043492
0.02500000 1622448.53143010 8225.81443003
0.02600000 1619051.34260343 7212.87406120
0.02700000 1615528.18919542 8820.78431701
0.02800000 1611879.10674689 8414.00932308
0.02900000 1608106.82809623 13749.31401151
0.03000000 1604211.18814939 9697.45707811
0.03100000 1600192.87090853 9985.20397392
0.03200000 1596052.61908240 7900.46082834
0.03300000 1591793.31766691 9741.77555322
0.03400000 1587412.96752839 10834.09400327
0.03500000 1582914.92022153 11966.83734948
0.03600000 1578298.79637550 10511.47046964
0.03700000 1573566.47644735 9866.26226362
0.03800000 1568719.42046515 11012.41084131
0.03900000 1563758.55051954 14073.82760644
0.04000000 1558683.03202435 11503.08130938
0.04100000 1553496.69288347 14680.54442844
0.04200000 1548199.94179764 10984.47909666
0.04300000 1542792.72873952 14255.40547526
0.04400000 1537278.69572190 16602.61068485
0.04500000 1531657.57375036 12682.12529993
0.04600000 1525929.70856127 13985.14642909
0.04700000 1520098.04233514 12039.17705521
0.04800000 1514163.13488829 13354.91947109
0.04900000 1508127.36387480 13573.14690667
0.05000000 1501990.38914729 16086.31781685
0.05100000 1495755.71656516 15166.96367251
0.05200000 1489421.23102596 14209.07920615
0.05300000 1482992.44175732 16817.13507351
0.05400000 1476467.87988203 13398.94663477
0.05500000 1469851.40875496 13581.42765046
0.05600000 1463141.35968371 18764.78881359
0.05700000 1456342.84104245 13937.20163934
0.05800000 1449454.41779541 16675.97385538
0.05900000 1442478.23346403 16876.99611978
0.06000000 1435416.85826180 13134.06486670
0.06100000 1428271.72305921 17267.80593873
0.06200000 1421043.32308217 16114.63203701
0.06300000 1413735.00253912 20357.78498840
0.06400000 1406344.75328923 15083.04818441
0.06500000 1398878.93026450 19388.46288042
0.06600000 1391335.18552449 18177.79504939
0.06700000 1383716.59487439 22582.25588518
0.06800000 1376026.14797869 15666.05842805
0.06900000 1368264.36029171 18676.80939241
0.07000000 1360430.97059477 23181.74482450
0.07100000 1352530.79359518 16068.06658050
0.07200000 1344562.67554494 16195.25818563
0.07300000 1336531.27064255 17802.59735911
0.07400000 1328436.35047637 16439.40060756
0.07500000 1320279.54523057 18061.42502534
0.07600000 1312061.67807861 16669.74440148
0.07700000 1303787.68483098 18305.17995333
0.07800000 1295456.38213978 19956.50650275
0.07900000 1287069.08522553 18533.79569655
0.08000000 1278630.62407776 21749.50793586
0.08100000 1270140.45362373 20309.54680633
0.08200000 1261599.26279221 17277.60271469
0.08300000 1253010.64279234 28418.28271226
0.08400000 1244375.13775695 15865.78375112
0.08500000 1235696.58409109 15940.48668310
0.08600000 1226974.12766828 22416.81836500
0.08700000 1218211.11453116 27336.65869375
0.08800000 1209406.49239821 19374.69291813
0.08900000 1200566.31792967 16207.64605332
0.09000000 1191689.42310358 21146.52980634
0.09100000 1182777.98406637 19586.80433635
0.09200000 1173833.24654322 16374.97455868
0.09300000 1164858.74834915 19709.41094826
0.09400000 1155852.70794589 18117.99204855
0.09500000 1146819.47102421 21468.46150665
0.09600000 1137759.87753935 24831.61049458
0.09700000 1128677.22144042 16591.55593519
0.09800000 1119571.96152834 21613.33773351
0.09900000 1110446.13774607 24985.03927414
0.10000000 1101299.30401454 16684.68524045
0.10100000 1092134.67416409 20051.59356072
0.10200000 1082954.38304412 23424.30440704
0.10300000 1073758.77248227 25125.95645803
0.10400000 1064551.07895314 18443.34831053
0.10500000 1055333.68759866 20135.76770676
0.10600001 1046103.18083733 16789.95684247
0.10700001 1036866.87979231 21836.41751600
0.10800001 1027622.31040028 18481.78812233
0.10900001 1018373.41268622 20163.79452021
0.11000001 1009120.93758979 20162.23728207
0.11100001 999866.22094928 26876.40528428
0.11200001 990612.16467250 21828.14007616
0.11300001 981357.15158821 18459.32889045
0.11400001 972106.35420919 16768.83539966
0.11500001 962859.04975511 20104.49790557
0.11600001 953617.39077670 25103.97899438
0.11700001 944383.34020860 21730.26168158
0.11800001 935155.85077147 18361.78599471
0.11900001 925938.86308644 18333.59035265
0.12000001 916732.54356168 19966.43573929
0.12100001 907540.40142872 21590.38716707
0.12200001 898361.00778411 19889.71364937
0.12300001 889197.60456688 23154.70671384
0.12400001 880049.93345525 23101.31184168
0.12500001 870920.23435965 24690.58980753
0.12600001 861811.45716378 18059.25993588
0.12700001 852722.89909405 21283.96456442
0.12800001 843655.33991836 16324.73159679
0.12900001 834610.98290605 19529.89792049
0.13000001 825591.16967225 17845.15397359
0.13100001 816595.81160810 17785.45761519
0.13200001 807628.53757527 22557.06611782
0.13300001 798690.23157156 24080.51161711
0.13400001 789779.58073613 23989.55589586
0.13500001 780899.95464269 15930.35982580
0.13600001 772050.75515777 22211.90127320
0.13700001 763235.24189344 20538.66132782
0.13800001 754451.85405317 20449.41846842
0.13900001 745705.30375160 18791.77454073
0.14000001 736993.31008535 23381.11386512
0.14100001 728318.15551259 23269.76616610
0.14200001 719680.07877089 16980.85225951
0.14300001 711083.38308099 16895.34197892
0.14400001 702522.52903752 19863.82544551
0.14500001 694006.09892055 24317.97485331
0.14600001 685528.77220977 18139.09216837
0.14700001 677096.65682811 18037.85578886
0.14800001 668705.96755297 16440.13698791
0.14900001 660359.25684533 17829.70077604
0.15000001 652058.58312729 22153.69140703
0.15100001 643803.83378757 17614.47372357
0.15200001 635596.77951112 16045.64145590
0.15300001 627437.13628969 17392.55823869
0.15400001 619324.07391123 15839.21393775
0.15500001 611262.20805904 14303.53634361
0.15600001 603247.99942855 19889.08747982
0.15700001 595287.95183279 18340.82266160
0.15800001 587374.83754408 16810.66864395
0.15900001 579516.48068812 15299.23581230
0.16000001 571708.35574685 22090.81190880
0.16100001 563956.64977584 15074.56196009
0.16200001 556256.36751709 13600.46882782
0.16300001 548612.02832070 16195.02784056
0.16400001 541022.04962350 17407.38526843
0.16500001 533487.71466541 18597.38261124
0.16600001 526009.34813547 21082.45566864
0.16700001 518586.74646430 15682.06395350
0.16800001 511220.65508965 14255.38864026
0.16900001 503914.01365111 15419.76954582
0.17000001 496664.34703563 12739.44110302
0.17100001 489473.23009390 21468.29688568
0.17200001 482340.76643043 16271.76652393
0.17300001 475267.11351680 13644.91947344
0.17400001 468254.55280987 15979.18736927
0.17500001 461300.90618922 14614.01339826
0.17600001 454405.89702167 18096.71570358
0.17700001 447573.79277316 13145.24291461
0.17800001 440801.29902785 16569.72161308
0.17900001 434089.85388040 15236.55459088
0.18000001 427440.69568372 13926.01852317
0.18100001 420853.97986803 12638.24561242
0.18200001 414326.19858104 13647.90562596
0.18300001 407863.09976517 14634.12871088
0.18400001 401460.74952444 16710.80448839
0.18500001 395121.99387940 12126.29456503
0.18600001 388845.43968489 14179.24962799
0.18700001 382631.01230870 17264.31209102
0.18800001 376479.12082087 13875.13865340
0.18900001 370392.11009725 15834.26345479
0.19000001 364364.10090268 10439.03198409
0.19100001 358404.22641478 17547.47175439
0.19200001 352503.48789315 13266.46939372
0.19300001 346668.90452584 10088.06559839
0.19400001 340896.11788196 9971.21191923
0.19500001 335187.36993113 12810.86188415
0.19600001 329540.47194662 14606.88210930
0.19700001 323957.53655203 11545.84714834
0.19800001 318437.77170058 13307.51510826
0.19900001 312982.20864603 12206.30671406
0.20000001 307587.56277435 10201.14200153
0.20100001 302257.92436528 12821.78175756
0.20200001 296989.42783109 9043.32850488
0.20300001 291785.04072556 8928.62266821
0.20400001 286643.09462245 9695.70313388
0.20500001 281563.17434953 9570.33274850
0.20600001 276546.29524830 12880.14431001
0.20700001 271591.16192643 9321.00911791
0.20800001 266698.05132719 10033.18116520
0.20900001 261869.33751224 9073.77297373
0.21000001 257099.65209384 8950.92481078
0.21100001 252391.96090179 9631.27768332
0.21200001 247745.65861220 7915.47416686
0.21300001 243160.27499006 11708.16779428
0.21400001 238636.45291977 9235.23116460
0.21500001 234174.08294920 8345.96471089
0.21600001 229770.71432538 11966.45936782
0.21700001 225427.99521775 8108.64537136
0.21800001 221145.51029111 8717.55642785
0.21900001 216921.31771242 10737.60573446
0.22000001 212756.15753354 7758.15365129
0.22100001 208652.38520360 10422.18713372
0.22200001 204606.18052443 6844.07706216
0.22300001 200618.18240556 8088.92549708
0.22400001 196686.79963028 7965.81576170
0.22500001 192816.04922376 10458.34300444
0.22600001 189000.84133643 7079.02684701
0.22700001 185243.84528314 8235.94175076
0.22800001 181542.64467228 14342.77732060
0.22900001 177897.54972113 6137.46575563
0.23000001 174308.64101383 7247.75363611
0.23100001 170776.62411526 9508.84288044
0.23200001 167297.99519986 7016.47825052
0.23300001 163875.38014951 5752.02611529
0.23400001 160507.22001334 6223.66775037
0.23500001 157191.58684070 5564.58243734
0.23600001 153930.90863030 6566.69287275
0.23700001 150722.98381157 6456.97293189
0.23800001 147567.82099553 6877.39862279
0.23900001 144465.23384748 7281.04813030
0.24000001 141414.34102394 6645.76727077
0.24100001 138416.22962214 5526.96031024
0.24200001 135468.50326802 5925.39261323
0.24300001 132571.38243142 5337.32410916
0.24400001 129724.11129566 5244.09744719
0.24500001 126926.94499362 5620.32539018
0.24600001 124179.19640685 6441.17522232
0.24700001 121481.20100105 6778.65133653
0.24800001 118830.52476984 5325.98437214
0.24900001 116227.80332233 4794.39711386
0.25000001 113673.12314402 4279.79328884
0.25100001 111164.97946674 5042.44370716
0.25200001 108704.66439507 4537.87642986
0.25300001 106290.46560684 4859.60031745
0.25400001 103921.08053580 4769.97782227
0.25500001 101597.09322393 5071.72713369
0.25600001 99318.33587816  4211.59423217
0.25700001 97083.57361089  6011.41516241
0.25800001 94892.71656495  4423.89865557
0.25900001 92745.40240838  3978.77795157
0.26000001 90641.79717945  3903.48918023
0.26100001 88578.21255190  4177.34870160
0.26200001 86559.00687274  3756.22828098
0.26300001 84580.02592837  5024.05377787
0.26400001 82641.98393265  3613.52091844
0.26500001 80745.26853884  4188.25727729
0.26600001 78887.74622769  3159.45438592
0.26700001 77070.70948165  3408.06693455
0.26800001 75292.81338769  4253.29122954
0.26900001 73552.94336513  2978.89434725
0.27000001 71851.92014057  3212.85876113
0.27100001 70188.29135964  3722.78714989
0.27200001 68562.28781291  4211.43872821
0.27300001 66972.48596383  4679.36781574
0.27400001 65417.98429091  2698.49197971
0.27500001 63901.66627040  2910.08201967
0.27600001 62418.38310083  2852.83233464
0.27700001 60971.82113340  4576.54511087
0.27800001 59558.63979005  3240.28795113
0.27900001 58179.99246567  2443.55979921
0.28000001 56834.46521894  2874.68738683
0.28100001 55521.99286285  2583.43845018
0.28200001 54242.38360307  3223.62501010
0.28300001 52995.00182181  2483.34590291
0.28400001 51779.37378476  2434.92516748
0.28500001 50595.04433774  2170.52750482
0.28600001 49440.83737598  2554.11377973
0.28700001 48317.51797131  2296.04856267
0.28800001 47223.33138175  3480.12357090
0.28900001 46160.06793402  2208.75935519
0.29000001 45124.41509932  2560.58505601
0.29100001 44118.95480106  2125.65134293
0.29200001 43140.39622448  2085.62255420
0.29300001 42189.88540069  2418.74624452
0.29400001 41266.41374824  1826.03889480
0.29500001 40371.06793328  1971.72305120
0.29600001 39500.79928176  2463.66496783
0.29700001 38656.39987670  1727.94115629
0.29800001 37838.31136222  2884.98218638
0.29900001 37045.22968261  1667.03541463
0.30000001 36276.80025213  2129.26689160
0.30100001 35533.44102982  2575.46392776
0.30200001 34813.05496829  2689.83081946
0.30300001 34116.58350694  1711.28790972
0.30400001 33443.92955679  1530.05984966
0.30500001 32793.01641364  1806.23942957
0.30600001 32164.67467565  1777.42000672
0.30700001 31558.61330753  1895.41040499
0.30800001 30973.96328652  1579.20759293
0.30900001 30410.51661531  1838.31581643
0.31000001 29868.80713770  2368.74586220
0.31100001 29345.61860355  1510.71251724
0.31200001 28843.75053476  1625.05698207
0.31300001 28360.83358994  1870.11345546
0.31400001 27898.85062064  1450.04282966
0.31500001 27454.94741513  1561.63748291
0.31600002 27029.40241611  1799.34740403
0.31700002 26621.81549180  1650.81885681
0.31800002 26232.60957205  1380.75347020
0.31900002 25861.11939820  1489.60054787
0.32000002 25506.52868150  1596.58123842
0.32100002 25169.24049359  1580.37668542
0.32200002 24848.52914956  1324.30242373
0.32300002 24543.22595572  1312.08092172
0.32400002 24254.13815591  2246.53965307
0.32500002 23980.19022119  1407.15762881
0.32600002 23721.91972710  1396.27226125
0.32700002 23478.44384816  1617.19528884
0.32800002 23250.03978163  2065.30113160
0.32900002 23034.74073237  1368.26366429
0.33000002 22834.84225050  1927.37495142
0.33100002 22646.26240142  1578.89748939
0.33200002 22473.45740002  1234.80417532
0.33300002 22312.36460413  1564.98932744
0.33400002 22164.76384211  1670.66915371
0.33500002 22029.06062672  1221.29117898
0.33600002 21905.47525868  1439.51837479
0.33700002 21792.94075338  1325.88257823
0.33800002 21693.40111887  1103.10949913
0.33900002 21603.85151578  1432.33542333
0.34000002 21526.01304478  1541.47786714
0.34100002 21458.72234459  1761.33201346
0.34200002 21402.69232195  1211.28542933
0.34300002 21355.42403393  1652.90989851
0.34400002 21319.11296626  1323.91697790
0.34500002 21291.87905428  1547.06800535
0.34600002 21275.36164340  1328.85915118
0.34700002 21265.75261397  1221.07957293
0.34800002 21266.74181507  1335.97678410
0.34900002 21275.84658785  1675.47299815
0.35000002 21293.54718060  1345.32637459
0.35100002 21319.43640767  1575.93281390
0.35200002 21352.58498735  1356.74331436
0.35300002 21393.63093626  1704.00278478
0.35400002 21442.74110399  1598.55642502
0.35500002 21498.76908527  1492.44462059
0.35600002 21561.25786507  1385.52649603
0.35700002 21630.73062020  1277.72731825
0.35800002 21707.37388527  1402.73056691
0.35900002 21789.73437454  1529.63942554
0.36000002 21879.15047324  1895.60968679
0.36100002 21973.57925422  1551.11503303
0.36200002 22074.87699419  1442.37253112
0.36300002 22179.93368983  1211.02443683
0.36400002 22291.15277182  1708.61694089
0.36500002 22407.04200615  1230.14666441
0.36600002 22528.40661459  1612.24549574
0.36700002 22654.03774924  1250.50294299
0.36800002 22785.68480516  1513.42525645
0.36900002 22920.67258518  1908.14608310
0.37000002 23058.92832568  1539.87530653
0.37100002 23201.56669337  1424.11223110
0.37200002 23348.59359363  2090.16619751
0.37300002 23498.63620643  1450.10090899
0.37400002 23653.13212284  1463.53761943
0.37500002 23809.88309491  1880.02845823
0.37600002 23970.84381061  1762.21666622
0.37700002 24133.41634910  1368.36477182
0.37800002 24299.89179452  1657.73869675
0.37900002 24468.77274587  1813.13614636
0.38000002 24640.15954534  1830.64074014
0.38100002 24813.56946486  1563.99935746
0.38200002 24989.21580753  2153.44577423
0.38300002 25166.82475559  1449.60917460
0.38400002 25347.03169518  1463.79114974
0.38500002 25527.83094954  1625.86763020
0.38600002 25711.44291641  1940.31413161
0.38700002 25895.59654838  1959.26092767
0.38800002 26081.03308884  2434.92536453
0.38900002 26267.76178144  2151.32979182
0.39000002 26456.35064404  1706.83154266
0.39100002 26644.93960738  2820.10054165
0.39200002 26834.96955080  1898.30583596
0.39300002 27025.31099786  2076.35474234
0.39400002 27217.06165651  1612.61097955
0.39500002 27408.45051941  1628.06203799
0.39600002 27600.11694379  1807.94574606
0.39700002 27791.72562350  1659.16609833
0.39800002 27984.60696162  1842.36668661
0.39900002 28176.57440303  2028.71345314
0.40000002 28368.44333881  2047.63433721
0.40100002 28559.84679218  2238.80649611
0.40200002 28752.33973711  1911.88692140
0.40300002 28943.22710548  2104.75157483
0.40400002 29133.57897588  1769.86500664
0.40500002 29323.48901047  3035.86096109
0.40600002 29513.02825399  2882.83273644
0.40700002 29701.41219406  2363.04446612
0.40800002 29889.50246302  2200.46527559
0.40900002 30075.59412578  2034.61403901
0.41000002 30261.59118110  1865.62718471
0.41100002 30446.17635012  2634.20330263
0.41200002 30628.79866562  2087.19958397
0.41300002 30810.78634299  1913.34992256
0.41400002 30991.09458418  2122.11530220
0.41500002 31170.62516424  2334.05652289
0.41600002 31347.31540554  3137.23947444
0.41700002 31523.30066666  2964.76656818
0.41800002 31698.39358926  1992.24413149
0.41900002 31869.79503352  2610.13633693
0.42000002 32040.22979824  2428.00872916
0.42100002 32209.36106886  3262.16424363
0.42200002 32376.34765983  2465.13522763
0.42300002 32540.86160758  2483.51867557
0.42400002 32703.39275444  2501.80966426
0.42500002 32864.16563521  2100.02028360
0.42600002 33021.49129924  2538.03194153
0.42700002 33177.96351438  3621.04310955
0.42800002 33331.61510125  3217.33430011
0.42900002 33483.51578863  2807.59293192
0.43000002 33632.93603606  2826.68024310
0.43100002 33778.52151946  2626.61795782
0.43200002 33922.68114828  2864.26171849
0.43300002 34063.99645100  2661.07952886
0.43400002 34203.06829549  2454.92534324
0.43500002 34338.98776498  2245.76990625
0.43600002 34473.39318812  2937.65033974
0.43700002 34604.02031830  2955.52951545
0.43800002 34731.34028226  3201.88241236
0.43900002 34856.98206087  3220.78529506
0.44000002 34979.01856413  3470.79328151
0.44100002 35098.98031316  3025.18125655
0.44200002 35215.72638989  3978.14472016
0.44300002 35329.87563409  2352.96982874
0.44400002 35440.66572150  2602.23100392
0.44500002 35547.57716650  2853.75963017
0.44600002 35652.46713042  3107.64744470
0.44700002 35754.55437141  3363.78863468
0.44800002 35852.47847981  2897.59744806
0.44900002 35948.74056536  3397.15614442
0.45000002 36041.69982939  3413.50955261
0.45100002 36130.21901661  3674.44344813
0.45200002 36216.60715065  2460.91857252
0.45300002 36299.25878616  2471.97964049
0.45400002 36379.44812946  3476.05643351
0.45500002 36456.28355481  3241.69288733
0.45600002 36529.66482438  3756.16296358
0.45700002 36599.80626165  3268.72885215
0.45800002 36666.26018583  2776.91934678
0.45900002 36729.77377855  3041.22541300
0.46000002 36790.79518581  4324.94213305
0.46100002 36847.30042122  2553.51804021
0.46200002 36901.46088398  3075.36789583
0.46300002 36951.81184182  3343.40009391
0.46400002 36998.61442357  3354.84952186
0.46500002 37042.97089931  3366.09492516
0.46600002 37083.23799284  2857.44903897
0.46700002 37120.31094134  3127.01514191
0.46800002 37154.69504888  4182.13267292
0.46900002 37185.18845938  3670.17827489
0.47000002 37211.93749433  3154.82821030
0.47100002 37235.94810587  3690.82735119
0.47200002 37256.47661745  2643.34714129
0.47300002 37274.22915629  3445.25716421
0.47400002 37287.28817959  3985.07911308
0.47500002 37298.31873674  3728.34011764
0.47600002 37306.30291841  3203.11932040
0.47700002 37309.79705493  2942.62383320
