# SAXS profile: number of points = 501, q_min = 0, q_max = 0.5, delta_q = 0.001
#    q    intensity    error
0.00000000 1646666.22097351 345.79990640
0.00100000 1646598.43917154 543.37749783
0.00200000 1646395.03923357 1037.22890756
0.00300000 1646056.18943144 1580.21399815
0.00400000 1645581.77118928 1851.27956293
0.00500000 1644972.19549881 1924.61754491
0.00600000 1644227.27047301 1899.08257471
0.00700000 1643347.52257578 2366.42053086
0.00800000 1642332.56335190 2660.57886496
0.00900000 1641183.60769489 3938.84082684
0.01000000 1639899.89961695 2976.41844633
0.01100000 1638482.64459462 4128.97644415
0.01200000 1636931.24815205 4149.62089600
0.01300000 1635247.16490997 4807.62687687
0.01400000 1633429.68418551 4042.73864758
0.01500000 1631480.40390715 4307.10845811
0.01600000 1629398.32046244 7478.93862526
0.01700000 1627185.50540266 5711.42138017
0.01800000 1624841.55280343 6946.19795080
0.01900000 1622367.15942940 7300.65254686
0.02000000 1619762.84174087 10714.73168280
0.02100000 1617030.25791809 6937.06012098
0.02200000 1614167.77943523 6125.76700126
0.02300000 1611178.22828178 5800.24188583
0.02400000 1608061.28749733 7236.27612369
0.02500000 1604818.34336056 8762.30855493
0.02600000 1601449.83732242 7134.45935159
0.02700000 1597956.42850995 8053.70076856
0.02800000 1594338.12045217 6935.37114202
0.02900000 1590597.76087394 7873.45927783
0.03000000 1586735.09792360 8116.15039894
0.03100000 1582750.79159818 9116.64497909
0.03200000 1578645.60116242 12502.87373707
0.03300000 1574422.46448173 11241.37691463
0.03400000 1570079.25738799 11540.08307427
0.03500000 1565619.42072077 10145.21431476
0.03600000 1561042.62208341 8663.78695295
0.03700000 1556350.56018990 9758.31846369
0.03800000 1551544.84791758 9984.19155841
0.03900000 1546626.24993944 12991.66110114
0.04000000 1541594.08106225 10428.88444165
0.04100000 1536452.08327684 11615.57828815
0.04200000 1531200.67006100 12839.11821410
0.04300000 1525839.70611551 16112.86804451
0.04400000 1520373.03449279 15393.77768916
0.04500000 1514800.27514406 11497.33462257
0.04600000 1509121.61486717 11703.23866734
0.04700000 1503340.20418561 11906.45497089
0.04800000 1497456.38726318 13207.56595018
0.04900000 1491472.70191577 17897.67325608
0.05000000 1485388.75604647 14772.19186677
0.05100000 1479208.04157310 12691.60558792
0.05200000 1472928.43056293 14051.73788240
0.05300000 1466555.57050390 21382.38121475
0.05400000 1460087.64297653 14454.86833955
0.05500000 1453528.75045165 12209.64207336
0.05600000 1446877.15325760 16082.04030891
0.05700000 1440138.03507552 13782.12163900
0.05800000 1433309.77009558 17758.70888068
0.05900000 1426394.77817822 14121.30896351
0.06000000 1419395.28718121 18182.45447825
0.06100000 1412312.79863415 17074.86253342
0.06200000 1405148.06934419 17262.24483879
0.06300000 1397904.16589289 14761.86868202
0.06400000 1390579.09019275 23048.84949786
0.06500000 1383179.31510152 15062.82344606
0.06600000 1375702.40931242 15208.39084653
0.06700000 1368151.46513632 13955.14559748
0.06800000 1360529.27523902 18305.92225522
0.06900000 1352836.67822347 21307.17867960
0.07000000 1345073.16134665 18622.53879091
0.07100000 1337243.68920334 17330.67902381
0.07200000 1329346.89150231 14556.34914387
0.07300000 1321387.46841927 14667.40158670
0.07400000 1313365.39890781 17730.43371618
0.07500000 1305281.98859392 16368.23690419
0.07600000 1297138.27337961 14981.94775990
0.07700000 1288939.10333382 16588.64703772
0.07800000 1280683.32818289 22764.14722600
0.07900000 1272372.21180606 22902.70088673
0.08000000 1264010.47315417 18429.27356312
0.08100000 1255597.68751432 16988.23750913
0.08200000 1247134.49061305 20184.87267775
0.08300000 1238624.41227557 21849.33565797
0.08400000 1230068.13068887 18820.04328293
0.08500000 1221469.49971792 17332.65301468
0.08600000 1212827.44295703 20575.61853582
0.08700000 1204145.52826120 15894.72171943
0.08800000 1195422.33515135 17554.77781614
0.08900000 1186664.06400516 17621.96217817
0.09000000 1177869.76687062 19293.50768766
0.09100000 1169041.44648909 19359.32726338
0.09200000 1160180.24240137 17802.96665615
0.09300000 1151289.84077914 17856.50626960
0.09400000 1142368.21221528 22790.24690478
0.09500000 1133420.08404286 17953.37497510
0.09600000 1124445.90430300 21268.89527969
0.09700000 1115449.17588214 19676.52438761
0.09800000 1106430.17807923 24645.73337550
0.09900000 1097391.26033467 24691.30451858
0.10000000 1088331.55455418 28029.98050571
0.10100000 1079254.44986282 19815.11263142
0.10200000 1070162.03340869 19840.80503264
0.10300000 1061054.79149539 23173.43773635
0.10400000 1051935.58938402 29822.37536203
0.10500000 1042807.17446304 16580.63485407
0.10600001 1033665.95132096 23226.47501907
0.10700001 1024519.50659185 29874.99021807
0.10800001 1015364.78051864 18261.33643704
0.10900001 1006206.21991439 21583.12443299
0.11000001 997044.02842184 16600.78385461
0.11100001 987880.12246891 18256.02552260
0.11200001 978717.34217347 16589.25973081
0.11300001 969553.50020959 23211.11188782
0.11400001 960394.22887486 16566.80122813
0.11500001 951238.72309837 23172.17638581
0.11600001 942088.89692975 18187.02701168
0.11700001 932946.96045156 21467.11057098
0.11800001 923811.78753187 28033.07001296
0.11900001 914687.29792271 18110.80935192
0.12000001 905573.73199927 21367.01321301
0.12100001 896474.18827216 19686.57410185
0.12200001 887387.82865175 21283.99807293
0.12300001 878317.35313954 19604.04424571
0.12400001 869262.96645141 19558.41766670
0.12500001 860226.45262497 19509.93686485
0.12600001 851211.07037081 17837.12882017
0.12700001 842216.05198538 17787.60385620
0.12800001 833241.85767722 25797.16912949
0.12900001 824291.19422535 20895.78275847
0.13000001 815364.73171635 24032.87660013
0.13100001 806463.10133724 20758.36120692
0.13200001 797589.39157428 20685.48184560
0.13300001 788744.76243268 20609.90161398
0.13400001 779927.62035005 22110.94907936
0.13500001 771141.62182867 18877.54779241
0.13600001 762385.99181943 26633.95588002
0.13700001 753663.92945166 24961.35052045
0.13800001 744974.01623767 17085.97986811
0.13900001 736320.84235457 18555.28610237
0.14000001 727702.23019910 15390.90289456
0.14100001 719120.23506427 18380.71407513
0.14200001 710575.27338053 16766.02436619
0.14300001 702071.44805357 22747.11598986
0.14400001 693603.53618814 21120.22867317
0.14500001 685179.89440771 21007.61655351
0.14600001 676795.00908158 17907.99678510
0.14700001 668455.52084583 16323.68458915
0.14800001 660156.99613107 14754.50955963
0.14900001 651902.54342856 16134.58871110
0.15000001 643693.57332521 16037.62613610
0.15100001 635530.69488753 21735.15079073
0.15200001 627415.00096277 17279.00994186
0.15300001 619346.68574503 30044.50914326
0.15400001 611324.86802025 22741.28616354
0.15500001 603353.83209599 15530.32837107
0.15600001 595429.98053230 16826.85204398
0.15700001 587560.37994907 16710.21799442
0.15800001 579737.28922123 19357.42900074
0.15900001 571968.78775679 15099.97670951
0.16000001 564250.12454352 16351.96938112
0.16100001 556587.55935356 18935.10966303
0.16200001 548976.18006074 17449.20870694
0.16300001 541420.35877776 13318.94145469
0.16400001 533918.60062089 13214.48598922
0.16500001 526472.11699105 13109.15633198
0.16600001 519081.38747757 14303.28830725
0.16700001 511745.87650438 15475.19603615
0.16800001 504466.74249762 16624.70228397
0.16900001 497246.56770431 13947.76688269
0.17000001 490082.84848219 13827.68822286
0.17100001 482977.39923888 13706.89923766
0.17200001 475930.36215077 20995.66891776
0.17300001 468941.63559357 17135.12817379
0.17400001 462013.45509637 13340.63914593
0.17500001 455143.89318463 13217.37928231
0.17600001 448332.50549418 16664.52001627
0.17700001 441583.71340182 14148.34284563
0.17800001 434893.94920942 12844.59339658
0.17900001 428264.75638154 18501.03834955
0.18000001 421697.50222167 22898.17545223
0.18100001 415192.20122210 13601.69715453
0.18200001 408745.33649975 14586.07802201
0.18300001 402362.61784805 15547.29228809
0.18400001 396040.29950510 12089.13071349
0.18500001 389780.89695002 11962.37629252
0.18600001 383583.35993924 10759.51375461
0.18700001 377447.30430119 13837.21882942
0.18800001 371373.46500856 11581.28205346
0.18900001 365363.98458124 11454.16145780
0.19000001 359412.78469266 13386.32979837
0.19100001 353529.40415674 12217.97678496
0.19200001 347704.33634633 13085.85331672
0.19300001 341945.04779686 13930.84190551
0.19400001 336247.09554245 11802.27361124
0.19500001 330612.53906064 10692.01001847
0.19600001 325039.22913500 12486.38257728
0.19700001 319529.49977516 10439.02925098
0.19800001 314082.15694662 11250.42339351
0.19900001 308698.47218437 11113.14552384
0.20000001 303375.24778045 10976.11698344
0.20100001 298116.37692630 10839.51197734
0.20200001 292918.15863797 12487.10169292
0.20300001 287783.26196253 9686.78505550
0.20400001 282710.27111855 13909.34599647
0.20500001 277698.62636038 9438.97675614
0.20600001 272749.73645394 10162.65566064
0.20700001 267861.66152260 10864.46950491
0.20800001 263035.37933047 11544.62334453
0.20900001 258272.63259237 9762.70597349
0.21000001 253568.16962294 8025.43294795
0.21100001 248925.07738056 9498.98140189
0.21200001 244342.93034020 10929.45979080
0.21300001 239821.11518201 9237.90979354
0.21400001 235360.03081342 9108.43362309
0.21500001 230959.88154527 9728.03067060
0.21600001 226618.20507617 11064.63438596
0.21700001 222336.42580465 7997.44161431
0.21800001 218114.19558988 8598.06199667
0.21900001 213949.73010403 7060.34142726
0.22000001 209843.64490226 7651.94887316
0.22100001 205798.21905271 8909.00532404
0.22200001 201809.71900160 8775.69604574
0.22300001 197878.72985877 9308.21589270
0.22400001 194003.77912111 7202.39064045
0.22500001 190188.97527827 7736.88788018
0.22600001 186428.66889250 6347.89647597
0.22700001 182726.22356696 8124.00828396
0.22800001 179078.88244380 6766.49589313
0.22900001 175486.93882500 6659.72964335
0.23000001 171950.45800378 8341.31711224
0.23100001 168470.40058080 7035.32426097
0.23200001 165042.96679965 7498.72755118
0.23300001 161670.84845071 8511.97057350
0.23400001 158352.53045740 6140.11965888
0.23500001 155086.07352550 6588.05671495
0.23600001 151874.00656960 5939.03330780
0.23700001 148714.11560989 5840.00359622
0.23800001 145606.02737113 5741.97396097
0.23900001 142550.12146509 5644.98507702
0.24000001 139545.09444887 5044.55540294
0.24100001 136592.23151075 7437.44735756
0.24200001 133689.13122588 5360.26597005
0.24300001 130836.09640682 6225.18176151
0.24400001 128032.09559468 6116.73365638
0.24500001 125277.53950402 5085.01556901
0.24600001 122571.92689276 5449.54812744
0.24700001 119915.15996703 5799.09741034
0.24800001 117305.11930884 4381.34641345
0.24900001 114742.47565740 6454.26456106
0.25000001 112227.29209898 4647.89352216
0.25100001 109757.85270919 4563.73173155
0.25200001 107335.69793935 4480.72892246
0.25300001 104959.04638522 5198.62181341
0.25400001 102626.42547115 4318.00705599
0.25500001 100338.75196547 5779.51238665
0.25600001 98095.54076446  4537.89993046
0.25700001 95895.78031170  4453.40024838
0.25800001 93739.20136962  4734.29858917
0.25900001 91625.64503424  3573.40032541
0.26000001 89555.10875334  3856.69094094
0.26100001 87524.01379645  6191.44902892
0.26200001 85536.54650516  3711.85861122
0.26300001 83588.83258661  4965.17689058
0.26400001 81681.45635273  4220.88945675
0.26500001 79814.74056597  3821.52995913
0.26600001 77986.57194758  4997.37976687
0.26700001 76198.44489796  3675.81315582
0.26800001 74448.69417658  3604.80594261
0.26900001 72736.46678707  3829.57515756
0.27000001 71062.48896601  3177.55934448
0.27100001 69425.25881627  4532.08111000
0.27200001 67825.11620641  3055.18250410
0.27300001 66260.62548895  3267.97420377
0.27400001 64730.90401006  3738.20988349
0.27500001 63238.57925640  2879.88503563
0.27600001 61778.84584091  2566.91116617
0.27700001 60355.37605097  3020.18316053
0.27800001 58964.61868650  2714.43634970
0.27900001 57607.96196104  2661.48796856
0.28000001 56283.68905387  3321.30064826
0.28100001 54992.02004878  3024.01132561
0.28200001 53732.73175930  2280.95457114
0.28300001 52505.05008701  3131.40133540
0.28400001 51308.65985008  2851.47890613
0.28500001 50142.97199310  3226.70040048
0.28600001 49006.92130057  2953.64728659
0.28700001 47901.21714900  2276.26594666
0.28800001 46824.13823699  2841.75708411
0.28900001 45777.42779702  2986.97730514
0.29000001 44757.92316020  2539.78846994
0.29100001 43768.13742993  2492.15786323
0.29200001 42804.61710747  2445.64191420
0.29300001 41868.70683317  3323.53810574
0.29400001 40959.38385074  2356.18866755
0.29500001 40077.81780683  1779.45519486
0.29600001 39220.64346054  1922.00772377
0.29700001 38389.03512337  1715.98995125
0.29800001 37583.17096283  2022.72635697
0.29900001 36801.95538697  1821.69687789
0.30000001 36044.90580047  1790.17033133
0.30100001 35312.42360213  2079.54872438
0.30200001 34602.48677770  1572.68309850
0.30300001 33916.09438994  3402.46275028
0.30400001 33253.03106216  2281.98936467
0.30500001 32611.39625878  1945.92210689
0.30600001 31991.82216895  2062.51287288
0.30700001 31394.20306850  1740.49470052
0.30800001 30817.49387865  1428.39090890
0.30900001 30261.54660258  1688.59438037
0.31000001 29727.04251192  1941.47323837
0.31100001 29210.62491425  1913.88023499
0.31200001 28715.24731767  1617.81711047
0.31300001 28238.30389011  1729.03142905
0.31400001 27781.93862918  2231.58432605
0.31500001 27343.40652256  1684.90078970
0.31600002 26922.75911750  1280.17725665
0.31700002 26519.74012214  1517.98999647
0.31800002 26134.79040353  1625.71471403
0.31900002 25767.22357193  1484.19214802
0.32000002 25416.12151770  1346.16493993
0.32100002 25082.02709948  1332.60816289
0.32200002 24764.29501593  1559.77919543
0.32300002 24461.65204412  1426.60361476
0.32400002 24174.76700472  2121.33590511
0.32500002 23902.84341392  1285.73400812
0.32600002 23646.26726411  1739.77419634
0.32700002 23404.15633151  1496.92990985
0.32800002 23176.81319237  1143.77578520
0.32900002 22962.35865146  1591.29152990
0.33000002 22762.92020621  1582.25065846
0.33100002 22574.69333066  1911.17362788
0.33200002 22401.88157796  1230.87144159
0.33300002 22240.56973886  1114.25259668
0.33400002 22092.43442417  1665.21732358
0.33500002 21955.97377723  1438.55547001
0.33600002 21831.42968191  1213.93670495
0.33700002 21717.65325780  1541.51910124
0.33800002 21616.68280647  1978.57507098
0.33900002 21525.41686273  1207.57594319
0.34000002 21445.73243405  1096.94926595
0.34100002 21376.29969123  1096.60422609
0.34200002 21317.90513761  1206.48689840
0.34300002 21268.17597880  1646.15689872
0.34400002 21229.08476888  1098.60518882
0.34500002 21199.02102129  1320.27509173
0.34600002 21179.41625906  1212.62753534
0.34700002 21166.55712950  1325.87320139
0.34800002 21164.06672630  1440.32062927
0.34900002 21169.60851429  1667.10674946
0.35000002 21183.48317850  1226.84148639
0.35100002 21205.50502740  1343.58086217
0.35200002 21234.64523231  1349.24942197
0.35300002 21271.42591591  1129.51276963
0.35400002 21316.19941545  1362.10520716
0.35500002 21367.75664011  1255.14208449
0.35600002 21425.61840790  1376.81030410
0.35700002 21490.38503941  1384.84047753
0.35800002 21562.10351272  1277.23126207
0.35900002 21639.52347597  1168.53432305
0.36000002 21723.91054608  1293.98479297
0.36100002 21813.12806625  1776.67936515
0.36200002 21909.16047760  1312.24922896
0.36300002 22008.81767855  1562.18595282
0.36400002 22114.57005476  1331.85004463
0.36500002 22224.91886094  1342.16291359
0.36600002 22340.66291376  1721.79497232
0.36700002 22460.59008931  1239.82463166
0.36800002 22586.47465687  1625.20986092
0.36900002 22715.71288549  1386.79433735
0.37000002 22848.03390494  1525.79177645
0.37100002 22984.80630489  1410.80747782
0.37200002 23125.79585532  1423.27717334
0.37300002 23269.84702425  1305.43847990
0.37400002 23418.25158527  1449.00438548
0.37500002 23568.94966676  1861.00435385
0.37600002 23723.71295681  1609.89123751
0.37700002 23880.13595067  1624.80452705
0.37800002 24040.48634482  1366.70171345
0.37900002 24203.11539783  1379.57764303
0.38000002 24368.30671826  1810.44343340
0.38100002 24535.48165312  2390.00138105
0.38200002 24704.90705926  1987.01576891
0.38300002 24876.28628236  1432.87415774
0.38400002 25050.28109507  1735.98456213
0.38500002 25224.70310471  1752.61245474
0.38600002 25402.20432694  1769.51763724
0.38700002 25580.16671053  1637.64235039
0.38800002 25759.42742607  1953.98145997
0.38900002 25939.94233723  1820.98403834
0.39000002 26122.45119580  1685.29001874
0.39100002 26304.92521468  2010.74857867
0.39200002 26488.77894438  1873.81631130
0.39300002 26673.13556625  1891.65886398
0.39400002 26858.84900892  2227.94163084
0.39500002 27044.31955744  1767.07592360
0.39600002 27230.06024775  1783.70518104
0.39700002 27415.81718539  1800.39679986
0.39800002 27602.79798145  1982.43304495
0.39900002 27789.03178570  1834.07618475
0.40000002 27975.27334876  1682.71277165
0.40100002 28160.94928791  1867.91585477
0.40200002 28347.87683061  2570.44385340
0.40300002 28533.25528459  1902.02688739
0.40400002 28718.13025121  2268.01444405
0.40500002 28902.66300060  2288.22393817
0.40600002 29086.88744145  2308.48093117
0.40700002 29270.05625644  2328.72578610
0.40800002 29453.04229733  1806.94423056
0.40900002 29634.04043333  1822.49357300
0.41000002 29815.03296391  2573.33561704
0.41100002 29994.70537482  2039.04016799
0.41200002 30172.59839676  2056.11181517
0.41300002 30349.85860047  2638.61683175
0.41400002 30525.57141654  2470.28198393
0.41500002 30700.54061058  2490.42797234
0.41600002 30872.77947885  2124.20169269
0.41700002 31044.47279191  2141.13738991
0.41800002 31215.30504600  2158.07021661
0.41900002 31382.58312912  2767.94396315
0.42000002 31548.95965043  1992.31689633
0.42100002 31714.22109239  2007.51029027
0.42200002 31877.36720508  2831.66666301
0.42300002 32038.22193067  2241.39411248
0.42400002 32197.13317025  2257.82407055
0.42500002 32354.44827761  2480.93921149
0.42600002 32508.44731425  2290.38276406
0.42700002 32661.70150953  2306.56946990
0.42800002 32812.14454901  2956.04624250
0.42900002 32961.07996925  2551.18771051
0.43000002 33107.60828748  2354.44767494
0.43100002 33250.37676988  2801.01187183
0.43200002 33391.94047625  3036.32929139
0.43300002 33530.70044236  2619.41844269
0.43400002 33667.36245099  2196.79550403
0.43500002 33801.09047246  3094.82799032
0.43600002 33933.32287908  2224.32942013
0.43700002 34061.86791995  3356.79724259
0.43800002 34187.32217801  4052.22348979
0.43900002 34311.18637310  3623.26145270
0.44000002 34431.55890180  2505.41250222
0.44100002 34550.04768206  2977.86875084
0.44200002 34665.37794634  2533.86592107
0.44300002 34778.30886103  3242.72967188
0.44400002 34887.98942705  2794.52808554
0.44500002 34993.87766803  2809.30863233
0.44600002 35097.86302948  3529.96774148
0.44700002 35199.18948537  2838.46277462
0.44800002 35296.61354270  2852.67244171
0.44900002 35392.33180957  2866.77901244
0.45000002 35484.91743564  3840.88764526
0.45100002 35573.19457048  2411.86270618
0.45200002 35659.49106571  3149.98129258
0.45300002 35742.25405001  3164.26190101
0.45400002 35822.59400942  2933.87058842
0.45500002 35899.73026686  3437.75833328
0.45600002 35973.45903777  2465.98073391
0.45700002 36044.24719559  2723.86388966
0.45800002 36111.39660565  3978.03163861
0.45900002 36175.68786197  2745.73483886
0.46000002 36237.70164692  2756.42090641
0.46100002 36295.33067984  2515.26653532
0.46200002 36350.65413516  3786.82957401
0.46300002 36402.30884958  3293.68106081
0.46400002 36450.54839480  3813.63880655
0.46500002 36496.47713634  4081.76619639
0.46600002 36538.48508367  4095.23360227
0.46700002 36577.38989063  3594.82604883
0.46800002 36613.71989349  2833.35284825
0.46900002 36646.24612208  3358.62861628
0.47000002 36675.27161691  4145.77290007
0.47100002 36701.58067568  2858.31923850
0.47200002 36724.55033130  3908.41045426
0.47300002 36744.76844303  3657.57442418
0.47400002 36760.58941612  3666.86896806
0.47500002 36774.34651040  2888.25731182
0.47600002 36785.18906943  2895.17844293
0.47700002 36791.80001657  4220.75549796
