# SAXS profile: number of points = 501, q_min = 0, q_max = 0.5, delta_q = 0.001
#    q    intensity    error
0.00000000 1646666.22097351 296.39991978
0.00100000 1646598.43363271 543.37749600
0.00200000 1646395.01341661 1111.31666925
0.00300000 1646056.13577068 1086.39708831
0.00400000 1645581.66820212 1481.02355766
0.00500000 1644972.04130203 2516.80732281
0.00600000 1644227.04680717 1899.08231638
0.00700000 1643347.23437607 1972.01676321
0.00800000 1642332.18097530 2660.57824551
0.00900000 1641183.12880573 3200.30723798
0.01000000 1639899.30515951 3247.00076442
0.01100000 1638481.92890567 4423.90140066
0.01200000 1636930.39810504 4468.82018276
0.01300000 1635246.16035049 7211.43588520
0.01400000 1633428.50683808 4410.25716397
0.01500000 1631479.05749788 4698.65989482
0.01600000 1629396.80472693 7894.42787181
0.01700000 1627183.78103446 4393.39640588
0.01800000 1624839.60143829 6020.03099422
0.01900000 1622364.99559388 5840.51424768
0.02000000 1619760.45623170 5102.24566793
0.02100000 1617027.61698149 5869.81051577
0.02200000 1614164.92197654 6682.64308059
0.02300000 1611175.10180940 10440.41513496
0.02400000 1608057.86251939 7236.26071129
0.02500000 1604814.68412836 8136.41082013
0.02600000 1601445.86116144 9080.19844810
0.02700000 1597952.15438492 8724.81916255
0.02800000 1594333.51517313 9015.95644177
0.02900000 1590592.82365872 7873.43483861
0.03000000 1586729.87597801 8116.12368869
0.03100000 1582745.16986430 8356.89488141
0.03200000 1578639.63111649 10939.97314751
0.03300000 1574416.12308974 8832.47485771
0.03400000 1570072.53410283 9891.45742124
0.03500000 1565612.31903957 9299.73760454
0.03600000 1561035.13718324 14728.36719998
0.03700000 1556342.65242584 9758.26888201
0.03800000 1551536.56241876 10891.78717225
0.03900000 1546617.49189206 11135.64645731
0.04000000 1541584.85357647 9480.74728882
0.04100000 1536442.41938336 14519.38153639
0.04200000 1531190.59738436 9876.17981131
0.04300000 1525829.20547547 10070.47322359
0.04400000 1520362.06457016 13341.17773619
0.04500000 1514788.74280848 15678.06421655
0.04600000 1509109.61503256 11703.14560862
0.04700000 1503327.69453225 11906.35589444
0.04800000 1497443.46610628 19811.17797836
0.04900000 1491459.26135075 16778.91747121
0.05000000 1485374.72761825 13635.74063450
0.05100000 1479193.50049930 13845.25180964
0.05200000 1472913.34764937 17564.49248925
0.05300000 1466539.91820928 13066.87128039
0.05400000 1460071.41552342 16863.82563572
0.05500000 1453512.01704189 14651.40181526
0.05600000 1446859.83609392 13607.71739346
0.05700000 1440120.18629837 15034.85544676
0.05800000 1433291.32589000 15221.55459168
0.05900000 1426375.75816654 14121.12066539
0.06000000 1419375.62771293 12987.28760032
0.06100000 1412292.69921589 17074.61953144
0.06200000 1405127.32781998 18589.83541601
0.06300000 1397882.77471442 14761.64279117
0.06400000 1390557.12686049 14913.72588304
0.06500000 1383156.70902078 16431.90247181
0.06600000 1375679.21224191 15208.13440290
0.06700000 1368127.65441849 19536.86381940
0.06800000 1360504.81248365 15489.34801517
0.06900000 1352811.54362974 14204.52187315
0.07000000 1345047.38167855 18622.18187139
0.07100000 1337217.19146023 17330.33561304
0.07200000 1329319.80292840 16011.65777637
0.07300000 1321359.75159010 20533.93150184
0.07400000 1313336.99256138 22162.56278810
0.07500000 1305253.07052236 17855.86284169
0.07600000 1297108.58072780 19476.08625268
0.07700000 1288908.82605807 18096.28076636
0.07800000 1280652.38648917 15175.73149158
0.07900000 1272340.63271378 19848.51480130
0.08000000 1263978.29563843 23036.00551865
0.08100000 1255564.68042249 20076.48018191
0.08200000 1247100.91500301 17079.04783240
0.08300000 1238590.22569230 18727.48509139
0.08400000 1230033.21237947 20387.80145217
0.08500000 1221433.82123704 25210.39525384
0.08600000 1212791.09177961 15826.92449082
0.08700000 1204108.50462416 23841.34951109
0.08800000 1195384.56656242 19150.06165569
0.08900000 1186625.73444702 20825.28261770
0.09000000 1177830.75241369 24116.08578854
0.09100000 1169001.74328641 17745.44729679
0.09200000 1160139.92861640 19420.74331756
0.09300000 1151248.85717498 21102.39254366
0.09400000 1142326.52033226 16278.15367977
0.09500000 1133377.69024251 22848.89530925
0.09600000 1124402.90936677 16360.06310034
0.09700000 1115405.49255959 19675.75381376
0.09800000 1106385.85448387 19715.79685389
0.09900000 1097346.21907854 21398.25227823
0.10000000 1088285.89731959 19785.03854370
0.10100000 1079208.19284819 18163.07473988
0.10200000 1070115.02440977 19839.93348575
0.10300000 1061007.10571383 16551.71162774
0.10400000 1051887.36693516 16567.22680864
0.10500000 1042758.29635069 28185.75807648
0.10600001 1033616.36225506 24884.31509219
0.10700001 1024469.21592534 19915.68249477
0.10800001 1015314.01672456 16600.38495469
0.10900001 1006154.77635421 19921.86550945
0.11000001 996991.96658911 21579.89213258
0.11100001 987827.43341788 21574.15216141
0.11200001 978664.02082439 21564.86271408
0.11300001 969499.78082077 18236.29173582
0.11400001 960339.83178543 19879.03545395
0.11500001 951183.64387471 21515.77503758
0.11600001 942033.24551455 18185.95266106
0.11700001 932890.78818011 19814.60127411
0.11800001 923754.94510851 16489.02654679
0.11900001 914629.87236517 29634.00926044
0.12000001 905515.71363941 19722.13317208
0.12100001 896415.67930812 21325.73001536
0.12200001 887328.73337834 18008.33749231
0.12300001 878257.80070070 16335.59586267
0.12400001 869202.77082988 17927.30799306
0.12500001 860165.83897474 19508.56214720
0.12600001 851149.85427816 17835.84603689
0.12700001 842154.30439498 16169.36340639
0.12800001 833179.60353059 20958.63391458
0.12900001 824228.45978111 20894.19244024
0.13000001 815301.51545029 27235.14840734
0.13100001 806399.43376234 22353.39335758
0.13200001 797525.27427834 17501.69296907
0.13300001 788680.06459355 22193.45806393
0.13400001 779862.49725817 23688.32447102
0.13500001 771076.19713718 26740.92377750
0.13600001 762320.05241356 17232.24559732
0.13700001 753597.54952405 24959.15201714
0.13800001 744907.22264304 29509.50101655
0.13900001 736253.58312831 15461.32597482
0.14000001 727634.62264500 23084.20949208
0.14100001 719052.24976473 18378.97637079
0.14200001 710506.95380886 19812.48734142
0.14300001 702002.70694040 21228.56285918
0.14400001 693534.49694969 22626.56403028
0.14500001 685110.46426960 16504.31186280
0.14600001 676725.26471645 14921.79279092
0.14700001 668385.47920298 19289.60583981
0.14800001 660086.70476356 20654.11396649
0.14900001 651831.76361186 16132.83691055
0.15000001 643622.58069644 16035.85735467
0.15100001 635459.41680293 17386.17046409
0.15200001 627343.59939462 15837.28991403
0.15300001 619274.98354849 18596.82863353
0.15400001 611252.79405595 17053.95375895
0.15500001 603281.54061872 15528.46758836
0.15600001 595357.46356406 15422.73582150
0.15700001 587487.72676518 18100.49771592
0.15800001 579664.44043713 26267.49535820
0.15900001 571895.79595013 16470.59970079
0.16000001 564176.82215171 17712.33216752
0.16100001 556514.19923244 18932.61395159
0.16200001 548902.67482098 16104.80523949
0.16300001 541346.75438314 18643.98310110
0.16400001 533844.93555191 17176.46161228
0.16500001 526398.24057702 13107.31680918
0.16600001 519007.42359467 16901.47754733
0.16700001 511671.96225129 14183.54746328
0.16800001 504392.68842841 14064.99078092
0.16900001 497172.39702721 13945.68639510
0.17000001 490008.78709522 16339.34377723
0.17100001 482903.30976481 14950.68717631
0.17200001 475856.15829926 16053.00825829
0.17300001 468867.48949736 15908.67466992
0.17400001 461939.31871996 14551.08922687
0.17500001 455069.80385106 18020.76508358
0.17600001 448258.38785087 19042.01721524
0.17700001 441509.58771478 12967.13720363
0.17800001 434819.87984413 12842.40575777
0.17900001 428190.82311585 13873.38332424
0.18000001 421623.70034499 12591.79240558
0.18100001 415118.50180851 14732.55632510
0.18200001 408671.83799671 12339.84673122
0.18300001 402289.22615246 13323.81979958
0.18400001 395966.97630617 14284.50934506
0.18500001 389707.71329686 16309.26857196
0.18600001 383510.42185982 11833.21462553
0.18700001 377374.63745230 12770.35833472
0.18800001 371301.01590139 11579.02272795
0.18900001 365291.59805811 14575.13545116
0.19000001 359340.67687567 12354.13305470
0.19100001 353457.47284052 12215.49083855
0.19200001 347632.79015738 14089.55765083
0.19300001 341873.70567661 11938.23036634
0.19400001 336176.06965375 9833.15050203
0.19500001 330541.83697721 10689.72351299
0.19600001 324968.74711215 10563.10962405
0.19700001 319459.39860118 13283.12242156
0.19800001 314012.37559354 13122.57779621
0.19900001 308629.07115414 13888.30885830
0.20000001 303306.21230162 13717.02409962
0.20100001 298047.74241030 10837.01642622
0.20200001 292849.87084747 9809.00688764
0.20300001 287715.41171201 8804.09201451
0.20400001 282642.89175877 11298.65013210
0.20500001 277631.65962176 10294.58242537
0.20600001 272683.19234911 10160.17622718
0.20700001 267795.61891526 10861.79081663
0.20800001 262969.67403703 8244.09967076
0.20900001 258207.46475389 8133.53552423
0.21000001 253503.57919055 8023.38866067
0.21100001 248861.06196083 9496.53857336
0.21200001 244279.45553268 8585.20187056
0.21300001 239757.96514612 7696.23104503
0.21400001 235297.52120652 9864.84904296
0.21500001 230897.88048098 10473.52835378
0.21600001 226556.83380101 9586.75287554
0.21700001 222275.61767366 8722.09564989
0.21800001 218054.03293173 7879.38285253
0.21900001 213890.10889635 9881.72349823
0.22000001 209784.60473666 9040.66796859
0.22100001 205739.75566952 7536.24760651
0.22200001 201751.92018640 6748.60204934
0.22300001 197821.62321142 7311.48753962
0.22400001 193947.35539631 7200.29590956
0.22500001 190133.22535145 7734.61997305
0.22600001 186373.58807295 9519.03146096
0.22700001 182671.84056222 6872.11496693
0.22800001 179025.20076119 6764.46753065
0.22900001 175433.93162691 6657.71802009
0.23000001 171898.21722338 6551.90085932
0.23100001 168418.84824424 7033.17143530
0.23200001 164992.16574503 6343.12411206
0.23300001 161620.82308058 5672.89115842
0.23400001 158303.28882854 6138.21031464
0.23500001 155037.58738940 8781.32936506
0.23600001 151826.33135463 6476.91160193
0.23700001 148667.12467027 5838.15826193
0.23800001 145559.85826062 6261.98539856
0.23900001 142504.72314626 6156.20433110
0.24000001 139500.60677970 7060.12604307
0.24100001 136548.54857653 8426.41133124
0.24200001 133646.30918636 7307.11230041
0.24300001 130794.04267877 5265.76840733
0.24400001 127990.93499727 5174.03379201
0.24500001 125237.24364911 6931.88176389
0.24600001 122532.51363562 4539.82984496
0.24700001 119876.58975798 5351.29121994
0.24800001 117267.45344643 5255.92751211
0.24900001 114705.74178460 5161.75862450
0.25000001 112191.46257370 6758.41402517
0.25100001 109722.87362655 4562.27730123
0.25200001 107301.59107312 4479.30513126
0.25300001 104925.83413715 5196.97681068
0.25400001 102594.21008773 4709.07446582
0.25500001 100307.39701372 5777.70634134
0.25600001 98065.16845671  4158.45366515
0.25700001 95866.33617837  5194.03833989
0.25800001 93710.65032026  5096.92251207
0.25900001 91598.03095434  3929.55571387
0.26000001 89528.49604209  3855.54486448
0.26100001 87498.33241700  5501.89540271
0.26200001 85511.84345596  3373.44238396
0.26300001 83565.07238527  3309.17702304
0.26400001 81658.67772869  4219.71237130
0.26500001 79792.94851753  4138.86043545
0.26600001 77965.72247720  4371.53826616
0.26700001 76178.57303175  4899.80604926
0.26800001 74429.83450315  4204.54155005
0.26900001 72718.57289222  3828.63304395
0.27000001 71045.60647507  3754.40525184
0.27100001 69409.34717657  3115.09164870
0.27200001 67810.23938210  3609.87826434
0.27300001 66246.70493422  3811.83558231
0.27400001 64717.97323286  2936.57817441
0.27500001 63226.63090235  3664.61570053
0.27600001 61767.92905417  2823.10333103
0.27700001 60345.44994039  2516.40538161
0.27800001 58955.73682312  2960.75724338
0.27900001 57600.02746020  3386.88177495
0.28000001 56276.77304502  2609.27270573
0.28100001 54986.10060878  2791.09459900
0.28200001 53727.84102717  2508.82165551
0.28300001 52501.13700840  2460.20339666
0.28400001 51305.68106713  2412.64976637
0.28500001 50141.01470539  2581.25955921
0.28600001 49005.95650112  2953.58913812
0.28700001 47901.33057337  2483.20509446
0.28800001 46825.25370117  2232.86232843
0.28900001 45779.51650670  1991.40906230
0.29000001 44761.01115725  2539.96369835
0.29100001 43772.17345011  2300.66554544
0.29200001 42809.71841916  2445.93337766
0.29300001 41874.77087194  1846.67748287
0.29400001 40966.48339660  2356.59706894
0.29500001 40085.81103193  2135.77211288
0.29600001 39229.70086281  2271.98823302
0.29700001 38399.05183346  2059.72523785
0.29800001 37594.14620873  1854.70729101
0.29900001 36813.92270306  2319.27724009
0.30000001 36057.80565760  1790.81100276
0.30100001 35326.30063018  2720.47854032
0.30200001 34617.29644884  2517.36991693
0.30300001 33931.88090148  1547.29384236
0.30400001 33269.83041228  1978.72325745
0.30500001 32629.02505508  2246.50848140
0.30600001 32010.44236606  1474.08094074
0.30700001 31413.75507752  1596.44710862
0.30800001 30838.02973938  2001.07984453
0.30900001 30282.93690689  1408.15663284
0.31000001 29749.35570556  1804.14976218
0.31100001 29233.89339734  1641.77553093
0.31200001 28739.40184075  2023.97247046
0.31300001 28263.37734260  1996.80770380
0.31400001 27807.89430864  1313.92306829
0.31500001 27370.21759928  2205.49223857
0.31600002 26950.52580846  2178.54585688
0.31700002 26548.38645284  1899.53714064
0.31800002 26164.32465666  1627.55189233
0.31900002 25797.61263843  1485.94255833
0.32000002 25447.33708581  1592.87614031
0.32100002 25114.03700580  1455.60965378
0.32200002 24797.17745424  1441.70796545
0.32300002 24495.34327278  1428.56848731
0.32400002 24209.31888600  1416.24522189
0.32500002 23938.19130829  1521.75089353
0.32600002 23682.42019816  1742.43414859
0.32700002 23441.02620689  1614.61796159
0.32800002 23214.52757760  1260.20068922
0.32900002 23000.77865121  1366.24631658
0.33000002 22802.17710560  1132.12814690
0.33100002 22614.69275869  1689.31762907
0.33200002 22442.62104248  1121.00897416
0.33300002 22282.05948157  1451.23060276
0.33400002 22134.66290705  1334.72023650
0.33500002 21998.88607090  1219.61830153
0.33600002 21875.07798164  1879.83491538
0.33700002 21761.97002245  1765.33109182
0.33800002 21661.70137630  1431.94683729
0.33900002 21571.10666874  1210.13914143
0.34000002 21492.12342317  1099.32216516
0.34100002 21423.28147254  1538.62014822
0.34200002 21365.56666771  1319.11014854
0.34300002 21316.43154553  1319.91350381
0.34400002 21277.97841832  1211.24897883
0.34500002 21248.49195196  1874.75453371
0.34600002 21229.51235680  1657.49425576
0.34700002 21217.28450726  1218.29653411
0.34800002 21215.30575570  1443.80770159
0.34900002 21221.44626095  1225.53857961
0.35000002 21235.88151760  1229.87613634
0.35100002 21258.39673981  1234.68774113
0.35200002 21288.04850674  1127.20222182
0.35300002 21325.37552701  1358.85299294
0.35400002 21370.63019755  1365.58333430
0.35500002 21422.67038904  1372.76478355
0.35600002 21480.96917397  1265.33654912
0.35700002 21546.20739586  1504.14080955
0.35800002 21618.43127164  1280.56783703
0.35900002 21696.24632138  1288.75709253
0.36000002 21781.08195741  1179.44564386
0.36100002 21870.67945782  1425.09354097
0.36200002 21967.13910874  1913.77724980
0.36300002 22067.13847718  1445.83898151
0.36400002 22173.31059618  1335.38769391
0.36500002 22283.97695698  1468.06847146
0.36600002 22400.10559549  2096.31398145
0.36700002 22520.33922522  1740.37189776
0.36800002 22646.51675378  1629.53019021
0.36900002 22776.01966613  1516.88298162
0.37000002 22908.65174045  1657.32648867
0.37100002 23045.71355908  1543.14105301
0.37200002 23186.96906221  1556.77317658
0.37300002 23331.24694675  1570.65961886
0.37400002 23479.89742298  1849.04200965
0.37500002 23630.78275503  1466.05383157
0.37600002 23785.78448354  1883.12064677
0.37700002 23942.38776988  1629.04014103
0.37800002 24102.92566887  1781.32680594
0.37900002 24265.72925595  1383.14663311
0.38000002 24431.06161931  2513.22342784
0.38100002 24598.33617418  1550.43320251
0.38200002 24767.90141608  2134.37400564
0.38300002 24939.37582024  2298.41298448
0.38400002 25113.46932401  1595.33321438
0.38500002 25287.98023003  1757.00894962
0.38600002 25465.50582813  1478.27268336
0.38700002 25643.48719481  1492.45102544
0.38800002 25822.80450117  2109.46499964
0.38900002 26003.37771749  1977.55696910
0.39000002 26185.84089592  1842.95956957
0.39100002 26368.34254060  1860.55033781
0.39200002 26552.24466372  1565.25489708
0.39300002 26736.52215804  1738.14138784
0.39400002 26922.19677465  1914.16828137
0.39500002 27107.57618417  2254.26614228
0.39600002 27293.24061874  2112.90632260
0.39700002 27478.97358182  2788.84116095
0.39800002 27665.81344152  1821.37891422
0.39900002 27851.86342936  1838.22307343
0.40000002 28038.05170446  1855.13777892
0.40100002 28223.58931652  2212.44727135
0.40200002 28410.34371331  2060.88643061
0.40300002 28595.49900934  2252.75351869
0.40400002 28780.17001716  1923.23495252
0.40500002 28964.56430255  2116.73045952
0.40600002 29148.54832239  3203.13412691
0.40700002 29331.53917281  2333.61736716
0.40800002 29514.25708165  1991.76973353
0.40900002 29694.99313479  2191.49059718
0.41000002 29875.70276384  2026.02087893
0.41100002 30055.12589468  2600.36961562
0.41200002 30232.71365397  2060.20836957
0.41300002 30409.65444785  2832.65944604
0.41400002 30585.07686212  1903.92112488
0.41500002 30759.74278568  2879.11206116
0.41600002 30931.60115812  2128.24891853
0.41700002 31102.93735292  2340.18511732
0.41800002 31273.42096891  1965.53460103
0.41900002 31440.34884732  2178.81627836
0.42000002 31606.31583789  2195.53283371
0.42100002 31771.14705951  2011.11370416
0.42200002 31933.88517677  2431.44613257
0.42300002 32094.29851929  2449.43697906
0.42400002 32252.80747323  2467.33988862
0.42500002 32409.66704808  2070.97782251
0.42600002 32563.22735269  3128.51221616
0.42700002 32715.97572570  3150.54861168
0.42800002 32865.94256278  2326.41585455
0.42900002 33014.37697028  4045.91208943
0.43000002 33160.39341567  2572.58344310
0.43100002 33302.68157910  2805.41802917
0.43200002 33443.71974654  3041.03758066
0.43300002 33581.93826575  3279.27642705
0.43400002 33718.02076401  3520.16153458
0.43500002 33851.20834129  2213.86913043
0.43600002 33982.85028495  3341.36391261
0.43700002 34110.83972513  2465.19050376
0.43800002 34235.67664544  2479.86135533
0.43900002 34358.97735144  2948.00039646
0.44000002 34478.71975774  2964.99764608
0.44100002 34596.60679393  2523.13065305
0.44200002 34711.31869692  2537.22396039
0.44300002 34823.64581890  2551.18041359
0.44400002 34932.61325177  2798.10245407
0.44500002 35037.90332462  2578.43942785
0.44600002 35141.18892294  2356.21682895
0.44700002 35241.84689493  2605.07744593
0.44800002 35338.62608756  2618.06223777
0.44900002 35433.63548304  2870.12461015
0.45000002 35525.49530673  2403.29987140
0.45100002 35613.11006079  2897.48277186
0.45200002 35698.68962060  2668.29868215
0.45300002 35780.76816028  2680.33746992
0.45400002 35860.39702659  3426.46109828
0.45500002 35936.78095645  2703.88352731
0.45600002 36009.73925489  3702.70161437
0.45700002 36079.79181341  3965.89090409
0.45800002 36146.19309290  2986.39861487
0.45900002 36209.73345357  2498.47172671
0.46000002 36271.00544400  3009.76817439
0.46100002 36327.84264828  2769.27157633
0.46200002 36382.41244390  3032.11039678
0.46300002 36433.29084697  3296.48431207
0.46400002 36480.73148706  3053.43737019
0.46500002 36525.87281507  5106.31726156
0.46600002 36567.08326439  3586.13402571
0.46700002 36605.21288351  3340.59188608
0.46800002 36640.71348859  3350.97661092
0.46900002 36672.43002679  3102.48772731
0.47000002 36700.62648800  3370.76919955
0.47100002 36726.15004056  3900.31731917
0.47200002 36748.27572927  3389.47737254
0.47300002 36767.67802453  4182.69125032
0.47400002 36782.67307181  2882.84213864
0.47500002 36795.60826514  2627.20655465
0.47600002 36805.62898282  4213.50860566
0.47700002 36811.41408781  3431.19206976
