# SAXS profile: number of points = 501, q_min = 0, q_max = 0.5, delta_q = 0.001
#    q    intensity    error
0.00000000 1682732.95097189 252.40994265
0.00100000 1682663.94907914 504.79919671
0.00200000 1682456.88602580 757.10562269
0.00300000 1682111.92516449 1312.04734837
0.00400000 1681628.94453697 2017.95481012
0.00500000 1681008.41281695 2118.07068399
0.00600000 1680250.03202785 2469.96764764
0.00700000 1679354.43758057 2015.22540885
0.00800000 1678321.17296468 2718.88041499
0.00900000 1677151.52866439 2767.30014059
0.01000000 1675844.63233704 3318.17251530
0.01100000 1674401.81925946 4520.88510884
0.01200000 1672822.46089457 4240.60512429
0.01300000 1671107.96874476 4913.05764480
0.01400000 1669257.63275275 3755.82984019
0.01500000 1667273.18806838 6802.47491023
0.01600000 1665153.49641175 5519.98408737
0.01700000 1662900.67866558 5836.78164395
0.01800000 1660514.32140405 6152.20583764
0.01900000 1657995.12737080 6963.57984917
0.02000000 1655343.71181141 8342.93268493
0.02100000 1652561.66329438 7089.48985696
0.02200000 1649647.40282943 6260.41217816
0.02300000 1646603.63624433 8298.88270442
0.02400000 1643430.11506490 7395.43585501
0.02500000 1640128.45506624 7036.15139358
0.02600000 1636698.75497438 7954.35631299
0.02700000 1633141.96087379 8916.95551478
0.02800000 1629457.99442912 8505.77112099
0.02900000 1625649.44081900 10241.59194739
0.03000000 1621716.57956798 12065.57190658
0.03100000 1617659.69892349 9317.72029454
0.03200000 1613479.75167548 8785.39765251
0.03300000 1609179.60411598 9027.49799526
0.03400000 1604757.20745244 10109.97087343
0.03500000 1600215.89968447 12097.63276026
0.03600000 1595555.49917979 10626.40011562
0.03700000 1590777.66099374 9067.43308701
0.03800000 1585883.87294995 11132.90530333
0.03900000 1580875.23775682 10433.77705238
0.04000000 1575750.79339019 10659.95461126
0.04100000 1570514.48181606 12862.51420246
0.04200000 1565166.54000760 15142.98697710
0.04300000 1559707.14486369 15441.10145089
0.04400000 1554139.84220491 10490.44442208
0.04500000 1548464.30233708 13889.72543735
0.04600000 1542680.97538069 17401.44221123
0.04700000 1536792.84961304 14384.38174137
0.04800000 1530800.44795372 13501.66057916
0.04900000 1524706.03436702 20583.53242207
0.05000000 1518509.51555812 13939.91800195
0.05100000 1512214.15869271 12974.79808600
0.05200000 1505818.18510236 14365.50615533
0.05300000 1499326.71470309 19431.27512840
0.05400000 1492738.64378717 17241.13213976
0.05500000 1486057.66839128 13731.17349648
0.05600000 1479281.92767654 15177.43328620
0.05700000 1472417.04619675 16653.03756982
0.05800000 1465461.18959735 16860.13177356
0.05900000 1458416.65148651 17063.47561936
0.06000000 1451285.94610035 18590.97383809
0.06100000 1444070.84003313 18801.80321587
0.06200000 1436771.55026151 13577.49178463
0.06300000 1429391.19620316 17838.80296267
0.06400000 1421928.34415834 15250.18220430
0.06500000 1414388.73507684 14002.44913226
0.06600000 1406770.62697979 16965.65455517
0.06700000 1399076.78864145 21405.87586799
0.06800000 1391310.37697724 15840.06938334
0.06900000 1383471.83171966 21789.68236975
0.07000000 1375560.73018354 16114.69470873
0.07100000 1367582.26322727 19200.85587504
0.07200000 1359534.80466294 14886.90680846
0.07300000 1351423.56772737 19501.04299604
0.07400000 1343248.14474119 21156.15927114
0.07500000 1335010.02352306 19784.84947598
0.07600000 1326710.05950203 16855.85209619
0.07700000 1318353.50951444 20052.15781993
0.07800000 1309938.67588422 20179.60624834
0.07900000 1301467.29309534 26549.93402444
0.08000000 1292944.27623809 17280.20106255
0.08100000 1284368.73399068 23696.60425393
0.08200000 1275741.64893176 19059.58112942
0.08300000 1267066.80504181 25544.06798848
0.08400000 1258344.06841331 17648.27638788
0.08500000 1249577.78592162 25791.28671220
0.08600000 1240767.05682231 16192.01085177
0.08700000 1231915.28089177 17887.41071850
0.08800000 1223021.56686072 19592.80642126
0.08900000 1214091.57172529 21307.30808458
0.09000000 1205124.24081134 19739.93599178
0.09100000 1196122.08768056 16506.48558549
0.09200000 1187086.13868140 24839.77861905
0.09300000 1178019.97685580 21593.10719047
0.09400000 1168921.86077238 21654.27848850
0.09500000 1159796.07221001 16701.06422482
0.09600000 1150643.28269887 16741.86055027
0.09700000 1141467.50556258 21813.44505681
0.09800000 1132268.58624051 23539.86501473
0.09900000 1123048.65761769 21899.44985331
0.10000000 1113807.44549178 20249.02031129
0.10100000 1104547.99357882 28729.29466418
0.10200000 1095272.56916499 23690.74678536
0.10300000 1085981.82382592 20329.58069834
0.10400000 1076678.32499824 22044.98974145
0.10500000 1067365.09923206 20365.32705152
0.10600001 1058038.57777246 25472.27995843
0.10700001 1048705.59020026 22085.74076892
0.10800001 1039364.51852071 16993.61067756
0.10900001 1030018.87881159 22093.90599037
0.11000001 1020669.23023106 16994.14348325
0.11100001 1011317.42120045 20388.16017114
0.11200001 1001965.82722024 22078.31804218
0.11300001 992613.34504971 25460.53349923
0.11400001 983264.76243116 18657.44974561
0.11500001 973919.85003220 20335.44742623
0.11600001 964580.21472799 18621.22192222
0.11700001 955248.22132123 21980.26260776
0.11800001 945922.65447842 16884.72017768
0.11900001 936607.72747569 18544.83387751
0.12000001 927303.19148661 20196.66446194
0.12100001 918013.13122202 21839.53342059
0.12200001 908735.17162100 21796.01411817
0.12300001 899473.56866803 23422.29283164
0.12400001 890227.62396640 16691.76873584
0.12500001 880999.87974265 34966.88687464
0.12600001 871792.97915989 19929.18844273
0.12700001 862606.32609512 23186.85913815
0.12800001 853440.32627359 19816.88531003
0.12900001 844298.22763693 23049.34270085
0.13000001 835180.63759541 19693.56036275
0.13100001 826087.46404048 17992.18581491
0.13200001 817022.80462414 16299.60572062
0.13300001 807986.80836821 19488.64273659
0.13400001 798978.54636297 16179.31632663
0.13500001 790001.90273490 19339.24749076
0.13600001 781055.72236543 17655.76543655
0.13700001 772143.38235703 17581.70564530
0.13800001 763263.22251801 19096.84672793
0.13900001 754420.31358634 19011.39279892
0.14000001 745611.97690596 18923.63286632
0.14100001 736841.08462761 18833.65901133
0.14200001 728107.26186613 18741.48180438
0.14300001 719415.22464374 18647.24350231
0.14400001 710758.95748694 17004.90885999
0.14500001 702147.50891788 21527.84363894
0.14600001 693575.65075446 18352.01258471
0.14700001 685049.22781891 18249.71229005
0.14800001 676564.64421279 22681.83076733
0.14900001 668124.29456973 19542.63653820
0.15000001 659730.25588781 19425.75830118
0.15100001 651382.40723455 19306.97546143
0.15200001 643083.03468124 20662.25887930
0.15300001 634831.09677346 23463.35844396
0.15400001 626626.08954090 18939.77445016
0.15500001 618472.74780263 15919.48927973
0.15600001 610367.79113991 18686.41080765
0.15700001 602317.00969443 17129.89656419
0.15800001 594313.55738896 24096.44432166
0.15900001 586365.57896948 19701.88438331
0.16000001 578468.13478893 13970.00611457
0.16100001 570627.60232819 16639.50166935
0.16200001 562839.08895382 17889.84128691
0.16300001 555106.77188605 17752.31540296
0.16400001 547429.33761707 14903.76442023
0.16500001 539808.12814512 16129.46763047
0.16600001 532243.09010408 14665.95904024
0.16700001 524734.89856154 25124.30812936
0.16800001 517283.16382675 19669.69323324
0.16900001 509891.76492831 26004.48123922
0.17000001 502557.76138243 14179.66790696
0.17100001 495282.94188521 14056.13055445
0.17200001 488067.26685511 17731.48464218
0.17300001 480911.13945161 17572.49386541
0.17400001 473816.29304516 13681.44610780
0.17500001 466781.20892554 19716.83919619
0.17600001 459805.07359903 18311.73792093
0.17700001 452892.59985101 18138.34948072
0.17800001 446040.58177836 11976.19018641
0.17900001 439249.96481485 11859.74961018
0.18000001 432522.12662982 11742.97629268
0.18100001 425857.45336396 16276.27263640
0.18200001 419252.30416239 14961.01918076
0.18300001 412712.76126401 15947.22184858
0.18400001 406234.28689454 15782.20279142
0.18500001 399819.99050027 13385.97391433
0.18600001 393468.77281968 12140.47955891
0.18700001 387180.40613623 12010.33676577
0.18800001 380954.68886561 14040.08572148
0.18900001 374795.01174181 10681.65833932
0.19000001 368694.86849114 11619.41932950
0.19100001 362663.38376320 10444.70594589
0.19200001 356692.30685643 11358.86704856
0.19300001 350787.30683715 11228.70222244
0.19400001 344945.22302599 10089.64825029
0.19500001 339167.47290342 11965.82900948
0.19600001 333452.70170818 10838.88058123
0.19700001 327802.33946274 11682.87593056
0.19800001 322215.86880817 15389.03062154
0.19900001 316694.29513834 10450.91223347
0.20000001 311234.26452061 9383.71351878
0.20100001 305840.01963776 9266.95303300
0.20200001 300507.83814055 10065.51051425
0.20300001 295240.19852971 10841.22060242
0.20400001 290035.84544583 12486.04373661
0.20500001 284894.21161184 10563.87786589
0.20600001 279816.14076470 11294.77905585
0.20700001 274800.91258379 10288.54665347
0.20800001 269848.08284536 10151.68535651
0.20900001 264960.51632445 10850.13365639
0.21000001 260132.75691389 11526.48300374
0.21100001 255367.70023687 8932.76257657
0.21200001 250664.58766616 8809.60735000
0.21300001 246023.17928995 10266.54775713
0.21400001 241444.27560476 9343.89390765
0.21500001 236927.45771785 13817.60998737
0.21600001 232470.01761764 10593.65920369
0.21700001 228074.47971997 7458.03583946
0.21800001 223739.35014884 8084.82179988
0.21900001 219463.50066640 7966.52545086
0.22000001 215247.57539341 7849.00320784
0.22100001 211093.70673460 9138.24699663
0.22200001 206998.07335301 11770.94599780
0.22300001 202961.49424875 6819.50652922
0.22400001 198981.94199075 8730.33311767
0.22500001 195063.85925139 6612.66514132
0.22600001 191202.20601250 6510.43542259
0.22700001 187399.28250068 7049.96134106
0.22800001 183653.04491285 8831.87534752
0.22900001 179963.42979625 6829.61248375
0.23000001 176330.86424579 9775.78357610
0.23100001 172755.82071452 7815.47369874
0.23200001 169234.96073081 5914.76215727
0.23300001 165770.75332857 8145.97520383
0.23400001 162361.85073175 7440.23216167
0.23500001 159006.06030495 6754.57776122
0.23600001 155705.80502059 5535.34163029
0.23700001 152459.11234345 5442.79056809
0.23800001 149265.98448318 6956.54153587
0.23900001 146126.04191412 9468.96796391
0.24000001 143038.56632959 5170.84441740
0.24100001 140004.29532269 5082.15616061
0.24200001 137021.33029135 5493.87049790
0.24300001 134089.57022057 4907.67850222
0.24400001 131208.33050305 6268.47828630
0.24500001 128377.99719777 5684.57798482
0.24600001 125597.45031025 5118.72432954
0.24700001 122867.63650410 5484.81155301
0.24800001 120185.58716626 6733.39783952
0.24900001 117552.28778852 5730.67430079
0.25000001 114967.57488130 6925.64703849
0.25100001 112430.15598138 4674.84610687
0.25200001 109941.16889061 4589.49431247
0.25300001 107498.80987588 5733.98679006
0.25400001 105102.14781448 4020.15734410
0.25500001 102751.30501527 5129.34538904
0.25600001 100446.45163270 4646.65307237
0.25700001 98186.31348539  4179.79156283
0.25800001 95970.33292509  5219.82665477
0.25900001 93798.82793771  5853.04714025
0.26000001 91671.38996440  4665.61561299
0.26100001 89584.62849641  4576.87888644
0.26200001 87543.03262230  4489.64464047
0.26300001 85542.18183464  5081.20584141
0.26400001 83582.75056022  3986.89739038
0.26500001 81665.27911441  3258.44479085
0.26600001 79787.52912421  3515.03976190
0.26700001 77950.97800197  5013.80714234
0.26800001 76153.99964891  3072.81403124
0.26900001 74395.67935993  4519.53773499
0.27000001 72676.57590694  3840.59383555
0.27100001 70995.66022811  4924.25922645
0.27200001 69352.80871499  3123.99741641
0.27300001 67746.65784531  4176.58165382
0.27400001 66176.37134248  3548.70808118
0.27500001 64644.72972833  2943.92113115
0.27600001 63146.74863348  3148.49703587
0.27700001 61685.84083948  2829.52965322
0.27800001 60259.03231023  3530.57687015
0.27900001 58867.03937740  2966.89892504
0.28000001 57508.84344759  2666.39765264
0.28100001 56183.95440949  3089.55579920
0.28200001 54892.54289172  2330.18855604
0.28300001 53633.84560706  2513.28212410
0.28400001 52407.22608667  3136.57262974
0.28500001 51212.63047826  2416.72414666
0.28600001 50048.36508888  2585.49866287
0.28700001 48915.56168814  3803.67425691
0.28800001 47812.28734371  2694.46158079
0.28900001 46740.48468218  2033.21117991
0.29000001 45696.61800437  2991.98620546
0.29100001 44683.18951640  3131.39806953
0.29200001 43697.42459629  2688.70266268
0.29300001 42739.86743941  2261.79389196
0.29400001 41809.80314906  1850.08387692
0.29500001 40908.14624114  1816.32177909
0.29600001 40032.11729528  2496.80327390
0.29700001 39182.28243147  1926.59291836
0.29800001 38359.16560910  2064.49039081
0.29900001 37561.32848996  2873.44176551
0.30000001 36788.46058430  2491.49861102
0.30100001 36041.23855045  2449.00227544
0.30200001 35317.14897310  1765.68094650
0.30300001 34617.44975657  2209.97809708
0.30400001 33941.86599953  1708.12448729
0.30500001 33288.18560951  1680.72057099
0.30600001 32657.41781418  2406.19865846
0.30700001 32049.46226895  1776.82227231
0.30800001 31463.13052807  2041.64263663
0.30900001 30898.21378477  1867.79711172
0.31000001 30355.25504471  1982.50180083
0.31100001 29831.28625726  1814.93554182
0.31200001 29328.86158339  2340.88319811
0.31300001 28845.68695898  1902.08468813
0.31400001 28383.71197439  1743.46959057
0.31500001 27939.85174901  1456.78393917
0.31600002 27515.00203310  1570.00609034
0.31700002 27108.10332937  1422.36224904
0.31800002 26719.87164658  1917.81887824
0.31900002 26349.49508442  1264.77582394
0.32000002 25996.38024254  1752.41607513
0.32100002 25660.69451578  1363.35276418
0.32200002 25341.82397151  1473.37371547
0.32300002 25038.55690411  1338.56131548
0.32400002 24751.76960853  1327.31370811
0.32500002 24480.29778816  1197.08661853
0.32600002 24224.57163021  1425.85835367
0.32700002 23983.93015645  1298.01036153
0.32800002 23758.55866792  1641.47889610
0.32900002 23546.39404192  1282.10121629
0.33000002 23349.86073546  1507.11683254
0.33100002 23164.74634868  1268.96486507
0.33200002 22995.61304113  1493.22020354
0.33300002 22838.25358034  1716.29483784
0.33400002 22694.50438516  1254.43878929
0.33500002 22562.85447378  1592.03508706
0.33600002 22443.37532107  1361.41521145
0.33700002 22335.26706647  1132.39809390
0.33800002 22240.05274047  1130.90673541
0.33900002 22155.13390929  1581.87663604
0.34000002 22081.81160392  1355.38166044
0.34100002 22019.23116779  1242.54527364
0.34200002 21968.03454725  1469.33206028
0.34300002 21925.69513465  1583.91229154
0.34400002 21894.40494209  1133.03550941
0.34500002 21872.17041311  1475.71540766
0.34600002 21860.83238332  1706.78456916
0.34700002 21856.43329986  1597.26822120
0.34800002 21862.69956398  1258.96361402
0.34900002 21877.07318655  1722.81959504
0.35000002 21900.14125603  1383.65099009
0.35100002 21931.38372023  1389.57253833
0.35200002 21969.90532459  1628.62915885
0.35300002 22016.60721725  1519.80646819
0.35400002 22071.15591518  1175.28910815
0.35500002 22132.66766989  1300.07296051
0.35600002 22200.74544821  1307.73497257
0.35700002 22275.75640723  1315.82899330
0.35800002 22358.03776855  2046.76666447
0.35900002 22446.01396295  1212.08481141
0.36000002 22540.99214488  1220.59478246
0.36100002 22641.05577368  1475.29126409
0.36200002 22747.90463351  1857.93519895
0.36300002 22858.56813329  1747.30903087
0.36400002 22975.34651530  1509.48033756
0.36500002 23096.74087668  1521.61336103
0.36600002 23223.66622013  1662.00175177
0.36700002 23354.82500943  1547.02368190
0.36800002 23491.92884393  1560.33398772
0.36900002 23632.25770391  1442.74940117
0.37000002 23775.94099214  1587.75741467
0.37100002 23923.96089857  1334.95708138
0.37200002 24076.24397784  1481.77250581
0.37300002 24231.53194958  1495.32790744
0.37400002 24391.27962575  1509.21049834
0.37500002 24553.13529460  1384.79689621
0.37600002 24719.11848046  1537.65283792
0.37700002 24886.75056930  1693.29458895
0.37800002 25058.12327847  2136.83156380
0.37900002 25231.84729596  1725.85843680
0.38000002 25408.12496408  1887.69673363
0.38100002 25586.11733224  1612.69305185
0.38200002 25766.51245835  1924.37207412
0.38300002 25948.67395421  2241.96553585
0.38400002 26133.31959045  2263.79891677
0.38500002 26318.59511278  1828.61607507
0.38600002 26506.42868751  2154.17756149
0.38700002 26694.71464822  1553.63246613
0.38800002 26884.29664611  1882.43854034
0.38900002 27075.04557335  2059.05731340
0.39000002 27267.53014539  2238.93700631
0.39100002 27459.87127192  2583.42481166
0.39200002 27653.74712697  2608.30155259
0.39300002 27847.52410162  1974.94650285
0.39400002 28042.83015712  1827.69154208
0.39500002 28237.46522603  2180.49716806
0.39600002 28432.42158031  2031.78094239
0.39700002 28627.16937953  2050.85051151
0.39800002 28823.11925315  2415.08927664
0.39900002 29017.98280811  2263.40276627
0.40000002 29212.51784396  2284.27294103
0.40100002 29406.66682543  2127.86651230
0.40200002 29601.59575607  2147.29985788
0.40300002 29794.77906437  1986.12006653
0.40400002 29987.48100955  1821.73955764
0.40500002 30179.56007389  3308.28353205
0.40600002 30371.13538825  1854.15790330
0.40700002 30561.37463750  2431.46308136
0.40800002 30751.01595040  2075.23240974
0.40900002 30938.73362006  2093.00542857
0.41000002 31126.25302545  2302.72030793
0.41100002 31312.12178948  2322.10706193
0.41200002 31495.91897558  1951.17227299
0.41300002 31678.94305424  1967.26245688
0.41400002 31860.12029342  2578.28035691
0.41500002 32040.33629021  2599.11220302
0.41600002 32217.73282232  2216.74121188
0.41700002 32394.15526266  2031.11363121
0.41800002 32569.57618165  2661.09734802
0.41900002 32741.15159975  2062.69264852
0.42000002 32911.61137717  2286.20519265
0.42100002 33080.57482068  2303.40053391
0.42200002 33247.32072092  2531.45111964
0.42300002 33411.44048990  2124.96771585
0.42400002 33573.38373940  2568.36397777
0.42500002 33733.49537127  2802.24159328
0.42600002 33889.90455313  2821.84303633
0.42700002 34045.35617530  2404.28316703
0.42800002 34197.87178273  3080.88641490
0.42900002 34348.36127264  3323.20411060
0.43000002 34496.38483061  2899.24880048
0.43100002 34640.46166764  2693.64242692
0.43200002 34782.80559839  2710.97199681
0.43300002 34922.16615643  2500.77643697
0.43400002 35059.22548491  2745.13748556
0.43500002 35192.95192510  2761.94299797
0.43600002 35325.03794578  2547.11198179
0.43700002 35453.21518734  3028.05925265
0.43800002 35577.85660467  3982.76334635
0.43900002 35700.73154203  2356.24839344
0.44000002 35819.85475215  3791.17360663
0.44100002 35936.72091059  2620.86518021
0.44200002 36050.31455259  3114.20657021
0.44300002 36161.12409257  2889.99717444
0.44400002 36268.33241471  2905.09356409
0.44500002 36371.63634242  2676.58884528
0.44600002 36472.72072593  2934.59524868
0.44700002 36570.88454951  2703.31991401
0.44800002 36664.70153971  3457.11487202
0.44900002 36756.79742316  3473.51752111
0.45000002 36845.45005556  2741.85429583
0.45100002 36929.48706254  3505.34707810
0.45200002 37011.25489661  2514.91488941
0.45300002 37089.08384101  2525.76672928
0.45400002 37164.50107649  3551.06824615
0.45500002 37236.25483101  4075.13592184
0.45600002 37304.53769526  3835.83927031
0.45700002 37369.42069865  3080.73518840
0.45800002 37430.40642261  3092.50032520
0.45900002 37488.39736193  3104.03944868
0.46000002 37543.75392243  3374.99591881
0.46100002 37594.44972630  2865.82503846
0.46200002 37642.68776895  4182.85566313
0.46300002 37687.09632545  3147.62643428
0.46400002 37727.70374769  4473.56268391
0.46500002 37765.87886283  2903.81856339
0.46600002 37799.71534000  3707.01825909
0.46700002 37830.28219243  3452.39171651
0.46800002 37858.12437530  2929.65109364
0.46900002 37881.83758863  2670.66967658
0.47000002 37901.72286093  3213.30821645
0.47100002 37918.76871206  2684.64895206
0.47200002 37932.20498905  2960.41907869
0.47300002 37942.94328146  3237.29207421
0.47400002 37948.70647018  2974.23001057
0.47500002 37952.34794637  3251.75732617
0.47600002 37952.90310867  3258.63641536
0.47700002 37948.78116021  3809.29883342
