# SAXS profile: number of points = 501, q_min = 0, q_max = 0.5, delta_q = 0.001
#    q    intensity    error
0.00000000 1664650.74656091 274.66737318
0.00100000 1664582.31831542 499.37470735
0.00200000 1664376.97654585 1048.55752843
0.00300000 1664034.88868122 1198.10516253
0.00400000 1663555.92804746 1497.20039213
0.00500000 1662940.54532326 2544.29913505
0.00600000 1662188.49183179 2617.94698122
0.00700000 1661300.36011323 2392.27261799
0.00800000 1660275.68993139 3137.92118645
0.00900000 1659115.78014951 2986.40853193
0.01000000 1657819.78377743 4103.10414202
0.01100000 1656388.98816047 3279.65033935
0.01200000 1654822.79242751 3549.59504538
0.01300000 1653122.57783600 3818.71332322
0.01400000 1651287.69704195 4086.93723136
0.01500000 1649319.77316392 4354.20439504
0.01600000 1647217.79995842 5880.56780873
0.01700000 1644983.78836402 5773.89335617
0.01800000 1642617.37376613 5617.75167107
0.01900000 1640119.26292019 5412.39381186
0.02000000 1637490.00105900 7221.33123133
0.02100000 1634731.22235508 7012.99726186
0.02200000 1631841.34406003 7881.79404990
0.02300000 1628823.11477013 9382.02156813
0.02400000 1625676.20673255 6096.28605322
0.02500000 1622402.23125209 6960.10588994
0.02600000 1619001.34461739 9179.73804385
0.02700000 1615474.38498325 9498.98981877
0.02800000 1611821.34692045 7011.42318065
0.02900000 1608044.91338844 8683.44293099
0.03000000 1604145.19783552 8205.20306408
0.03100000 1600122.47648804 9216.70588866
0.03200000 1595977.75033793 10270.11729645
0.03300000 1591713.90799958 8117.74130503
0.03400000 1587328.85007490 12500.21527110
0.03500000 1582825.98870349 11111.43895380
0.03600000 1578205.03111657 9634.94216023
0.03700000 1573467.65968551 10762.51928999
0.03800000 1568615.44992096 11011.68096806
0.03900000 1563649.28370711 11258.27536406
0.04000000 1558568.38192169 13419.27439018
0.04100000 1553376.63766121 13700.78257943
0.04200000 1548074.28678360 11982.09553559
0.04300000 1542661.40663927 11199.72233207
0.04400000 1537141.74211653 12450.84868939
0.04500000 1531514.66129575 13737.68715014
0.04600000 1525780.86927723 13983.78231699
0.04700000 1519943.21927457 12037.95085651
0.04800000 1514002.19966973 12240.70835387
0.04900000 1507960.19066197 18095.52313024
0.05000000 1501816.89075314 14935.56967403
0.05100000 1495575.81671914 13998.59029660
0.05200000 1489234.99475420 14207.30251203
0.05300000 1482799.68331700 19217.08479165
0.05400000 1476268.57095237 14615.05953399
0.05500000 1469645.51362855 12345.02289037
0.05600000 1462928.54758866 13758.84363212
0.05700000 1456123.40367727 15201.92904399
0.05800000 1449228.00974891 14108.23533365
0.05900000 1442244.99741804 14278.22614131
0.06000000 1435176.49747499 22324.17146118
0.06100000 1428024.53884204 17264.81748141
0.06200000 1420789.13116053 16111.74950048
0.06300000 1413473.58197281 18997.08582993
0.06400000 1406076.31077123 17822.01807250
0.06500000 1398603.14509834 15230.78896258
0.06600000 1391052.21598508 18174.09805218
0.06700000 1383426.38935797 15522.04481501
0.06800000 1375728.67704531 14238.79247392
0.06900000 1367959.62577447 20109.00744037
0.07000000 1360118.81368319 14485.26604405
0.07100000 1352211.36655584 16064.27178710
0.07200000 1344235.78600814 23551.01207415
0.07300000 1336196.99898077 19281.32359873
0.07400000 1328094.69018538 17929.27915774
0.07500000 1319930.57558540 19561.37204707
0.07600000 1311705.17071519 19695.25406161
0.07700000 1303423.93286391 18300.07287547
0.07800000 1295085.12489259 24554.81511949
0.07900000 1286690.41775797 15440.28573730
0.08000000 1278244.60461055 20189.87447695
0.08100000 1269746.83959563 20303.25291773
0.08200000 1261198.32341083 15701.91986328
0.08300000 1252602.48709017 22095.90890928
0.08400000 1243959.52552245 19032.58163386
0.08500000 1235273.55169735 17528.53252146
0.08600000 1226543.75733636 20808.31582019
0.08700000 1217773.58804021 16074.61211696
0.08800000 1208961.63320166 16139.63856122
0.08900000 1200114.34069231 21062.00766843
0.09000000 1191230.12425520 17886.32115591
0.09100000 1182311.60729623 19579.08113667
0.09200000 1173359.79768071 19642.04393609
0.09300000 1164378.30163706 22984.82875442
0.09400000 1155365.17128455 21403.14080394
0.09500000 1146324.99376026 24760.62102904
0.09600000 1137258.45398734 18201.82241169
0.09700000 1128169.05659863 16584.08591166
0.09800000 1119057.01507002 21603.39669167
0.09900000 1109924.50675454 16648.86838419
0.10000000 1100771.00133410 23347.35403626
0.10100000 1091599.83395263 23382.06954297
0.10200000 1082412.81343371 25084.91813123
0.10300000 1073210.93521916 18416.30051468
0.10400000 1063996.80210126 20109.54050577
0.10500000 1054773.24013332 20125.07436862
0.10600001 1045536.46287961 21815.11932446
0.10700001 1036294.01673591 20145.55663335
0.10800001 1027043.53142138 18471.37878191
0.10900001 1017788.78694011 16793.51577491
0.11000001 1008530.19111446 23508.83986143
0.11100001 999269.84939472 21824.05453811
0.11200001 990010.08736338 21814.87330203
0.11300001 980749.68595210 23479.14858711
0.11400001 971493.30655478 25137.39049068
0.11500001 962240.80371920 23440.18708235
0.11600001 952993.84018303 16725.04268282
0.11700001 943754.62167924 21715.79486754
0.11800001 934522.01251831 25021.82806366
0.11900001 925300.25926016 21652.02708653
0.12000001 916089.12762719 18289.72029461
0.12100001 906892.44148260 18255.74570704
0.12200001 897708.30330598 21531.53466917
0.12300001 888540.49625145 26442.96641429
0.12400001 879388.41417552 16488.53354269
0.12500001 870254.68972304 19737.37729295
0.12600001 861141.75224395 24607.12672994
0.12700001 852049.34983704 16359.34828783
0.12800001 842977.67456805 21205.10440314
0.12900001 833929.83505393 17887.79580500
0.13000001 824906.49006435 19451.29595255
0.13100001 815907.80176400 17770.47276008
0.13200001 806937.43498935 22537.76362169
0.13300001 797995.77426588 19247.65898269
0.13400001 789082.02985685 20772.58541532
0.13500001 780199.75522977 19099.29090852
0.13600001 771347.87245230 25361.91924207
0.13700001 762529.72432994 15784.36603791
0.13800001 753743.89925468 20430.22935270
0.13900001 744995.11657521 18773.87782304
0.14000001 736280.91206142 23358.51303675
0.14100001 727603.86461973 17047.75935206
0.14200001 718963.95876713 18506.13317151
0.14300001 710365.57580970 19947.06630959
0.14400001 701803.13020918 21369.90632289
0.14500001 693285.31827870 22774.42377977
0.14600001 684806.74153503 15099.98936318
0.14700001 676373.60704531 15015.49478478
0.14800001 667982.03150478 20901.15875187
0.14900001 659634.53278008 20778.48876292
0.15000001 651333.18181774 22129.04589637
0.15100001 643078.00360333 16128.39709139
0.15200001 634870.72781353 16027.31227993
0.15300001 626710.92646408 17372.42770137
0.15400001 618597.78546866 20135.35886721
0.15500001 610536.13922718 15715.20096535
0.15600001 602522.20845647 17027.27841458
0.15700001 594562.70787866 19727.59157849
0.15800001 586650.03109963 18189.08507275
0.15900001 578792.62726280 15280.12608097
0.16000001 570985.33966738 23441.80422655
0.16100001 563234.79481581 13686.60616009
0.16200001 555535.90659241 13582.85355738
0.16300001 547892.93194933 16173.80011467
0.16400001 540304.49061458 16047.04412883
0.16500001 532771.78714993 14592.61993897
0.16600001 525295.24761735 15790.37588889
0.16700001 517874.85430431 19575.67041696
0.16800001 510510.75829961 12941.44833394
0.16900001 503206.59581439 12831.76879916
0.17000001 495959.37058640 12721.35845624
0.17100001 488770.88752540 16393.37634172
0.17200001 481641.20679525 13748.44889721
0.17300001 474570.61166641 16102.18161426
0.17400001 467561.01352775 15955.52034015
0.17500001 460610.73154330 12160.12388704
0.17600001 453718.90404774 14455.48496568
0.17700001 446890.26646293 11931.97067811
0.17800001 440121.59956558 12998.99205714
0.17900001 433413.94558090 14042.61250010
0.18000001 426768.72595322 18538.83433109
0.18100001 420186.09238975 17206.62129614
0.18200001 413662.61933100 18168.06309924
0.18300001 407203.96205525 11238.82988364
0.18400001 400806.03689631 11122.36804930
0.18500001 394471.76415152 13206.91528772
0.18600001 388200.08301848 14155.71669603
0.18700001 381990.80703340 15080.99777418
0.18800001 375843.76656402 11720.68841406
0.18900001 369761.96299410 13699.68137621
0.19000001 363739.35042090 11463.24617014
0.19100001 357784.76624892 13395.46228130
0.19200001 351889.81371016 13243.37376475
0.19300001 346060.83397397 11077.40781894
0.19400001 340293.87551640 11944.31559504
0.19500001 334590.95584684 11804.36948009
0.19600001 328950.14949758 10692.52511471
0.19700001 323373.45003740 11525.03030398
0.19800001 317859.90118561 10436.93034867
0.19900001 312410.76711390 10309.55580199
0.20000001 307022.56300214 11108.07685440
0.20100001 301699.51758686 10055.64539642
0.20200001 296437.82507367 9929.18542013
0.20300001 291240.15906431 13367.92393288
0.20400001 286105.22019231 10557.28312409
0.20500001 281032.21695365 11289.06468863
0.20600001 276022.46973153 14569.84675347
0.20700001 271074.59059640 8457.52762639
0.20800001 266188.71109204 10848.52143337
0.20900001 261367.47580389 9056.38346471
0.21000001 256605.25576599 8121.55672892
0.21100001 251905.20352815 8811.64443597
0.21200001 247266.52891537 10270.21576402
0.21300001 242688.75602233 10906.43321125
0.21400001 238172.78178706 9985.39434850
0.21500001 233718.35309551 9086.96999796
0.21600001 229322.88118684 10450.24418976
0.21700001 224988.38461885 11035.68078732
0.21800001 220713.78018622 8700.53762631
0.21900001 216497.72052481 7858.86762663
0.22000001 212340.83046094 9854.73840765
0.22100001 208245.34341990 8321.48431653
0.22200001 204207.56557794 10246.11508736
0.22300001 200228.14909001 9418.73257856
0.22400001 196305.08016394 7287.82644570
0.22500001 192442.87979105 7176.19532675
0.22600001 188636.15209196 7065.36741071
0.22700001 184887.77496108 7587.79464322
0.22800001 181195.22404260 8091.27311226
0.22900001 177558.80037980 8576.09046392
0.23000001 173978.60035776 7234.03054499
0.23100001 170455.32641167 7118.21476759
0.23200001 166985.48003831 7003.37136402
0.23300001 163571.68194124 9186.18609228
0.23400001 160212.48576689 7341.73750750
0.23500001 156905.66906488 8331.69142140
0.23600001 153653.86269161 6008.63458475
0.23700001 150454.90781005 6982.61260173
0.23800001 147308.57732624 6337.21529632
0.23900001 144215.08149028 5710.91749714
0.24000001 141173.17816800 6124.09275860
0.24100001 138183.96416064 5517.68594993
0.24200001 135245.20610002 7394.53199329
0.24300001 132357.07597344 5328.69613075
0.24400001 129518.82635876 6663.74393138
0.24500001 126730.66480394 6079.27027822
0.24600001 123991.84477953 5972.06748632
0.24700001 121302.87229630 4512.46706289
0.24800001 118660.98983383 4875.18699795
0.24900001 116067.31795630 7399.29186976
0.25000001 113521.65438769 5983.72668585
0.25100001 111022.36356293 7973.62652831
0.25200001 108570.95966739 4532.29492574
0.25300001 106165.58691566 7685.32720042
0.25400001 103805.12503225 6749.92857457
0.25500001 101489.88939024 6625.26029285
0.25600001 99220.00077726  4589.91745312
0.25700001 96994.11227348  4129.03955484
0.25800001 94811.82036715  6261.84697242
0.25900001 92673.29009690  5421.38772718
0.26000001 90578.31223270  4255.36931004
0.26100001 88523.32675041  3478.96690590
0.26200001 86512.72166618  3754.21973434
0.26300001 84542.28037377  4017.44935346
0.26400001 82612.70880107  3612.24086325
0.26500001 80724.48936165  3542.99800573
0.26600001 78875.20192709  4106.63758266
0.26700001 77066.64296361  3717.69503249
0.26800001 75296.96251177  4557.34887168
0.26900001 73565.30904794  3873.21370466
0.27000001 71872.43491652  2921.61461761
0.27100001 70216.92125658  3724.30567969
0.27200001 68598.95876731  3090.04024391
0.27300001 67017.13347066  3580.72561079
0.27400001 65470.55448278  3510.85865029
0.27500001 63962.01069830  3177.63284187
0.27600001 62486.45069481  3115.57457909
0.27700001 61047.59579304  3054.82183806
0.27800001 59642.05773497  3744.03035151
0.27900001 58270.92618857  3671.06852362
0.28000001 56932.84400344  4079.52313014
0.28100001 55627.71001494  2588.35746950
0.28200001 54355.43409200  2538.12711505
0.28300001 53115.16912486  2941.51820536
0.28400001 51906.61993731  2884.71053955
0.28500001 50729.39068258  2611.54915595
0.28600001 49582.05297118  2561.40897773
0.28700001 48465.67790685  2512.46086161
0.28800001 47378.18917353  2875.38243704
0.28900001 46321.63224155  3223.98575662
0.29000001 45292.58572448  2174.72360650
0.29100001 44293.53083146  1940.05674225
0.29200001 43321.42710379  2855.96521701
0.29300001 42377.17408439  2055.71681214
0.29400001 41459.88323354  3118.81986388
0.29500001 40570.56578843  1801.33320628
0.29600001 39706.27962866  1945.80632531
0.29700001 38867.81289713  2084.86958250
0.29800001 38055.41672284  2389.49972914
0.29900001 37268.00233710  2515.59027684
0.30000001 36505.11784865  1977.84737867
0.30100001 35767.24944001  1620.25647634
0.30200001 35052.07694449  1752.42866980
0.30300001 34360.95683425  2036.91761756
0.30400001 33693.47642960  2466.36259141
0.30500001 33047.48852841  1516.87979527
0.30600001 32424.00895822  1493.12568321
0.30700001 31822.87681798  1470.21697860
0.30800001 31242.91838281  2172.16400340
0.30900001 30683.94785418  1712.16437132
0.31000001 30146.65295264  1546.97556951
0.31100001 29627.85042633  1941.21685184
0.31200001 29130.24684600  1641.19818501
0.31300001 28651.41756015  1619.37819717
0.31400001 28193.43430876  1731.78178441
0.31500001 27753.35192093  1447.05983767
0.31600002 27331.68028826  1429.58360516
0.31700002 26927.72909428  1541.34328634
0.31800002 26542.12237616  1397.04467742
0.31900002 26173.96219609  1256.35024490
0.32000002 25822.69947943  1740.70825433
0.32100002 25488.50828734  1477.31401029
0.32200002 25170.89191970  1585.38870263
0.32300002 24868.55977333  1692.05688710
0.32400002 24582.27075691  1318.22433176
0.32500002 24311.10418305  1545.45696610
0.32600002 24055.40527309  1179.91768452
0.32700002 23814.35631563  1405.99966345
0.32800002 23588.37891480  1280.49521003
0.32900002 23375.26725993  1272.78336257
0.33000002 23177.53466397  1726.14697584
0.33100002 22990.97754649  1144.95073603
0.33200002 22820.13237962  1595.81193288
0.33300002 22660.80591980  1816.49028855
0.33400002 22514.83759746  1470.78183570
0.33500002 22380.69221430  1127.98694102
0.33600002 22258.52452640  1237.68531490
0.33700002 22147.34202428  1572.01841133
0.33800002 22049.07094062  1233.31484147
0.33900002 21960.59913508  1119.99060893
0.34000002 21883.78465330  1343.22676563
0.34100002 21817.33120105  1343.07497234
0.34200002 21762.04484144  1231.62298613
0.34300002 21715.51298392  1232.57257534
0.34400002 21679.68703246  1458.50101418
0.34500002 21652.95151443  1123.78823682
0.34600002 21636.80790022  1576.67426636
0.34700002 21627.44975516  1128.95293069
0.34800002 21628.54141208  1585.15587517
0.34900002 21637.66810076  1135.97762909
0.35000002 21655.23215335  1254.16282956
0.35100002 21680.88748013  1259.22600449
0.35200002 21713.75287011  1494.66624961
0.35300002 21754.51574890  1155.16484098
0.35400002 21803.06232664  1509.31706105
0.35500002 21858.48062116  1283.96721250
0.35600002 21920.23486509  1525.97722241
0.35700002 21988.96749141  1771.21141533
0.35800002 22064.74661221  1782.27999202
0.35900002 22146.14150783  1195.89169807
0.36000002 22234.49923795  2407.99638153
0.36100002 22327.72990335  1697.35410765
0.36200002 22427.77937407  1465.43117371
0.36300002 22531.46423788  1722.30520792
0.36400002 22641.24687311  1487.52999002
0.36500002 22755.59777032  1374.21061444
0.36600002 22875.39394534  1385.21954598
0.36700002 22999.30346717  1523.47393383
0.36800002 23129.16189804  1920.29875755
0.36900002 23262.24220550  1678.37085463
0.37000002 23398.53228511  1432.34122168
0.37100002 23539.22854270  1444.83791639
0.37200002 23684.06295529  1457.63572363
0.37300002 23831.94024803  1604.36629350
0.37400002 23984.18592478  1753.84367883
0.37500002 24138.61494435  1497.55974209
0.37600002 24297.14664483  1786.20482021
0.37700002 24457.25797149  2218.76254828
0.37800002 24621.16730385  1539.68477028
0.37900002 24787.40053107  1695.45827664
0.38000002 24956.13648609  1711.49192129
0.38100002 25126.71134596  2015.66487966
0.38200002 25299.59333923  1744.15404743
0.38300002 25474.30929256  1760.78434172
0.38400002 25651.54616576  1777.65223350
0.38500002 25829.30157618  1944.17162174
0.38600002 26009.83623083  1660.85817120
0.38700002 26190.79308533  1981.59549871
0.38800002 26373.09126333  2154.41792737
0.38900002 26556.58871169  1708.91656456
0.39000002 26741.87252371  1725.25198760
0.39100002 26927.12772925  1583.31518549
0.39200002 27113.79864074  2397.53775839
0.39300002 27300.60230755  1774.81224010
0.39400002 27488.94061706  1628.71980873
0.39500002 27676.71159872  1972.79609622
0.39600002 27864.82307045  1991.22035095
0.39700002 28052.85908511  1842.23134340
0.39800002 28242.04949873  2028.34409110
0.39900002 28430.23422440  2046.97696114
0.40000002 28618.42149328  2237.81757469
0.40100002 28806.05972691  1910.70603221
0.40200002 28994.69034688  2629.09367177
0.40300002 29181.64001347  1945.24821546
0.40400002 29368.13698477  1784.11440636
0.40500002 29554.14719183  2339.80194404
0.40600002 29739.74856569  1815.61173596
0.40700002 29924.17915308  2563.90379132
0.40800002 30108.20158206  2216.56590550
0.40900002 30290.21604832  2421.70288781
0.41000002 30472.23964871  2630.05912870
0.41100002 30652.68901435  1894.33627084
0.41200002 30831.25662810  2673.99501406
0.41300002 31009.06779461  2118.22952142
0.41400002 31185.30103478  2329.54209768
0.41500002 31360.64917944  2348.28552183
0.41600002 31533.18298971  2761.36096525
0.41700002 31704.96093839  1987.90114503
0.41800002 31875.86236764  2203.73784921
0.41900002 32043.04262048  2624.32531497
0.42000002 32209.24468878  2644.21806802
0.42100002 32374.15644815  2459.14104033
0.42200002 32536.89342045  2270.91258389
0.42300002 32697.14818523  2287.49259543
0.42400002 32855.40947295  2513.43894378
0.42500002 33011.96911204  2531.35791146
0.42600002 33165.05357547  2124.22178217
0.42700002 33317.25927906  3208.45222061
0.42800002 33466.62895331  3230.36651279
0.42900002 33614.24729577  2601.74286398
0.43000002 33759.38324670  3273.81634549
0.43100002 33900.79046698  2636.12559163
0.43200002 34040.68793223  2210.94278597
0.43300002 34177.71541662  2224.96937906
0.43400002 34312.55659135  2686.67330842
0.43500002 34444.29659788  2703.18852510
0.43600002 34574.47186570  2492.99241202
0.43700002 34700.86119941  2735.81602661
0.43800002 34823.98927293  3669.05568367
0.43900002 34945.44368030  2998.31920986
0.44000002 35063.29765720  2551.38097494
0.44100002 35179.12096967  3032.08858007
0.44200002 35291.77860405  2814.16655925
0.44300002 35401.82350851  3065.09002462
0.44400002 35508.42360899  3318.26234352
0.44500002 35611.29287733  2858.87472768
0.44600002 35712.10204948  3352.29517825
0.44700002 35810.05860257  2887.72326256
0.44800002 35904.04134975  3143.57848936
0.44900002 35996.30094004  3158.67555718
0.45000002 36085.25534208  3173.51793146
0.45100002 36169.78080012  4168.92913260
0.45200002 36252.27809712  3695.01362017
0.45300002 36330.98602009  3711.21039784
0.45400002 36407.37111571  3230.24415533
0.45500002 36480.30889474  2994.30389599
0.45600002 36549.81179801  2756.03868925
0.45700002 36616.22899900  3018.64206174
0.45800002 36678.85340534  3030.40701197
0.45900002 36738.59357341  2788.45938438
0.46000002 36795.96469410  3307.77340295
0.46100002 36848.78869818  2553.62117781
0.46200002 36899.26389197  3331.45019838
0.46300002 36946.08116789  3342.88158251
0.46400002 36989.24737831  3354.00016499
0.46500002 37030.07408698  3106.08276163
0.46600002 37066.83452888  2856.18506999
0.46700002 37100.45206794  2864.89704447
0.46800002 37131.41697159  2612.19530776
0.46900002 37158.44791058  3405.57191242
0.47000002 37181.85040293  3940.34678321
0.47100002 37202.51689451  2633.93832097
0.47200002 37219.73920163  3432.96280797
0.47300002 37234.26914459  3176.82799399
0.47400002 37244.14929205  3980.46864425
0.47500002 37251.92284164  3191.74490035
0.47600002 37256.79465318  2665.72378378
0.47700002 37257.21766208  3472.74542288
