# SAXS profile: number of points = 501, q_min = 0, q_max = 0.5, delta_q = 0.001
#    q    intensity    error
0.00000000 1664650.74656090 324.60689558
0.00100000 1664582.32415655 649.18712184
0.00200000 1664377.00223265 1273.24844703
0.00300000 1664034.94158463 1098.26310057
0.00400000 1663556.02876256 1372.43377588
0.00500000 1662940.69638601 2244.97002898
0.00600000 1662188.71485396 1919.82804382
0.00700000 1661300.64489253 2990.34128509
0.00800000 1660276.06816223 2689.64734398
0.00900000 1659116.25669643 2737.54194057
0.01000000 1657820.37250090 3282.48447929
0.01100000 1656389.69901305 4174.10222325
0.01200000 1654823.63566707 3872.28747724
0.01300000 1653123.56928841 4860.18350807
0.01400000 1651288.86306179 4458.48012792
0.01500000 1649321.10814445 5145.88208655
0.01600000 1647219.29742686 4620.45033583
0.01700000 1644985.49374533 5329.75323882
0.01800000 1642619.30227668 5149.61174436
0.01900000 1640121.40203810 7872.58308501
0.02000000 1637492.37168440 7737.15180620
0.02100000 1634733.83677299 6473.54628712
0.02200000 1631844.18253058 6755.83522261
0.02300000 1628826.21925829 8209.28451874
0.02400000 1625679.58923595 6705.92861137
0.02500000 1622405.85859763 7592.85976501
0.02600000 1619005.28605233 7868.36605010
0.02700000 1615478.62105959 9499.01472690
0.02800000 1611825.91537071 8413.73166409
0.02900000 1608049.80604074 8683.46935131
0.03000000 1604150.37099043 8205.22952477
0.03100000 1600128.02475731 8448.67635947
0.03200000 1595983.65905413 8690.13142380
0.03300000 1591720.20413173 12176.66012296
0.03400000 1587335.52371523 9166.86307242
0.03500000 1582833.00591371 10256.75835196
0.03600000 1578212.44235224 10510.89535181
0.03700000 1573475.51293871 9865.69192239
0.03800000 1568623.64811783 11011.73851941
0.03900000 1563657.95308417 10320.14296828
0.04000000 1558577.51142640 12460.82778128
0.04100000 1553386.19409317 10764.96682420
0.04200000 1548084.25253621 12980.68705973
0.04300000 1542671.83932636 16290.61537946
0.04400000 1537152.62197664 11413.35874824
0.04500000 1531526.06164258 11624.28334799
0.04600000 1525792.75580320 12908.20731416
0.04700000 1519955.59227981 10943.68077338
0.04800000 1514014.97755696 12240.81166309
0.04900000 1507973.52069290 13571.76231797
0.05000000 1501830.77367427 18382.40952577
0.05100000 1495590.22715002 16331.84604128
0.05200000 1489249.92419967 14207.44493895
0.05300000 1482815.18690331 18016.20536075
0.05400000 1476284.64557990 15833.15356221
0.05500000 1469662.08565005 14814.19451442
0.05600000 1462945.71547279 12508.18645098
0.05700000 1456141.09744741 15202.11376696
0.05800000 1449246.31068820 14108.41349331
0.05900000 1442263.84727476 22066.63789394
0.06000000 1435195.96446610 13132.04368838
0.06100000 1428044.44897209 13280.81399607
0.06200000 1420809.70221841 17454.64800764
0.06300000 1413494.76244607 16283.46042472
0.06400000 1406098.08913509 15080.40271123
0.06500000 1398625.53346730 16615.67211484
0.06600000 1391075.18900417 19572.42882505
0.06700000 1383449.98516609 15522.30955999
0.06800000 1375752.94248976 18510.75670767
0.06900000 1367984.55470359 18672.99004595
0.07000000 1360144.36510750 15934.09198340
0.07100000 1352237.61400971 16064.58360686
0.07200000 1344262.64308170 16191.64429445
0.07300000 1336224.45323501 23731.34740140
0.07400000 1328122.81893555 16435.52065456
0.07500000 1319959.25283741 15047.53618766
0.07600000 1311734.59096666 15150.53523593
0.07700000 1303453.89640462 18300.49356360
0.07800000 1295115.79354844 21485.97202258
0.07900000 1286721.70392106 21616.92563979
0.08000000 1278276.48638506 23296.59005724
0.08100000 1269779.52419408 17180.11776841
0.08200000 1261231.59258453 17272.56747096
0.08300000 1252636.34392500 20518.18427645
0.08400000 1243994.12798445 20619.20363918
0.08500000 1235308.92681072 17529.03449435
0.08600000 1226579.74525657 17607.55306986
0.08700000 1217810.32214362 17682.60670786
0.08800000 1208999.06235054 24210.20736057
0.08900000 1200152.30836360 17822.26261631
0.09000000 1191268.80239949 21139.06589160
0.09100000 1182350.95896456 16316.44400028
0.09200000 1173399.74763153 21279.60542316
0.09300000 1164418.85407853 18060.13727544
0.09400000 1155406.50241430 16464.54343320
0.09500000 1146366.99655743 16507.68552633
0.09600000 1137301.07509066 21512.05084657
0.09700000 1128212.34457288 26535.55559186
0.09800000 1119100.94356543 18280.51477265
0.09900000 1109969.12658927 21644.39898626
0.10000000 1100816.28169875 20012.84094243
0.10100000 1091645.68545342 16702.17977297
0.10200000 1082459.41247172 18396.39858026
0.10300000 1073258.19706296 18417.11152795
0.10400000 1064044.59990325 21786.31420796
0.10500000 1054821.67364109 20125.99847999
0.10600001 1045585.64855961 26850.64071843
0.10700001 1036343.84261515 18467.64814445
0.10800001 1027093.82168175 20151.58172976
0.10900001 1017839.77258483 20153.22844570
0.11000001 1008581.78291949 21830.75371886
0.11100001 999322.12875852 18467.47380878
0.11200001 990062.94310725 16781.56767570
0.11300001 980802.95525585 18448.90445695
0.11400001 971547.21989229 16759.19033224
0.11500001 962295.40851106 23441.51725514
0.11600001 953048.98616941 21743.81364340
0.11700001 943810.30789145 26728.70917827
0.11800001 934578.30484310 18350.44587987
0.11900001 925357.18354011 16656.43008827
0.12000001 916146.61912551 18290.86811243
0.12100001 906950.41576842 19916.63206851
0.12200001 897766.93158941 19876.56080180
0.12300001 888599.53668973 23139.13302559
0.12400001 879448.07681512 16489.65221723
0.12500001 870314.78437953 19738.74023983
0.12600001 861202.45858994 26249.45217479
0.12700001 852110.57629198 17996.57621940
0.12800001 843039.46784504 17944.09591877
0.12900001 833992.08182246 19515.41563445
0.13000001 824969.16775340 17831.70940149
0.13100001 815971.00352973 22618.71728404
0.13200001 807001.03845477 17709.63862373
0.13300001 798059.95115589 24061.50866168
0.13400001 789146.60876269 27166.37328743
0.13500001 780264.66267477 19100.87984285
0.13600001 771413.23730287 17437.79705144
0.13700001 762595.61525349 15785.72998010
0.13800001 753810.14737829 17288.63654538
0.13900001 745061.79915334 17210.92837208
0.14000001 736348.00819745 15573.76110784
0.14100001 727671.35570050 23249.10091113
0.14200001 719031.78116944 18507.87892023
0.14300001 710433.76389896 18414.44402883
0.14400001 701871.60489211 15265.70812648
0.14500001 693354.24875916 15184.45876411
0.14600001 684875.99139832 16611.66795501
0.14700001 676443.12030800 15017.03797929
0.14800001 668051.77758261 20903.34110675
0.14900001 659704.79666780 17812.03035042
0.15000001 651403.63934511 17705.15175278
0.15100001 643148.72572458 14663.79163843
0.15200001 634941.65230016 16029.10276868
0.15300001 626782.12920169 18822.26822813
0.15400001 618669.33303737 17260.87520630
0.15500001 610607.89277583 15717.04790178
0.15600001 602594.22753504 19867.53261948
0.15700001 594634.87942394 15502.13203823
0.15800001 586722.42024856 18191.32949841
0.15900001 578865.16186213 13892.76454044
0.16000001 571058.15535112 16549.26612324
0.16100001 563307.63088689 17794.88889971
0.16200001 555608.89901972 16301.56586677
0.16300001 547966.07725107 14827.96275041
0.16400001 540377.69114897 13374.34848733
0.16500001 532845.19983435 15921.41532272
0.16600001 525368.72609699 14476.53593108
0.16700001 517948.36526713 13052.29942099
0.16800001 510584.43213508 14237.64756234
0.16900001 503280.29310339 16683.74250415
0.17000001 496033.03384561 13995.57271082
0.17100001 488844.59405271 13873.41023434
0.17200001 481714.97602661 13750.55464002
0.17300001 474644.39513261 18582.32894698
0.17400001 467634.75545130 13502.95420135
0.17500001 460684.44033817 15810.69073911
0.17600001 453792.59887153 14457.83288288
0.17700001 446964.04185642 14320.72857746
0.17800001 440195.26188863 13001.16767395
0.17900001 433487.54212113 12874.58060911
0.18000001 426842.16630130 17383.14804371
0.18100001 420259.45769694 11473.08373707
0.18200001 413735.79544420 13628.45774571
0.18300001 407276.96667641 12364.92929241
0.18400001 400879.06828527 16686.59200566
0.18500001 394544.65128780 17612.47406554
0.18600001 388272.75710938 13069.26162174
0.18700001 382063.22212451 10774.18337294
0.18800001 375915.98889043 10657.21878856
0.18900001 369834.06659609 10540.27139599
0.19000001 363811.22107575 14592.46876682
0.19100001 357856.50083391 13398.14802428
0.19200001 351961.17523733 10189.27650458
0.19300001 346131.97337548 13094.17317153
0.19400001 340364.74399248 13937.93692511
0.19500001 334661.45285808 13774.66605056
0.19600001 329020.42831286 12639.32035093
0.19700001 323443.39238111 11527.52304923
0.19800001 317929.56144581 10439.21764342
0.19900001 312480.03979802 14061.60245546
0.20000001 307091.50034404 12962.33284214
0.20100001 301768.05289644 11886.64416538
0.20200001 296506.06635416 12640.05420609
0.20300001 291307.99274925 9805.42749939
0.20400001 286172.59295277 14079.69223876
0.20500001 281099.20081452 10423.15885887
0.20600001 276089.00218338 11144.33309990
0.20700001 271140.65748621 10997.46558748
0.20800001 266254.50372026 15859.45026378
0.20900001 261432.66630162 11529.18112890
0.21000001 256669.96965081 8935.96541582
0.21100001 251969.29289734 12820.19822867
0.21200001 247330.10100528 9482.63652083
0.21300001 242752.00109995 12467.74336591
0.21400001 238235.53970012 8451.40617041
0.21500001 233780.60610435 11361.73799383
0.21600001 229384.52026212 9706.40643380
0.21700001 225049.35699973 7359.11432183
0.21800001 220774.20506973 7252.43297944
0.21900001 216557.63179872 7861.04240598
0.22000001 212400.19363198 7745.17342700
0.22100001 208304.13954526 8323.83380981
0.22200001 204265.66059168 7515.95533686
0.22300001 200285.53774188 7402.55382497
0.22400001 196361.84579898 11266.26143546
0.22500001 192499.00453065 7830.85987461
0.22600001 188691.64982712 8352.43627457
0.22700001 184942.57604522 6957.54003984
0.22800001 181249.40029057 8093.69235273
0.22900001 177612.27463004 6127.62376452
0.23000001 174031.37417411 9045.28110047
0.23100001 170507.39493675 8307.12067418
0.23200001 167036.92935745 8173.11734000
0.23300001 163622.33438723 7466.08747119
0.23400001 160262.38030365 9038.79867662
0.23500001 156954.86607642 6111.82277408
0.23600001 153702.28867302 5464.11662076
0.23700001 150502.56854710 7522.11873176
0.23800001 147355.51367931 7395.77358138
0.23900001 144261.18545751 5712.74321433
0.24000001 141218.41339254 5615.55047417
0.24100001 138228.46061801 5017.69335778
0.24200001 135288.89691938 6903.79273636
0.24300001 132399.94173941 8722.50857439
0.24400001 129560.83114658 5713.63292384
0.24500001 126771.88884108 5613.45950342
0.24600001 124032.33607981 5974.01774989
0.24700001 121342.39189227 4965.33091112
0.24800001 118699.76044379 4876.77988854
0.24900001 116105.13101560 5224.73114287
0.25000001 113558.53196054 5558.12260975
0.25100001 111058.44600501 6297.01418639
0.25200001 108606.18138766 4533.76525652
0.25300001 106199.95564042 5260.08405173
0.25400001 103838.55910471 4369.00758103
0.25500001 101522.53385397 3898.46548444
0.25600001 99251.65369573  4208.76657410
0.25700001 97024.90536088  6007.78242419
0.25800001 94841.74938092  4421.52256534
0.25900001 92702.30612810  3615.39011006
0.26000001 90606.36002035  3547.23916264
0.26100001 88550.53434511  4176.04339731
0.26200001 86538.92539326  3413.96076830
0.26300001 84567.62022996  4018.65350348
0.26400001 82637.05669041  3941.78779065
0.26500001 80747.84987242  4510.57510731
0.26600001 78897.75758995  3475.84087510
0.26700001 77088.22195222  4028.63066986
0.26800001 75317.53921530  3646.87542138
0.26900001 73584.94455828  3278.20943520
0.27000001 71891.06495722  3214.60912168
0.27100001 70234.66813519  3438.68951463
0.27200001 68615.74161030  4214.72212787
0.27300001 67032.93846894  3306.06468174
0.27400001 65485.38022139  3511.65368056
0.27500001 63975.89262518  2913.46228803
0.27600001 62499.42891845  2596.85139446
0.27700001 61059.61025838  3564.66021559
0.27800001 59653.03064244  3495.07123075
0.27900001 58280.96243894  2447.80053828
0.28000001 56941.99356565  2640.11565662
0.28100001 55635.75594825  2588.73184679
0.28200001 54362.54009025  2538.45892966
0.28300001 53121.41624895  2715.56692717
0.28400001 51911.88524842  2441.15651935
0.28500001 50733.69019949  2829.41803635
0.28600001 49585.43131282  3628.90996239
0.28700001 48467.98822106  2721.96234733
0.28800001 47379.59332852  2053.90546801
0.28900001 46322.07473601  2418.01241567
0.29000001 45292.10460372  2372.40055144
0.29100001 44292.06512514  2909.98881647
0.29200001 43319.00714475  3236.57977202
0.29300001 42373.79736944  2242.42146294
0.29400001 41455.56504533  2384.73149212
0.29500001 40565.34701397  1981.21164195
0.29600001 39700.10081657  2652.95936265
0.29700001 38860.65907680  2605.60731444
0.29800001 38047.42039553  2730.28301683
0.29900001 37259.03488330  1676.65664912
0.30000001 36495.17327302  2471.63572692
0.30100001 35756.35243011  1781.73912594
0.30200001 35040.36292781  2229.61839865
0.30300001 34348.35776141  1566.28518807
0.30400001 33679.88499206  2157.19673587
0.30500001 33033.04604860  1667.83857395
0.30600001 32408.65923644  2089.38635989
0.30700001 31806.57478024  2057.24935418
0.30800001 31225.80201583  2460.43718632
0.30900001 30665.92597372  1568.56218782
0.31000001 30127.74532031  1686.55126288
0.31100001 29608.07739804  1524.22389662
0.31200001 29109.61440139  2050.04469128
0.31300001 28629.91390702  1618.16281064
0.31400001 28171.17799070  1464.19704539
0.31500001 27730.15084861  1577.29105495
0.31600002 27307.65137896  2077.56621528
0.31700002 26902.83231844  1539.91819482
0.31800002 26516.36556243  1268.80815224
0.31900002 26147.47104430  1506.09440346
0.32000002 25795.40302408  1490.45845730
0.32100002 25460.41000552  1352.71164764
0.32200002 25142.02106638  1583.57027185
0.32300002 24838.88357984  1448.60375897
0.32400002 24551.88882123  1316.59510038
0.32500002 24279.90876726  1306.01635443
0.32600002 24023.40244140  1178.34794555
0.32700002 23781.72913266  1638.08558023
0.32800002 23554.91682304  1743.65280039
0.32900002 23341.14318121  1502.00263484
0.33000002 23142.66334945  1263.93661868
0.33100002 22955.42317660  1257.49814116
0.33200002 22783.77859979  1820.87967192
0.33300002 22623.89773043  1360.14879596
0.33400002 22477.18202689  1242.42629537
0.33500002 22342.33532664  1238.65912917
0.33600002 22219.53523037  1460.15682681
0.33700002 22107.72073876  1457.11994290
0.33800002 22008.81677883  1231.06322482
0.33900002 21919.73009181  1565.06880267
0.34000002 21842.27749305  1228.95580135
0.34100002 21775.16695530  1228.77272948
0.34200002 21719.35659189  1564.44532940
0.34300002 21672.19461344  1341.94235402
0.34400002 21635.82696753  1343.58491832
0.34500002 21608.55363033  1121.48398653
0.34600002 21591.82770510  1123.85468528
0.34700002 21581.93885853  1351.89271413
0.34800002 21582.49809166  1807.75012577
0.34900002 21591.12783929  1360.24111830
0.35000002 21608.23907604  1365.20860948
0.35100002 21633.33993694  1484.91252360
0.35200002 21665.73923317  1376.64113608
0.35300002 21706.01663414  1267.84849165
0.35400002 21754.10421120  1621.76854576
0.35500002 21809.11465509  1630.44948884
0.35600002 21870.55429388  1405.40188549
0.35700002 21938.74955089  1413.73308802
0.35800002 22014.14336624  1778.19251463
0.35900002 22095.19685242  1193.14068654
0.36000002 22183.19777188  1681.70830274
0.36100002 22276.02334773  1330.54693758
0.36200002 22375.77134914  1462.03296920
0.36300002 22479.07760771  1350.09346507
0.36400002 22588.55781861  1855.08539872
0.36500002 22702.57381682  1869.55704237
0.36600002 22822.09697514  1256.35649799
0.36700002 22945.72777485  1773.24592644
0.36800002 23075.30735251  1660.38381920
0.36900002 23208.09973005  1674.46447484
0.37000002 23344.22234867  2208.48025991
0.37100002 23484.66377392  1572.53316079
0.37200002 23629.34428286  1850.88662535
0.37300002 23776.98708546  1467.27794255
0.37400002 23929.06044484  1615.21165654
0.37500002 24083.28719990  2309.10568611
0.37600002 24241.63488423  1370.86451764
0.37700002 24401.56496604  1660.28255894
0.37800002 24565.37708811  2513.77515651
0.37900002 24731.51467260  1409.69640312
0.38000002 24900.10199905  2276.86543465
0.38100002 25070.61742421  1436.54644646
0.38200002 25243.36132370  2030.32364745
0.38300002 25418.04664477  1464.07955610
0.38400002 25595.32181901  1921.56887659
0.38500002 25772.98519309  2089.15827872
0.38600002 25953.58799562  1958.58761088
0.38700002 26134.47480684  2281.53975873
0.38800002 26316.78896433  1689.14317970
0.38900002 26500.29261472  2325.40078711
0.39000002 26685.65788663  1565.11390920
0.39100002 26870.95271220  1738.01330377
0.39200002 27057.66743382  2392.57435619
0.39300002 27244.55936404  1610.15353470
0.39400002 27432.93988485  2113.02229474
0.39500002 27620.87218887  2461.01982863
0.39600002 27809.07457645  1821.63351644
0.39700002 27997.25983618  2172.86743883
0.39800002 28186.57873497  2361.75354410
0.39900002 28374.93702088  2553.74445287
0.40000002 28563.24502658  2233.50305067
0.40100002 28751.11957374  2253.80037017
0.40200002 28939.89960633  2449.18381973
0.40300002 29127.15224814  1941.61606085
0.40400002 29313.81489240  1958.89577300
0.40500002 29500.09034907  1976.21114612
0.40600002 29685.89813920  2174.78900072
0.40700002 29870.60645740  2742.12180271
0.40800002 30054.87199737  2397.02642972
0.40900002 30237.30725597  2975.35117496
0.41000002 30419.56519185  2437.97616782
0.41100002 30600.33104413  2080.21060294
0.41200002 30779.24788849  3622.87154438
0.41300002 30957.38436670  2691.43512437
0.41400002 31133.99185792  2325.70930199
0.41500002 31309.60754174  2930.57940477
0.41600002 31482.58415346  2363.08287853
0.41700002 31654.74916868  2381.70344031
0.41800002 31826.02893345  2200.29261457
0.41900002 31993.65678382  2015.60047289
0.42000002 32160.29568324  2234.01504549
0.42100002 32325.59991582  2660.07374312
0.42200002 32488.82584786  2061.41609773
0.42300002 32649.60876543  2907.12130223
0.42400002 32808.23460713  2928.13507744
0.42500002 32965.32573847  2317.13285596
0.42600002 33118.88649969  2969.77069315
0.42700002 33271.61721128  2563.24551142
0.42800002 33421.50067217  3010.94313823
0.42900002 33569.58423867  2814.80977180
0.43000002 33715.31868624  2615.63454763
0.43100002 33857.25761878  2852.13551696
0.43200002 33997.71520408  2649.78204857
0.43300002 34135.29830491  2444.42882745
0.43400002 34270.72136818  2907.01407781
0.43500002 34403.03151572  2699.95004130
0.43600002 34533.84254660  3395.54022931
0.43700002 34660.88986888  2504.94262953
0.43800002 34784.59132448  2519.62199199
0.43900002 34906.64568052  2994.99034132
0.44000002 35025.18418948  2780.29925272
0.44100002 35141.61384869  2795.86693030
0.44200002 35254.90760819  2342.68872158
0.44300002 35365.62245235  2826.42068034
0.44400002 35472.91601090  3078.16243272
0.44500002 35576.44931671  2618.07102929
0.44600002 35677.98530476  3109.87173647
0.44700002 35776.65621848  2885.02969418
0.44800002 35871.32061531  3382.30698111
0.44900002 35964.27486555  2427.58866847
0.45000002 36053.90910828  2682.95177344
0.45100002 36139.22954297  4165.40779453
0.45200002 36222.41723212  3199.70737784
0.45300002 36301.91180402  3213.80840432
0.45400002 36378.98093021  3227.72523600
0.45500002 36452.68462369  3490.70924500
0.45600002 36522.93066081  3004.37641855
0.45700002 36590.14682135  2765.11752634
0.45800002 36653.55998568  3533.03681446
0.45900002 36714.10892488  3039.92836305
0.46000002 36772.22619864  3559.91938701
0.46100002 36825.83855484  3062.43687936
0.46200002 36877.10524621  2817.22658881
0.46300002 36924.69653600  3083.95080085
0.46400002 36968.69728083  3609.99346057
0.46500002 37010.34031183  3104.42749249
0.46600002 37047.90955007  3373.76804308
0.46700002 37082.30754422  2863.49592428
0.46800002 37114.07679949  3133.17051191
0.46900002 37141.93612901  3404.05860756
0.47000002 37166.20363473  3413.53013462
0.47100002 37187.69001096  4212.62172411
0.47200002 37205.75374970  3695.64769512
0.47300002 37221.13954148  3704.99240557
0.47400002 37231.87846000  3448.60290581
0.47500002 37240.52113640  3722.56266924
0.47600002 37246.19827061  3464.45529635
0.47700002 37247.42383673  3471.83254038
