# SAXS profile: number of points = 501, q_min = 0, q_max = 0.5, delta_q = 0.001
#    q    intensity    error
0.00000000 1646666.22097351 370.49989972
0.00100000 1646598.42267142 543.37749239
0.00200000 1646394.96770049 814.96553482
0.00300000 1646056.03520005 1382.68711882
0.00400000 1645581.49806091 1851.27925566
0.00500000 1644971.76111123 1480.47464360
0.00600000 1644226.65180723 1899.08186015
0.00700000 1643346.69271224 1972.01611321
0.00800000 1642331.45795464 2438.86231803
0.00900000 1641182.20736181 2707.95075791
0.01000000 1639898.16851001 3788.16493283
0.01100000 1638480.54736226 2949.26511366
0.01200000 1636928.78630928 3192.01127325
0.01300000 1635244.26747304 4120.81573578
0.01400000 1633426.31758678 3675.20937750
0.01500000 1631476.51744833 4698.65257948
0.01600000 1629393.91854872 5816.93654926
0.01700000 1627180.55375326 7468.75907677
0.01800000 1624836.02015111 5093.86115239
0.01900000 1622360.99247379 6813.91647585
0.02000000 1619756.02949721 6122.67806846
0.02100000 1617022.77108166 6937.02800245
0.02200000 1614159.54895443 6682.62083628
0.02300000 1611169.23166827 6960.25139763
0.02400000 1608051.47627483 7839.25130429
0.02500000 1604807.73184316 7510.50052804
0.02600000 1601438.33989163 7782.99068785
0.02700000 1597944.09278521 7382.50204679
0.02800000 1594324.89160345 10402.97039479
0.02900000 1590583.53451689 10736.43935094
0.03000000 1586719.95968533 8853.89778202
0.03100000 1582734.61151762 9116.55178182
0.03200000 1578628.42673588 9377.05328670
0.03300000 1574404.25562586 9635.35448862
0.03400000 1570059.91722200 9891.37793489
0.03500000 1565598.99189468 10990.50543062
0.03600000 1561021.07269071 10396.40082458
0.03700000 1556327.84932344 8871.06915141
0.03800000 1551520.89187197 12706.95669250
0.03900000 1546601.11544049 10207.56783462
0.04000000 1541567.71654574 10428.70608569
0.04100000 1536424.41795870 11615.36913833
0.04200000 1531171.63722635 11851.26902195
0.04300000 1525809.44448912 12084.41136129
0.04400000 1520341.41857140 12314.76606235
0.04500000 1514767.25343495 12542.27344122
0.04600000 1509087.23091487 15958.59820879
0.04700000 1503304.44246880 10823.79248917
0.04800000 1497419.16591230 12106.63451970
0.04900000 1491434.09501302 14541.48310325
0.05000000 1485348.64555548 13635.50120115
0.05100000 1479166.41953019 13844.99833176
0.05200000 1472885.31693708 14051.32657839
0.05300000 1466510.91511428 13066.61286281
0.05400000 1460041.46665028 14454.41119390
0.05500000 1453480.99738019 19534.78551607
0.05600000 1446827.81901313 13607.41627280
0.05700000 1440087.13644452 18793.13800784
0.05800000 1433257.21069721 16489.62497901
0.05900000 1426340.52457714 17971.89144906
0.06000000 1419339.41714979 14285.65190102
0.06100000 1412255.34090934 13133.97528423
0.06200000 1405088.91001196 17261.51806636
0.06300000 1397843.25664023 20128.94383675
0.06400000 1390516.53963299 18980.55165365
0.06500000 1383115.05009434 16431.40756375
0.06600000 1375636.38385988 13825.14630465
0.06700000 1368083.59308732 16745.34396305
0.06800000 1360459.79308001 21121.13927623
0.06900000 1352765.37111202 15624.44076786
0.07000000 1344999.97899264 14324.25044705
0.07100000 1337168.80849045 17329.70856972
0.07200000 1329270.17287115 14555.50907482
0.07300000 1321309.08622079 19066.49100754
0.07400000 1313285.10405031 19206.79554685
0.07500000 1305199.94494430 16367.20807677
0.07600000 1297054.43330201 16479.07734765
0.07700000 1288853.42855142 16587.54440322
0.07800000 1280595.83012738 24280.09807786
0.07900000 1272282.93482664 15267.39593402
0.08000000 1263919.24594787 16892.28151453
0.08100000 1255504.61421933 15442.70747944
0.08200000 1247039.68795737 20183.33829670
0.08300000 1238527.78157812 17165.99585831
0.08400000 1229969.70954544 18818.53743936
0.08500000 1221369.17618534 20482.36204618
0.08600000 1212725.24685215 23739.09782172
0.08700000 1204041.55688070 22250.68901600
0.08800000 1195316.54368266 17553.22426835
0.08900000 1186556.53182845 17620.36532528
0.09000000 1177760.37211568 17684.07281804
0.09100000 1168930.26441126 20970.60992876
0.09200000 1160067.18773319 17801.23183219
0.09300000 1151174.90943222 22724.19378005
0.09400000 1142251.60257614 26043.33776271
0.09500000 1133301.63165586 21215.40754178
0.09600000 1124325.65288734 26174.30242961
0.09700000 1115327.18354998 18034.84140587
0.09800000 1106306.39745347 21357.24600701
0.09900000 1097265.84230152 31272.07797608
0.10000000 1088204.28831106 26378.07318915
0.10100000 1079125.42266891 18161.68171769
0.10200000 1070031.30726841 19838.38136988
0.10300000 1060922.37596873 18205.42882802
0.10400000 1051801.39624495 18222.46004722
0.10500000 1042671.49190413 19894.17300154
0.10600001 1033528.57672042 26541.01509903
0.10700001 1024380.39387743 18254.45947791
0.10800001 1015224.05322605 26558.26248227
0.10900001 1006063.91710795 23240.07757900
0.11000001 996900.06157734 19918.06416785
0.11100001 987734.58250432 21572.12429737
0.11200001 978570.01333693 23221.46750969
0.11300001 969404.86552350 19892.18877708
0.11400001 960243.90850659 19877.04984199
0.11500001 951087.07384555 21513.59062342
0.11600001 941935.67274842 21490.26338576
0.11700001 932792.24845001 23114.59300517
0.11800001 923655.66602811 23082.15618117
0.11900001 914529.82048039 21399.99880722
0.12000001 905414.77144656 18076.60676343
0.12100001 896313.93868018 21323.30960570
0.12200001 887226.10840632 18006.25471840
0.12300001 878154.30144196 17967.03785401
0.12400001 869098.50852456 22813.83692370
0.12500001 860060.75324393 17880.66390249
0.12600001 851044.01097564 22697.34484230
0.12700001 842047.92005605 19400.78499238
0.12800001 833072.27727115 19343.93918990
0.12900001 824120.56633223 16070.35180091
0.13000001 815192.86714082 20824.10277265
0.13100001 806290.15984796 15964.54591752
0.13200001 797415.31288989 19090.12349050
0.13300001 788569.72581698 25360.40357784
0.13400001 779751.38745238 15789.96634034
0.13500001 770964.44954162 18873.21061462
0.13600001 762207.72775573 21928.71736149
0.13700001 753484.76020500 20276.27585321
0.13800001 744793.87148313 17081.84824797
0.13900001 736139.86972981 18550.72559201
0.14000001 727520.37012112 18464.46786447
0.14100001 718937.65383490 16844.71002380
0.14200001 710391.85737944 24380.64969518
0.14300001 701887.14664548 25773.29724049
0.14400001 693418.42976433 18098.22187054
0.14500001 684994.01839876 19501.78062375
0.14600001 676608.52955711 20886.90629275
0.14700001 668268.52186720 19286.23045094
0.14800001 659969.28662575 17700.37710238
0.14900001 651714.34939348 17596.28826383
0.15000001 643504.82199303 21863.07735878
0.15100001 635341.41191896 14485.78487526
0.15200001 627225.14733923 14394.81781068
0.15300001 619156.47890023 18593.26993877
0.15400001 611134.18537263 21313.30572067
0.15500001 603162.81161232 19759.61464093
0.15600001 595238.61226600 18223.23097457
0.15700001 587368.86284361 15312.70697704
0.15800001 579545.34321455 17968.80421447
0.15900001 571776.64183320 20583.96007757
0.16000001 564057.78895267 19070.79474468
0.16100001 556394.90668322 14872.43655768
0.16200001 548783.52576729 18784.86097377
0.16300001 541227.61767605 17308.46003037
0.16400001 533725.75375557 15851.65563489
0.16500001 526279.32213054 14414.79131370
0.16600001 518888.54099163 18197.42199173
0.16700001 511553.25798383 12891.14270984
0.16800001 504274.03988514 17896.68652054
0.16900001 497054.03435483 15209.85416944
0.17000001 489890.44073562 17591.96655750
0.17100001 482785.30368591 17438.20599259
0.17200001 475738.40414798 16049.03582181
0.17300001 468750.18275671 17128.13248680
0.17400001 461822.20007656 13335.11665698
0.17500001 454953.07919812 14412.91422968
0.17600001 448141.80596092 11898.16551020
0.17700001 441393.56081849 14142.25035657
0.17800001 434704.21632572 11671.80875963
0.17900001 428075.55992613 15025.45286311
0.18000001 421508.70673717 17165.94289271
0.18100001 415003.99663689 14728.49253637
0.18200001 408557.75024616 15700.87508364
0.18300001 402175.79125998 13320.06283576
0.18400001 395854.16304092 13181.94425199
0.18500001 389595.36261959 15217.59558283
0.18600001 383398.51245593 15056.06029544
0.18700001 377263.34861661 10638.82693362
0.18800001 371190.27816923 17889.51630158
0.18900001 365181.71570442 12489.21526717
0.19000001 359231.40030274 15437.97015744
0.19100001 353348.97687610 17299.96672528
0.19200001 347524.82659400 11066.92862581
0.19300001 341766.52496657 13923.56888506
0.19400001 336069.62586574 12779.04812740
0.19500001 330436.05624498 9714.82051268
0.19600001 324863.79547057 11519.67073176
0.19700001 319355.21213273 11381.82029829
0.19800001 313909.15179344 11244.22634863
0.19900001 308526.60024757 13883.69766728
0.20000001 303204.54660800 11884.10276596
0.20100001 297946.88715790 9930.57021831
0.20200001 292750.14990685 10697.09098318
0.20300001 287616.53227936 13201.59945559
0.20400001 282544.88888673 10425.90689271
0.20500001 277534.66499098 9433.40370893
0.20600001 272587.05682253 9310.21136585
0.20700001 267700.44541069 9187.47972078
0.20800001 262875.74876618 10713.50164739
0.20900001 258114.40980406 11382.84601044
0.21000001 253411.51221142 12030.71211096
0.21100001 248770.01899193 8701.97567571
0.21200001 244189.30654468 9362.21845552
0.21300001 239669.22943928 9232.05915445
0.21400001 235209.81216919 12136.82688172
0.21500001 230811.42013898 8226.11940266
0.21600001 226471.39222731 9583.13741518
0.21700001 222191.34306644 9445.35444033
0.21800001 217970.81868604 10740.51259857
0.21900001 213808.14694672 10583.50377427
0.22000001 209703.84637694 8342.01940331
0.22100001 205660.22156937 6848.48570208
0.22200001 201673.63739199 7420.58183872
0.22300001 197744.62163445 9301.90744153
0.22400001 193871.49986760 8506.11245891
0.22500001 190058.62375742 7087.28641505
0.22600001 186300.25400132 6977.87634359
0.22700001 182599.70694582 8118.38335472
0.22800001 178954.41586913 7376.50137096
0.22900001 175364.51417972 9075.11403797
0.23000001 171830.06593809 6549.30327296
0.23100001 168352.00738622 5858.65013411
0.23200001 164926.70424788 8646.28287911
0.23300001 161556.62602085 7371.82919398
0.23400001 158240.48171716 7809.16814208
0.23500001 154976.26143154 6034.77590557
0.23600001 151766.25036057 6474.34854660
0.23700001 148608.46592233 6366.38698123
0.23800001 145502.59376740 6781.14870327
0.23900001 142448.88069486 6153.79193709
0.24000001 139446.03318639 7057.36407338
0.24100001 136495.47953404 5945.74336974
0.24200001 133594.60861933 6817.33320032
0.24300001 130743.75453269 7656.35462760
0.24400001 127941.96542020 5642.24094193
0.24500001 125189.80511908 6005.35523564
0.24600001 122486.51480800 5445.75070598
0.24700001 119832.00281512 5349.30085872
0.24800001 117224.31582992 8318.82396641
0.24900001 114663.95085614 6449.84754078
0.25000001 112151.14901110 4222.49096003
0.25100001 109684.03682802 5389.87382472
0.25200001 107264.26148141 4070.67891580
0.25300001 104889.88806935 3996.30492451
0.25400001 102559.69219436 3922.90841203
0.25500001 100274.46884620 3850.53978587
0.25600001 98033.60959900  4535.03499461
0.25700001 95836.26078143  5192.40885481
0.25800001 93682.04089000  5823.27593725
0.25900001 91570.92342086  4642.64603710
0.26000001 89502.71208240  3504.03134382
0.26100001 87474.08778179  4812.82453748
0.26200001 85489.05266009  5396.06925923
0.26300001 83543.70701459  3969.99714518
0.26400001 81638.79023619  4867.71309816
0.26500001 79774.50341026  3183.00283669
0.26600001 77948.71758455  4058.40017308
0.26700001 76163.05988047  4898.80824332
0.26800001 74415.70447541  4203.74334474
0.26900001 72705.84127561  3533.50405321
0.27000001 71034.25808416  3753.80554610
0.27100001 69399.50895712  3397.80011933
0.27200001 67801.82194256  3609.43016192
0.27300001 66239.67028739  2722.45057765
0.27400001 64712.33454645  2669.38392637
0.27500001 63222.44553086  2879.15030573
0.27600001 61765.17094103  2822.97727146
0.27700001 60344.11025599  3271.25437179
0.27800001 58955.71103581  2960.75594834
0.27900001 57601.39110523  3386.96195729
0.28000001 56279.56573143  2609.40218864
0.28100001 54990.13572599  3256.51599182
0.28200001 53733.29013529  3421.46741130
0.28300001 52507.93558943  2460.52197818
0.28400001 51313.85984671  2413.03437350
0.28500001 50150.55738587  2581.75081642
0.28600001 49016.84461695  2743.22783883
0.28700001 47913.40586878  2897.80292410
0.28800001 46838.67681481  3248.73077765
0.28900001 45794.22475967  2589.66353274
0.29000001 44777.05957922  2931.77811472
0.29100001 43789.45218710  2493.37152556
0.29200001 42828.28314574  2070.53344669
0.29300001 41894.60548287  2771.32828388
0.29400001 40987.53093814  1995.06816285
0.29500001 40108.10846678  2136.96012027
0.29600001 39253.16444739  2098.47427069
0.29700001 38423.76307152  2404.55920684
0.29800001 37620.04856947  2362.16296150
0.29900001 36840.99100976  1989.41360870
0.30000001 36085.98505607  2280.99522338
0.30100001 35355.61332975  2242.25310352
0.30200001 34647.82260038  1732.21797291
0.30300001 33963.55643116  1858.48589590
0.30400001 33302.57354956  2133.02993683
0.30500001 32662.88329755  2548.68490437
0.30600001 32045.38458338  1770.82803591
0.30700001 31449.76484622  1888.87296609
0.30800001 30875.10949944  1717.27367166
0.30900001 30321.10353694  1691.91765746
0.31000001 29788.53461278  1806.52576712
0.31100001 29274.01403933  1370.02392190
0.31200001 28780.61318336  1756.62480882
0.31300001 28305.52887534  1333.19047315
0.31400001 27851.06132563  1447.55898094
0.31500001 27414.34889152  1299.44019898
0.31600002 26995.52369357  1540.36465489
0.31700002 26594.28857104  2029.67619984
0.31800002 26211.13900042  1505.04367267
0.31900002 25845.25362572  1364.62945605
0.32000002 25495.91487227  1350.39119515
0.32100002 25163.43167735  1215.39380757
0.32200002 24847.43705319  1805.78757335
0.32300002 24546.36323746  1312.24864081
0.32400002 24261.21370108  1537.55449111
0.32500002 23990.89667451  1642.41686411
0.32600002 23735.79524354  1397.08897419
0.32700002 23495.27991985  1387.16139215
0.32800002 23269.44260439  1837.35527505
0.32900002 23056.46135079  1255.42438000
0.33000002 22858.53550409  1702.38951228
0.33100002 22671.75779480  1241.95895081
0.33200002 22500.27646497  1910.61106650
0.33300002 22340.45424195  1566.95953473
0.33400002 22193.61598116  1895.88973497
0.33500002 22058.41753990  1556.44201532
0.33600002 21935.19855300  1441.47164117
0.33700002 21822.71376949  1548.97629671
0.33800002 21723.03816065  1325.53985134
0.33900002 21632.94396625  1103.28019453
0.34000002 21554.43986776  1323.01158174
0.34100002 21486.18894826  1212.46569977
0.34200002 21428.91101400  1212.76927627
0.34300002 21380.26284474  1103.22161504
0.34400002 21342.30753331  1325.35736059
0.34500002 21313.23602848  1438.00410295
0.34600002 21294.66793420  1662.58127770
0.34700002 21282.80672452  1333.15507636
0.34800002 21281.23813721  1225.48015617
0.34900002 21287.73707704  1564.64874927
0.35000002 21302.54402667  1458.05269496
0.35100002 21325.31287986  1463.76954540
0.35200002 21355.28050080  1696.14323411
0.35300002 21392.94117371  1817.54436820
0.35400002 21438.42419661  1369.91537105
0.35500002 21490.71421111  1491.88545120
0.35600002 21549.34825624  1269.36441916
0.35700002 21614.71594895  1392.85236172
0.35800002 21687.13646245  1401.42282458
0.35900002 21765.21999849  1762.98290338
0.36000002 21850.21036135  1419.82673653
0.36100002 21939.91276373  1548.73851535
0.36200002 22036.48061233  1319.87506879
0.36300002 22136.61002959  1692.12255081
0.36400002 22242.83155990  1583.13361126
0.36500002 22353.60067812  1349.93400889
0.36600002 22469.84954627  1979.14444178
0.36700002 22590.09507915  1870.45996115
0.36800002 22716.30140676  1760.28627939
0.36900002 22845.81106792  1901.91386150
0.37000002 22978.47362278  1918.12817652
0.37100002 23115.51838820  1547.81518459
0.37200002 23256.69974077  2212.06110063
0.37300002 23400.92248444  1444.07099492
0.37400002 23549.51486151  1854.52438319
0.37500002 23700.34937953  1470.36974516
0.37600002 23855.18076986  1888.61475102
0.37700002 24011.70519983  1497.61012426
0.37800002 24172.08115487  1649.01945450
0.37900002 24334.70711414  1664.49404546
0.38000002 24499.91713950  2240.27252936
0.38100002 24667.00738095  1978.78742584
0.38200002 24836.35263736  1569.53337927
0.38300002 25007.61926731  1728.52672564
0.38400002 25181.51465698  1745.07904840
0.38500002 25355.72817667  1468.09673098
0.38600002 25533.11978935  1630.41744139
0.38700002 25710.72351605  1646.00059748
0.38800002 25889.78679861  1510.66913127
0.38900002 26070.07427198  1830.11930060
0.39000002 26252.28406049  1847.63583971
0.39100002 26434.39133461  2331.51342617
0.39200002 26617.97467084  2510.60748990
0.39300002 26801.88298236  1742.39049523
0.39400002 26987.21720603  2078.69050378
0.39500002 27172.19723529  2259.64002914
0.39600002 27357.48354854  2117.87968925
0.39700002 27542.86292319  2137.60169274
0.39800002 27729.29035577  1659.59810642
0.39900002 27914.86259243  1674.89183490
0.40000002 28100.59209474  2197.32590296
0.40100002 28285.73991078  2729.00831589
0.40200002 28471.98231413  1893.24455368
0.40300002 28656.69361279  2083.91485826
0.40400002 28840.87042081  2277.70784940
0.40500002 29024.77933054  2651.41371747
0.40600002 29208.24693459  1961.47991583
0.40700002 29390.72121240  2158.45466811
0.40800002 29572.84955877  1995.72384703
0.40900002 29753.12441284  2378.76240952
0.41000002 29933.29386979  2214.46518541
0.41100002 30112.14844189  2233.11703426
0.41200002 30289.14975448  1876.41291620
0.41300002 30465.53600331  2081.10086299
0.41400002 30640.39161553  2670.31025582
0.41500002 30814.38367137  1922.81763220
0.41600002 30985.72486519  2131.97290037
0.41700002 31156.41819623  2930.26127020
0.41800002 31326.23893872  2559.51047377
0.41900002 31492.58286338  2579.24265873
0.42000002 31657.85592455  2199.11306600
0.42100002 31822.05482023  2618.63701524
0.42200002 31984.19245456  3044.09566111
0.42300002 32143.95035300  2248.79087326
0.42400002 32301.66447461  2471.07744940
0.42500002 32457.93887813  3318.49982815
0.42600002 32610.78138946  2506.46477637
0.42700002 32762.85868324  3575.73856613
0.42800002 32912.15637719  2753.26657220
0.42900002 33059.83120457  2345.59513511
0.43000002 33205.14038586  2576.05491321
0.43100002 33346.74208300  2593.04278725
0.43200002 33487.04046173  2609.98005727
0.43300002 33624.53952040  2188.95762651
0.43400002 33759.89039729  3083.96613394
0.43500002 33892.32217779  2438.21377301
0.43600002 34023.24806850  2899.29122155
0.43700002 34150.53657128  2243.69035906
0.43800002 34274.59830091  2934.07712659
0.43900002 34397.14067630  3178.29594911
0.44000002 34516.15997035  2968.21731731
0.44100002 34633.19717098  2755.41729750
0.44200002 34747.23311655  3001.63987502
0.44300002 34858.75007919  2321.59286530
0.44400002 34966.98133106  3967.87839458
0.44500002 35071.50886718  3284.79767617
0.44600002 35174.02551311  3537.62778363
0.44700002 35273.88454686  3081.52670005
0.44800002 35369.85364409  2620.37573141
0.44900002 35464.13487453  2633.21213923
0.45000002 35555.17614721  3126.90011446
0.45100002 35642.05006425  2416.53110888
0.45200002 35726.82036913  3641.45633870
0.45300002 35808.11368061  3901.65225155
0.45400002 35886.93220838  2939.13988716
0.45500002 35962.53618888  3443.77262866
0.45600002 36034.69913314  2470.17874265
0.45700002 36104.00377593  3224.44873005
0.45800002 36169.58550526  3984.44172810
0.45900002 36232.33793861  3250.04086713
0.46000002 36292.76646424  3513.50288792
0.46100002 36348.87038702  2770.87452093
0.46200002 36402.62185799  4045.05953257
0.46300002 36452.73879063  4059.37718412
0.46400002 36499.39228045  3564.16582511
0.46500002 36543.76773092  3065.29138255
0.46600002 36584.15248140  2562.72000278
0.46700002 36621.48814993  3084.99430797
0.46800002 36656.18894979  3352.39191929
0.46900002 36687.15566759  3621.02243601
0.47000002 36714.61719163  3372.05417579
0.47100002 36739.29331583  2601.14209005
0.47200002 36760.68233887  3390.62169623
0.47300002 36779.33949912  3138.01339480
0.47400002 36793.56960159  2883.69615420
0.47500002 36805.74228014  4730.27422205
0.47600002 36814.99259904  2897.52412984
0.47700002 36819.95289799  4487.98427146
