# SAXS profile: number of points = 501, q_min = 0, q_max = 0.5, delta_q = 0.001
#    q    intensity    error
0.00000000 1682732.95097188 479.57889103
0.00100000 1682663.84744772 656.23891609
0.00200000 1682456.48767165 832.81598777
0.00300000 1682111.03369440 1009.26665617
0.00400000 1681627.36531715 1387.34262910
0.00500000 1681005.93459422 1966.77702132
0.00600000 1680246.45453835 2822.81415855
0.00700000 1679349.58946003 2619.78546844
0.00800000 1678314.83891215 2265.72512819
0.00900000 1677143.50767218 4276.71612738
0.01000000 1675834.74876098 3041.64020034
0.01100000 1674389.87849406 3315.29210376
0.01200000 1672808.23673187 3588.17382511
0.01300000 1671091.32104006 3509.29192896
0.01400000 1669238.33930408 4131.36507292
0.01500000 1667251.08518439 4801.68333914
0.01600000 1665128.35274900 4246.07748932
0.01700000 1662872.36816395 4938.73115499
0.01800000 1660482.60342101 6625.32588577
0.01900000 1657959.82935503 7460.81956875
0.02000000 1655304.73473431 6778.47319537
0.02100000 1652518.76871726 5998.64340241
0.02200000 1649600.41135527 9105.79468438
0.02300000 1646552.32891903 6520.34751932
0.02400000 1643374.43654688 8627.71618527
0.02500000 1640068.15051840 8315.14590289
0.02600000 1636633.67679119 9279.71337184
0.02700000 1633071.91855272 6858.90237207
0.02800000 1629382.86068147 9214.16049971
0.02900000 1625569.11307073 13167.11042043
0.03000000 1621630.74211465 7540.58329744
0.03100000 1617568.34596692 9317.19410148
0.03200000 1613382.75332321 10382.11849582
0.03300000 1609076.68034852 9026.92059290
0.03400000 1604648.29672976 12636.60591980
0.03500000 1600100.90910957 12096.76343147
0.03600000 1595434.09502143 10625.59156389
0.03700000 1590649.91260337 12693.38688961
0.03800000 1585749.59696238 12059.62624301
0.03900000 1580734.32690060 14226.60960094
0.04000000 1575603.06766588 13565.94304124
0.04100000 1570359.83937386 11871.92093613
0.04200000 1565004.94717744 14131.99532864
0.04300000 1559538.33131150 15439.43019665
0.04400000 1553963.77108365 11538.18153615
0.04500000 1548280.99843672 11751.45332416
0.04600000 1542490.15702755 16311.83416885
0.04700000 1536594.52798728 16595.22167407
0.04800000 1530594.34442343 14624.82964143
0.04900000 1524492.29843843 14863.80060165
0.05000000 1518288.02990455 12776.39436659
0.05100000 1511984.77097471 18869.57082079
0.05200000 1505580.83825457 11969.36822191
0.05300000 1499081.33722006 14571.07127705
0.05400000 1492485.13473330 24626.00587151
0.05500000 1485795.95325516 18721.02988434
0.05600000 1479012.17595492 16439.22110286
0.05700000 1472138.89209189 14088.36985494
0.05800000 1465174.87203387 16856.83768984
0.05900000 1458121.90564156 17060.02709281
0.06000000 1450982.85890395 19914.74066885
0.06100000 1443759.30551281 16112.35460248
0.06200000 1436451.44270174 13574.46676805
0.06300000 1429062.79028720 21950.40548511
0.06400000 1421591.39764789 16632.62013033
0.06500000 1414043.35546852 23798.35078577
0.06600000 1406416.65879637 16961.38569868
0.06700000 1398714.21577672 21400.32850290
0.06800000 1390939.22162783 15835.84377949
0.06900000 1383092.13304173 21783.70211530
0.07000000 1375172.57634162 20503.82407342
0.07100000 1367185.49244591 19195.28521300
0.07200000 1359129.68233906 14882.47071881
0.07300000 1351010.03292194 23993.93930894
0.07400000 1342825.92598754 27192.22627559
0.07500000 1334579.45716125 15214.20652477
0.07600000 1326271.16911347 24509.49235424
0.07700000 1317906.16566229 21587.30400574
0.07800000 1309483.06475894 15517.37504510
0.07900000 1301003.48507766 18734.45106383
0.08000000 1292472.11581988 26696.01280460
0.08100000 1283888.53155414 17371.01264694
0.08200000 1275253.37208807 19052.28627303
0.08300000 1266570.28627756 27129.93680533
0.08400000 1257839.69849922 19244.94829037
0.08500000 1249065.58967385 19335.53623586
0.08600000 1240247.10328884 16185.22545784
0.08700000 1231387.61492240 19505.18073629
0.08800000 1222486.20411618 16320.19159141
0.08900000 1213548.77772227 18021.20019563
0.09000000 1204573.93362585 21375.16545630
0.09100000 1195564.46453154 19798.54846280
0.09200000 1186521.29247374 29793.55105392
0.09300000 1177448.01127510 21582.62306089
0.09400000 1168342.85021725 16648.88639805
0.09500000 1159210.15187891 18361.88966882
0.09600000 1150050.92441099 18406.56591045
0.09700000 1140868.22502636 25156.14554449
0.09800000 1131662.82854202 16805.19379399
0.09900000 1122436.43457672 18520.20204138
0.10000000 1113189.02219240 33729.62895864
0.10100000 1103923.47968137 25335.04505024
0.10200000 1094642.13821862 25368.33274645
0.10300000 1085345.40671677 20317.66696950
0.10400000 1076036.43856875 22031.84711619
0.10500000 1066717.60254897 18656.89174638
0.10600001 1057385.52584526 22062.35003487
0.10700001 1048047.61167064 16978.37210803
0.10800001 1038701.33557431 20379.32116305
0.10900001 1029350.74340232 30571.71851793
0.11000001 1019996.63618855 22077.82822949
0.11100001 1010640.16212839 20374.50662760
0.11200001 1001284.20330280 18668.94484946
0.11300001 991927.40563494 22050.54726542
0.11400001 982574.93092408 25424.12753474
0.11500001 973226.11096482 22014.37566664
0.11600001 963882.79127215 20299.37254012
0.11700001 954547.56682756 20274.59127425
0.11800001 945218.60360260 28682.65987723
0.11900001 935900.47784836 25269.31409213
0.12000001 926593.06502719 16817.66492244
0.12100001 917300.24232135 23501.23331537
0.12200001 908020.03341135 20103.56448683
0.12300001 898755.98580440 18388.54833592
0.12400001 889507.93264336 16678.27452290
0.12500001 880278.26311612 19964.71194822
0.12600001 871069.51575297 16593.87505705
0.12700001 861881.26836387 19857.74535893
0.12800001 852714.24809874 26400.03436535
0.12900001 843570.85578591 19739.55895576
0.13000001 834452.58655372 21316.09232825
0.13100001 825358.71041771 26147.36517856
0.13200001 816293.28477890 22799.07251863
0.13300001 807257.17417682 16225.86996589
0.13400001 798249.19669478 17781.00169467
0.13500001 789272.39436391 19321.38912500
0.13600001 780326.54421236 19242.85348759
0.13700001 771414.76063572 17565.11492793
0.13800001 762535.31192935 25438.17920552
0.13900001 753693.43389505 18993.07542983
0.14000001 744886.42965317 18905.21847618
0.14100001 736116.86468273 21951.00594011
0.14200001 727384.64741020 18722.88170741
0.14300001 718694.36967655 15523.79911723
0.14400001 710040.14609630 24709.39824969
0.14500001 701431.16315036 15361.34319762
0.14600001 692861.74237053 27499.68385197
0.14700001 684338.00691567 19749.99581132
0.14800001 675856.14257667 19637.00114901
0.14900001 667418.87785099 22525.38819024
0.15000001 659028.30583840 17912.39019785
0.15100001 650683.83538652 14835.59214683
0.15200001 642387.92579549 20639.92502975
0.15300001 634140.06462775 17578.36342099
0.15400001 625939.30264548 16008.39842061
0.15500001 617790.19682612 15901.92041676
0.15600001 609689.68042362 17229.83118193
0.15700001 601643.55859730 15684.84831291
0.15800001 593645.08745422 16990.12320485
0.15900001 585702.01521721 19679.58864019
0.16000001 577809.98502158 13954.11179694
0.16100001 569974.81562348 20775.58301017
0.16200001 562191.90495341 15120.15199748
0.16300001 554465.39444327 17731.80415138
0.16400001 546793.96004199 16239.78137992
0.16500001 539179.02456709 14768.11418011
0.16600001 531620.43166102 19975.63866277
0.16700001 524118.61841825 19811.68471161
0.16800001 516673.74168919 15717.21596430
0.16900001 509289.23617368 15584.25136277
0.17000001 501962.27163800 12875.33287548
0.17100001 494694.52694411 12763.11939785
0.17200001 487486.33921970 12650.27110013
0.17300001 480337.66591194 15044.17640682
0.17400001 473250.63464389 13665.11272069
0.17500001 466223.29697784 13539.12518366
0.17600001 459255.26406862 15851.19618797
0.17700001 452350.90444406 12077.76971910
0.17800001 445507.05680393 14354.23804820
0.17900001 438724.90708928 11845.57305092
0.18000001 432005.63137735 14074.74413509
0.18100001 425349.72059835 17418.07188127
0.18200001 418753.39982430 17242.17205225
0.18300001 412222.71818885 13652.81707136
0.18400001 405753.39181520 19141.41716314
0.18500001 399348.40064320 11141.82090431
0.18600001 393006.19656248 13228.58920126
0.18700001 386727.30917780 16358.56595108
0.18800001 380511.31198281 11866.24582482
0.18900001 374361.23236655 13870.08431451
0.19000001 368270.75755639 12661.14924301
0.19100001 362249.10798100 10432.77480280
0.19200001 356287.79705438 13408.89187573
0.19300001 350393.04362653 16314.30088214
0.19400001 344560.89676417 11086.24737726
0.19500001 338793.43361656 14940.79112852
0.19600001 333088.71895433 12795.60374330
0.19700001 327448.82806157 11670.27678362
0.19800001 321872.80471419 10568.69404225
0.19900001 316361.55787693 10439.93190333
0.20000001 310912.17805441 12186.20339478
0.20100001 305528.38130257 13886.26558650
0.20200001 300206.73645643 11883.68422429
0.20300001 294949.89956039 9928.01408845
0.20400001 289756.34964644 8910.00817277
0.20500001 284625.33485879 11433.40024170
0.20600001 279558.10867333 11284.36358999
0.20700001 274553.60312642 9422.68010470
0.20800001 269611.71201969 9297.56032850
0.20900001 264734.94913772 10840.89667965
0.21000001 259918.06826280 13162.25159904
0.21100001 255163.86405730 13794.15914303
0.21200001 250471.71903470 10403.34334192
0.21300001 245841.27566293 11837.25798278
0.21400001 241273.17533855 10893.48438154
0.21500001 236767.19985739 11506.88645709
0.21600001 232320.82125162 10586.86032497
0.21700001 227936.07772242 8198.86110331
0.21800001 223611.96971805 11018.48032882
0.21900001 219347.05331994 7962.29841198
0.22000001 215141.81519597 8558.34181316
0.22100001 210998.83885691 7728.88783278
0.22200001 206913.96020098 6921.27229599
0.22300001 202888.05094904 8180.44660108
0.22400001 198919.23612707 7384.87699042
0.22500001 195011.82890025 8594.17170603
0.22600001 191160.79927215 7159.92807532
0.22700001 187368.41152315 8971.19996797
0.22800001 183632.68222297 6938.56122592
0.22900001 179953.59194168 7450.07905871
0.23000001 176331.44181172 6720.87322250
0.23100001 172766.65408564 7815.96380047
0.23200001 169256.03365838 6507.04852174
0.23300001 165802.08736429 9311.44566676
0.23400001 162403.16119081 5724.71170273
0.23500001 159057.53590539 6193.70074109
0.23600001 155767.22932150 7198.78284357
0.23700001 152530.30185474 5989.86523714
0.23800001 149346.98236477 6424.90748522
0.23900001 146216.63025368 6316.55872573
0.24000001 143138.74449107 6209.35902973
0.24100001 140114.04150260 6103.36793655
0.24200001 137140.35406476 6498.39598475
0.24300001 134217.87069523 4912.37429981
0.24400001 131345.78685752 6757.74105349
0.24500001 128524.38160721 5216.80489621
0.24600001 125752.95694401 6522.80618525
0.24700001 123031.82616387 5492.14097977
0.24800001 120358.58359442 5394.47197190
0.24900001 117733.67932453 7064.02109365
0.25000001 115157.52271878 5202.81712257
0.25100001 112628.43127210 5108.82588420
0.25200001 110147.51088726 5434.12770671
0.25300001 107713.25083001 4514.26255586
0.25400001 105324.42463383 4431.52537613
0.25500001 102981.37758391 5536.27912084
0.25600001 100684.17713249 4269.51273331
0.25700001 98431.40881936  4952.08441200
0.25800001 96222.92005560  5233.56486945
0.25900001 94058.53295970  4401.93955079
0.26000001 91938.08956249  3959.31401435
0.26100001 89858.22191597  4237.71394607
0.26200001 87823.46768744  3811.09956063
0.26300001 85829.12415071  3398.83347719
0.26400001 83876.20033736  4667.71076964
0.26500001 81964.92005460  3924.48055792
0.26600001 80093.35995543  4811.60882701
0.26700001 78262.64198990  5033.85337099
0.26800001 76471.47529292  3394.18659149
0.26900001 74718.73811767  3631.33084436
0.27000001 73005.21923070  2967.66230216
0.27100001 71329.50857974  2910.24408777
0.27200001 69691.74708393  3424.65261377
0.27300001 68090.58043508  2798.52298832
0.27400001 66525.02145659  2744.15726495
0.27500001 64998.00358801  2960.00922348
0.27600001 63504.52218506  2902.47432383
0.27700001 62047.89592440  3622.35633550
0.27800001 60625.12060713  2537.16141749
0.27900001 59237.07013909  2985.54847631
0.28000001 57882.56706567  2683.72534902
0.28100001 56561.37183440  3110.30998438
0.28200001 55273.35616305  3519.53112026
0.28300001 54017.81268778  2991.50660824
0.28400001 52794.41624042  3611.13824176
0.28500001 51602.57317964  2435.12554360
0.28600001 50441.15337908  3040.08845805
0.28700001 49310.75398790  3195.33700966
0.28800001 48209.90921053  2925.85952848
0.28900001 47140.33422391  2665.78602654
0.29000001 46098.39133175  2615.85333994
0.29100001 45086.81511087  2172.28285487
0.29200001 44102.76755351  2713.64341602
0.29300001 43146.74257020  2663.88001238
0.29400001 42218.05000541  2054.96368129
0.29500001 41317.41736363  2017.94275956
0.29600001 40442.46876984  2162.05448278
0.29700001 39593.47903437  2654.74289492
0.29800001 38771.06697130  2086.65892317
0.29900001 37973.64305532  2904.98383125
0.30000001 37201.21147546  2183.52521092
0.30100001 36454.18566495  3467.88684648
0.30200001 35730.17177446  1623.93638403
0.30300001 35030.13167946  1597.37408021
0.30400001 34354.28731619  2043.22133486
0.30500001 33700.15365765  2784.30682701
0.30600001 33068.75141489  1522.81607475
0.30700001 32459.85676816  1799.57454442
0.30800001 31872.63259021  2215.94488575
0.30900001 31306.69989764  1746.91393699
0.31000001 30762.43460814  1578.57440665
0.31100001 30237.08376018  1981.13382176
0.31200001 29733.10120790  2093.95375171
0.31300001 29248.28408057  2204.15079267
0.31400001 28784.39455989  1632.07524882
0.31500001 28338.61607859  1746.22560544
0.31600002 27911.46582776  1459.90928924
0.31700002 27502.42301217  1836.61189571
0.31800002 27111.74098617  1427.02655437
0.31900002 26738.83617767  1540.15703676
0.32000002 26383.05543053  1778.48185078
0.32100002 26044.60424793  1383.74988921
0.32200002 25722.71444391  1246.26557382
0.32300002 25416.38370649  1482.28356795
0.32400002 25126.42885408  1347.40481110
0.32500002 24851.59312640  1458.29155371
0.32600002 24592.54409094  1568.14364821
0.32700002 24348.21927684  1796.89866772
0.32800002 24119.22539278  1309.31221245
0.32900002 23903.23501040  1183.21018904
0.33000002 23702.86649540  1294.53211495
0.33100002 23513.67279994  1639.37334524
0.33200002 23340.47326825  1282.44236445
0.33300002 23178.88027248  1858.01913063
0.33400002 23030.92693827  1273.03454680
0.33500002 22894.75749826  1269.28541581
0.33600002 22770.82728527  1266.17191116
0.33700002 22658.03512896  1148.76243544
0.33800002 22558.20036277  1261.79299705
0.33900002 22468.37836557  1145.88735091
0.34000002 22390.30442153  1603.36977556
0.34100002 22322.74855827  1259.67276080
0.34200002 22266.47607505  1603.85434764
0.34300002 22219.03760376  1605.10335251
0.34400002 22182.58524674  1377.53860906
0.34500002 22155.09977469  1839.75957242
0.34600002 22138.40140777  1152.30384785
0.34700002 22128.57966532  1270.62310456
0.34800002 22129.35533429  1274.31898728
0.34900002 22138.24119058  1510.93503282
0.35000002 22155.78024261  1749.75282753
0.35100002 22181.40241487  1171.17810297
0.35200002 22214.23399626  1293.86812039
0.35300002 22255.15040879  1181.74854268
0.35400002 22303.92468036  1543.98925913
0.35500002 22359.60159103  1432.80333782
0.35600002 22421.76755499  1320.75428038
0.35700002 22490.88321962  1328.53653471
0.35800002 22567.17928566  1579.81546072
0.35900002 22649.21566715  2323.80963752
0.36000002 22738.09406844  1354.39463734
0.36100002 22832.09136329  1363.76088173
0.36200002 22932.89823576  1498.43564170
0.36300002 23037.43000090  1383.62811139
0.36400002 23148.10590030  1520.83062969
0.36500002 23263.31168512  1660.30263361
0.36600002 23384.04603421  1416.02097468
0.36700002 23509.05153070  1427.46967656
0.36800002 23639.97390298  1439.31987926
0.36900002 23774.11039745  1979.19478434
0.37000002 23911.52630942  1862.94710301
0.37100002 24053.29061434  1476.39104784
0.37200002 24199.42683065  1489.35379484
0.37300002 24348.45936753  1775.73322579
0.37400002 24501.94940910  1378.23471955
0.37500002 24657.61417914  1668.82740670
0.37600002 24817.41583942  1824.45241186
0.37700002 24978.86082617  1841.19191872
0.37800002 25144.02141163  1429.43768497
0.37900002 25311.59652321  1587.03717719
0.38000002 25481.64605647  1456.27614112
0.38100002 25653.58609245  2057.93077383
0.38200002 25827.83392363  1780.57095505
0.38300002 26003.78642562  1797.38180289
0.38400002 26182.41358169  1965.64479277
0.38500002 26361.66106759  1984.24232256
0.38600002 26543.52245848  2157.19217240
0.38700002 26725.80311560  1866.53017802
0.38800002 26909.35566783  1570.16097760
0.38900002 27094.22926155  2060.51623296
0.39000002 27280.75124894  1760.01775021
0.39100002 27467.29751045  1776.58488714
0.39200002 27655.29433349  1630.27967820
0.39300002 27843.39237562  1645.54456736
0.39400002 28032.89496346  2823.61347897
0.39500002 28221.83692457  2514.56578911
0.39600002 28411.14542485  1691.88379021
0.39700002 28600.27263281  2219.66726420
0.39800002 28790.72112389  2584.68711136
0.39900002 28979.98039966  2782.07825018
0.40000002 29169.08513641  2280.87672031
0.40100002 29357.83174176  1947.30507169
0.40200002 29547.40213187  2143.36865220
0.40300002 29735.32666631  2162.35305763
0.40400002 29922.80250961  2363.15344016
0.40500002 30109.65873106  2200.41396432
0.40600002 30296.04253729  2959.31757526
0.40700002 30481.27089420  2611.63541396
0.40800002 30665.98590669  2445.76582187
0.40900002 30848.80253213  2466.36187930
0.41000002 31031.33132651  2104.38983362
0.41100002 31212.45735057  2507.60894236
0.41200002 31391.48961192  2139.17316096
0.41300002 31569.82480482  2352.58345593
0.41400002 31746.39926120  2964.32017147
0.41500002 31922.17779445  2589.52718539
0.41600002 32095.02785777  2810.56172268
0.41700002 32267.03981608  2023.14349233
0.41800002 32438.11966937  2038.73591782
0.41900002 32605.43947761  3286.62845508
0.42000002 32771.69322526  2897.34553533
0.42100002 32936.57186144  2293.37360738
0.42200002 33099.26662927  2520.17828057
0.42300002 33259.41367735  3172.94821517
0.42400002 33417.38537653  2982.50178618
0.42500002 33573.68100561  3218.03747688
0.42600002 33726.36131725  3888.31238052
0.42700002 33878.12894708  2174.97598147
0.42800002 34027.04839010  2627.56880120
0.42900002 34174.09675640  3747.18988691
0.43000002 34318.62506599  3106.17890192
0.43100002 34459.27585136  3126.14565338
0.43200002 34598.37687815  3370.74702709
0.43300002 34734.51537357  2487.33876377
0.43400002 34868.36700966  3185.22547727
0.43500002 34999.05150248  2517.83188441
0.43600002 35128.07884766  2993.43938086
0.43700002 35253.38839705  3010.99204568
0.43800002 35375.14407106  4193.01602545
0.43900002 35495.29873149  2811.22779276
0.44000002 35611.76274475  2355.71821720
0.44100002 35725.93940695  2842.35587392
0.44200002 35837.02646959  3095.78167829
0.44300002 35945.34547210  3830.33619503
0.44400002 36050.13209886  4572.05822011
0.44500002 36151.19365021  2660.36646680
0.44600002 36250.04032693  2673.62185102
0.44700002 36346.06597118  2442.45574901
0.44800002 36437.72797134  2454.08109517
0.44900002 36527.85882896  2465.63058781
0.45000002 36614.52934465  2724.67033031
0.45100002 36696.74818717  4478.47136101
0.45200002 36776.73655018  3748.46905053
0.45300002 36852.86663452  3513.55247145
0.45400002 36926.55538287  3276.30878162
0.45500002 36996.79276201  3542.81304280
0.45600002 37063.57292874  3556.99126255
0.45700002 37127.02833848  2805.68966451
0.45800002 37186.62306936  3328.38885557
0.45900002 37243.30679796  3083.74594902
0.46000002 37297.42772339  2837.02897424
0.46100002 37346.99496111  2588.14687347
0.46200002 37394.17684768  4155.24112825
0.46300002 37437.52740215  2605.65203068
0.46400002 37477.21407237  2875.43938598
0.46500002 37514.38099163  4720.05964008
0.46600002 37547.46402159  3419.25997318
0.46700002 37577.28236556  3429.30295122
0.46800002 37604.34084358  3703.65170522
0.46900002 37627.49567083  2918.01242758
0.47000002 37646.80847824  3457.67128857
0.47100002 37663.37082741  2666.56678097
0.47200002 37676.33614778  4009.70426458
0.47300002 37686.62324638  4555.18236769
0.47400002 37692.10500547  3759.78765250
0.47500002 37695.52023839  3229.75232711
0.47600002 37695.80803125  3775.98926946
0.47700002 37691.57384381  2972.73456996
