# SAXS profile: number of points = 501, q_min = 0, q_max = 0.5, delta_q = 0.001
#    q    intensity    error
0.00000000 1700912.83420645 280.65061764
0.00100000 1700843.08769826 765.37940764
0.00200000 1700633.79856931 765.28523359
0.00300000 1700285.12471006 1224.20533340
0.00400000 1699796.94955072 1274.84776060
0.00500000 1699169.73414250 2752.65507826
0.00600000 1698403.18271828 2318.32043879
0.00700000 1697497.96568688 3055.49646522
0.00800000 1696453.56816844 3435.31862058
0.00900000 1695271.34639775 3560.06997962
0.01000000 1693950.37832930 4472.02919189
0.01100000 1692492.02584511 3960.43151291
0.01200000 1690895.68575959 3626.97140497
0.01300000 1689162.73383087 4256.69027699
0.01400000 1687292.47590762 4555.68988691
0.01500000 1685286.66674924 4449.15699833
0.01600000 1683144.16169015 4721.21958460
0.01700000 1680867.11821125 4992.17556503
0.01800000 1678455.03005343 5261.95675599
0.01900000 1675908.68620167 5027.72628547
0.02000000 1673228.77800334 5270.67088913
0.02100000 1670416.77785141 5512.37561683
0.02200000 1667471.16398833 7478.60851026
0.02300000 1664394.57480364 7190.18489044
0.02400000 1661186.89748125 7475.34137952
0.02500000 1657849.70532961 8405.29838990
0.02600000 1654383.06630465 7370.27689749
0.02700000 1650787.95352040 7626.64069457
0.02800000 1647064.35918893 7164.73029104
0.02900000 1643214.77264898 7394.46681643
0.03000000 1639239.53116578 8384.71058732
0.03100000 1635138.95333348 10988.13427200
0.03200000 1630914.06253426 8880.32747951
0.03300000 1626567.52910476 10784.14321512
0.03400000 1622097.48962963 9367.61343484
0.03500000 1617507.31951182 10481.44791445
0.03600000 1612796.63050699 10741.22605557
0.03700000 1607967.39098916 12831.58037352
0.03800000 1603020.80802374 9377.67216093
0.03900000 1597958.28289052 15340.40022616
0.04000000 1592778.59982020 11754.70661137
0.04100000 1587485.88247222 13001.50998028
0.04200000 1582080.35045300 11224.86060722
0.04300000 1576562.07880317 12486.37224371
0.04400000 1570934.78183509 11664.19129683
0.04500000 1565198.04364863 14039.82710389
0.04600000 1559352.37678956 14291.46519764
0.04700000 1553400.83174086 12302.93515957
0.04800000 1547343.67480065 12510.27419284
0.04900000 1541183.63834676 16182.42895589
0.05000000 1534920.40738421 11742.14166328
0.05100000 1528557.11609403 15499.56987923
0.05200000 1522092.24515737 19361.01426065
0.05300000 1515530.65236595 15958.53851337
0.05400000 1508871.64305120 13693.01079925
0.05500000 1502118.58520785 13879.57637479
0.05600000 1495269.84728145 16619.92512809
0.05700000 1488330.88359178 14243.32722083
0.05800000 1481300.06814201 15731.40745821
0.05900000 1474179.42140202 19901.42311844
0.06000000 1466971.84820984 16107.35164586
0.06100000 1459679.00007346 20362.52300259
0.06200000 1452300.89263491 16469.09289230
0.06300000 1444840.96786175 13870.47393999
0.06400000 1437297.65869026 14013.65282760
0.06500000 1429676.65427259 19815.31935513
0.06600000 1421976.28269709 15719.94854073
0.06700000 1414199.39994881 14424.83455455
0.06800000 1406349.26738582 17466.85871854
0.06900000 1398426.07750303 14683.47450125
0.07000000 1390429.64943576 16288.88410592
0.07100000 1382365.00783321 16422.49706225
0.07200000 1374230.79009109 16552.61064208
0.07300000 1366032.13530690 15162.95741238
0.07400000 1357768.17379629 16802.38193816
0.07500000 1349441.26841503 19998.72053530
0.07600000 1341051.80461245 20135.89379024
0.07700000 1332605.04618043 17150.62774851
0.07800000 1324099.31502314 17259.63538074
0.07900000 1315536.54446655 20522.37105625
0.08000000 1306921.39664077 20642.82442832
0.08100000 1298253.38986011 15968.51744449
0.08200000 1289533.16790464 17660.15756316
0.08300000 1280764.61560540 16137.63491400
0.08400000 1271947.82030397 17839.06901711
0.08500000 1263086.85635320 19552.58545425
0.08600000 1254180.99776042 22913.88790492
0.08700000 1245233.70383984 18080.79422879
0.08800000 1236243.94344280 18154.24316205
0.08900000 1227217.72391866 21537.67206639
0.09000000 1218153.39256179 21616.13296644
0.09100000 1209054.11197584 21690.43178789
0.09200000 1199920.61614040 26782.22941066
0.09300000 1190756.65878760 21826.57058125
0.09400000 1181560.38735488 20204.68357334
0.09500000 1172336.07174214 18569.80424923
0.09600000 1163084.74592353 20307.46061843
0.09700000 1153809.75365925 22049.30542903
0.09800000 1144511.68372315 25493.99895360
0.09900000 1135192.13420448 25541.82422064
0.10000000 1125851.27931518 17056.64768375
0.10100000 1116491.83919044 27331.72150884
0.10200000 1107116.36598864 22236.43325680
0.10300000 1097725.42765724 22261.87272010
0.10400000 1088321.69657645 20569.28103298
0.10500000 1078908.02079056 18870.10217145
0.10600001 1069480.85205125 22314.71902804
0.10700001 1060047.22864823 20607.31909465
0.10800001 1050605.44189126 20612.87973998
0.10900001 1041159.06894049 22332.86307988
0.11000001 1031708.79509521 20613.54269627
0.11100001 1022256.24053670 18891.29621440
0.11200001 1012803.65867463 18883.72510498
0.11300001 1003350.43060285 24020.21043952
0.11400001 993901.12964353 24002.71341105
0.11500001 984455.73050523 18842.48356912
0.11600001 975015.52123958 23956.13248499
0.11700001 965583.16466124 20508.98738327
0.11800001 956157.12435738 20480.88656835
0.11900001 946742.02121654 18745.49290303
0.12000001 937337.26330026 23817.74098239
0.12100001 927947.43175578 18679.58268120
0.12200001 918569.79122637 18642.37479121
0.12300001 909208.54844407 20293.53575739
0.12400001 899863.15198428 18559.67838416
0.12500001 890536.33344528 18514.25124473
0.12600001 881230.40209768 21823.67193636
0.12700001 871945.01663606 18415.47961921
0.12800001 862680.64426649 25039.30687992
0.12900001 853440.41139632 18306.29768727
0.13000001 844225.24623276 21565.73493151
0.13100001 835034.49160024 18187.05208435
0.13200001 825872.60132515 21419.00692507
0.13300001 816739.66899750 21341.40855700
0.13400001 807635.13326309 22896.45710748
0.13500001 798562.17613369 16290.66916120
0.13600001 789520.20315067 19469.56912770
0.13700001 780512.43679489 17772.26902384
0.13800001 771537.27814523 19303.86360948
0.13900001 762599.85723517 25623.35641145
0.14000001 753697.30283046 15940.69870664
0.14100001 744832.82804970 17451.43398427
0.14200001 736005.73463217 20523.52087822
0.14300001 727220.88178501 17278.76896621
0.14400001 718472.19546196 20314.80228493
0.14500001 709769.06510626 24870.30921451
0.14600001 701106.03869566 18551.26665903
0.14700001 692488.65719872 24597.19826411
0.14800001 683913.74457338 16814.02020360
0.14900001 675383.67162408 15196.13332851
0.15000001 666900.54164064 15105.29798087
0.15100001 658463.78079165 22519.46236565
0.15200001 650076.16845512 16411.17364704
0.15300001 641736.80563214 17788.94509157
0.15400001 633444.80669114 16200.35169564
0.15500001 625204.93491456 19018.73501765
0.15600001 617014.33264662 17436.82586352
0.15700001 608878.21525260 14430.41438256
0.15800001 600790.02247927 15761.72698368
0.15900001 592758.01280648 14226.19297884
0.16000001 584777.31887747 21183.55937625
0.16100001 576854.01087927 18222.81906387
0.16200001 568983.41223587 18085.13861165
0.16300001 561169.56857334 15185.24924246
0.16400001 553411.27053380 17806.00847004
0.16500001 545710.10295398 19023.45508710
0.16600001 538065.53319033 17522.10491561
0.16700001 530478.55022848 16041.67211631
0.16800001 522948.52641752 19885.11865593
0.16900001 515479.90548187 13144.73821046
0.17000001 508069.06789490 20851.15553099
0.17100001 500718.07570935 14210.37965966
0.17200001 493426.97717017 23047.97519201
0.17300001 486196.27422913 17765.61269930
0.17400001 479027.52454685 20119.15698112
0.17500001 471919.09778460 14950.39772389
0.17600001 464870.45207220 14810.77330252
0.17700001 457886.05000219 14670.66973497
0.17800001 450962.93997970 15740.86216347
0.17900001 444101.94834479 16787.05444035
0.18000001 437304.45333768 14247.37976272
0.18100001 430570.84212794 15280.95990894
0.18200001 423897.55817054 12799.58737359
0.18300001 417290.53903121 14972.38524773
0.18400001 410745.31875039 15957.45638729
0.18500001 404265.13610842 18046.39652843
0.18600001 397848.38930935 16739.47177102
0.18700001 391495.60659307 12144.19429027
0.18800001 385206.06850578 16380.88883714
0.18900001 378983.33939230 14041.33338790
0.19000001 372821.01316147 11749.45478493
0.19100001 366727.85287111 10561.76266173
0.19200001 360696.03125933 10442.15059836
0.19300001 354731.09996058 11354.94304629
0.19400001 348829.49379058 10203.26317552
0.19500001 342993.15905028 10083.99935260
0.19600001 337220.50851904 11957.83979717
0.19700001 331513.07813614 10830.53277453
0.19800001 325870.30159759 9727.22896238
0.19900001 320293.07992001 11530.55142205
0.20000001 314778.13571962 13286.78573667
0.20100001 309329.65023811 12184.49549875
0.20200001 303944.01829233 9255.09579443
0.20300001 298623.73894702 13706.83026552
0.20400001 293367.62473945 11727.37135326
0.20500001 288174.68883105 9795.05813635
0.20600001 283045.98624786 11425.15177494
0.20700001 277980.94672780 8673.00594787
0.20800001 272979.05434852 9413.68313420
0.20900001 268043.04613952 10976.36325828
0.21000001 263167.68696992 10828.03499224
0.21100001 258355.74040309 9858.85551984
0.21200001 253606.45913540 8912.99942767
0.21300001 248919.52015627 9588.38036971
0.21400001 244295.82071640 7878.54059057
0.21500001 239734.85911927 8544.15078296
0.21600001 235233.98289877 8422.55315590
0.21700001 230795.62759030 9811.12259273
0.21800001 226418.48905114 8925.41726039
0.21900001 222101.26567192 10261.07895920
0.22000001 217844.56376206 7943.70239318
0.22100001 213650.81261760 8537.48687588
0.22200001 209515.72668232 8409.96166669
0.22300001 205440.55399640 8283.36352882
0.22400001 201422.81590407 11556.63460897
0.22500001 197467.28945436 8702.38385777
0.22600001 193569.01204901 7250.12768914
0.22700001 189729.92100353 9733.14540775
0.22800001 185948.17245164 7026.05202835
0.22900001 182223.70419014 6286.71809186
0.23000001 178556.94044150 9280.49741834
0.23100001 174948.27962746 6697.02046086
0.23200001 171394.46325195 9584.37883833
0.23300001 167897.89539471 7661.18132919
0.23400001 164457.09255881 5797.11278687
0.23500001 161070.28467876 7412.45485150
0.23600001 157739.33311627 7850.68698051
0.23700001 154462.57238362 8271.47114237
0.23800001 151240.06767536 7048.54368740
0.23900001 148071.20283173 5330.56355408
0.24000001 144955.45067855 6812.18172686
0.24100001 141893.44526348 6695.95199871
0.24200001 138883.26768120 7087.21348501
0.24300001 135924.84365471 7959.75922094
0.24400001 133017.49806788 8310.26858490
0.24500001 130161.48475332 9125.62212774
0.24600001 127355.93330744 6605.95257315
0.24700001 124601.58019043 5098.69690259
0.24800001 121895.63342451 5008.08233616
0.24900001 119238.69155587 7154.32183181
0.25000001 116631.07416755 4830.27616516
0.25100001 114071.15508715 5174.26783954
0.25200001 111560.03779362 6350.55545184
0.25300001 109096.08967645 7066.15406265
0.25400001 106678.34635968 4080.44694131
0.25500001 104306.83841963 5607.53589874
0.25600001 101981.90908772 4324.54305947
0.25700001 99702.01769693  5016.00874766
0.25800001 97466.84495157  4165.24581608
0.25900001 95276.48476281  3715.78308156
0.26000001 93130.51417595  3646.05980250
0.26100001 91025.84816634  3935.04760242
0.26200001 88966.79328372  4211.68819333
0.26300001 86948.79806544  5509.07610610
0.26400001 84972.61631398  6079.79098495
0.26500001 83038.73563086  3975.89485014
0.26600001 81145.16181728  3249.86388456
0.26700001 79292.91493540  4143.84793061
0.26800001 77480.79456887  3126.35020880
0.26900001 75707.64132218  3986.00750424
0.27000001 73974.10120502  3007.04735628
0.27100001 72279.03721542  4128.57880112
0.27200001 70622.46107233  3470.38790133
0.27300001 69002.89210033  3403.22279944
0.27400001 67419.47163071  3615.36933729
0.27500001 65875.15589038  4363.57053269
0.27600001 64364.82842317  4278.97399608
0.27700001 62891.73515265  3671.61967198
0.27800001 61453.14060713  3600.53967858
0.27900001 60049.55176761  2774.28942296
0.28000001 58680.21100819  2473.37101106
0.28100001 57344.40128686  3153.36877601
0.28200001 56042.43454671  2854.80175093
0.28300001 54773.30135705  3033.34557272
0.28400001 53536.68932660  2975.30165015
0.28500001 52332.30941228  2694.06741606
0.28600001 51158.54287268  3083.32552488
0.28700001 50016.29116188  2808.91504460
0.28800001 48904.07936226  2119.99194070
0.28900001 47823.61240183  2496.39268554
0.29000001 46771.05847365  2041.55679901
0.29100001 45749.19088964  2604.95905256
0.29200001 44755.46430055  2557.10357385
0.29300001 43790.09724264  1931.14337981
0.29400001 42852.35645515  2085.83854919
0.29500001 41943.05255353  2979.63459445
0.29600001 41059.90918018  2743.82856085
0.29700001 40203.02813617  1797.07544276
0.29800001 39373.00161657  1765.87920610
0.29900001 38568.49049601  2082.69858538
0.30000001 37789.17093773  2218.03549319
0.30100001 37035.69116824  2013.26026721
0.30200001 36305.50255220  1650.08516911
0.30300001 35599.66372172  2272.68263959
0.30400001 34918.33098830  2396.27057752
0.30500001 34258.93656557  1572.48526280
0.30600001 33622.66252959  1703.15605107
0.30700001 33009.26795609  2287.54237766
0.30800001 32417.75599795  1953.33198013
0.30900001 31847.81000539  2369.47717658
0.31000001 31299.85972840  1606.15237801
0.31100001 30771.06701997  1440.08600472
0.31200001 30263.88892722  1847.15654813
0.31300001 29776.28322869  1402.46300647
0.31400001 29309.80186321  1523.37702397
0.31500001 28861.49323640  1778.44529743
0.31600002 28432.37941608  1487.15567577
0.31700002 28021.40376617  1737.60732981
0.31800002 27629.10046811  1850.87352799
0.31900002 27254.74050828  1700.69588824
0.32000002 26897.87252080  1424.64588552
0.32100002 26558.42666254  1924.15810281
0.32200002 26235.77629016  1652.46044788
0.32300002 25928.85886461  1638.18538064
0.32400002 25638.56141682  1499.85591390
0.32500002 25363.64309259  1612.36686774
0.32600002 25104.55721869  1354.51644887
0.32700002 24860.45901786  1345.44810576
0.32800002 24631.90169621  1458.70128752
0.32900002 24416.51582396  1692.06462673
0.33000002 24216.89205418  1803.55312114
0.33100002 24028.56414060  1555.60931613
0.33200002 23856.47852054  1549.12050609
0.33300002 23696.10116648  1543.32714206
0.33400002 23549.41059960  1775.03690800
0.33500002 23414.78913464  1180.10542827
0.33600002 23292.44153952  1177.43297558
0.33700002 23181.45673815  1292.82990351
0.33800002 23083.49142673  1525.93427303
0.33900002 22995.76869956  1290.06268514
0.34000002 22919.72831037  1289.57857445
0.34100002 22854.40735315  1524.16049856
0.34200002 22800.53077970  1876.93978268
0.34300002 22755.49546505  1643.85707025
0.34400002 22721.59607790  1998.93250962
0.34500002 22696.68259132  1295.75367051
0.34600002 22682.71394280  1298.69884830
0.34700002 22675.66090129  1775.50433266
0.34800002 22679.37787475  1187.26548797
0.34900002 22691.14026229  1429.54190423
0.35000002 22711.73985389  1315.35047594
0.35100002 22740.39701542  1560.90092507
0.35200002 22776.27296872  1447.20445298
0.35300002 22820.41746343  1575.29349211
0.35400002 22872.40869043  1339.75140250
0.35500002 22931.24862602  1224.52873463
0.35600002 22996.82754105  1724.07224241
0.35700002 23069.24601052  1362.70042639
0.35800002 23148.97708564  1246.57247511
0.35900002 23234.39455606  1505.58883855
0.36000002 23326.70959930  1389.45552310
0.36100002 23424.11845904  1907.89453886
0.36200002 23528.36880771  1793.56763917
0.36300002 23636.41560981  1290.54835343
0.36400002 23750.53467766  2210.58111983
0.36500002 23869.28027524  1834.59296886
0.36600002 23993.51166529  1585.01145569
0.36700002 24121.99566444  1464.68764612
0.36800002 24256.41236642  1611.11098569
0.36900002 24393.93348769  1353.86337270
0.37000002 24534.83635601  1638.43644947
0.37100002 24680.05775527  1928.00620317
0.37200002 24829.64547234  1805.98434898
0.37300002 24982.06034017  1401.49365147
0.37400002 25138.95207795  1696.87934564
0.37500002 25297.93959930  1426.80386099
0.37600002 25461.07910814  2015.75372848
0.37700002 25625.81754925  1452.98392387
0.37800002 25794.18390316  2052.95919411
0.37900002 25964.95856202  2812.00514548
0.38000002 26138.20222637  1792.55799360
0.38100002 26313.19539975  1658.52078462
0.38200002 26490.55632441  1674.07078623
0.38300002 26669.57759343  1997.01806480
0.38400002 26851.12699425  2481.04425181
0.38500002 27033.31806191  1721.75210893
0.38600002 27218.00252616  3002.00973084
0.38700002 27403.01576168  1594.85559289
0.38800002 27589.29623703  1931.80261404
0.38900002 27776.84646221  1787.44015452
0.39000002 27965.99337553  1804.22614810
0.39100002 28155.00097538  1655.51413578
0.39200002 28345.55836695  1670.97074490
0.39300002 28535.93038206  1686.47356548
0.39400002 28727.83292345  2212.76143576
0.39500002 28918.87956041  2233.11598545
0.39600002 29110.40081257  1906.87689557
0.39700002 29301.57593939  1924.23458311
0.39800002 29494.07678483  2118.26469505
0.39900002 29685.24531830  1781.11480348
0.40000002 29876.07469454  2156.45517362
0.40100002 30066.67794248  1813.02076583
0.40200002 30257.78961872  2377.80850985
0.40300002 30447.24092123  1845.10288725
0.40400002 30636.22318960  2791.72597043
0.40500002 30824.46171481  2064.93078811
0.40600002 31012.14092672  2271.94955194
0.40700002 31198.55326732  2482.15701556
0.40800002 31384.22184474  2117.96431154
0.40900002 31568.06852448  2718.01082874
0.41000002 31751.53208137  1957.48204557
0.41100002 31933.43375022  2170.83492920
0.41200002 32113.10327814  2387.28821081
0.41300002 32292.06751429  2406.40498519
0.41400002 32469.06135134  2627.55891436
0.41500002 32645.22569240  2648.18083365
0.41600002 32818.36353649  2052.78873648
0.41700002 32990.56283630  2068.50838785
0.41800002 33161.73443999  2501.05812997
0.41900002 33328.99224626  2729.64459431
0.42000002 33495.13557986  2538.26149452
0.42100002 33659.76200018  3195.99455336
0.42200002 33822.08044811  2146.01110612
0.42300002 33981.75438681  2809.61158584
0.42400002 34139.15482065  2611.64546753
0.42500002 34294.80363382  2191.43805604
0.42600002 34446.65202808  2206.30816695
0.42700002 34597.51621045  2887.50883975
0.42800002 34745.46361640  2235.87068967
0.42900002 34891.36263451  2475.54229623
0.43000002 35034.66242061  2491.49013611
0.43100002 35174.05821340  2279.27908024
0.43200002 35311.62898705  2522.83945253
0.43300002 35446.24310085  2769.06064226
0.43400002 35578.49711409  3714.39527473
0.43500002 35707.36360234  2802.31402831
0.43600002 35834.51356387  3053.63821805
0.43700002 35957.87483945  2362.43248891
0.43800002 36077.54142698  3088.41808021
0.43900002 36195.45382428  4300.02011810
0.44000002 36309.65440105  3602.82562868
0.44100002 36421.42316871  3863.58475283
0.44200002 36530.01068991  3398.38705553
0.44300002 36635.69149417  2683.93088606
0.44400002 36737.72163023  2697.46733853
0.44500002 36835.98246539  3203.62554684
0.44600002 36931.91494225  2971.54201708
0.44700002 37024.89863502  2985.68796742
0.44800002 37113.34593879  2749.54236418
0.44900002 37200.26172486  2762.11956397
0.45000002 37283.60427062  2774.45954329
0.45100002 37362.38968812  3546.43819727
0.45200002 37438.83326353  3815.95326123
0.45300002 37511.25429181  2809.96819217
0.45400002 37581.23734244  3077.90348422
0.45500002 37647.62626659  2832.60753454
0.45600002 37710.51749965  3102.06731654
0.45700002 37769.91597436  2854.27268546
0.45800002 37825.35810464  3125.13123472
0.45900002 37877.84740545  3136.28591381
0.46000002 37927.60509945  4458.57982878
0.46100002 37972.72848902  3157.81225081
0.46200002 38015.35545928  3168.19987413
0.46300002 38054.22707135  2913.43176267
0.46400002 38089.18414062  2656.72071972
0.46500002 38121.69679975  3197.64807912
0.46600002 38149.84139095  2939.63616771
0.46700002 38174.71154366  3215.83785286
0.46800002 38196.76322397  2687.14242017
0.46900002 38214.81529368  2963.55906649
0.47000002 38228.89084296  4321.39402571
0.47100002 38240.18001582  2707.40487344
0.47200002 38247.81627490  3527.78750132
0.47300002 38252.80137535  4351.63889072
0.47400002 38252.66991584  2998.05314675
0.47500002 38250.52099129  3550.41352669
0.47600002 38245.19223140  4378.30981417
0.47700002 38235.17487594  3563.90081911
