# SAXS profile: number of points = 501, q_min = 0, q_max = 0.5, delta_q = 0.001
#    q    intensity    error
0.00000000 1682732.95097188 277.65093691
0.00100000 1682663.80032665 656.23889771
0.00200000 1682456.29187021 1059.94749744
0.00300000 1682110.60151859 1312.04631592
0.00400000 1681626.58882061 1261.21998954
0.00500000 1681004.71977738 1512.90430768
0.00600000 1680244.71483134 2469.95983136
0.00700000 1679347.23819348 3022.82515438
0.00800000 1678311.75803726 3172.00935661
0.00900000 1677139.61876636 3018.85144283
0.01000000 1675829.94568064 3318.14343572
0.01100000 1674384.04404000 3918.05883364
0.01200000 1672801.34642085 4240.55159910
0.01300000 1671083.22675945 5263.91239646
0.01400000 1669228.94858123 3755.76530080
0.01500000 1667240.30926566 6002.06538062
0.01600000 1665116.13888653 5944.46488156
0.01700000 1662858.57545203 5387.66202615
0.01800000 1660467.15781576 6152.03109653
0.01900000 1657942.70179457 8952.89099367
0.02000000 1655285.73633487 9906.88558011
0.02100000 1652497.88046223 8179.86487915
0.02200000 1649577.50933240 6829.25119891
0.02300000 1646527.35708103 6520.24863083
0.02400000 1643347.27571374 7395.06307791
0.02500000 1640038.82107195 6396.15169430
0.02600000 1636601.96142989 9942.35737043
0.02700000 1633037.84932149 10288.13892193
0.02800000 1629346.25379046 8505.18783483
0.02900000 1625529.94314942 10972.32762004
0.03000000 1621589.04905873 7540.38942472
0.03100000 1617523.85394612 9316.93782743
0.03200000 1613335.46710158 9583.21311597
0.03300000 1609026.56864365 9847.24305406
0.03400000 1604595.23478331 10951.36298270
0.03500000 1600044.84663940 9504.26682793
0.03600000 1595375.03369346 10625.19821543
0.03700000 1590587.75883685 11786.25583807
0.03800000 1585684.21198419 9276.25306941
0.03900000 1580665.64219049 13277.59200929
0.04000000 1575531.09982615 11627.42005552
0.04100000 1570284.46376161 10882.07183843
0.04200000 1564926.16681437 14131.28394192
0.04300000 1559456.12841122 17497.09857295
0.04400000 1553878.08359819 13635.28081682
0.04500000 1548191.61180610 12819.02714139
0.04600000 1542397.22737112 11961.29105431
0.04700000 1536497.83557732 13275.34191680
0.04800000 1530494.06397651 13498.95827235
0.04900000 1524388.23269046 13719.49473282
0.05000000 1518180.08619727 13936.89384028
0.05100000 1511873.01132274 14151.13204520
0.05200000 1505465.15037905 17952.67275489
0.05300000 1498961.80925136 19426.54595352
0.05400000 1492361.66534446 13543.18274457
0.05500000 1485668.51092281 12479.61607392
0.05600000 1478880.63874978 18966.64507703
0.05700000 1472003.54191445 16648.36083617
0.05800000 1465035.27871495 20744.90051523
0.05900000 1457978.31849454 13121.80547932
0.06000000 1450835.07230343 15930.16983813
0.06100000 1443607.64339147 14768.10688203
0.06200000 1436295.66674321 14930.29415369
0.06300000 1428902.73735955 15089.21361202
0.06400000 1421427.22429390 13858.91608500
0.06500000 1413874.93337399 18196.57124372
0.06600000 1406244.10305317 15546.02928663
0.06700000 1398537.58580823 19971.11765997
0.06800000 1390758.37356931 15833.78482425
0.06900000 1382907.06605129 24684.89228474
0.07000000 1374983.33000897 21965.35972550
0.07100000 1366992.02940834 16239.86607001
0.07200000 1358932.17674067 17856.36963889
0.07300000 1350808.40318817 20991.56356912
0.07400000 1342620.17508369 15104.47767755
0.07500000 1334369.74390015 15211.81579348
0.07600000 1326057.23834023 16847.55800294
0.07700000 1317688.24418157 20042.03913374
0.07800000 1309261.06620099 17066.21879827
0.07900000 1300777.58210487 26535.86391957
0.08000000 1292242.22144109 15700.74372705
0.08100000 1283654.53238425 25262.32238258
0.08200000 1275015.49608518 22223.52113961
0.08300000 1266328.63786151 22338.03822025
0.08400000 1257593.97007245 17637.75625816
0.08500000 1248816.05506071 19331.67343987
0.08600000 1239993.80559401 17800.11191504
0.08700000 1231130.75047440 22751.29733712
0.08800000 1222225.43619658 21211.72344137
0.08900000 1213284.33076573 26206.94277547
0.09000000 1204305.99854152 16438.77765231
0.09100000 1195292.91727422 23093.06024668
0.09200000 1186246.23672559 19857.76293584
0.09300000 1177169.67978782 26556.94922398
0.09400000 1168061.06240979 21638.33219809
0.09500000 1158925.02449473 21695.07747827
0.09600000 1149762.39315121 21747.75668877
0.09700000 1140576.65157068 20119.77307959
0.09800000 1131368.06912825 25201.22492473
0.09900000 1122138.80524149 23564.91601815
0.10000000 1112888.28323891 23604.36159754
0.10100000 1103619.89302564 21951.00070467
0.10200000 1094335.64487016 16907.48650851
0.10300000 1085036.21217271 20311.87884736
0.10400000 1075724.39188079 23719.72395687
0.10500000 1066403.01970899 20346.97057336
0.10600001 1057068.39018806 22055.73299907
0.10700001 1047727.92317232 20367.83178493
0.10800001 1038379.30999674 18675.25276918
0.10900001 1029026.55705424 18676.83288957
0.11000001 1019670.18778132 27164.01508109
0.11100001 1010311.58339238 20367.88247998
0.11200001 1000953.67478803 25449.24837956
0.11300001 991595.04480959 22043.15888393
0.11400001 982240.65320696 20332.38247872
0.11500001 972890.00907107 20313.94434595
0.11600001 963544.97149961 18601.23655076
0.11700001 954208.16601265 21956.33093398
0.11800001 944877.72219453 20239.28176264
0.11900001 935558.28711392 21892.06494962
0.12000001 926249.71951980 23536.00648166
0.12100001 916955.63544555 20136.34670297
0.12200001 907674.22253053 23445.22627250
0.12300001 898409.47430998 20052.50041136
0.12400001 889160.48363447 25007.63978052
0.12500001 879930.19119298 18293.74953691
0.12600001 870720.72658865 18245.95368548
0.12700001 861532.08622187 18195.55851850
0.12800001 852364.44667048 16493.25282039
0.12900001 843220.96537636 18087.09055981
0.13000001 834102.31564929 16390.11127505
0.13100001 825008.49258954 17968.68581560
0.13200001 815943.03690076 21161.48365958
0.13300001 806907.00259969 25950.13042697
0.13400001 797899.09011561 16157.45733659
0.13500001 788922.86879793 17703.43001051
0.13600001 779977.42278195 16028.53679393
0.13700001 771066.13425475 27133.81854387
0.13800001 762187.43631614 23837.41319486
0.13900001 753346.32481707 17402.30092394
0.14000001 744540.28558202 18896.43333924
0.14100001 735771.79019771 25075.10379255
0.14200001 727040.60820138 17154.52395961
0.14300001 718351.68906819 18619.67665889
0.14400001 709698.84917813 20066.73590706
0.14500001 701091.11653706 16889.28579408
0.14600001 692523.36246643 18324.16903529
0.14700001 684001.49798851 18221.80076606
0.14800001 675521.41886476 21137.06619350
0.14900001 667085.99778094 16510.37922405
0.15000001 658697.58360000 19395.35126423
0.15100001 650355.22183714 17793.71970906
0.15200001 642061.64312079 26523.56772889
0.15300001 633816.09564815 16105.26775041
0.15400001 625617.78061269 17454.73690280
0.15500001 617471.33337684 18783.47884777
0.15600001 609373.41068108 17220.89339859
0.15700001 601330.28756358 14251.52848788
0.15800001 593334.69378810 16981.23973771
0.15900001 585394.85890558 22479.16364300
0.16000001 577505.66715421 18130.79127612
0.16100001 569673.97872429 13843.07833645
0.16200001 561894.36677607 17859.81329107
0.16300001 554171.30388003 17722.39913472
0.16400001 546503.41139516 16231.15208470
0.16500001 538892.18075526 21469.46549489
0.16600001 531337.16775808 14640.99634882
0.16700001 523839.38807662 15840.90384336
0.16800001 516398.46287530 18326.98231278
0.16900001 509018.02106188 16873.94819496
0.17000001 501695.26193145 16729.02929904
0.17100001 494431.75787016 17858.87593759
0.17200001 487227.66537713 13907.91436496
0.17300001 480083.57103962 23807.34541214
0.17400001 473001.09594288 14899.53522585
0.17500001 465978.40139417 15992.37949113
0.17600001 459014.98653694 14624.21816176
0.17700001 452115.30986217 14485.77521216
0.17800001 445276.44960213 16737.94253111
0.17900001 438499.08662624 16575.26625738
0.18000001 431785.01054927 12895.25994916
0.18100001 425134.19885197 16248.62984765
0.18200001 418543.11671845 14935.71182563
0.18300001 412017.68781346 18194.70195335
0.18400001 405553.62427599 14630.34768690
0.18500001 399154.02957447 11136.39795123
0.18600001 392817.46952222 14324.08970285
0.18700001 386543.99427959 15260.75761515
0.18800001 380333.64099400 14017.19700109
0.18900001 374189.22725728 10664.39348070
0.19000001 368104.52390538 11600.81461900
0.19100001 362088.66840700 12513.78497142
0.19200001 356133.31038856 12372.07178750
0.19300001 350244.31370072 10192.11001029
0.19400001 344418.29945914 10074.23573523
0.19500001 338656.76509439 12943.46217355
0.19600001 332958.06575845 14758.36696217
0.19700001 327324.29217608 10693.68513075
0.19800001 321754.46038599 10564.80820605
0.19900001 316249.60736535 13282.48413707
0.20000001 310806.31879078 12182.05424074
0.20100001 305428.94400303 12030.84667288
0.20200001 300113.60807335 11879.99773707
0.20300001 294863.14693589 10827.37526724
0.20400001 289675.88952870 9798.28742643
0.20500001 284551.23027188 14947.47683270
0.20600001 279490.55239673 10413.81847454
0.20700001 274492.52604672 10277.00066097
0.20800001 269557.10294483 11830.86180750
0.20900001 264686.82311239 10005.16238661
0.21000001 259876.57497176 14805.16917602
0.21100001 255128.96602002 9735.72180356
0.21200001 250443.47949529 8801.83650296
0.21300001 245819.44544920 9468.96548635
0.21400001 241258.05499053 10892.80169780
0.21500001 236758.69232242 9205.17839269
0.21600001 232318.92930212 9074.37780756
0.21700001 227940.69064495 10435.12531109
0.21800001 223623.32022076 13222.84754984
0.21900001 219364.93916144 7962.94766806
0.22000001 215166.32747523 7846.04050236
0.22100001 211029.93833422 9838.21619033
0.22200001 206951.60622439 8307.03786664
0.22300001 202932.27780470 9545.93479932
0.22400001 198970.02767918 8729.81037723
0.22500001 195069.25436879 8596.70244655
0.22600001 191224.60571014 9115.67738527
0.22700001 187438.78032048 7051.44724911
0.22800001 183709.53698606 8834.59205145
0.22900001 180036.90543975 6832.40088455
0.23000001 176421.14005012 7946.89062938
0.23100001 172862.94093134 7820.31981758
0.23200001 169358.59822187 8286.71660290
0.23300001 165910.97394120 8152.86564506
0.23400001 162518.33584985 6301.64877062
0.23500001 159178.91063892 6198.42707344
0.23600001 155894.92329936 6650.47774250
0.23700001 152664.10282625 7085.14134728
0.23800001 149486.88222587 7502.74697379
0.23900001 146362.60360631 5795.95937696
0.24000001 143290.74684655 6733.94896657
0.24100001 140271.90568164 8146.99266735
0.24200001 137304.26267733 6005.68873359
0.24300001 134387.60298118 4918.58650177
0.24400001 131521.40137856 5316.75290223
0.24500001 128705.80021473 9498.48850517
0.24600001 125940.07262574 6999.11986727
0.24700001 123224.47907319 6417.53117372
0.24800001 120556.77797119 6303.91421833
0.24900001 117937.43669187 7960.77735331
0.25000001 115366.66382918 4777.91060852
0.25100001 112842.85144201 5971.64398082
0.25200001 110367.25947801 5863.81277348
0.25300001 107938.16410158 4523.68867151
0.25400001 105554.52400714 6863.68324829
0.25500001 103216.52277137 3963.51466194
0.25600001 100924.24844451 4279.69295777
0.25700001 98676.37354009  4200.65342035
0.25800001 96472.74078134  4872.35600369
0.25900001 94313.04872456  4046.02998172
0.26000001 92197.16229823  4331.42288971
0.26100001 90121.93261942  3895.97133148
0.26200001 88091.61811690  4517.77884889
0.26300001 86101.67296891  3409.62641090
0.26400001 84152.92317923  4348.60251105
0.26500001 82245.87203174  3281.61044935
0.26600001 80378.38238929  3541.06980372
0.26700001 78551.71919018  3473.55718696
0.26800001 76764.45752769  3097.44600782
0.26900001 75015.48836647  3645.75290713
0.27000001 73305.57830442  3277.85908900
0.27100001 71633.52516578  3214.91276158
0.27200001 69999.28019350  3153.11772553
0.27300001 68401.52390944  3373.56331886
0.27400001 66839.19708443  3584.25211328
0.27500001 65315.41576937  2974.46417490
0.27600001 63825.06406526  3977.89730613
0.27700001 62371.45169212  3381.15655625
0.27800001 60951.42520800  3826.22589852
0.27900001 59566.18391005  2501.77984263
0.28000001 58214.39209537  2453.73674295
0.28100001 56895.56208553  3128.68710716
0.28200001 55610.18378733  2596.71765485
0.28300001 54356.92374087  2315.60506096
0.28400001 53135.70948640  2953.01719448
0.28500001 51946.01793392  2451.33270233
0.28600001 50786.55005455  3060.90551667
0.28700001 49658.03264634  2574.27253423
0.28800001 48559.05325786  3368.05609339
0.28900001 47491.11831062  3305.38199087
0.29000001 46450.82210428  2838.60987316
0.29100001 45440.54479902  2189.32555205
0.29200001 44457.86657498  2344.70799415
0.29300001 43503.08306018  2494.03186990
0.29400001 42575.48309879  2260.75825956
0.29500001 41675.84521005  2405.52989939
0.29600001 40801.85827844  1817.72287235
0.29700001 39953.60378330  1964.51879102
0.29800001 39131.72891412  2106.06974986
0.29900001 38334.97566167  1725.07398644
0.30000001 37562.90816058  2204.75499886
0.30100001 36816.20159569  2668.43841798
0.30200001 36092.33704966  1804.43647622
0.30300001 35392.44028410  1613.89535336
0.30400001 34716.56629211  2223.59617628
0.30500001 34062.24635995  1876.14861833
0.30600001 33430.67898658  1539.48284022
0.30700001 32821.46873663  2122.89269839
0.30800001 32233.84481237  1942.25041112
0.30900001 31667.22537171  1619.77865445
0.31000001 31122.30859376  1597.04134110
0.31100001 30596.17250091  1718.28112900
0.31200001 30091.31709160  1695.34488521
0.31300001 29605.51849154  2231.07197916
0.31400001 29140.53664063  1514.57946361
0.31500001 28693.43017782  1496.07552031
0.31600002 28265.16103609  1612.81016508
0.31700002 27854.56783834  1860.12812832
0.31800002 27462.42978077  1839.70825812
0.31900002 27087.95822831  1690.28867348
0.32000002 26730.45687806  1415.77871558
0.32100002 26390.13058303  1784.50071452
0.32200002 26066.40117969  1389.20891665
0.32300002 25758.06068107  1627.39435089
0.32400002 25465.97312712  1862.19937310
0.32500002 25188.91599838  1724.43327090
0.32600002 24927.58661590  1467.23781769
0.32700002 24680.84885519  1821.44673176
0.32800002 24449.41181883  1206.57853039
0.32900002 24230.77751255  1439.30825240
0.33000002 24027.87080875  2028.07253165
0.33100002 23835.92320169  1424.43483799
0.33200002 23659.90532985  1299.99355991
0.33300002 23495.46867176  1412.54764344
0.33400002 23344.45149371  1290.36461742
0.33500002 23205.22999165  1286.49801166
0.33600002 23078.16722664  1866.56225368
0.33700002 22962.07696820  1164.17735742
0.33800002 22858.95366044  1162.37784868
0.33900002 22765.80860457  1509.37318196
0.34000002 22684.22541107  1624.41745862
0.34100002 22613.12747221  1508.06954254
0.34200002 22553.34768894  1856.59166968
0.34300002 22502.17090245  1741.66811033
0.34400002 22461.94488597  1859.84912464
0.34500002 22430.73704556  1513.40190014
0.34600002 22410.15945127  1399.73862562
0.34700002 22396.44472374  1286.00391694
0.34800002 22393.18684829  1289.51172573
0.34900002 22398.07627381  1646.25868409
0.35000002 22411.48621592  1297.96128567
0.35100002 22432.85725225  1302.90041092
0.35200002 22461.52853359  1546.13938984
0.35300002 22498.17253352  1672.51422536
0.35400002 22542.64326635  1680.55413510
0.35500002 22593.89437685  1809.77102530
0.35600002 22651.72354719  1940.79976545
0.35700002 22716.37202639  1829.80385339
0.35800002 22788.19127053  1718.00182126
0.35900002 22865.64725528  1481.69401232
0.36000002 22950.00150379  1367.01690432
0.36100002 23039.31762092  1251.03500607
0.36200002 23135.50352076  1511.67387165
0.36300002 23235.32050329  1522.37827149
0.36400002 23341.27420214  1789.10875234
0.36500002 23451.69546557  1287.49814205
0.36600002 23567.72686816  1297.40342555
0.36700002 23687.88871751  2092.11443063
0.36800002 23813.90457478  1581.71961678
0.36900002 23943.16015577  1328.84545159
0.37000002 24075.73874450  2545.64835674
0.37100002 24212.61877290  1351.06419153
0.37200002 24353.92484037  1362.60215937
0.37300002 24497.99847836  1924.07289163
0.37400002 24646.56355116  1940.91697160
0.37500002 24797.19696534  1818.13056763
0.37600002 24952.06439819  1975.45503198
0.37700002 25108.49289402  1566.01677598
0.37800002 25268.70413863  1867.48366783
0.37900002 25431.28161643  2464.29130537
0.38000002 25596.38232166  2194.24997847
0.38100002 25763.24118198  1623.85716863
0.38200002 25932.52958527  2234.73584288
0.38300002 26103.57345451  1804.27908265
0.38400002 26277.17582057  2124.50976574
0.38500002 26451.40829790  1684.69027430
0.38600002 26628.32545090  2318.66154848
0.38700002 26805.56610919  1872.10082576
0.38800002 26984.16884616  1731.97895944
0.38900002 27164.20916904  1906.92757401
0.39000002 27345.81764377  2084.98196503
0.39100002 27527.38011741  1780.47103035
0.39200002 27710.52360056  1960.24253237
0.39300002 27893.68358119  1648.51677775
0.39400002 28078.38840022  2162.73796899
0.39500002 28262.46920876  2182.42797570
0.39600002 28446.97030082  2032.82059401
0.39700002 28631.38853344  2222.08216936
0.39800002 28817.06135592  1724.70120387
0.39900002 29001.50558079  2610.13562594
0.40000002 29185.95273583  1931.08865426
0.40100002 29370.13191812  1771.01903857
0.40200002 29554.99458283  2501.23931005
0.40300002 29738.35474103  2162.57325923
0.40400002 29921.17209191  2726.56693606
0.40500002 30103.63676742  2383.30503580
0.40600002 30285.44618163  2218.71189239
0.40700002 30466.27839592  2050.98995879
0.40800002 30646.51320027  2444.21277610
0.40900002 30824.98043696  2464.45730270
0.41000002 31003.20389654  1911.34761078
0.41100002 31180.04881184  3275.77608339
0.41200002 31354.84269117  2330.91911611
0.41300002 31528.97057639  2545.33391524
0.41400002 31701.49337717  2565.44347311
0.41500002 31873.12317964  2784.43617291
0.41600002 32041.89867647  2605.48711433
0.41700002 32209.93903563  3029.34490984
0.41800002 32377.10954329  2238.39157434
0.41900002 32540.51123764  2255.05753562
0.42000002 32703.02407145  2271.71567477
0.42100002 32864.08243438  2080.29651667
0.42200002 33023.00719142  2933.43386782
0.42300002 33179.54537159  2110.21918563
0.42400002 33333.91715183  2337.54105104
0.42500002 33486.71392275  2567.76134527
0.42600002 33635.85047162  2800.68922223
0.42700002 33784.24361077  2385.84339685
0.42800002 33929.74199636  2620.05480111
0.42900002 34073.47448651  3076.83489193
0.43000002 34214.77236738  3096.77919372
0.43100002 34352.28828996  3339.04258001
0.43200002 34488.25291069  2912.01577251
0.43300002 34621.29770717  2253.84658754
0.43400002 34752.27259069  2267.58589400
0.43500002 34879.99560381  2965.49736677
0.43600002 35006.20113044  2524.12225213
0.43700002 35128.74118941  3000.34592717
0.43800002 35247.72279129  3249.48771812
0.43900002 35365.22740021  2567.51563093
0.44000002 35479.12404910  3755.11066731
0.44100002 35590.84307828  2831.60760950
0.44200002 35699.47578391  2609.45330609
0.44300002 35805.42807525  2861.56994739
0.44400002 35907.78284708  3595.26692795
0.44500002 36006.72563813  3854.16009496
0.44600002 36103.32360219  2904.87355470
0.44700002 36197.29491033  3405.44166655
0.44800002 36286.99201170  3177.10773615
0.44900002 36375.10789510  2700.85188921
0.45000002 36459.83658999  2713.15886843
0.45100002 36540.26815039  2477.43029801
0.45200002 36618.50910459  3234.69615505
0.45300002 36693.00458547  2748.67310377
0.45400002 36765.04625794  3763.82178904
0.45500002 36833.75900839  3779.14385337
0.45600002 36899.02591337  3288.25685011
0.45700002 36961.10636951  2793.15094072
0.45800002 37019.38386312  3823.17704966
0.45900002 37074.87542006  4604.69974541
0.46000002 37127.78061443  2567.38615117
0.46100002 37176.15750094  2576.30783692
0.46200002 37222.32444129  2843.59961046
0.46300002 37264.73117877  3371.71303686
0.46400002 37303.45218443  2862.10750450
0.46500002 37339.88169239  3915.08678100
0.46600002 37372.13146317  3926.87689961
0.46700002 37401.26388532  3150.68261903
0.46800002 37427.74768715  3422.95482696
0.46900002 37450.27192311  2640.24429572
0.47000002 37469.08833805  2647.19121655
0.47100002 37485.24335787  2653.95535553
0.47200002 37497.81215560  3724.65785795
0.47300002 37507.91380302  3200.17535735
0.47400002 37513.08832391  2672.80766976
0.47500002 37516.33154743  4017.99929917
0.47600002 37516.52085009  3221.16863287
0.47700002 37512.25372830  2958.59159178
