# SAXS profile: number of points = 501, q_min = 0, q_max = 0.5, delta_q = 0.001
#    q    intensity    error
0.00000000 1682732.95097188 252.40994265
0.00100000 1682663.80625229 555.27906925
0.00200000 1682456.31911611 832.81590433
0.00300000 1682110.65719062 1009.26643027
0.00400000 1681626.69377621 1513.46408191
0.00500000 1681004.88045256 1966.77578798
0.00600000 1680244.94517151 1940.68299068
0.00700000 1679347.53562250 2418.26055180
0.00800000 1678312.14837449 2945.43794475
0.00900000 1677140.10994238 3018.85232695
0.01000000 1675830.55906101 3594.65670440
0.01100000 1674384.77868512 3315.28200614
0.01200000 1672802.21867648 3588.16091638
0.01300000 1671084.27827121 3860.20485306
0.01400000 1669230.15898149 4506.92162905
0.01500000 1667241.69576616 4801.65629762
0.01600000 1665117.71466589 4246.05036221
0.01700000 1662860.35322900 4489.72315512
0.01800000 1660469.17215188 4732.33735358
0.01900000 1657944.93293263 5471.21852555
0.02000000 1655288.18464420 5214.15801750
0.02100000 1652500.59626320 8179.87832237
0.02200000 1649580.47835989 7398.36878157
0.02300000 1646530.58050681 7705.76346753
0.02400000 1643350.80277057 8627.59210794
0.02500000 1640042.60384101 8954.63302594
0.02600000 1636606.05124871 7291.08029179
0.02700000 1633042.26248012 8916.41116152
0.02800000 1629351.01076907 7796.44494407
0.02900000 1625535.05233431 8777.88968564
0.03000000 1621594.44721106 8294.45597874
0.03100000 1617529.68013457 10869.79995066
0.03200000 1613341.61872690 10381.85379468
0.03300000 1609033.10338345 10667.88996723
0.03400000 1604602.17359843 8424.16180009
0.03500000 1600052.19952674 9504.31050408
0.03600000 1595382.77653203 10625.24978274
0.03700000 1590595.91524886 13599.59570433
0.03800000 1585692.75331750 17624.97576880
0.03900000 1580674.69262491 12329.26317344
0.04000000 1575540.65025123 14534.36317208
0.04100000 1570294.46002692 10882.14111255
0.04200000 1564936.57985036 11103.22554915
0.04300000 1559466.97148794 13380.22723645
0.04400000 1553889.42444073 12586.50492251
0.04500000 1548203.54874570 12819.12597925
0.04600000 1542409.63304227 15223.58378582
0.04700000 1536510.79223541 12169.16604047
0.04800000 1530507.47715861 12374.15352857
0.04900000 1524402.15451733 12576.31836016
0.05000000 1518194.57688474 16259.86467559
0.05100000 1511888.04274816 14151.27273935
0.05200000 1505480.74376788 14362.28696485
0.05300000 1498977.98872227 16998.41118454
0.05400000 1492378.44321406 13543.33500375
0.05500000 1485685.81426786 18719.64213303
0.05600000 1478898.53915503 15173.49971979
0.05700000 1472022.00077978 14087.25120503
0.05800000 1465054.33916427 15558.87780841
0.05900000 1457998.03692246 15746.37953421
0.06000000 1450855.40503462 14602.86033390
0.06100000 1443628.43384124 18796.04308698
0.06200000 1436317.11640904 16287.83686143
0.06300000 1428924.87244665 16461.21530023
0.06400000 1421449.96728572 13859.13782918
0.06500000 1413898.37370445 18196.87292079
0.06600000 1406268.17557428 14132.99582578
0.06700000 1398562.22566457 15691.86890632
0.06800000 1390783.68882119 15834.07303841
0.06900000 1382933.06330948 14520.79784460
0.07000000 1375010.04868401 17572.62924508
0.07100000 1367019.47176401 22145.71647983
0.07200000 1358960.21800686 17856.73810114
0.07300000 1350837.08683557 19492.58007637
0.07400000 1342649.62820666 22657.21353780
0.07500000 1334399.71736402 15212.15749098
0.07600000 1326088.03560747 24506.10804689
0.07700000 1317719.69960426 15417.32120826
0.07800000 1309293.17115987 18618.14976701
0.07900000 1300810.27804100 18731.66888238
0.08000000 1292275.59085623 17271.26408201
0.08100000 1283688.75943015 18947.24697816
0.08200000 1275050.40770948 17461.81615298
0.08300000 1266364.18788693 19147.42741948
0.08400000 1257630.21969221 17638.26465910
0.08500000 1248853.12358402 20943.26786569
0.08600000 1240031.46850311 17800.65256613
0.08700000 1231169.16355076 17876.57709420
0.08800000 1222264.64048675 17948.95708850
0.08900000 1213324.16995206 18017.86477008
0.09000000 1204346.52459453 21371.13008285
0.09100000 1195334.17957268 24743.41867963
0.09200000 1186288.08501004 21513.33543250
0.09300000 1177212.33110948 19918.43357838
0.09400000 1168104.35202761 18310.03657856
0.09500000 1158969.10898902 18358.07154926
0.09600000 1149807.09336016 21748.60219326
0.09700000 1140622.06958619 23474.00329566
0.09800000 1131414.20742837 16801.50177028
0.09900000 1122185.67246229 26932.45740553
0.10000000 1112935.78869452 21919.27138914
0.10100000 1103668.06003068 16886.12211265
0.10200000 1094384.55897717 20289.89067780
0.10300000 1085085.81731360 20312.80745564
0.10400000 1075774.67144141 16943.45187231
0.10500000 1066453.94174530 18652.28031870
0.10600001 1057120.08110612 18663.45591011
0.10700001 1047780.34521819 25461.06358694
0.10800001 1038432.25388535 18676.20496506
0.10900001 1029080.17536286 16979.82369265
0.11000001 1019724.46361099 20374.09574195
0.11100001 1010366.52724585 16974.15845676
0.11200001 1001009.34067454 20360.53094784
0.11300001 991651.14967381 22044.40609512
0.11400001 982297.40264920 16944.63099353
0.11500001 972947.55262168 20315.14585534
0.11600001 963603.03435966 32131.34469384
0.11700001 954266.83065529 16890.52369806
0.11800001 944937.13728381 20240.55443392
0.11900001 935618.31252817 16841.13041875
0.12000001 926310.35990983 20175.04058918
0.12100001 917016.85835241 20137.69115807
0.12200001 907736.01842172 20097.27639467
0.12300001 898471.78899087 26738.52170014
0.12400001 889223.50811188 20007.52987522
0.12500001 879993.67489137 24947.82185872
0.12600001 870784.84317211 18247.29724855
0.12700001 861596.75688375 21505.45606529
0.12800001 852429.62109782 23092.31952386
0.12900001 843286.67194285 16444.09087793
0.13000001 834168.62240050 18030.55562305
0.13100001 825075.25081245 17970.13980976
0.13200001 816010.28001624 17907.34643911
0.13300001 806974.87819007 22708.27414280
0.13400001 797967.43309814 25854.14605129
0.13500001 788991.60538235 25752.68721387
0.13600001 780046.73624695 27250.93401569
0.13700001 771135.94785977 19155.01784806
0.13800001 762257.64150623 17482.37983234
0.13900001 753417.04657576 22150.46221390
0.14000001 744611.37530975 17323.38446356
0.14100001 735843.38954889 21942.85091124
0.14200001 727112.62545904 17156.22320688
0.14300001 718424.13621688 15517.96207423
0.14400001 709771.59072671 18525.03939179
0.14500001 701164.30333268 18426.59876080
0.14600001 692596.88660995 19853.29069124
0.14700001 684075.41069881 16705.12231735
0.14800001 675595.59113222 19629.43082644
0.14900001 667160.72351134 18013.34038469
0.15000001 658772.60655833 16413.32026683
0.15100001 650430.55481839 16312.79908456
0.15200001 642137.15952447 16210.75335713
0.15300001 633891.98556978 19035.77722494
0.15400001 625694.03739588 17456.86446715
0.15500001 617547.89988858 18785.80800117
0.15600001 609450.21026789 18658.31906793
0.15700001 601407.30269919 21380.03062003
0.15800001 593411.96589474 16983.45126550
0.15900001 585472.31992723 22482.13814638
0.16000001 577583.52913815 18133.23575323
0.16100001 569751.80032731 15229.46634164
0.16200001 561972.55492726 19236.32146323
0.16300001 554249.56719572 14997.99399634
0.16400001 546581.78005509 17586.26960351
0.16500001 538970.82217433 17446.48633745
0.16600001 531416.03162133 19967.95833092
0.16700001 523918.21706201 17163.56160132
0.16800001 516477.47630194 14401.97510669
0.16900001 509097.26072852 23367.56537081
0.17000001 501774.26176505 15444.61250642
0.17100001 494510.99239913 17861.73788891
0.17200001 487307.12350804 13910.18249742
0.17300001 480162.92001625 20051.60448681
0.17400001 473080.46938076 16143.87178003
0.17500001 466057.86495931 19686.28514562
0.17600001 459094.47638869 15845.64660093
0.17700001 452194.91427126 14488.32573754
0.17800001 445356.01113424 15545.15230287
0.17900001 438578.56460165 17762.43270535
0.18000001 431864.36047623 15242.65332300
0.18100001 425213.60114545 16251.66460345
0.18200001 418622.28912956 13789.41885531
0.18300001 412096.84198436 13648.64805127
0.18400001 405632.83728141 12381.94294295
0.18500001 399233.05566276 12252.46305712
0.18600001 392896.40075847 14326.96793051
0.18700001 386622.74740034 16354.14298768
0.18800001 380412.13127720 11863.15287437
0.18900001 374267.67442361 11733.29214755
0.19000001 368182.78128301 12658.12461859
0.19100001 362166.81515423 15645.60715392
0.19200001 356211.16150225 15468.47041914
0.19300001 350322.07266289 12233.24735544
0.19400001 344495.77314316 10076.50184059
0.19500001 338733.97625197 11950.53524689
0.19600001 333035.10941896 10825.30674323
0.19700001 327401.04175419 10696.19253959
0.19800001 321830.92836920 13449.31513215
0.19900001 316325.70269443 10438.74868225
0.20000001 310882.14820439 12185.02637475
0.20100001 305504.35388916 12033.81706844
0.20200001 300188.77658278 9140.74867897
0.20300001 294937.99144894 11732.63385438
0.20400001 289750.31232391 10691.78703011
0.20500001 284625.35141919 11433.40090693
0.20600001 279564.25466841 11284.61167309
0.20700001 274565.84765910 10279.74582227
0.20800001 269630.11318630 10988.77578235
0.20900001 264759.37372940 9173.91273339
0.21000001 259948.60669764 12341.06068636
0.21100001 255200.58549639 9738.45480291
0.21200001 250514.54940829 10405.12230157
0.21300001 245890.21030556 8682.38373635
0.21400001 241328.19190587 9339.40146829
0.21500001 236828.36380605 11509.85902513
0.21600001 232388.03950648 9077.07725227
0.21700001 228009.44689620 8201.50019262
0.21800001 223691.40223890 8817.91549317
0.21900001 219432.53393490 8689.52875468
0.22000001 215233.42488827 7848.48720965
0.22100001 211096.56333743 9138.37065897
0.22200001 207017.58845048 8309.68639332
0.22300001 202997.67798939 8866.93899385
0.22400001 199034.77824611 7389.16649179
0.22500001 195133.36558560 7938.02568739
0.22600001 191288.12677030 7164.69712699
0.22700001 187501.71042597 6412.55879981
0.22800001 183771.87855308 6943.82075950
0.22900001 180098.58019615 9320.10196591
0.23000001 176482.08854101 9784.16745142
0.23100001 172923.23358606 7823.04745741
0.23200001 169418.20448829 5921.16652690
0.23300001 165969.88842714 9320.86937489
0.23400001 162576.61163459 6303.90841428
0.23500001 159236.42630074 6764.36370918
0.23600001 155951.65013527 6652.89770943
0.23700001 152720.16772761 7632.95434405
0.23800001 149542.31259832 8577.74745636
0.23900001 146417.29503905 5798.12515779
0.24000001 143344.65942372 5700.10065160
0.24100001 140325.09066004 7640.70154785
0.24200001 137356.59287489 5507.31285183
0.24300001 134439.24204583 4920.47649163
0.24400001 131572.23630654 5318.80790429
0.24500001 128755.87312352 6651.52872021
0.24600001 125989.23174812 4667.90125708
0.24700001 123272.87908236 5502.90158256
0.24800001 120604.34800719 6306.40165563
0.24900001 117984.17727421 5309.28822851
0.25000001 115412.58901613 4779.81260023
0.25100001 112888.03980361 5974.03534903
0.25200001 110411.63601513 4609.13396351
0.25300001 107981.62450902 6171.15013265
0.25400001 105597.15137432 4039.09123116
0.25500001 103258.26186702 5551.16442061
0.25600001 100965.17834674 5059.87015224
0.25700001 98716.42911050  4966.42378353
0.25800001 96511.90543893  4499.38524445
0.25900001 94351.33130926  5151.58293323
0.26000001 92234.55222331  4333.17946848
0.26100001 90158.43926126  5314.84024593
0.26200001 88127.20175438  4519.60375583
0.26300001 86136.37805438  4093.20087882
0.26400001 84186.79223015  5019.63772424
0.26500001 82278.83576407  4267.80341303
0.26600001 80410.41673664  3542.48107696
0.26700001 78582.82218646  3159.02960138
0.26800001 76794.73389478  3098.66765929
0.26900001 75044.86657861  4558.97586039
0.27000001 73333.97736433  3279.12895302
0.27100001 71660.94907952  3216.14354689
0.27200001 70025.79892218  4588.09056251
0.27300001 68427.06984172  3656.05851466
0.27400001 66863.94382214  3861.39293847
0.27500001 65339.22287578  3516.55714160
0.27600001 63847.82848578  3979.31609870
0.27700001 62393.30228153  2861.98091110
0.27800001 60972.40949988  4082.71273334
0.27900001 59586.29607509  3003.14946432
0.28000001 58233.53922644  3190.90693293
0.28100001 56913.83491679  2888.94639711
0.28200001 55627.44427347  2597.52363329
0.28300001 54373.23479197  3242.81987648
0.28400001 53151.10639107  2272.20990576
0.28500001 51960.48336771  2452.01532618
0.28600001 50800.16198939  3061.72590802
0.28700001 49670.67274128  2360.35048039
0.28800001 48570.70030423  2737.20194521
0.28900001 47501.86316621  2479.59737464
0.29000001 46460.63076021  3244.81060588
0.29100001 45449.48464632  2388.82502609
0.29200001 44465.93013815  3322.27212753
0.29300001 43510.16408849  3261.95715612
0.29400001 42581.61249616  2072.66008636
0.29500001 41681.08513937  2405.83234813
0.29600001 40806.17889129  2726.87303349
0.29700001 39957.00018304  2143.29359128
0.29800001 39134.24823345  1755.17111636
0.29900001 38336.52225469  1725.14358313
0.30000001 37563.64462427  2035.19836209
0.30100001 36816.03242028  1834.54298235
0.30200001 36091.27993097  1804.38362557
0.30300001 35390.47787376  1613.80586744
0.30400001 34713.73123190  2858.67590228
0.30500001 34058.59233698  2188.60524719
0.30600001 33426.06783198  2154.97869515
0.30700001 32816.01246148  1819.31981700
0.30800001 32227.50422575  1792.49386990
0.30900001 31660.10147148  1619.41426694
0.31000001 31114.27288185  1596.62898852
0.31100001 30587.29940757  2004.07995207
0.31200001 30081.64126492  1412.33312426
0.31300001 29595.02451207  1533.31829257
0.31400001 29129.21837225  1513.99119658
0.31500001 28681.33817004  1359.49549363
0.31600002 28252.21442278  1343.39285941
0.31700002 27840.75418344  1593.60484491
0.31800002 27447.85998054  1838.73222716
0.31900002 27072.52799680  1429.42954591
0.32000002 26714.26562185  1543.55034072
0.32100002 26373.20244530  1783.35603379
0.32200002 26048.67413757  2902.73413997
0.32300002 25739.55808577  1250.94258220
0.32400002 25446.73649628  1240.52846293
0.32500002 25169.00541629  1353.84086545
0.32600002 24906.92236721  1221.68459996
0.32700002 24659.51698595  1334.57312248
0.32800002 24427.28726938  1928.77869412
0.32900002 24208.00456597  1318.12591103
0.33000002 24004.31757519  1787.72163607
0.33100002 23811.70504158  1422.98756067
0.33200002 23635.07659310  1416.68655808
0.33300002 23469.87395859  1646.17703741
0.33400002 23318.17049158  1757.60718404
0.33500002 23178.35773238  1635.46499905
0.33600002 23050.64280662  1631.29406868
0.33700002 22933.94559476  1279.02620639
0.33800002 22830.23768704  1509.19293377
0.33900002 22736.46847221  1623.38392580
0.34000002 22654.25279517  1274.64159388
0.34100002 22582.61072448  1158.48798503
0.34200002 22522.17843369  1390.51936235
0.34300002 22470.51089361  1275.42625872
0.34400002 22429.70772169  1160.73742957
0.34500002 22397.95067879  1278.69906481
0.34600002 22376.84732900  1514.12944623
0.34700002 22362.54664362  1284.05748909
0.34800002 22358.84341711  1755.72826248
0.34900002 22363.17977953  1408.88039284
0.35000002 22376.12225997  1767.15433918
0.35100002 22397.06122705  1300.82137768
0.35200002 22425.23593115  1187.41629879
0.35300002 22461.45253497  1311.97350471
0.35400002 22505.50719111  1198.41831469
0.35500002 22556.34962844  1686.31277809
0.35600002 22613.73139135  1574.25498537
0.35700002 22678.01570995  1704.93330183
0.35800002 22749.37196495  1470.06448601
0.35900002 22826.51160281  1725.68435891
0.36000002 22910.50380289  1240.60383969
0.36100002 22999.45849185  1498.64478631
0.36200002 23095.28517342  1383.29217098
0.36300002 23194.80127746  1393.07983071
0.36400002 23300.40183474  1530.83647305
0.36500002 23410.52999951  1542.28578942
0.36600002 23526.27744886  1683.65812538
0.36700002 23646.17397781  1305.26886540
0.36800002 23771.98526948  1578.93533639
0.36900002 23901.02191854  1989.76016897
0.37000002 24033.33891584  1872.43752363
0.37100002 24169.96450732  2023.02612509
0.37200002 24311.05389067  1632.24423554
0.37300002 24454.95981239  1646.30797256
0.37400002 24603.32027495  1799.11788033
0.37500002 24753.82286890  1396.11567594
0.37600002 24908.54454804  1549.43608701
0.37700002 25064.83211547  1421.17604827
0.37800002 25224.92316540  1864.24803485
0.37900002 25387.37641694  1447.08052432
0.38000002 25552.38457225  1752.38261698
0.38100002 25719.16367641  1621.07896332
0.38200002 25888.40583974  1784.74678314
0.38300002 26059.35285976  1651.12067541
0.38400002 26232.90406988  1817.94033817
0.38500002 26407.08819752  1987.66162279
0.38600002 26584.03454872  2314.80491799
0.38700002 26761.28339661  2180.50947446
0.38800002 26939.93424365  1886.33428511
0.38900002 27119.92757316  2221.12217347
0.39000002 27301.61144596  1761.36354588
0.39100002 27483.19409238  2262.41664487
0.39200002 27666.31830756  1794.02249565
0.39300002 27849.61390103  1975.09471143
0.39400002 28034.42328889  1993.24759027
0.39500002 28218.63086007  2346.66145350
0.39600002 28403.26382826  1691.41444111
0.39700002 28587.77335332  2560.03522508
0.39800002 28773.60338237  2066.52029283
0.39900002 28958.26852627  2084.99543268
0.40000002 29142.87200410  1928.23821751
0.40100002 29327.16894201  2298.95688229
0.40200002 29512.24937545  2319.22022705
0.40300002 29695.82110681  1979.52352877
0.40400002 29878.92043204  2359.68785292
0.40500002 30061.49949827  2196.89448742
0.40600002 30243.63822516  2215.64904135
0.40700002 30424.70590643  2420.58971661
0.40800002 30605.21180136  2253.15579957
0.40900002 30783.95013900  2082.53432558
0.41000002 30962.53211119  2099.72421461
0.41100002 31139.66137626  1924.43116424
0.41200002 31314.74483116  2715.92794789
0.41300002 31489.26652295  2542.12860685
0.41400002 31662.10152640  2168.06250475
0.41500002 31834.05411359  1986.44507081
0.41600002 32003.24021040  3202.88443202
0.41700002 32171.66855879  2420.59645706
0.41800002 32339.20724645  2235.77119892
0.41900002 32503.02163357  2661.99759793
0.42000002 32665.93227852  2269.13909325
0.42100002 32827.43952033  2701.37012613
0.42200002 32986.85005601  2511.61888228
0.42300002 33143.79653588  2318.74011552
0.42400002 33298.60423723  2547.34334486
0.42500002 33451.86593141  2778.84663460
0.42600002 33601.49573606  3228.26385582
0.42700002 33750.39645770  2166.77555526
0.42800002 33896.38662831  2617.47909947
0.42900002 34040.62867817  2634.74478454
0.43000002 34182.43370785  3756.82055469
0.43100002 34320.49528976  2446.36502018
0.43200002 34457.03244110  2685.58123572
0.43300002 34590.61035607  3152.58837725
0.43400002 34722.12985229  3171.86671232
0.43500002 34850.43971276  2962.98452479
0.43600002 34977.22011873  2522.03257618
0.43700002 35100.30129076  3689.74384654
0.43800002 35219.98697866  2551.15987770
0.43900002 35338.03691831  4198.15898484
0.44000002 35452.58018397  2579.70711934
0.44100002 35564.86816369  3772.72139359
0.44200002 35674.15685947  3318.76696991
0.44300002 35780.74888057  3097.89738489
0.44400002 35883.84284198  2634.77128554
0.44500002 35983.35562208  2648.01526572
0.44600002 36080.63144871  2661.12709861
0.44700002 36175.27397292  3160.27208404
0.44800002 36265.61328348  3907.98267263
0.44900002 36354.45624411  2453.92591277
0.45000002 36439.89169517  2711.67466901
0.45100002 36521.02083470  2971.35039593
0.45200002 36599.98319811  2735.66587379
0.45300002 36675.13482759  3246.84984016
0.45400002 36747.93161497  3511.26503222
0.45500002 36817.34844770  3273.79877913
0.45600002 36883.40161425  2528.35730048
0.45700002 36946.24488250  3553.49000121
0.45800002 37005.22224562  3312.15257407
0.45900002 37061.43269198  4603.03015850
0.46000002 37115.10180829  3849.76411752
0.46100002 37164.26311188  3348.12862243
0.46200002 37211.14840503  2584.31437921
0.46300002 37254.38569436  2852.19590394
0.46400002 37293.85193801  3381.62018475
0.46500002 37331.03734050  2870.38359715
0.46600002 37364.11357572  3926.03442005
0.46700002 37393.98290439  3675.08081403
0.46800002 37421.29226449  3159.10564270
0.46900002 37444.61183301  2903.82978528
0.47000002 37464.22677341  3440.90207109
0.47100002 37481.16559014  3449.76664442
0.47200002 37494.54991709  3458.30997552
0.47300002 37505.40702027  2933.29802209
0.47400002 37511.42837427  3474.49621785
0.47500002 37515.41685027  4821.48160212
0.47600002 37516.45964544  3758.02394081
0.47700002 37513.01301900  3496.58810923
