# SAXS profile: number of points = 501, q_min = 0, q_max = 0.5, delta_q = 0.001
#    q    intensity    error
0.00000000 1700912.83420644 331.67800267
0.00100000 1700843.11442146 561.27824109
0.00200000 1700633.90307398 841.81380868
0.00300000 1700285.36823552 1326.22263447
0.00400000 1699797.38030223 1529.81770040
0.00500000 1699170.40784101 1682.17877035
0.00600000 1698404.13932645 2318.32174456
0.00700000 1697499.27923941 2240.69914172
0.00800000 1696455.28551540 3206.30062499
0.00900000 1695273.49981780 3051.49243012
0.01000000 1693953.05158210 2795.02265580
0.01100000 1692495.25640673 3655.78991301
0.01200000 1690899.52413221 5275.60674660
0.01300000 1689167.25979322 5320.87710302
0.01400000 1687297.70408144 4555.70400298
0.01500000 1685292.68497689 5662.58367367
0.01600000 1683150.98217301 4292.03519641
0.01700000 1680874.80825409 7261.37949739
0.01800000 1678463.65119933 4783.62162117
0.01900000 1675918.30655966 6536.08169051
0.02000000 1673239.42459933 7378.98619628
0.02100000 1670428.52936308 6614.89727619
0.02200000 1667484.03180571 5752.82017109
0.02300000 1664408.59281522 5991.87120688
0.02400000 1661202.16421514 7475.41007983
0.02500000 1657866.29741995 8405.38251180
0.02600000 1654400.92566202 7370.35646093
0.02700000 1650807.23618689 6933.39070954
0.02800000 1647085.04877428 8597.78434889
0.02900000 1643236.99008051 12570.76355129
0.03000000 1639263.22438406 9147.08921251
0.03100000 1635164.27997446 11773.18335754
0.03200000 1630940.96787012 9687.78979535
0.03300000 1626596.10032979 9125.20454353
0.03400000 1622127.83331451 12774.25727676
0.03500000 1617539.43357519 10481.65601359
0.03600000 1612830.48478054 14321.93536672
0.03700000 1608003.14848501 10998.74204430
0.03800000 1603058.46026360 13129.04939717
0.03900000 1597997.88935511 11505.58533618
0.04000000 1592820.22399223 16652.93621352
0.04100000 1587529.48678714 14002.01072269
0.04200000 1582126.04965474 11225.18484307
0.04300000 1576609.92905745 11446.18861627
0.04400000 1570984.77167626 11664.56247142
0.04500000 1565250.29426090 12960.27303868
0.04600000 1559406.90971989 12093.20114705
0.04700000 1553457.54447148 11184.89484038
0.04800000 1547402.79884286 13648.09332081
0.04900000 1541245.13550463 19650.87639238
0.05000000 1534984.24473904 17613.94502859
0.05100000 1528623.48769067 13115.59013536
0.05200000 1522161.05751416 12101.18097117
0.05300000 1515602.06140568 13504.01499665
0.05400000 1508945.55252562 17428.32194442
0.05500000 1502195.05613108 13880.28296616
0.05600000 1495349.01026375 17899.32848811
0.05700000 1488412.72197248 14244.11041417
0.05800000 1481384.63293280 18354.35645905
0.05900000 1474266.73355094 14595.24134384
0.06000000 1467061.94596374 18793.06440578
0.06100000 1459771.94489986 19006.23161078
0.06200000 1452396.60841310 15097.66345017
0.06300000 1444939.58426433 20807.13098625
0.06400000 1437399.21561094 16817.57160915
0.06500000 1429781.18349598 15570.31781662
0.06600000 1422083.72937645 14291.94214893
0.06700000 1414309.80478895 14425.96068397
0.06800000 1406462.65447780 18923.95590181
0.06900000 1398542.47732201 17621.63603928
0.07000000 1390549.16770033 14809.34932951
0.07100000 1382487.52920814 17917.03921773
0.07200000 1374356.53694016 24078.72765520
0.07300000 1366161.05606740 16680.82727617
0.07400000 1357900.30878680 16804.01710874
0.07500000 1349576.57809187 15385.17371139
0.07600000 1341190.37065607 20137.97435948
0.07700000 1332746.72950098 20271.07870619
0.07800000 1324244.25474445 21969.21321648
0.07900000 1315684.85900760 17367.04095348
0.08000000 1307072.96536028 22233.31218377
0.08100000 1298408.33118966 22358.59251211
0.08200000 1289691.47097569 17662.32552382
0.08300000 1280926.23755828 17753.63848577
0.08400000 1272112.66495243 22707.21213525
0.08500000 1263255.14566354 17925.59135849
0.08600000 1254352.71690160 21280.09484137
0.08700000 1245408.90469333 23015.15763947
0.08800000 1236422.46264652 19807.48878183
0.08900000 1227399.60707749 19883.87456859
0.09000000 1218338.86101565 16630.32623408
0.09100000 1209242.92340650 18356.30843971
0.09200000 1200112.80133944 18415.73180185
0.09300000 1190952.44427523 20150.91630407
0.09400000 1181759.59222817 20208.08997683
0.09500000 1172538.77113323 18573.01500773
0.09600000 1163290.86380797 18618.47115046
0.09700000 1154019.40596656 23749.72049133
0.09800000 1144724.72219600 18699.07921626
0.09900000 1135408.79850143 18734.24605620
0.10000000 1126071.30630425 22177.97542063
0.10100000 1116715.47656721 23920.04663307
0.10200000 1107343.59740543 25662.68907695
0.10300000 1097955.99044785 17128.11425671
0.10400000 1088555.76059080 24002.65565023
0.10500000 1079145.55496318 22305.93967057
0.10600001 1069721.93335891 24036.65297358
0.10700001 1060291.77108237 24047.41849976
0.10800001 1050853.36788307 18899.59871082
0.10900001 1041410.41727328 20619.92723250
0.11000001 1031963.79978418 20618.63769020
0.11100001 1022514.54499825 22331.71871399
0.11200001 1013065.50536105 20605.75334910
0.11300001 1003615.64173879 22310.37676624
0.11400001 994169.78804371 18864.37261635
0.11500001 984727.57950662 23987.96496633
0.11600001 975290.70497795 20539.62321408
0.11700001 965861.82052562 18805.33053127
0.11800001 956439.20456524 22194.17278724
0.11900001 947027.34796801 25569.73959951
0.12000001 937626.00851647 22123.28671306
0.12100001 928239.35309208 22082.81525034
0.12200001 918864.93835102 18648.36480238
0.12300001 909507.12366683 18608.51662695
0.12400001 900164.96388870 18565.90325498
0.12500001 890841.37958173 23571.66401444
0.12600001 881538.63866302 21831.30541526
0.12700001 872256.43143238 18422.05670002
0.12800001 862995.29226658 20038.75163084
0.12900001 853758.09828630 16648.28370125
0.13000001 844546.02664704 21573.92926758
0.13100001 835358.33428671 23156.13411795
0.13200001 826199.33542459 19779.21302246
0.13300001 817069.58786173 18065.40943928
0.13400001 807967.99906368 19633.62330289
0.13500001 798897.93138785 24446.27785307
0.13600001 789858.79875273 16231.59907970
0.13700001 780853.94001067 21012.78051651
0.13800001 771881.60870071 24140.59845048
0.13900001 762946.97898985 20828.45350865
0.14000001 754047.30655455 20732.53167148
0.14100001 745185.54849912 25395.92469060
0.14200001 736361.15906462 23692.42141036
0.14300001 727579.00728447 23573.56094793
0.14400001 718832.98425461 18761.54177402
0.14500001 710132.23978562 18662.27614191
0.14600001 701471.77289923 20107.68931872
0.14700001 692857.07953530 18457.71346959
0.14800001 684284.54282018 18352.51230428
0.14900001 675756.78247346 15204.52832301
0.15000001 667276.15641102 21159.32791815
0.15100001 658841.64000676 15021.59010095
0.15200001 650456.24081988 25377.55143308
0.15300001 642119.12104861 16316.24763579
0.15400001 633829.37351502 16210.18699262
0.15500001 625591.71697749 21958.27030219
0.15600001 617403.07920316 14539.84320144
0.15700001 609269.07471037 15883.64552736
0.15800001 601182.96900935 17205.85738514
0.15900001 593152.84396618 17082.80271254
0.16000001 585174.01605417 15545.14847025
0.16100001 577252.53757681 18235.40852284
0.16200001 569383.69710817 15313.57525662
0.16300001 561571.52706006 17959.05828319
0.16400001 553814.91897553 15077.61188092
0.16500001 546115.41453634 20397.41169592
0.16600001 538472.33736805 16186.47922550
0.16700001 530886.79056215 13378.34775382
0.16800001 523358.38865074 18573.99009021
0.16900001 515891.05449951 14470.74476199
0.17000001 508481.51373474 15651.06173179
0.17100001 501131.84969460 15515.04279919
0.17200001 493841.91946057 14096.71825669
0.17300001 486612.25646870 16510.75464169
0.17400001 479444.70924985 17619.59389704
0.17500001 472337.28925155 14963.64603019
0.17600001 465289.63515227 13588.78443641
0.17700001 458306.12171180 13460.45143042
0.17800001 451383.85101757 13331.62266948
0.17900001 444523.51692525 18003.20328583
0.18000001 437726.77763764 11884.28257422
0.18100001 430993.92000443 15295.97494349
0.18200001 424321.08151179 15141.89850902
0.18300001 417714.58027786 11528.92296029
0.18400001 411169.89232280 12550.96155607
0.18500001 404690.12456082 12419.94050952
0.18600001 398273.70894091 12288.73586993
0.18700001 391921.09377707 12157.39290334
0.18800001 385631.79131991 16398.99270067
0.18900001 379409.20780205 18382.37698653
0.19000001 373246.79527419 11762.87330885
0.19100001 367153.72095951 11631.43042958
0.19200001 361121.73439457 12545.36964565
0.19300001 355156.63301112 11368.56435988
0.19400001 349254.88460158 10215.70585733
0.19500001 343418.29646536 12115.79807183
0.19600001 337645.19853150 14966.12413215
0.19700001 331937.31071728 10844.39245361
0.19800001 326294.02809410 15583.80351825
0.19900001 320716.27011843 10583.63741409
0.20000001 315200.66107329 11403.96045660
0.20100001 309751.49697938 15955.30036349
0.20200001 304365.02632499 10194.70703859
0.20300001 299043.99303774 10065.82128141
0.20400001 293786.80302576 10840.73354405
0.20500001 288592.94279482 10701.02682464
0.20600001 283463.20340040 11441.99274610
0.20700001 278397.07326155 12160.38473487
0.20800001 273393.99573497 11142.17282287
0.20900001 268456.62365122 9302.02244923
0.21000001 263579.97859662 15016.15209050
0.21100001 258766.59849160 8228.77822104
0.21200001 254015.83147823 8927.38681934
0.21300001 249327.29293258 8803.74712965
0.21400001 244701.96167584 8680.80250085
0.21500001 240139.28675058 7780.51325856
0.21600001 235636.68341690 11504.96161177
0.21700001 231196.50577064 10584.17653460
0.21800001 226817.51258708 10431.33789708
0.21900001 222498.30760527 7342.44449814
0.22000001 218239.53251468 8681.56901392
0.22100001 214043.69903435 7840.42106635
0.22200001 209906.38929230 11234.19048613
0.22300001 205828.89668807 7607.43638131
0.22400001 201808.91597269 8173.26148338
0.22500001 197851.01251083 6707.14964128
0.22600001 193950.22607821 7924.80661231
0.22700001 190108.67422258 7802.06035905
0.22800001 186324.36398693 8320.31486730
0.22900001 182597.25398634 8189.48722858
0.23000001 178927.78600529 6819.83288611
0.23100001 175316.32209728 7321.20995702
0.23200001 171759.59861213 6603.29808094
0.23300001 168260.14451973 7677.71075755
0.23400001 164816.38048122 6971.73322409
0.23500001 161426.52420913 7428.84899546
0.23600001 158092.49152170 10116.33901095
0.23700001 154812.45191011 6632.16575352
0.23800001 151586.86385002 5434.38932606
0.23900001 148414.60245449 7480.09631751
0.24000001 145295.57215282 5777.67869994
0.24100001 142230.12269376 6711.83980740
0.24200001 139216.45108005 5581.88387009
0.24300001 136254.52179285 6482.99045357
0.24400001 133343.62092097 6860.52962091
0.24500001 130483.94627180 4814.85784519
0.24600001 127674.69108787 5203.38228143
0.24700001 124916.56767818 4646.89653745
0.24800001 122206.82447153 5477.31013193
0.24900001 119545.92731674 5379.56698375
0.25000001 116934.41266872 4842.83892978
0.25100001 114370.54284710 6052.48941381
0.25200001 111855.41624012 6367.36987071
0.25300001 109387.37589070 4584.42514047
0.25400001 106965.46224854 5728.00077441
0.25500001 104589.79984796 4417.87335460
0.25600001 102260.64830597 4730.57781445
0.25700001 99976.43368939  4255.99698352
0.25800001 97736.98228602  3797.08194147
0.25900001 95542.16063768  4098.75888529
0.26000001 93391.81064885  4021.91851589
0.26100001 91282.64357956  3946.14886866
0.26200001 89219.08368054  4223.63162129
0.26300001 87196.50454454  3798.27991769
0.26400001 85215.76639003  5080.99031143
0.26500001 83277.21489523  4651.86544417
0.26600001 81378.95650187  3259.22736213
0.26700001 79522.01327809  4155.82061057
0.26800001 77705.14281905  3762.48319334
0.26900001 75927.15438700  4612.57484728
0.27000001 74188.80810799  3317.35271153
0.27100001 72488.87845641  3253.30101908
0.27200001 70827.39178148  4350.57274606
0.27300001 69202.89138108  3128.66286740
0.27400001 67614.46028650  3625.82560445
0.27500001 66065.14964648  3282.11678976
0.27600001 64549.82047992  3486.65871823
0.27700001 63071.65225836  3682.12323311
0.27800001 61627.99872446  2837.04505555
0.27900001 60219.27500583  2782.13063694
0.28000001 58844.77136714  2480.30723051
0.28100001 57503.77127245  2675.65060394
0.28200001 56196.62537012  2385.54685987
0.28300001 54922.30751718  2807.62849316
0.28400001 53680.44678564  2983.29097131
0.28500001 52470.76956909  3151.39456948
0.28600001 51291.78653701  2208.11151493
0.28700001 50144.21509599  2599.47623362
0.28800001 49026.73261790  2337.83985554
0.28900001 47940.88881527  3128.14314326
0.29000001 46883.02989655  2865.02209259
0.29100001 45855.83564417  2209.33426591
0.29200001 44856.70932135  2365.74296159
0.29300001 43885.95286056  2128.90767404
0.29400001 42942.82942203  2090.24232106
0.29500001 42028.10045040  2239.25729800
0.29600001 41139.57407447  2749.15216766
0.29700001 40277.25689399  1980.43281523
0.29800001 39441.88692818  2299.65932621
0.29900001 38631.88683150  2607.65248457
0.30000001 37847.17441915  2050.56000710
0.30100001 37088.27300230  2016.11861585
0.30200001 36352.70419771  1817.45353240
0.30300001 35641.42178294  2762.92314741
0.30400001 34954.65158573  1599.17538575
0.30500001 34289.86029504  1888.68559447
0.30600001 33648.12425996  1859.39543463
0.30700001 33029.29666751  1983.73965177
0.30800001 32432.45682802  2104.54222321
0.30900001 31857.12336039  1481.35630639
0.31000001 31303.75992154  1460.32046948
0.31100001 30769.58868620  1440.01681869
0.31200001 30257.05744801  1846.73958877
0.31300001 29764.13700779  2102.83637916
0.31400001 29292.30464755  1937.68604418
0.31500001 28838.68465973  1503.64908935
0.31600002 28404.28301354  1755.81083762
0.31700002 27987.97800212  1335.02661391
0.31800002 27590.42646309  1848.28275628
0.31900002 27210.82696471  1436.73173176
0.32000002 26848.70769713  1551.31840419
0.32100002 26504.06468486  1408.16102338
0.32200002 26176.25690948  1268.23970732
0.32300002 25864.18595849  1382.69944681
0.32400002 25568.80442688  1246.47927483
0.32500002 25288.73644202  1607.60505174
0.32600002 25024.58301259  1595.69261136
0.32700002 24775.48074495  1340.84908141
0.32800002 24541.87320019  1574.48394971
0.32900002 24321.46660949  1324.30391960
0.33000002 24116.94558083  1436.88768575
0.33100002 23923.70527695  1429.68069505
0.33200002 23746.73464419  1186.14945165
0.33300002 23581.48020197  1181.43221407
0.33400002 23430.00257755  1412.82922233
0.33500002 23290.62035037  1408.61678550
0.33600002 23163.55959929  1288.00979251
0.33700002 23047.84527685  1402.23097305
0.33800002 22945.23065459  1516.79454425
0.33900002 22852.88641972  1282.04698886
0.34000002 22772.29544475  1514.24385731
0.34100002 22702.43227967  1397.56179732
0.34200002 22644.08938401  1747.55768097
0.34300002 22594.60428790  1748.82245471
0.34400002 22556.35239976  1284.02042117
0.34500002 22527.10859154  1870.65118604
0.34600002 22508.81252603  1288.74212221
0.34700002 22497.53157504  1526.68256499
0.34800002 22497.04351806  1531.03636913
0.34900002 22504.69239119  1417.79568779
0.35000002 22521.17008198  1660.03552537
0.35100002 22545.77881066  1309.45889534
0.35200002 22577.70814101  1434.58764323
0.35300002 22617.90654016  2281.92069892
0.35400002 22666.05167532  1448.36077065
0.35500002 22721.10131196  1577.29892778
0.35600002 22782.87532671  1586.02994099
0.35700002 22851.60800172  1349.84454860
0.35800002 22927.67408762  1605.05190053
0.35900002 23009.51538060  1491.01666729
0.36000002 23098.30238052  1876.15969972
0.36100002 23192.26429429  1511.20801300
0.36200002 23293.12837569  2029.29744021
0.36300002 23397.80483160  1277.52020432
0.36400002 23508.66347904  1930.64907967
0.36500002 23624.14813387  1556.35895278
0.36600002 23745.24116941  1699.32826478
0.36700002 23870.63564044  1581.19097972
0.36800002 24002.02591675  1461.36341716
0.36900002 24136.60650666  2143.33075932
0.37000002 24274.61186080  1485.97043545
0.37100002 24416.96674163  1771.20685134
0.37200002 24563.84570555  1924.08612526
0.37300002 24713.56106648  1525.07392566
0.37400002 24867.82301822  1538.69662214
0.37500002 25024.24403385  1975.91440251
0.37600002 25184.88968954  1566.62613735
0.37700002 25347.18588378  1724.62260923
0.37800002 25513.24326203  2900.85589631
0.37900002 25681.73495510  1756.63075414
0.38000002 25852.76105160  1625.23390050
0.38100002 26025.61656095  1640.39468955
0.38200002 26200.90575957  1655.76631792
0.38300002 26377.90997067  1671.30445492
0.38400002 26557.51383211  1840.43579575
0.38500002 26737.87829296  2012.56019445
0.38600002 26920.79206839  1719.02725897
0.38700002 27104.09642408  1892.95018394
0.38800002 27288.74536680  1751.52820435
0.38900002 27474.75738112  1928.72805953
0.39000002 27662.38404028  1784.63879091
0.39100002 27849.93289350  2620.12181075
0.39200002 28039.13490966  1652.90708123
0.39300002 28228.26752418  2001.94882766
0.39400002 28418.94290012  2188.96918059
0.39500002 28608.90042998  1869.30564266
0.39600002 28799.33536941  1715.00050250
0.39700002 28989.52164910  1903.74197689
0.39800002 29181.11842690  2445.08602883
0.39900002 29371.46033184  1938.51647375
0.40000002 29561.52487490  1778.12580547
0.40100002 29751.42097941  2152.81292407
0.40200002 29941.93320165  2714.98492169
0.40300002 30130.84453231  2008.52219169
0.40400002 30319.34185621  2026.09011554
0.40500002 30507.20743473  2601.04462912
0.40600002 30694.53513671  2061.29160477
0.40700002 30880.67136710  1889.89717721
0.40800002 31066.17821472  2096.50113616
0.40900002 31249.91461931  2690.61777621
0.41000002 31433.33572788  2519.22481128
0.41100002 31615.26612842  2149.20589324
0.41200002 31795.02110295  2560.61214585
0.41300002 31974.20435245  2184.15800281
0.41400002 32151.44371424  2601.85570586
0.41500002 32327.89881511  4034.52196329
0.41600002 32501.42638168  2439.55717980
0.41700002 32674.06351028  2253.53026708
0.41800002 32845.77307079  2064.35693532
0.41900002 33013.63350482  2703.81671216
0.42000002 33180.40630514  2095.34275746
0.42100002 33345.78082812  2744.02443437
0.42200002 33508.89103852  2763.98100828
0.42300002 33669.45398979  2783.79058779
0.42400002 33827.77187646  2372.17261524
0.42500002 33984.42227689  2388.76515504
0.42600002 34137.30336707  2623.79326112
0.42700002 34289.30384968  2201.37341146
0.42800002 34438.41697135  3545.77957939
0.42900002 34585.58190659  3346.15520803
0.43000002 34730.20995624  2694.36981608
0.43100002 34870.97579558  2259.63933863
0.43200002 35010.02345522  3410.85169676
0.43300002 35146.09284697  3432.01612914
0.43400002 35279.95256411  3683.22722223
0.43500002 35410.41456804  2547.42534474
0.43600002 35539.28107835  4193.27997315
0.43700002 35664.39785568  2577.46615517
0.43800002 35785.84676735  2592.14793343
0.43900002 35905.66634682  2606.75150031
0.44000002 36021.77332511  2621.12446022
0.44100002 36135.48990088  3114.51802215
0.44200002 36246.12680894  3131.12181277
0.44300002 36353.87997219  2421.16852089
0.44400002 36458.05374915  2676.93272339
0.44500002 36558.51671356  2934.91786085
0.44600002 36656.65367404  2703.61161986
0.44700002 36752.00203517  2963.68158457
0.44800002 36842.78314095  3722.04234321
0.44900002 36932.09889262  4237.95854877
0.45000002 37017.88952889  3005.11241437
0.45100002 37099.18464699  3018.38980593
0.45200002 37178.14374277  3031.50598446
0.45300002 37253.17708139  4312.80051511
0.45400002 37325.78945451  3566.47935140
0.45500002 37394.88193727  3580.93406402
0.45600002 37460.50732222  4108.66863783
0.45700002 37522.65509348  2835.58717980
0.45800002 37580.91057632  3104.93497897
0.45900002 37636.28961501  2856.59451717
0.46000002 37688.92975152  3127.42753900
0.46100002 37736.98443614  3399.72508898
0.46200002 37782.63814240  3148.80521202
0.46300002 37824.49580016  2895.84353571
0.46400002 37862.49452862  3433.18185410
0.46500002 37898.10634350  3443.80108665
0.46600002 37929.38173716  2922.64864828
0.46700002 37957.40837088  2931.07121332
0.46800002 37982.69451586  3740.91576017
0.46900002 38003.97876295  3215.13675573
0.47000002 38021.28930382  4297.92674661
0.47100002 38035.88141183  3231.52863791
0.47200002 38046.79008627  3239.30386148
0.47300002 38055.15749663  2705.72182625
0.47400002 38058.38758760  2982.82626856
0.47500002 38059.63524213  2989.20389360
0.47600002 38057.76128638  2723.03294911
