# SAXS profile: number of points = 501, q_min = 0, q_max = 0.5, delta_q = 0.001
#    q    intensity    error
0.00000000 1664650.74656090 274.66737318
0.00100000 1664582.19959173 649.18707326
0.00200000 1664376.50468253 823.86639591
0.00300000 1664033.83240817 1198.10440201
0.00400000 1663554.06299159 1372.43215412
0.00500000 1662937.61281773 1945.63708401
0.00600000 1662184.27330989 2966.99904865
0.00700000 1661294.63063613 2392.26436754
0.00800000 1660268.19648726 2465.49837588
0.00900000 1659106.28975240 3235.25740332
0.01000000 1657808.07685425 3008.92178941
0.01100000 1656374.82452315 3577.76977674
0.01200000 1654805.95808363 3549.55893572
0.01300000 1653102.89285576 5207.27434216
0.01400000 1651264.85350321 4829.94991061
0.01500000 1649293.59024710 4354.13527214
0.01600000 1647188.02734090 5040.39558899
0.01700000 1644950.26628604 7994.45865277
0.01800000 1642579.84909922 5617.62333670
0.01900000 1640077.48868599 5412.25595688
0.02000000 1637443.83732999 5673.74315300
0.02100000 1634680.44100900 5933.89026990
0.02200000 1631785.65463136 7318.55899352
0.02300000 1628762.29983375 6449.89900093
0.02400000 1625610.20345904 6705.64239503
0.02500000 1622330.70124812 9490.63503574
0.02600000 1618924.11848467 9834.96446963
0.02700000 1615391.33839425 7463.10832520
0.02800000 1611732.22726279 10516.55326517
0.02900000 1607949.52964766 8682.92785877
0.03000000 1604043.34727065 9696.44247995
0.03100000 1600013.99455377 7680.06752724
0.03200000 1595862.57048861 9479.42410531
0.03300000 1591591.72216641 9740.54178870
0.03400000 1587199.43838554 9999.35692320
0.03500000 1582689.29425439 8546.52258364
0.03600000 1578060.81038460 12261.53306334
0.03700000 1573315.83914892 8967.90069789
0.03800000 1568455.76349995 9175.46664111
0.03900000 1563481.70947372 9380.89069127
0.04000000 1558392.72948976 11500.93887658
0.04100000 1553192.65844360 10763.62562209
0.04200000 1547881.89426065 9983.83868116
0.04300000 1542460.40405145 14252.33479500
0.04400000 1536932.01007737 15561.43732474
0.04500000 1531296.32274389 16905.51218861
0.04600000 1525553.45896472 10755.15238567
0.04700000 1519706.87642145 10941.89001912
0.04800000 1513756.54684791 12238.72225071
0.04900000 1507705.28374699 12438.56916990
0.05000000 1501552.71651456 13784.25457948
0.05100000 1495302.07322663 18661.37074319
0.05200000 1488951.58325841 15388.31533009
0.05300000 1482506.65934781 14409.96540062
0.05400000 1475965.80043452 17047.40579000
0.05500000 1469332.79274384 14810.87524177
0.05600000 1462606.06360176 13755.81067008
0.05700000 1455790.81116576 16464.99484285
0.05800000 1448885.38711257 14104.89990213
0.05900000 1441892.16287642 12977.03007199
0.06000000 1434813.59093912 17067.10846158
0.06100000 1427651.29861753 13277.15769760
0.06200000 1420405.63879956 20134.25087113
0.06300000 1413079.80097432 16278.68006834
0.06400000 1405672.05269621 17816.89410116
0.06500000 1398188.58395172 16610.48115435
0.06600000 1390627.20928839 19566.12575016
0.06700000 1382990.84089568 15517.15796104
0.06800000 1375282.59578978 15657.59308598
0.06900000 1367503.03295369 15794.66077010
0.07000000 1359651.80713285 21720.43863608
0.07100000 1351733.83219703 21898.08910725
0.07200000 1343747.80729647 23542.46268672
0.07300000 1335698.63352433 16308.88107949
0.07400000 1327585.74696436 19415.94245927
0.07500000 1319411.16167519 18049.54553774
0.07600000 1311175.43150945 16658.48463829
0.07700000 1302883.74027933 19816.86261883
0.07800000 1294534.55515604 18408.28223760
0.07900000 1286129.59087159 21606.97814009
0.08000000 1277673.20383953 20180.84920135
0.08100000 1269165.40770110 20293.95582130
0.08200000 1260606.80074053 20402.92202740
0.08300000 1252000.71853547 22085.29371147
0.08400000 1243347.68674805 15852.68375014
0.08500000 1234651.95738208 20705.11429730
0.08600000 1225912.24275903 25597.04883063
0.08700000 1217132.25284365 20885.99043956
0.08800000 1208310.70137716 24196.42293143
0.08900000 1199453.70075311 19431.15086488
0.09000000 1190559.88878708 22751.60054349
0.09100000 1181632.02479681 19567.82724995
0.09200000 1172670.77573672 21266.38551722
0.09300000 1163680.07955419 22971.04584986
0.09400000 1154657.84530845 18099.26257583
0.09500000 1145608.69121124 23095.47230037
0.09600000 1136533.31988270 21497.52875613
0.09700000 1127435.10317697 24859.94519379
0.09800000 1118314.49480046 23249.75944005
0.09900000 1109173.68173397 21628.88781086
0.10000000 1100011.83849546 26664.28821908
0.10100000 1090832.37480312 25034.60417915
0.10200000 1081637.42816479 25066.94857678
0.10300000 1072427.70756171 18402.86032744
0.10400000 1063205.78168231 20094.59021915
0.10500000 1053974.66167053 18434.01769993
0.10600001 1044730.43006562 23475.09386816
0.10700001 1035480.94195664 25162.18807362
0.10800001 1026223.21969944 23490.25060441
0.10900001 1016961.71847032 18457.85605897
0.11000001 1007696.53470438 20133.77771108
0.11100001 998429.51044521 18450.97822158
0.11200001 989163.46601045 23472.85015346
0.11300001 979896.82584389 20107.48381299
0.11400001 970634.49170970 21766.47950145
0.11500001 961376.47956525 18400.74668533
0.11600001 952123.75382843 23393.68173321
0.11700001 942879.43042330 20026.76004535
0.11800001 933641.73996365 19998.60701192
0.11900001 924415.02048429 29951.04807443
0.12000001 915199.25668416 23255.21420778
0.12100001 905997.96359773 19895.71621786
0.12200001 896809.59589643 21509.97917094
0.12300001 887637.58619812 18161.06586926
0.12400001 878481.78891883 24707.30147749
0.12500001 869344.35392651 19716.73087612
0.12600001 860227.98019430 22942.28131290
0.12700001 851132.45190633 16341.74384673
0.12800001 842057.77713083 21181.96438202
0.12900001 833007.31998242 22741.10090736
0.13000001 823981.52484266 21048.60904423
0.13100001 814980.58501482 17750.27797833
0.13200001 806007.96304988 20903.81750711
0.13300001 797064.85664468 20827.30568599
0.13400001 788149.49901622 19152.03372903
0.13500001 779265.79728919 17486.72531564
0.13600001 770412.86442315 20581.58064350
0.13700001 761593.86132512 22070.99114192
0.13800001 752807.33660804 21974.44719181
0.13900001 744058.36314784 15625.22636296
0.14000001 735344.09930438 17107.78127713
0.14100001 726667.32551292 17025.81623976
0.14200001 718027.70676708 20022.20354755
0.14300001 709429.88553677 24517.89800060
0.14400001 700868.11993702 16768.27056045
0.14500001 692351.44908650 18194.99694029
0.14600001 683874.20336576 18095.31227469
0.14700001 675442.88413630 16494.31600875
0.14800001 667052.90359553 16399.49640860
0.14900001 658707.70879005 19267.20139115
0.15000001 650408.72551621 14731.75832803
0.15100001 642155.94898463 16105.27196046
0.15200001 633951.20989056 17459.01714422
0.15300001 625794.62236541 17347.02775056
0.15400001 617684.95259315 22977.88132081
0.15500001 609626.67286214 21397.89722729
0.15600001 601616.49042146 19835.29662532
0.15700001 593661.01611852 18290.69676987
0.15800001 585752.47880032 15367.21700664
0.15900001 577899.55702124 18030.46703011
0.16000001 570097.07039875 15144.62939001
0.16100001 562351.18570911 17764.67479512
0.16200001 554657.49285426 17629.78924261
0.16300001 547019.74171988 14802.35490973
0.16400001 539436.78493243 14686.16716311
0.16500001 531910.13956973 13244.56310058
0.16600001 524439.53204018 14450.93198764
0.16700001 517025.41055208 15634.84915329
0.16800001 509667.75556768 18088.10949915
0.16900001 502370.23678004 16653.57413561
0.17000001 495129.69811172 13970.08509189
0.17100001 487948.28996660 12589.06647561
0.17200001 480825.97686512 19963.89550219
0.17300001 473763.06342250 17311.30315498
0.17400001 466761.00069631 15928.21990099
0.17500001 459818.50018602 13353.12987604
0.17600001 452934.76015379 12025.41845003
0.17700001 446114.48025019 14293.50862231
0.17800001 439354.20152343 12976.32695489
0.17900001 432655.11949092 12849.85765583
0.18000001 426018.66672998 13879.68881767
0.18100001 419445.05394702 18321.36082184
0.18200001 412930.62234921 13601.93534271
0.18300001 406481.46401118 17950.22229869
0.18400001 400093.16435534 13323.10300243
0.18500001 393768.53256996 10986.14257771
0.18600001 387506.51130784 13043.46978684
0.18700001 381307.04251934 11828.14501777
0.18800001 375170.24381901 12763.29229774
0.18900001 369098.95042469 14727.04881776
0.19000001 363086.57965311 14563.40339799
0.19100001 357142.76910966 16457.13957817
0.19200001 351258.39347432 17287.18265168
0.19300001 345440.24998411 11057.54292449
0.19400001 339684.33045457 10929.34384883
0.19500001 333992.40586042 10801.31491594
0.19600001 328362.74494918 10673.43152896
0.19700001 322797.53351907 14380.63079787
0.19800001 317295.54313790 12312.65413335
0.19900001 311857.74665580 14969.17254692
0.20000001 306481.24590095 14784.65600100
0.20100001 301169.86759144 10950.53690317
0.20200001 295920.17066624 13516.15443400
0.20300001 290734.53460109 10675.77261514
0.20400001 285611.55103232 9660.81117029
0.20500001 280550.60584059 9535.91554325
0.20600001 275553.03555517 11122.69880593
0.20700001 270617.45463560 9287.59148211
0.20800001 265744.17543781 9997.29635254
0.20900001 260935.19102494 13151.13424933
0.21000001 256185.46482503 10540.75144851
0.21100001 251497.85717643 8797.39545991
0.21200001 246871.70053172 10253.81656633
0.21300001 242306.81819507 10111.46400130
0.21400001 237803.45693164 7669.16184862
0.21500001 233361.77037362 12853.56691986
0.21600001 228979.03871649 11925.22890016
0.21700001 224657.33429326 8080.92469659
0.21800001 220395.59017524 7239.99547957
0.21900001 216192.47459872 7847.78719899
0.22000001 212048.41879684 10544.10812323
0.22100001 207965.89728316 9695.37058977
0.22200001 203940.99054786 10232.73968459
0.22300001 199974.33094422 6719.13783744
0.22400001 196064.15556948 7278.88211971
0.22500001 192214.94242509 7819.30422761
0.22600001 188421.09378905 7698.88625629
0.22700001 184685.51905079 6947.86955525
0.22800001 181005.96768075 6217.55528386
0.22900001 177382.43783005 7343.63327345
0.23000001 173814.96184967 7227.22645550
0.23100001 170304.58390448 7111.91976019
0.23200001 166847.49097003 6414.45209371
0.23300001 163446.40796027 6884.36302888
0.23400001 160099.83489796 6207.87139177
0.23500001 156805.84173045 7216.20517773
0.23600001 153566.54660832 8188.93648520
0.23700001 150380.16348282 5905.42929928
0.23800001 147246.37589853 8446.05252103
0.23900001 144165.25485763 7265.92918850
0.24000001 141135.65283509 5612.25950045
0.24100001 138158.79720505 5516.68103334
0.24200001 135232.31300885 6407.98345503
0.24300001 132356.34924880 5328.66687282
0.24400001 129530.12235463 5236.25544388
0.24500001 126754.01082229 7015.83483089
0.24600001 124027.20653555 6892.81232928
0.24700001 121349.94699886 5417.06189029
0.24800001 118719.91947125 4434.18920202
0.24900001 116137.79893743 6097.23473266
0.25000001 113603.73313456 4704.89883035
0.25100001 111115.96014063 5880.25688883
0.25200001 108675.85931148 4949.09886719
0.25300001 106281.70742308 5264.13321771
0.25400001 103932.37817338 6758.20321046
0.25500001 101628.29679649 5853.79017243
0.25600001 99369.26364914  4213.75382441
0.25700001 97154.17444288  4511.84007460
0.25800001 94982.62802025  4797.09785513
0.25900001 92854.65978218  3621.33190285
0.26000001 90769.89152326  3909.00556341
0.26100001 88725.26992446  4881.66458223
0.26200001 86724.96034585  5131.94977129
0.26300001 84764.52041030  4028.01020049
0.26400001 82844.91253193  3622.39397186
0.26500001 80966.42817643  4522.78489195
0.26600001 79126.78222893  3485.93055605
0.26700001 77327.67937838  3730.28742973
0.26800001 75567.38095852  3354.05836256
0.26900001 73844.93426824  3887.93597321
0.27000001 72161.06157892  4106.68620879
0.27100001 70514.39916895  2876.98762224
0.27200001 68905.19649031  3103.83472279
0.27300001 67331.93458909  3874.27969960
0.27400001 65793.79502592  3256.79300791
0.27500001 64293.54979830  3992.62963143
0.27600001 62826.20015578  3132.51448802
0.27700001 61395.35269115  2816.20496122
0.27800001 59997.53102972  3264.16583016
0.27900001 58634.12926950  3447.68696422
0.28000001 57303.50067188  2898.41120116
0.28100001 56005.63108419  2369.03830699
0.28200001 54740.57649253  3020.85885672
0.28300001 53507.24354485  2507.34955119
0.28400001 52305.66052324  2459.67380252
0.28500001 51135.03378400  3729.27819038
0.28600001 49994.30051438  2152.25473901
0.28700001 48884.05035828  2956.50750561
0.28800001 47802.83609140  2279.47834691
0.28900001 46752.27791362  3050.58627826
0.29000001 45728.98791743  2395.28450049
0.29100001 44735.53385027  2155.35812293
0.29200001 43769.00130197  2116.01246811
0.29300001 42830.07727334  1888.80649716
0.29400001 41917.89759333  2225.84046757
0.29500001 41033.52595501  2004.07750251
0.29600001 40174.06194027  1968.72999858
0.29700001 39340.22976998  2110.21002476
0.29800001 38532.32044056  2073.80958428
0.29900001 37749.17666048  1698.71303014
0.30000001 36990.40036646  1837.12832117
0.30100001 36256.51776396  2627.87253194
0.30200001 35545.23091970  2584.84931485
0.30300001 34857.58470609  1907.40712542
0.30400001 34193.58469590  1877.22788868
0.30500001 33550.87297944  1539.98514266
0.30600001 32930.51790386  1516.45042127
0.30700001 32332.24894643  1493.74997204
0.30800001 31755.10979868  2354.95905416
0.30900001 31198.83098996  2176.11856458
0.31000001 30663.91076598  1573.51865545
0.31100001 30147.37030960  2257.43519566
0.31200001 29651.98094861  1949.02480003
0.31300001 29175.15310282  2198.63964193
0.31400001 28718.88042573  1492.66388080
0.31500001 28280.53114773  1608.59668785
0.31600002 27860.26032503  1457.23098530
0.31700002 27457.66268801  1833.62280112
0.31800002 27073.19279244  1295.45233646
0.31900002 26706.03500103  1538.26768890
0.32000002 26355.66375274  1649.73285072
0.32100002 26022.18674046  1759.62035071
0.32200002 25705.15957315  1619.03955238
0.32300002 25403.20698046  1481.51510125
0.32400002 25117.22059721  1591.80393072
0.32500002 24846.18774520  1457.97436593
0.32600002 24590.47496897  1688.62799608
0.32700002 24349.25170482  1796.97486091
0.32800002 24122.95734762  1428.56160177
0.32900002 23909.40840149  1301.86734911
0.33000002 23711.11757416  1412.70845197
0.33100002 23523.83177609  1757.23031689
0.33200002 23352.14186337  1283.08349544
0.33300002 23191.86803977  1975.25149449
0.33400002 23044.79488902  1621.20139722
0.33500002 22909.36176040  1616.48464236
0.33600002 22785.84184184  1267.00679562
0.33700002 22673.17608549  1379.43609837
0.33800002 22573.32050884  1147.85340223
0.33900002 22483.07605805  1146.63693326
0.34000002 22404.41074545  1718.97849585
0.34100002 22336.09382450  1375.01000095
0.34200002 22278.65461789  1375.48420125
0.34300002 22229.95604154  1261.77236467
0.34400002 22191.85670894  1492.95723080
0.34500002 22162.67407489  1265.26712286
0.34600002 22144.01465579  1267.85561916
0.34700002 22132.00093496  1617.40670493
0.34800002 22130.37798685  1506.08294523
0.34900002 22136.73414658  1975.70361615
0.35000002 22151.39939596  1516.15260346
0.35100002 22174.06182269  1522.02767560
0.35200002 22203.78269567  1528.39745425
0.35300002 22241.40143918  1181.01847236
0.35400002 22286.64476262  1661.46944575
0.35500002 22338.63717185  1312.17160962
0.35600002 22397.03656482  1199.36136485
0.35700002 22462.17462107  1206.21883428
0.35800002 22534.30396278  1820.20848881
0.35900002 22612.11888712  1465.26537329
0.36000002 22696.64004402  1720.63236324
0.36100002 22786.00285685  1361.00801511
0.36200002 22882.11267848  1744.30353210
0.36300002 22981.84891869  1756.73261456
0.36400002 23087.52695394  1516.85059272
0.36500002 23197.74137238  1528.26727400
0.36600002 23313.40864362  1668.42416861
0.36700002 23433.06740686  1940.25807319
0.36800002 23558.62909235  1434.36720023
0.36900002 23687.38925569  1709.04521575
0.37000002 23819.24514705  1458.09516075
0.37100002 23955.46336945  1604.05790320
0.37200002 24095.82441583  1482.97758392
0.37300002 24239.10383881  1495.79516875
0.37400002 24386.74247518  1646.10519505
0.37500002 24536.53050377  2075.79057895
0.37600002 24690.32936426  1815.10964920
0.37700002 24845.76511878  1549.63044387
0.37800002 25004.82702258  2132.28672536
0.37900002 25166.19527912  2151.70979830
0.38000002 25330.16041837  2460.95185203
0.38100002 25495.84275462  1753.09423086
0.38200002 25663.83619409  1916.70369696
0.38300002 25833.55070071  1488.01259085
0.38400002 26005.81822736  1652.01968116
0.38500002 26178.55332935  1667.31214053
0.38600002 26354.18108864  1835.83234161
0.38700002 26530.04414060  2161.66809899
0.38800002 26707.26318482  1870.04265680
0.38900002 26885.70686862  2359.22088949
0.39000002 27065.94508661  2381.12663180
0.39100002 27245.99471510  1762.27102166
0.39200002 27427.53995122  2263.59497942
0.39300002 27609.23727210  1794.87660009
0.39400002 27792.41414709  1811.37067785
0.39500002 27974.98373166  1661.71411239
0.39600002 28157.96642125  2347.52977176
0.39700002 28340.87096676  1861.14508456
0.39800002 28524.90380731  1877.93713113
0.39900002 28707.84303952  3100.44719516
0.40000002 28890.81925572  2432.89600479
0.40100002 29073.32117991  1928.43348523
0.40200002 29256.72090492  1945.42574875
0.40300002 29438.54603686  2140.77116923
0.40400002 29619.85504060  1799.40627897
0.40500002 29800.70156056  2177.83537323
0.40600002 29981.07086767  2196.41335583
0.40700002 30160.37876600  2399.55984832
0.40800002 30339.22646034  2047.44279469
0.40900002 30516.16084585  2815.11597141
0.41000002 30692.99002787  2838.33438731
0.41100002 30868.38442926  1907.66624812
0.41200002 31041.77391615  2307.64558227
0.41300002 31214.56974890  3101.47979721
0.41400002 31385.71092700  2344.51271734
0.41500002 31556.02777131  1969.09622623
0.41600002 31723.51371696  1984.30587702
0.41700002 31890.24763557  2399.42234579
0.41800002 32056.11840226  2417.67256446
0.41900002 32218.33645572  2638.68188076
0.42000002 32379.55394604  2658.19960716
0.42100002 32539.53648191  2471.70330829
0.42200002 32697.39018993  2282.11445644
0.42300002 32852.75730291  2507.32255617
0.42400002 33006.02368521  2945.78775349
0.42500002 33157.78532352  2542.53909909
0.42600002 33306.01408015  2346.57533321
0.42700002 33453.43452216  2362.48165790
0.42800002 33598.05335343  2378.23831932
0.42900002 33740.91179163  2829.17558779
0.43000002 33881.32658367  2847.55622766
0.43100002 34018.00390924  2865.67678511
0.43200002 34153.27108985  3771.03360609
0.43300002 34285.65238862  2678.39529152
0.43400002 34415.88014997  3817.58168654
0.43500002 34543.06255640  3388.67459737
0.43600002 34668.64815413  3181.54199187
0.43700002 34790.57237989  2971.46292778
0.43800002 34909.17418892  2988.39999806
0.43900002 35026.21182916  3005.24911736
0.44000002 35139.67865004  3021.83680871
0.44100002 35251.02795756  4206.85787582
0.44200002 35359.38443956  2819.55744883
0.44300002 35465.07589053  2361.97416624
0.44400002 35567.38753830  2374.12323069
0.44500002 35666.05717358  3579.08900699
0.44600002 35762.55137770  2877.45502022
0.44700002 35856.40158977  3614.32545154
0.44800002 35946.14234934  2905.16736235
0.44900002 36034.32885161  2675.54904403
0.45000002 36119.16727578  2932.15413841
0.45100002 36199.69414949  3190.64119355
0.45200002 36278.14770633  3697.65038021
0.45300002 36352.89597461  2723.19556652
0.45400002 36425.25286527  2734.62598846
0.45500002 36494.31559895  3494.69582738
0.45600002 36559.94770436  2506.18453391
0.45700002 36622.56990763  3773.95600784
0.45800002 36681.34169731  4040.81679289
0.45900002 36737.30058944  4562.77294946
0.46000002 36790.84206361  4833.76501362
0.46100002 36840.03785844  2808.31621905
0.46200002 36886.85105675  3330.32950550
0.46300002 36930.02803919  3598.46210269
0.46400002 36969.60461614  3094.35605303
0.46500002 37006.84924425  2845.45677325
0.46600002 37040.08152679  3373.05518411
0.46700002 37070.20649241  3122.79434293
0.46800002 37097.69025215  3131.78715952
0.46900002 37121.31248007  4448.98951160
0.47000002 37141.38247834  2886.44267611
0.47100002 37158.63107173  3156.99744549
0.47200002 37172.53222368  2637.39128627
0.47300002 37183.77266732  4230.02617913
0.47400002 37190.43504239  3709.74607131
0.47500002 37195.00858717  2655.72373900
0.47600002 37196.66834009  2927.56392047
0.47700002 37193.93706674  3466.84703831
