# SAXS profile: number of points = 501, q_min = 0, q_max = 0.5, delta_q = 0.001
#    q    intensity    error
0.00000000 1682732.95097188 302.89193117
0.00100000 1682663.83034130 605.75899331
0.00200000 1682456.41596419 832.81595227
0.00300000 1682110.87828202 1513.89984438
0.00400000 1681627.09223003 1765.70851393
0.00500000 1681005.49539159 1966.77650746
0.00600000 1680245.83734843 1940.68402115
0.00700000 1679348.76154243 2216.74045736
0.00800000 1678313.74229160 3398.58547163
0.00900000 1677142.10973723 2767.28459936
0.01000000 1675833.02596152 2765.12461223
0.01100000 1674387.77865510 3918.06757264
0.01200000 1672805.78077488 5545.35140640
0.01300000 1671088.42365440 3509.28584445
0.01400000 1669234.97964291 4882.51253190
0.01500000 1667247.20093420 5201.81149855
0.01600000 1665123.96108817 8067.52595212
0.01700000 1662867.42831204 4938.71648363
0.01800000 1660477.08707823 6152.06788445
0.01900000 1657953.67711534 4973.86125578
0.02000000 1655297.93351616 6257.02647173
0.02100000 1652511.28843436 6543.94499889
0.02200000 1649592.18453254 7967.53061328
0.02300000 1646543.33828736 5927.55628765
0.02400000 1643364.66004376 8627.66485863
0.02500000 1640057.54532050 8315.09213453
0.02600000 1636622.22026449 9279.64841333
0.02700000 1633059.60233660 9602.39090154
0.02800000 1629369.63566452 9214.08571224
0.02900000 1625554.91172693 10972.49615795
0.03000000 1621615.65234243 11310.76969499
0.03100000 1617552.20001173 10093.52619251
0.03200000 1613365.61246059 8784.77616446
0.03300000 1609058.48823607 9847.43840198
0.03400000 1604628.97130500 11794.02348327
0.03500000 1600080.49384151 9504.47857232
0.03600000 1595412.57211298 9739.99420287
0.03700000 1590627.23134105 9066.57563795
0.03800000 1585725.73222661 10204.14555912
0.03900000 1580709.26159081 11381.10721051
0.04000000 1575576.76803140 10658.77732965
0.04100000 1570332.24234276 10882.40294401
0.04200000 1564976.02695303 12112.91501057
0.04300000 1559508.13907094 13380.58045433
0.04400000 1553932.24041080 12586.85173189
0.04500000 1548248.07723071 13887.78589805
0.04600000 1542455.86351743 10874.31434331
0.04700000 1536558.88623992 13275.86939455
0.04800000 1530557.25597171 14624.47526126
0.04900000 1524453.76040976 14863.42485585
0.05000000 1518248.04790406 12776.05791804
0.05100000 1511943.27537630 11793.15809731
0.05200000 1505537.79354151 16756.63642300
0.05300000 1499036.78027735 14570.63818355
0.05400000 1492439.10076544 12312.62315550
0.05500000 1485748.33256138 12480.28657571
0.05600000 1478962.99754236 18967.70132859
0.05700000 1472088.11831391 12807.16722715
0.05800000 1465122.43091468 15559.60094283
0.05900000 1458067.76403653 13122.61048923
0.06000000 1450927.17934151 15931.18117346
0.06100000 1443702.02257449 14769.07238112
0.06200000 1436392.51341064 13573.90988622
0.06300000 1429002.06093721 20577.63063961
0.06400000 1421528.96737560 18017.88050412
0.06500000 1413979.25839317 19597.75343807
0.06600000 1406350.81757416 18373.97429130
0.06700000 1398646.61930560 17119.43542147
0.06800000 1390869.92794417 15835.05487087
0.06900000 1383020.98344756 17426.06520731
0.07000000 1375099.65840283 19038.25566212
0.07100000 1367110.77973693 17717.75653525
0.07200000 1359053.21378857 17857.96006577
0.07300000 1350931.84299413 28491.15390372
0.07400000 1342745.86944378 19637.65926092
0.07500000 1334497.63635322 18255.92852101
0.07600000 1326187.56199956 18380.96047102
0.07700000 1317820.80788405 18502.20501023
0.07800000 1309395.84227672 23274.51218796
0.07900000 1300914.53509922 21855.36521477
0.08000000 1292381.19196023 17272.67544083
0.08100000 1283795.76794047 22106.96416115
0.08200000 1275158.89593899 25401.16639906
0.08300000 1266473.95653643 17553.32986141
0.08400000 1257741.56052551 19243.44677930
0.08500000 1248965.59139837 17722.82257394
0.08600000 1240145.32505749 21039.06642742
0.08700000 1231283.99413002 17878.24443429
0.08800000 1222380.79218636 19582.54121050
0.08900000 1213441.55275159 16381.46173158
0.09000000 1204464.91077111 18085.04148478
0.09100000 1195453.66265560 28045.34424350
0.09200000 1186408.63024407 18205.44128651
0.09300000 1177333.54806514 23240.56533093
0.09400000 1168226.65981248 23306.12295859
0.09500000 1159092.15797277 18360.02064526
0.09600000 1149931.09378338 16731.49820106
0.09700000 1140746.68399316 18445.87474736
0.09800000 1131539.51108792 23524.70754159
0.09900000 1122311.50128077 37036.28128380
0.10000000 1113062.29557768 16862.89457102
0.10100000 1103795.00099825 23643.29003337
0.10200000 1094511.90516937 23674.29362236
0.10300000 1085213.55463696 27086.93159793
0.10400000 1075902.80937025 18640.01704926
0.10500000 1066582.43536111 18654.52767215
0.10600001 1057248.64701388 18665.72574132
0.10700001 1047909.04469385 23766.57825206
0.10800001 1038561.20400793 20376.57178159
0.10900001 1029209.08817724 20378.34090503
0.11000001 1019853.26785568 16980.55770906
0.11100001 1010495.18155357 23766.84778893
0.11200001 1001137.58902941 18666.21122620
0.11300001 991779.43733047 22047.25792986
0.11400001 982425.33105025 20336.20531026
0.11500001 973075.15517267 16931.50849728
0.11600001 963730.36450362 23678.85617093
0.11700001 954393.60786532 28717.70501313
0.11800001 945063.28310568 20243.25647755
0.11900001 935743.75408600 21896.40487697
0.12000001 926434.92276799 25222.19196045
0.12100001 917140.69652812 33567.35107422
0.12200001 907859.02485501 21774.99973700
0.12300001 898593.73266904 23399.38190115
0.12400001 889344.32377217 23345.28959899
0.12500001 880113.39148110 18297.55827108
0.12600001 870903.36642125 19908.85189456
0.12700001 861714.01952964 28126.34692294
0.12800001 852545.62762593 23095.46214086
0.12900001 843401.18673927 18090.95630822
0.13000001 834281.69029593 18032.99958573
0.13100001 825186.68411720 17972.56682726
0.13200001 816120.23378623 16281.59943156
0.13300001 807083.12631060 22711.32024506
0.13400001 798073.99219614 19393.19892467
0.13500001 789096.24920192 20926.83351550
0.13600001 780149.40666386 17635.27816915
0.13700001 771236.57668791 17561.05767924
0.13800001 762356.32801794 20663.66924534
0.13900001 753513.59495732 17406.16486436
0.14000001 744705.66801891 20475.68330783
0.14100001 735935.36583795 26648.22085380
0.14200001 727202.38599905 18718.19029846
0.14300001 718511.23489276 18623.81208686
0.14400001 709856.27691260 21615.12465157
0.14500001 701246.43615930 26107.40604975
0.14600001 692676.44176922 21382.92276614
0.14700001 684152.21467067 16706.99787044
0.14800001 675669.75354416 16611.34167458
0.14900001 667231.97548092 19516.53620362
0.15000001 658840.82417798 16415.01990890
0.15100001 650495.86463810 17797.56769628
0.15200001 642199.45312027 17686.17377349
0.15300001 633951.18383796 23430.83686033
0.15400001 625750.01626295 17458.42627762
0.15500001 617600.53786863 20232.59457541
0.15600001 609499.70147749 14353.71864722
0.15700001 601453.40167537 15679.89092172
0.15800001 593454.51831804 14153.89092993
0.15900001 585511.31869107 23888.86293016
0.16000001 577619.11787904 13949.50235523
0.16100001 569783.79838596 19384.04573610
0.16200001 562000.81738256 15115.01269702
0.16300001 554274.15806594 14998.65942532
0.16400001 546602.66370301 14881.25822185
0.16500001 538987.80899739 13420.79707765
0.16600001 531429.22992217 15974.76340568
0.16700001 523927.61704757 13202.97657297
0.16800001 516482.68053312 15711.40388365
0.16900001 509098.31987619 15578.40932379
0.17000001 501771.61854216 16731.57541035
0.17100001 494504.09362390 16585.66808334
0.17200001 487296.04968851 15174.39970388
0.17300001 480147.94080058 21304.16513940
0.17400001 473061.13643981 13659.64095979
0.17500001 466034.12770260 14763.96186288
0.17600001 459066.45961379 13407.03658622
0.17700001 452162.50492241 14487.28734196
0.17800001 445319.19972863 11956.82107746
0.17900001 438537.55109911 15392.66877063
0.18000001 431818.84382820 12896.27038008
0.18100001 425163.43396147 13928.35475450
0.18200001 418567.79160975 14936.59234917
0.18300001 412037.89018355 20470.04335131
0.18400001 405569.16652930 13505.45388343
0.18500001 399164.90257440 13364.04156954
0.18600001 392823.42085943 13222.43697080
0.18700001 386545.29585078 13080.69342959
0.18800001 380330.19972460 11860.59783878
0.18900001 374180.99724213 11730.57481778
0.19000001 368091.46197673 11600.40297230
0.19100001 362070.79337846 16684.22294721
0.19200001 356110.41580189 13402.21613198
0.19300001 350216.58138208 11210.43329976
0.19400001 344385.57240515 16117.24555016
0.19500001 338619.17853687 16924.18734303
0.19600001 332915.54945471 10821.42044641
0.19700001 327276.79340231 10692.13334574
0.19800001 321702.02834121 11523.36719976
0.19900001 316191.98002246 11382.91181876
0.20000001 310743.80688284 9368.92622030
0.20100001 305361.27569879 12028.18121825
0.20200001 300040.99456888 9136.24871643
0.20300001 294785.45708714 10824.52249586
0.20400001 289593.27452072 10685.99233490
0.20500001 284463.66399572 8789.92763294
0.20600001 279397.78103637 10410.36181349
0.20700001 274394.73513459 8561.11614088
0.20800001 269454.43533407 11826.35572585
0.20900001 264579.14571053 10001.09218062
0.21000001 259763.84903618 10687.98407384
0.21100001 255011.17284975 11353.09795197
0.21200001 250320.59798955 7997.74348386
0.21300001 245691.86672305 8675.38022412
0.21400001 241125.45684901 9331.55562122
0.21500001 236621.17850532 9199.83185523
0.21600001 232176.48388856 10580.28287102
0.21700001 227793.49992284 10428.38691952
0.21800001 223471.14270456 8075.13012343
0.21900001 219208.01528836 9404.02430051
0.22000001 215004.61300457 9978.36456134
0.22100001 210863.43988618 7723.92816824
0.22200001 206780.44965847 9683.52891539
0.22300001 202756.45578097 7493.87896002
0.22400001 198789.49413602 8721.88946764
0.22500001 194884.10214320 7927.88565007
0.22600001 191034.98539765 9757.11234058
0.22700001 187244.59862509 8324.89524855
0.22800001 183510.86897896 8825.03810653
0.22900001 179833.81998162 6824.69379105
0.23000001 176213.64682000 14653.92756256
0.23100001 172650.99993445 8411.55711461
0.23200001 169142.43089351 8276.13953503
0.23300001 165690.57840488 9305.18332330
0.23400001 162293.75555258 10297.53927684
0.23500001 158950.35426972 6189.52708800
0.23600001 155662.12403459 5533.78877116
0.23700001 152427.44916481 8162.49028884
0.23800001 149246.26350768 7490.67031975
0.23900001 146118.16583994 6312.30506285
0.24000001 143042.39083010 5170.98267310
0.24100001 140019.94445805 5082.72422425
0.24200001 137048.54904893 5994.50381895
0.24300001 134128.31997548 7854.55478931
0.24400001 131258.46505679 7235.62322853
0.24500001 128439.34793329 5213.35337923
0.24600001 125670.22737722 4656.08214458
0.24700001 122951.39791096 5488.55066239
0.24800001 120280.46759851 6738.71351599
0.24900001 117657.89677041 4853.38847138
0.25000001 115084.11228476 4332.91703250
0.25100001 112557.34345774 5531.06811918
0.25200001 110078.78463210 6266.23511164
0.25300001 107646.82598232 4511.47869036
0.25400001 105260.39485825 6039.31544072
0.25500001 102919.78409206 5137.75586495
0.25600001 100624.95704143 3879.09227748
0.25700001 98374.56381793  5329.93411983
0.25800001 96168.46971189  5230.60331511
0.25900001 94006.47331727  4032.87789613
0.26000001 91888.34628707  4676.65760556
0.26100001 89810.95512833  3529.57070355
0.26200001 87778.65205197  4155.44158476
0.26300001 85786.70623679  4416.29984604
0.26400001 83836.12741318  3665.73484460
0.26500001 81927.31833354  3595.79017181
0.26600001 80058.09867364  4168.22510468
0.26700001 78229.87142021  3773.80917589
0.26800001 76441.05530977  3701.27607325
0.26900001 74690.72418589  3024.97447268
0.27000001 72979.63480049  4153.27121304
0.27100001 71306.31696556  3200.22765686
0.27200001 69670.95854015  4850.14400830
0.27300001 68072.22112934  3077.54526290
0.27400001 66509.02332573  2743.49734202
0.27500001 64984.38716437  2959.38913152
0.27600001 63493.31699799  3429.59167996
0.27700001 62039.06382499  2587.02908394
0.27800001 60618.67234100  3044.26986904
0.27900001 59232.97748267  3482.89924082
0.28000001 57880.81387761  2927.61170449
0.28100001 56561.92178974  3110.34022643
0.28200001 55276.30373572  2815.77504557
0.28300001 54023.04045928  2531.51979574
0.28400001 52801.97648623  2483.01306179
0.28500001 51612.48481825  2435.59327385
0.28600001 50453.36957643  2172.01766307
0.28700001 49325.24389776  2557.02076469
0.28800001 48226.69432021  2926.87821683
0.28900001 47159.40046651  2256.57741913
0.29000001 46119.68934667  2818.37434938
0.29100001 45110.32538798  2766.16528373
0.29200001 44128.52068273  2909.17286372
0.29300001 43174.72296770  2284.80644760
0.29400001 42248.23966845  1869.48469382
0.29500001 41349.80245544  2386.71071071
0.29600001 40476.98024117  2704.87433266
0.29700001 39630.17154523  1771.46875193
0.29800001 38809.84633737  1914.68385969
0.29900001 38014.58140352  2052.78749297
0.30000001 37244.25331660  3026.84061033
0.30100001 36499.30831901  1818.76061964
0.30200001 35777.33624407  1788.68801020
0.30300001 35079.38261561  1759.58191530
0.30400001 34405.56147306  1574.05451191
0.30500001 33753.42958209  2168.99548763
0.30600001 33123.99257509  1677.89592333
0.30700001 32517.13836029  1952.97942238
0.30800001 31931.79891666  1924.05063482
0.30900001 31367.82467346  2042.04548292
0.31000001 30825.47803408  2013.21206572
0.31100001 30301.99262596  1559.94665424
0.31200001 29799.88998945  1678.92588150
0.31300001 29316.92724183  2485.48920924
0.31400001 28854.81283316  1499.72896801
0.31500001 28410.85248308  1750.67681290
0.31600002 27985.48354689  2528.34863075
0.31700002 27578.15714050  1841.66942104
0.31800002 27189.23280947  1561.20582184
0.31900002 26818.01224252  1544.71757831
0.32000002 26463.89779491  1783.93143482
0.32100002 26127.09183610  1388.13245498
0.32200002 25806.84288558  2000.54655522
0.32300002 25502.10776378  1363.34274561
0.32400002 25213.69241635  1720.83458890
0.32500002 24940.44297101  1585.46403474
0.32600002 24682.90053987  1573.90522745
0.32700002 24440.07734254  1442.94223463
0.32800002 24212.52667902  1672.84354747
0.32900002 23997.98558592  1544.27044558
0.33000002 23799.02151147  1417.94576880
0.33100002 23611.25809265  1175.84070869
0.33200002 23439.39649778  1287.87770156
0.33300002 23279.14105406  1749.42753306
0.33400002 23132.44902921  1394.88674252
0.33500002 22997.56725169  1506.80067769
0.33600002 22874.85517992  1734.48597616
0.33700002 22763.32203962  1615.74067489
0.33800002 22664.66173426  1267.74791414
0.33900002 22576.01113234  1381.65194673
0.34000002 22499.01192514  1380.98941737
0.34100002 22432.60701335  1611.10991200
0.34200002 22377.37119371  1381.57896293
0.34300002 22331.00831438  1497.96410867
0.34400002 22295.53182379  1499.93197448
0.34500002 22269.05499585  1155.76400902
0.34600002 22253.27030892  1274.11105188
0.34700002 22244.40195322  1277.27362065
0.34800002 22246.04192922  1164.58035015
0.34900002 22255.82057307  1285.27369897
0.35000002 22274.15037137  1407.28088711
0.35100002 22300.58161233  1648.45907086
0.35200002 22334.14860389  1300.85254705
0.35300002 22375.86307962  1306.97422438
0.35400002 22425.28612424  1791.21981401
0.35500002 22481.62797990  1440.62278919
0.35600002 22544.46152247  1569.43276322
0.35700002 22614.18519064  1578.69634293
0.35800002 22691.05212975  1344.10453657
0.35900002 22773.67892767  1721.69020848
0.36000002 22863.04038114  1238.03369528
0.36100002 22957.53487366  1246.59420269
0.36200002 23058.76414995  1381.10474418
0.36300002 23163.76195767  1517.68975536
0.36400002 23274.80485321  1274.29562607
0.36500002 23390.39834104  1412.54622272
0.36600002 23511.47046444  1553.16781245
0.36700002 23636.76265984  1435.22429669
0.36800002 23767.93097072  1315.55504155
0.36900002 23902.32395864  1591.89485105
0.37000002 24039.94911274  1337.82323150
0.37100002 24181.90484360  1889.09049587
0.37200002 24328.16226708  1633.39289199
0.37300002 24477.33766298  1647.81444953
0.37400002 24630.91972271  1662.58716004
0.37500002 24786.63511915  1677.55954433
0.37600002 24946.45915656  1975.01126498
0.37700002 25107.94947360  2277.79328415
0.37800002 25273.02204056  2155.15705660
0.37900002 25440.52427196  1450.10995220
0.38000002 25610.53450822  1902.73475143
0.38100002 25782.32552437  2363.72371605
0.38200002 25956.43655533  2087.67629105
0.38300002 26132.24951305  1806.26117191
0.38400002 26310.62353239  1975.27015527
0.38500002 26489.62353218  2300.62391276
0.38600002 26671.22848697  1703.09137572
0.38700002 26853.18590952  1562.85549397
0.38800002 27036.44162507  1735.33408792
0.38900002 27220.96321776  1910.91170842
0.39000002 27407.14108424  1607.42890074
0.39100002 27593.23553825  2271.47525712
0.39200002 27780.81112042  1801.44678245
0.39300002 27968.43980320  2479.40230602
0.39400002 28157.51015192  2669.33208887
0.39500002 28345.89495102  1852.12086385
0.39600002 28534.66239479  1699.23922612
0.39700002 28723.24985387  1714.77809752
0.39800002 28913.08969415  2422.62790025
0.39900002 29101.71727494  1920.71343115
0.40000002 29290.17466629  2995.06695240
0.40100002 29478.27989390  2310.80247037
0.40200002 29667.13934406  2510.73012165
0.40300002 29854.33074244  1990.08978158
0.40400002 30041.07252727  2554.99333950
0.40500002 30227.17443557  2393.08551345
0.40600002 30412.74274351  1856.69803246
0.40700002 30597.18163499  2434.31188622
0.40800002 30781.02374813  2454.94066535
0.40900002 30962.97901743  2094.64562978
0.41000002 31144.62106732  2304.07917573
0.41100002 31324.86105195  2323.05180568
0.41200002 31502.94474845  2732.25052749
0.41300002 31680.32640892  1967.34836321
0.41400002 31855.92631328  2776.24410975
0.41500002 32030.72152633  2398.46054154
0.41600002 32202.53332520  2215.69541043
0.41700002 32373.50426989  2232.80069529
0.41800002 32543.54040620  3681.65090061
0.41900002 32709.78261857  2885.00296366
0.42000002 32874.91171995  2283.65585084
0.42100002 33038.68509181  3346.15818466
0.42200002 33200.25666872  2317.21202399
0.42300002 33359.21589523  3182.46934721
0.42400002 33516.00906512  2350.31024706
0.42500002 33671.15541965  2797.06301325
0.42600002 33822.62392702  2599.60699822
0.42700002 33973.14178602  3489.72128963
0.42800002 34120.82075297  3073.94488730
0.42900002 34266.61395230  2210.19670466
0.43000002 34409.86859652  2669.51773222
0.43100002 34549.22010567  3582.06331030
0.43200002 34687.00357087  2703.50518643
0.43300002 34821.81569511  3627.04049468
0.43400002 34954.35011971  2508.84859873
0.43500002 35083.67283823  2753.36677482
0.43600002 35211.32793883  2538.91292135
0.43700002 35335.26596544  3250.13791752
0.43800002 35455.62104126  2568.22803183
0.43900002 35574.34351744  3287.06949678
0.44000002 35689.38867179  2596.93848977
0.44100002 35802.14603691  3085.78711316
0.44200002 35911.81419934  2624.97418330
0.44300002 36018.67320399  2878.61249888
0.44400002 36121.96953748  2652.25573898
0.44500002 36221.58046347  2423.22384785
0.44600002 36318.91181816  2922.21978338
0.44700002 36413.43850243  3670.47477499
0.44800002 36503.58675591  2458.51668452
0.44900002 36592.21955420  2716.97243066
0.45000002 36677.36099941  2729.34594812
0.45100002 36758.00857502  2741.41240945
0.45200002 36836.48476376  2503.03925832
0.45300002 36911.06321782  3267.73658154
0.45400002 36983.17613467  2776.51207990
0.45500002 37051.87377661  3801.52242965
0.45600002 37117.05412326  2798.81159881
0.45700002 37178.95211562  2554.19413140
0.45800002 37236.95279128  3076.51718542
0.45900002 37292.03700340  2573.15067519
0.46000002 37344.56701875  3098.85231808
0.46100002 37392.54943745  2850.43417871
0.46200002 37438.10209426  2860.08394504
0.46300002 37479.85164849  3130.31735804
0.46400002 37517.93126623  2616.87582985
0.46500002 37553.50795238  2887.48936331
0.46600002 37584.96043416  2896.10926352
0.46700002 37613.16258425  3696.62179399
0.46800002 37638.61101343  3707.02697441
0.46900002 37660.11338747  3451.54955555
0.47000002 37677.83547862  3726.71488382
0.47100002 37692.73579237  2668.64582059
0.47200002 37704.11483874  2675.10707460
0.47300002 37712.77865403  2681.37868939
0.47400002 37716.63711786  3762.23473083
0.47500002 37718.41832943  3770.33327492
0.47600002 37717.06578704  2968.52180347
0.47700002 37711.21563280  2974.28371793
