# SAXS profile: number of points = 501, q_min = 0, q_max = 0.5, delta_q = 0.001
#    q    intensity    error
0.00000000 1682732.95097188 454.33789676
0.00100000 1682663.89762907 504.79918128
0.00200000 1682456.68772064 984.23719348
0.00300000 1682111.47889258 1211.12030795
0.00400000 1681628.16057825 1765.70963570
0.00500000 1681007.17426040 1664.19716839
0.00600000 1680248.25543310 1940.68681403
0.00700000 1679352.03294431 3828.92279424
0.00800000 1678318.03792294 3398.59417028
0.00900000 1677147.52659365 3018.86567692
0.01000000 1675839.72968133 3318.16280805
0.01100000 1674395.87986944 3315.30398649
0.01200000 1672815.38619465 3261.99014610
0.01300000 1671099.70701801 4562.10240137
0.01400000 1669248.04903038 6009.29324291
0.01500000 1667262.23530086 4401.57249719
0.01600000 1665141.02586709 5095.33176693
0.01700000 1662886.66117129 5836.73244254
0.01800000 1660498.61747243 7571.87403639
0.01900000 1657977.68946438 6466.11328068
0.02000000 1655324.42138119 6778.55381219
0.02100000 1652540.49859749 8180.07583893
0.02200000 1649624.22047359 5691.20381920
0.02300000 1646578.31979522 8891.52333162
0.02400000 1643402.70843360 7395.31252516
0.02500000 1640098.71000833 7036.02378728
0.02600000 1636666.67442523 9942.75050190
0.02700000 1633107.47367077 9602.67238500
0.02800000 1629420.99743334 7796.77983028
0.02900000 1625610.01846255 7315.24541896
0.03000000 1621674.45685834 14327.49448491
0.03100000 1617614.97240098 9317.46266976
0.03200000 1613432.22829026 9583.78787746
0.03300000 1609129.23754759 9847.87138778
0.03400000 1604703.93088651 8424.69602587
0.03500000 1600159.83397485 9504.94985273
0.03600000 1595496.29394753 10626.00580876
0.03700000 1590715.42731367 13600.61753253
0.03800000 1585818.54787194 10204.74282783
0.03900000 1580806.76184520 9484.84101031
0.04000000 1575679.26567309 11628.51351952
0.04100000 1570439.57596504 9893.76978732
0.04200000 1565088.37312430 11104.30252248
0.04300000 1559625.69904585 13381.58911896
0.04400000 1554054.87556126 14685.81925609
0.04500000 1548376.00386402 12820.55390770
0.04600000 1542589.28093434 10875.25493614
0.04700000 1536697.64067228 14383.49058564
0.04800000 1530701.66409747 19126.11818280
0.04900000 1524603.79175650 22869.05794084
0.05000000 1518403.76239793 12777.36825557
0.05100000 1512104.81398589 12973.85990837
0.05200000 1505705.15756256 16758.49918464
0.05300000 1499210.18044525 18215.40454157
0.05400000 1492618.44965303 14776.92334067
0.05500000 1485933.79701457 19970.95116351
0.05600000 1479154.57191417 16440.80383402
0.05700000 1472285.95513219 17932.44377057
0.05800000 1465326.58627789 16858.58316229
0.05900000 1458278.33229999 17061.85728480
0.06000000 1451144.10382509 15933.56300440
0.06100000 1443925.25785872 20142.75828843
0.06200000 1436622.19551674 13576.08038223
0.06300000 1429238.54441139 15092.75973465
0.06400000 1421771.90535000 19407.18741564
0.06500000 1414228.87231211 26601.64633256
0.06600000 1406607.27161860 14136.40374119
0.06700000 1398909.85903505 17122.65747591
0.06800000 1391139.93949490 23037.27847639
0.06900000 1383297.79211974 20334.47849620
0.07000000 1375383.38756488 26366.10077430
0.07100000 1367401.43904777 14767.93623341
0.07200000 1359350.92322671 20838.85062930
0.07300000 1351236.35211746 23997.95873804
0.07400000 1343057.51835860 16620.33756859
0.07500000 1334816.14098509 16738.59519253
0.07600000 1326513.12716843 16853.35007077
0.07700000 1318153.31590049 16964.63397109
0.07800000 1309735.49749226 17072.40301044
0.07900000 1301261.24809482 18738.16285146
0.08000000 1292735.09948797 15706.73219560
0.08100000 1284156.85642675 18954.15609015
0.08200000 1275526.89470839 22232.43481803
0.08300000 1266849.20181013 17558.53076115
0.08400000 1258123.79627947 20853.40290216
0.08500000 1249355.05532682 19340.01716438
0.08600000 1240541.82165500 22664.70014578
0.08700000 1231687.54507702 17884.10399431
0.08800000 1222791.31255708 17956.69126821
0.08900000 1213859.11847504 26219.35819058
0.09000000 1204889.69658618 21380.76867029
0.09100000 1195885.32571738 16503.21827024
0.09200000 1186847.48509766 16556.52319505
0.09300000 1177779.41909910 23249.36682555
0.09400000 1168679.30156035 21649.78507889
0.09500000 1159551.92277264 18367.30332003
0.09600000 1150397.61924146 20085.94337615
0.09700000 1141220.06399531 26841.49716706
0.09800000 1132019.74998136 16810.49407761
0.09900000 1122798.43734298 20210.37282252
0.10000000 1113555.99891830 18557.41159468
0.10100000 1104295.45250987 18585.29333984
0.10200000 1095019.22940448 18609.85267907
0.10300000 1085727.37691767 18631.08266433
0.10400000 1076423.24641827 16953.66692867
0.10500000 1067109.30730131 22057.15041969
0.10600001 1057782.02633594 18675.14255369
0.10700001 1048448.84797074 22080.33377731
0.10800001 1039107.27613639 18688.34524082
0.10900001 1029761.34641187 18690.16931704
0.11000001 1020411.93294535 16989.85948325
0.11100001 1011059.91552706 23780.13033261
0.11200001 1001708.58231768 18676.85739657
0.11300001 992356.25398199 23757.00983883
0.11400001 983008.19074893 20348.27050659
0.11500001 973663.68287940 23718.44843180
0.11600001 964324.68779480 30463.01832199
0.11700001 954993.48087845 21974.40102990
0.11800001 945669.01203527 28696.32752176
0.11900001 936354.81130480 18539.82613709
0.12000001 927051.56800665 26921.57880305
0.12100001 917762.53006624 16795.05509140
0.12200001 908486.22496962 16761.57164035
0.12300001 899226.23151849 21743.29130254
0.12400001 889981.91218725 23362.02629567
0.12500001 880755.86902269 19975.54405069
0.12600001 871550.82932874 18263.34848922
0.12700001 862366.25564997 18213.17617765
0.12800001 853202.75418279 24764.21110727
0.12900001 844062.65945160 16459.22263506
0.13000001 834947.67977596 19688.06721711
0.13100001 825857.04875653 16351.97033617
0.13200001 816794.74618441 22813.07833635
0.13300001 807761.84309951 19483.21657406
0.13400001 798756.77842459 29114.68594621
0.13500001 789782.90505176 19333.88642723
0.13600001 780839.92513377 17650.88733990
0.13700001 771930.95149575 15978.97144942
0.13800001 763054.21796640 17500.64931432
0.13900001 754214.87048076 15838.51302701
0.14000001 745410.24889137 17341.97025832
0.14100001 736643.09462189 18828.59838655
0.14200001 727913.17407343 28104.72897654
0.14300001 719225.14101180 17088.79015648
0.14400001 710573.08809450 24727.94463210
0.14500001 701965.91083969 16910.35958983
0.14600001 693398.48847827 18347.32487066
0.14700001 684876.65113632 22806.39355877
0.14800001 676396.49811157 19652.70117982
0.14900001 667960.88682820 22543.68099408
0.15000001 659571.75982011 16433.23117129
0.15100001 651228.89004301 20787.22715102
0.15200001 642934.23836385 17706.40976005
0.15300001 634687.57678397 20525.79720179
0.15400001 626487.86402266 17479.01223108
0.15500001 618339.87068918 18809.89975406
0.15600001 610240.16803683 18682.50362617
0.15700001 602194.88744109 18553.62535773
0.15800001 594197.17834929 17005.92404701
0.15900001 586254.79143128 15477.12722432
0.16000001 578363.22271383 16760.96698541
0.16100001 570528.49939640 15250.22750874
0.16200001 562745.82377168 13759.13604073
0.16300001 555019.56512545 20480.22291996
0.16400001 547348.21049194 13546.86884922
0.16500001 539733.29982167 18815.10372007
0.16600001 532174.53100291 18663.36168343
0.16700001 524672.38208545 13221.74465281
0.16800001 517227.42066998 17045.23045299
0.16900001 509842.27968126 14301.07662033
0.17000001 502514.80670693 14178.45594074
0.17100001 495246.56918551 15332.83450602
0.17200001 488037.35499263 15197.48395214
0.17300001 480887.82520703 15061.40739675
0.17400001 473799.99619598 12437.25048751
0.17500001 466771.46438102 13555.04396580
0.17600001 459802.40106144 13428.52975722
0.17700001 452896.76287480 13301.57855387
0.17800001 446051.32946675 14371.77451423
0.17900001 439267.71377412 13046.25171531
0.18000001 432546.90338293 14092.37877787
0.18100001 425889.30267769 11626.77851231
0.18200001 419291.11953959 12660.49595255
0.18300001 412758.44408029 12531.34695425
0.18400001 406287.09990013 18039.14808775
0.18500001 399880.06230470 13387.98511844
0.18600001 393535.74921068 12142.54611555
0.18700001 387254.30876371 13104.68642769
0.18800001 381035.96019687 10802.36998195
0.18900001 374883.34017926 12821.01083989
0.19000001 368790.19178996 11622.42344341
0.19100001 362765.89394983 14626.72153517
0.19200001 356801.58572753 16527.05023182
0.19300001 350903.93118361 10211.30487995
0.19400001 345068.77754138 15139.89333005
0.19500001 339298.18763594 10972.90390667
0.19600001 333590.27586633 12814.87105299
0.19700001 327946.89773657 10714.02565537
0.19800001 322367.49770645 11547.20431355
0.19900001 316852.91026130 14258.38163561
0.20000001 311399.79498859 13144.18596768
0.20100001 306012.43271646 12053.83029439
0.20200001 300687.02155709 16480.65643048
0.20300001 295426.18681192 12656.05844121
0.20400001 290228.55745287 11601.88713255
0.20500001 285093.69875114 9690.33527858
0.20600001 280022.33757174 10433.63279110
0.20700001 275013.59950159 11154.55212305
0.20800001 270067.31048171 10159.93270058
0.20900001 265186.09601201 8353.36241925
0.21000001 260364.77643415 9888.65467643
0.21100001 255606.02767971 10566.75368381
0.21200001 250909.30864035 8016.55279004
0.21300001 246274.02937414 11858.09507496
0.21400001 241701.23041659 9353.83805934
0.21500001 237190.34872564 14601.43855787
0.21600001 232739.07647537 7575.65729744
0.21700001 228349.10581594 8960.41933586
0.21800001 224020.08103586 8830.87201196
0.21900001 219749.92483694 7976.92264874
0.22000001 215539.45991740 10003.18680774
0.22100001 211391.22378518 7039.32808489
0.22200001 207300.83489761 7627.63458073
0.22300001 203269.43868216 6829.85346267
0.22400001 199295.21825516 8744.07811442
0.22500001 195382.25616367 7948.15055658
0.22600001 191525.56526388 10434.31328900
0.22700001 187727.60991151 6420.28456258
0.22800001 183986.03509487 6319.92060438
0.22900001 180301.17893134 6842.43006403
0.23000001 176673.12565288 9182.58614007
0.23100001 173102.60163810 6023.97082190
0.23200001 169585.86138954 9483.24181740
0.23300001 166125.92761487 8163.42846908
0.23400001 162720.94975423 8030.27925017
0.23500001 159369.08537951 7334.16565604
0.23600001 156072.71373474 5548.38523569
0.23700001 152829.59208698 7638.42337379
0.23800001 149640.03545575 6973.97418228
0.23900001 146503.41202769 6328.94769895
0.24000001 143419.09882592 6221.52080135
0.24100001 140388.00706156 6115.30187686
0.24200001 137407.98707325 6511.07777545
0.24300001 134479.05345667 6890.70702507
0.24400001 131600.52453350 5319.95145592
0.24500001 128772.66039048 6652.39595046
0.24600001 125994.64156154 5601.72202882
0.24700001 123267.03445480 5502.64067837
0.24800001 120587.13212246 6305.50143698
0.24900001 117955.78169551 5750.34462969
0.25000001 115372.90797797 4778.16920995
0.25100001 112837.17341370 6824.39257092
0.25200001 110349.62795108 4606.54543675
0.25300001 107908.64854911 4111.31970423
0.25400001 105513.08697598 6860.98880521
0.25500001 103163.38308358 5942.21114675
0.25600001 100859.43551037 4665.75770746
0.25700001 98599.83332695  5723.72059544
0.25800001 96384.74110326  5242.36631664
0.25900001 94213.51187167  6613.78884632
0.26000001 92086.31986549  4326.21551198
0.26100001 89999.80526595  3890.69176574
0.26200001 87958.14801465  3816.94401370
0.26300001 85957.14668904  4425.07412094
0.26400001 83997.37521816  3338.89582291
0.26500001 82079.41008321  5567.44664939
0.26600001 80201.10017575  4818.08132105
0.26700001 78363.55194093  3780.25792451
0.26800001 76565.68945782  3398.36828740
0.26900001 74806.23024003  3332.61771490
0.27000001 73085.95399069  3268.03858734
0.27100001 71403.51593319  3204.58994673
0.27200001 69759.09102102  3999.28887750
0.27300001 68151.31236119  2801.01907060
0.27400001 66579.08501227  3570.30360275
0.27500001 65045.45520425  2962.17017019
0.27600001 63545.37372347  3432.40352412
0.27700001 62082.10830215  3365.47125034
0.27800001 60652.79180573  2792.15140292
0.27900001 59258.13065014  2986.60992612
0.28000001 57897.14062430  2684.40105209
0.28100001 56569.49020625  2632.17850388
0.28200001 55275.06625641  3050.35467573
0.28300001 54013.09698722  3451.43706084
0.28400001 52783.24846111  2707.78077422
0.28500001 51585.06533693  2434.29934847
0.28600001 50417.29795001  2387.51125743
0.28700001 49280.67564535  2554.71034638
0.28800001 48173.58017098  2923.65471896
0.28900001 47097.78452277  2253.62909609
0.29000001 46049.76393027  3015.10843605
0.29100001 45032.12059472  2761.36976558
0.29200001 44041.86080026  1935.63987380
0.29300001 43079.80854521  2659.74750548
0.29400001 42145.17829348  2051.41665054
0.29500001 41238.69966323  3112.69719793
0.29600001 40357.81803283  2157.52905417
0.29700001 39502.98917101  2295.51880939
0.29800001 38674.72492600  2428.38609306
0.29900001 37871.70131796  2556.33995998
0.30000001 37093.60680898  2344.68699739
0.30100001 36340.88461909  1810.86636630
0.30200001 35611.34179062  1942.24267321
0.30300001 34905.81161758  1591.70508511
0.30400001 34224.44867146  1565.76860085
0.30500001 33565.02013474  1694.69794683
0.30600001 32928.35235002  1971.25590676
0.30700001 32314.25481904  2239.37796498
0.30800001 31721.76987376  1764.36492391
0.30900001 31150.67106879  2027.90878259
0.31000001 30601.50705729  1570.31640899
0.31100001 30071.09383055  2251.72361264
0.31200001 29562.11721499  1526.73561585
0.31300001 29072.48911360  1917.04002292
0.31400001 28603.81928125  1756.98968254
0.31500001 28153.31826208  1334.46734881
0.31600002 27721.56518306  1713.60863293
0.31700002 27307.82455935  1563.09995179
0.31800002 26912.70559534  1287.77302371
0.31900002 26535.42546458  1401.07053087
0.32000002 26175.32386753  1638.44447507
0.32100002 25832.55317991  1372.48361544
0.32200002 25506.49143507  1359.36852540
0.32300002 25195.99061305  1959.24032284
0.32400002 24901.98235791  1578.16320666
0.32500002 24623.22077824  1926.52088491
0.32600002 24360.23623783  1433.84357285
0.32700002 24112.19685925  1542.21618415
0.32800002 23879.39378633  1531.98258091
0.32900002 23659.78586354  1639.62323799
0.33000002 23455.85781744  1513.95841452
0.33100002 23263.22180745  1737.76275131
0.33200002 23086.56406668  1383.80871569
0.33300002 22921.64301211  1492.88668007
0.33400002 22770.44009100  1258.63613563
0.33500002 22631.22124663  1368.73632581
0.33600002 22504.18476097  1251.34525289
0.33700002 22388.35804150  1702.63470969
0.33800002 22285.61335134  1473.19054036
0.33900002 22193.03865354  1131.84502493
0.34000002 22112.14486870  1244.13988996
0.34100002 22041.99417556  1469.98066118
0.34200002 21983.23634718  1357.24507635
0.34300002 21933.21720310  1358.10487353
0.34400002 21894.40713496  1472.94630976
0.34500002 21864.61019754  1248.25065529
0.34600002 21845.65200261  1478.18611276
0.34700002 21833.69571598  1139.71897035
0.34800002 21832.49757303  1485.81069270
0.34900002 21839.40101775  1490.53919006
0.35000002 21854.99602345  1150.66559513
0.35100002 21878.89679069  1617.28812737
0.35200002 21909.97449680  1160.13320455
0.35300002 21949.19394263  1515.15292962
0.35400002 21996.49452899  1171.31338915
0.35500002 22050.70878258  1413.00948571
0.35600002 22111.57019064  1302.48210377
0.35700002 22179.42489012  1429.24220762
0.35800002 22254.52988155  1438.08778906
0.35900002 22335.39383897  1809.16698665
0.36000002 22423.27682729  1335.64254748
0.36100002 22516.32368986  1467.16372113
0.36200002 22616.27156811  1847.18406782
0.36300002 22720.07943567  1240.51639595
0.36400002 22830.00076466  1374.93686118
0.36500002 22944.70240435  1763.52991033
0.36600002 23064.88673301  1396.69428228
0.36700002 23189.44569691  1408.06320941
0.36800002 23319.99439591  1419.83792605
0.36900002 23453.90772512  1562.03032848
0.37000002 23591.14895614  1575.41700192
0.37100002 23732.80925003  1324.29081888
0.37200002 23878.90348990  1336.02471355
0.37300002 24028.00964030  2021.95710701
0.37400002 24181.62579301  1768.28146988
0.37500002 24337.50060774  1921.68913902
0.37600002 24497.66541445  1523.87734929
0.37700002 24659.44546171  2097.28593587
0.37800002 24825.04153065  1411.30367787
0.37900002 24993.19970510  1567.07369575
0.38000002 25163.82858122  2157.16930732
0.38100002 25336.46642320  1451.77959482
0.38200002 25511.47845421  1758.76140795
0.38300002 25688.33501003  1627.61298334
0.38400002 25867.82502014  1942.02705539
0.38500002 26048.06991689  1659.00165160
0.38600002 26230.98403659  1827.25043455
0.38700002 26414.45990846  1691.05380345
0.38800002 26599.17407940  1707.26806917
0.38900002 26785.32963067  2507.10697221
0.39000002 26973.27986690  2056.57782088
0.39100002 27161.16942072  2235.90757264
0.39200002 27350.65201402  2740.94572144
0.39300002 27540.33448838  2115.92399899
0.39400002 27731.45634153  1807.39775269
0.39500002 27922.18861525  2156.15150702
0.39600002 28113.17638651  2176.38165307
0.39700002 28304.19089230  2196.68835923
0.39800002 28496.43304240  2558.26739759
0.39900002 28687.74249325  3614.65572541
0.40000002 28878.89786134  2779.30526186
0.40100002 29069.70131832  2103.48368706
0.40200002 29261.47703899  2476.39891914
0.40300002 29451.63276648  2141.72283625
0.40400002 29641.33075687  2520.99530032
0.40500002 29830.52968382  2543.35108135
0.40600002 30019.30904690  2015.94679456
0.40700002 30206.92940409  2772.99625068
0.40800002 30394.18602134  2237.62008091
0.40900002 30579.50207823  2820.95920038
0.41000002 30764.71568564  2086.30929307
0.41100002 30948.46117132  2486.39948832
0.41200002 31130.20111245  3278.47728550
0.41300002 31311.38684202  2527.76837953
0.41400002 31490.76829872  2352.36050338
0.41500002 31669.37914276  2766.63709300
0.41600002 31845.14303659  2390.29654959
0.41700002 32020.11880804  2609.96000771
0.41800002 32194.22513984  2428.08857510
0.41900002 32364.58127184  2038.96871674
0.42000002 32534.01236228  2465.42757364
0.42100002 32702.05804115  3105.06055814
0.42200002 32867.90927039  2711.10962463
0.42300002 33031.28207009  2520.94756705
0.42400002 33192.63196756  2116.03038820
0.42500002 33352.18850634  2344.32544120
0.42600002 33508.22217987  2360.82190555
0.42700002 33663.41191096  3457.90583535
0.42800002 33815.74527715  2828.85630521
0.42900002 33966.27176456  2628.98955916
0.43000002 34114.28403407  3749.33056444
0.43100002 34258.47110698  2219.94903293
0.43200002 34401.14546004  2457.78995386
0.43300002 34540.90166705  2698.33536610
0.43400002 34678.47651432  3167.87897970
0.43500002 34812.75083391  2959.78021616
0.43600002 34945.55270759  2290.68108854
0.43700002 35074.53724967  3226.15608911
0.43800002 35200.10658365  3013.30526689
0.43900002 35324.02424008  2797.66285239
0.44000002 35444.25137097  3516.95600895
0.44100002 35562.32360451  2829.33860006
0.44200002 35677.20226102  3319.05028363
0.44300002 35789.38587132  3098.64517558
0.44400002 35898.20418911  2635.82576750
0.44500002 36003.07763859  3131.18781062
0.44600002 36105.84618641  3389.25594214
0.44700002 36205.87882934  2919.64220716
0.44800002 36301.53710687  2689.39950402
0.44900002 36395.63066167  2948.04622331
0.45000002 36486.33836997  3208.79118002
0.45100002 36572.52240570  3719.42570493
0.45200002 36656.58871672  2988.97838562
0.45300002 36736.75134630  3502.48203935
0.45400002 36814.45201015  2763.84511565
0.45500002 36888.79798641  3280.15207241
0.45600002 36959.65335164  3800.37653600
0.45700002 37027.12108650  3052.51600704
0.45800002 37090.92772239  2809.08154419
0.45900002 37151.73139417  2563.46958769
0.46000002 37209.92677715  2830.37321445
0.46100002 37263.56748863  3873.54802403
0.46200002 37314.90511421  4146.43245281
0.46300002 37362.35458631  2600.42000245
0.46400002 37406.13100683  3913.61664208
0.46500002 37447.53542926  2879.34113562
0.46600002 37484.65028925  3676.11982810
0.46700002 37518.58163093  3160.56546639
0.46800002 37549.84823034  3434.12153267
0.46900002 37577.06439473  2914.10148193
0.47000002 37600.49395750  2656.47502401
0.47100002 37621.14766593  3995.36607149
0.47200002 37638.28409968  3471.56729848
0.47300002 37652.68128499  3212.52691950
0.47400002 37662.14477889  2951.77073695
0.47500002 37669.67389117  4034.42226497
0.47600002 37674.07403903  3234.69615031
0.47700002 37673.86897132  2971.33818660
