# SAXS profile: number of points = 501, q_min = 0, q_max = 0.5, delta_q = 0.001
#    q    intensity    error
0.00000000 1682732.95097189 277.65093691
0.00100000 1682663.88963267 605.75901465
0.00200000 1682456.65009647 984.23717147
0.00300000 1682111.39495919 1513.90030939
0.00400000 1681628.00945382 1261.22105501
0.00500000 1681006.94480793 2269.35946531
0.00600000 1680247.92128696 1764.26038918
0.00700000 1679351.58207369 2418.26637869
0.00800000 1678317.45417191 3398.59298819
0.00900000 1677146.78667723 3773.58043134
0.01000000 1675838.80802575 4147.70122896
0.01100000 1674394.77395239 4520.86608651
0.01200000 1672814.05542459 3261.98755110
0.01300000 1671098.15272032 4913.02878569
0.01400000 1669246.24272767 4131.38463390
0.01500000 1667260.16233539 6002.13685168
0.01600000 1665138.67267066 6369.15570769
0.01700000 1662883.99163011 4489.78697881
0.01800000 1660495.64449438 6625.37791966
0.01900000 1657974.35422831 5968.70794455
0.02000000 1655320.76704924 5735.68671728
0.02100000 1652536.44568172 5998.70756980
0.02200000 1649619.74875986 7398.54490932
0.02300000 1646573.45401033 10077.02999723
0.02400000 1643397.42629868 6779.01469259
0.02500000 1640093.00178008 12153.08969823
0.02600000 1636660.48158599 8617.01782968
0.02700000 1633100.83875059 8916.73098797
0.02800000 1629413.83609074 7087.95051205
0.02900000 1625602.29324399 15361.94237649
0.03000000 1621666.25260895 12065.19747399
0.03100000 1617606.17873427 9317.41201823
0.03200000 1613422.88948388 11979.66550618
0.03300000 1609119.33804886 9027.15990261
0.03400000 1604693.40279793 11794.49705477
0.03500000 1600148.65566065 11233.04408146
0.03600000 1595484.53127220 8854.93955778
0.03700000 1590703.01146707 9973.70834316
0.03800000 1585805.48510316 13915.44377578
0.03900000 1580792.96184151 11381.70985235
0.04000000 1575664.71719771 9690.33845981
0.04100000 1570424.36538198 15829.87833703
0.04200000 1565072.44855042 12113.66131377
0.04300000 1559609.02160995 19557.49803881
0.04400000 1554037.41714504 14685.65427405
0.04500000 1548357.76843074 13888.76982816
0.04600000 1542570.21346985 13050.14461262
0.04700000 1536677.77408552 16596.12073197
0.04800000 1530681.01209211 12375.55655858
0.04900000 1524582.21054153 14864.67724469
0.05000000 1518381.35187585 11615.61788274
0.05100000 1512081.51875208 14153.08367483
0.05200000 1505680.98911347 14364.19730553
0.05300000 1499185.12346853 13357.74007281
0.05400000 1492592.49993706 14776.66643847
0.05500000 1485906.92553580 13729.78063244
0.05600000 1479126.70395082 12646.53390892
0.05700000 1472257.11707356 15370.36501971
0.05800000 1465296.75340962 14264.66456049
0.05900000 1458247.48522378 19686.34196999
0.06000000 1451112.31063383 18588.74956766
0.06100000 1443892.45150898 18799.48059717
0.06200000 1436588.39916338 16290.91320801
0.06300000 1429203.64522743 15092.39119925
0.06400000 1421735.97885752 16634.31173057
0.06500000 1414191.75514008 14000.49903080
0.06600000 1406569.12753674 18376.82651109
0.06700000 1398870.66845951 17122.17778324
0.06800000 1391099.64526746 17277.45840296
0.06900000 1383256.41448676 21786.28954818
0.07000000 1375340.85434957 20506.33309863
0.07100000 1367357.79608547 20674.45084516
0.07200000 1359306.01703365 16372.84174219
0.07300000 1351190.25639195 17997.85505844
0.07400000 1343010.35574445 18130.64065223
0.07500000 1334767.79567073 16737.98894226
0.07600000 1326463.48468402 18384.78475961
0.07700000 1318102.51363106 18506.16015911
0.07800000 1309683.48558718 15519.75003203
0.07900000 1301208.00957152 17175.94653196
0.08000000 1292680.60292740 17276.67706859
0.08100000 1284101.09822398 23691.66637380
0.08200000 1275469.81766022 20643.47996753
0.08300000 1266790.97635662 15961.56705120
0.08400000 1258064.22604030 20852.41552540
0.08500000 1249294.24309693 22562.25508952
0.08600000 1240479.64863124 24282.39026205
0.08700000 1231624.13737574 17883.18331445
0.08800000 1222726.69897545 22852.76307710
0.08900000 1213793.08424579 19663.44888837
0.09000000 1204822.26083369 18090.40709622
0.09100000 1195816.59232052 19802.72369918
0.09200000 1186777.45064371 18211.10083581
0.09300000 1177707.98145084 23247.95664631
0.09400000 1168606.55677387 19983.17305999
0.09500000 1159477.80428785 18366.12928318
0.09600000 1150322.06222605 21758.34282982
0.09700000 1141143.18519618 20129.76673322
0.09800000 1131941.54370806 18490.26598584
0.09900000 1122718.85628993 18524.86199987
0.10000000 1113475.10834563 16869.14868474
0.10100000 1104213.07164847 20273.35294896
0.10200000 1094935.44322154 25375.13009021
0.10300000 1085642.28137216 23710.42854052
0.10400000 1076336.66876168 16952.30333052
0.10500000 1067021.24179382 22055.33010557
0.10600001 1057692.68066672 18673.56515583
0.10700001 1048358.05386356 20380.08152615
0.10800001 1039015.10691443 23783.05691654
0.10900001 1029667.81779626 23785.32771057
0.11000001 1020316.81262781 16988.27572988
0.11100001 1010963.44045643 27174.69855867
0.11200001 1001610.78402568 28861.41610041
0.11300001 992257.00329761 20361.11466628
0.11400001 982907.45699097 22041.70076084
0.11500001 973561.61340770 20327.96744516
0.11600001 964221.15482794 18614.29027053
0.11700001 954888.54479318 21971.98645046
0.11800001 945562.66695514 20253.95328011
0.11900001 936247.08441071 21908.18280712
0.12000001 926942.39719683 23553.60742226
0.12100001 917651.91888795 21830.94017876
0.12200001 908374.19709976 18435.45519866
0.12300001 899112.77422958 18395.84822745
0.12400001 889867.09341386 21690.51142396
0.12500001 880639.65410081 24966.13537017
0.12600001 871433.22872423 21581.04492633
0.12700001 862247.29731126 33110.29777712
0.12800001 853082.30282642 16507.14333766
0.12900001 843940.94916845 16456.84928443
0.13000001 834824.53016939 21325.59362836
0.13100001 825732.53008740 22889.30681297
0.13200001 816668.98650095 19551.05645848
0.13300001 807634.62914093 29220.22225985
0.13400001 798628.04254710 17789.44048643
0.13500001 789652.92690511 19330.70456205
0.13600001 780708.64539661 20856.63244518
0.13700001 771798.27812093 17573.84762148
0.13800001 762920.20801604 15906.88708724
0.13900001 754079.53957896 23753.50661691
0.14000001 745273.60865250 23643.80634956
0.14100001 736505.20366319 15687.56157790
0.14200001 727774.05184100 17171.82956310
0.14300001 719084.68742283 18638.67597714
0.14400001 710431.34997457 20087.44736805
0.14500001 701822.87701768 18443.90607806
0.14600001 693254.16588730 15286.25507893
0.14700001 684731.09457843 22801.54652516
0.14800001 676249.78460308 16625.60173884
0.14900001 667812.95709104 15025.79224348
0.15000001 659422.53341230 23897.47373841
0.15100001 651078.45494839 14844.58947326
0.15200001 642782.76692210 20652.61127574
0.15300001 634534.92085358 21986.63604510
0.15400001 626333.99944262 17474.71940910
0.15500001 618184.83096147 18805.18344532
0.15600001 610084.08130130 17240.97695126
0.15700001 602037.68865371 17121.95267341
0.15800001 594038.83440570 17001.39224314
0.15900001 586095.45111194 15472.92063969
0.16000001 578202.77200740 16756.31712371
0.16100001 570367.01669165 18017.89490781
0.16200001 562583.39215162 16506.19750492
0.16300001 554856.04263925 19109.24301060
0.16400001 547183.75961628 18959.91816579
0.16500001 539567.80852139 14778.76297313
0.16600001 532008.01996174 22655.56259971
0.16700001 524504.98989824 19826.28955425
0.16800001 517059.08076366 17039.68281112
0.16900001 509672.97305248 16895.65985447
0.17000001 502344.73333732 16750.68592410
0.17100001 495075.56964413 14050.24532997
0.17200001 487865.54389215 15192.13375422
0.17300001 480715.28430864 13801.33646426
0.17400001 473626.49037225 13675.96555536
0.17500001 466597.22871347 19709.06787167
0.17600001 459627.30074292 15864.03703439
0.17700001 452720.89125945 18131.47255130
0.17800001 445874.85207914 11971.74034378
0.17900001 439090.57663474 13040.99074202
0.18000001 432369.12816939 15260.46909957
0.18100001 425710.75197409 12784.09448566
0.18200001 419112.00551844 13805.55011392
0.18300001 412578.75227105 12525.89151066
0.18400001 406106.74201068 12396.40888549
0.18500001 399699.15046648 14497.08887229
0.18600001 393354.35570683 12136.94921873
0.18700001 387072.49420894 13098.53382287
0.18800001 380853.47951346 14036.35565063
0.18900001 374700.52085317 11746.86188376
0.19000001 368606.89341984 13728.76439409
0.19100001 362582.15593940 12530.83990135
0.19200001 356617.58050619 13421.30327653
0.19300001 350719.44471117 12247.12358802
0.19400001 344884.03994396 13114.21623857
0.19500001 339113.04355103 13957.89353214
0.19600001 333404.93218057 10837.32783266
0.19700001 327761.33916437 12654.86590317
0.19800001 322181.61876479 11540.54612955
0.19900001 316666.86577270 12350.00834880
0.20000001 311213.61076976 14074.63621225
0.20100001 305826.08187136 9266.53071866
0.20200001 300500.58217614 15555.41337155
0.20300001 295239.64160697 12648.06684425
0.20400001 290041.95361291 10702.54859418
0.20500001 284907.03925529 10564.35351493
0.20600001 279835.71110504 11295.56901267
0.20700001 274827.08290017 11146.98700934
0.20800001 269880.83203279 9306.84093259
0.20900001 264999.70237795 10851.73832535
0.21000001 260178.57431935 8234.65226648
0.21100001 255419.85620080 10559.05735450
0.21200001 250723.39066173 9612.73525241
0.21300001 246088.23357732 12639.09227405
0.21400001 241515.80412020 10125.55056644
0.21500001 237005.19354502 10750.55608746
0.21600001 232554.14082431 8326.60140588
0.21700001 228164.57855646 7460.98207155
0.21800001 223835.84888277 10294.21117683
0.21900001 219566.06232502 7245.68039931
0.22000001 215356.13342663 10708.58424097
0.22100001 211208.26159539 9143.20607679
0.22200001 207118.38471598 9699.35441488
0.22300001 203087.51683367 8870.86315476
0.22400001 199113.87271060 8064.11222610
0.22500001 195201.48535003 11249.46213268
0.22600001 191345.40841403 7166.84261105
0.22700001 187548.12375354 6414.14613569
0.22800001 183807.23619296 7576.53463417
0.22900001 180123.05188379 6835.67014226
0.23000001 176495.77779471 7338.69478776
0.23100001 172925.99488305 9628.51985045
0.23200001 169410.10727118 8289.23694081
0.23300001 165950.96258976 6407.36696862
0.23400001 162546.91513762 6875.73483551
0.23500001 159195.92505457 5635.53601347
0.23600001 155900.47655010 5542.26220349
0.23700001 152658.32445701 8174.85366133
0.23800001 149469.73154563 6430.18815523
0.23900001 146334.12722511 5794.83171221
0.24000001 143250.96006598 7767.78367700
0.24100001 140220.87591952 6617.02344763
0.24200001 137242.07056612 5502.72107964
0.24300001 134314.27175244 6390.67335228
0.24400001 131436.90225303 4830.30638629
0.24500001 128610.29901171 7118.58038704
0.24600001 125833.50392779 4662.13154107
0.24700001 123107.16293257 5495.50401328
0.24800001 120428.55062931 5847.40855243
0.24900001 117798.53022511 6184.42312939
0.25000001 115217.01811895 4337.92093740
0.25100001 112682.69037118 5963.16825655
0.25200001 110196.59468392 5436.54925593
0.25300001 107757.08258891 4516.09954496
0.25400001 105363.06540951 7254.24739665
0.25500001 103014.84467244 4746.92426709
0.25600001 100712.38081417 6211.93994252
0.25700001 98454.52261672  4572.22824665
0.25800001 96240.90411471  4486.75116211
0.25900001 94071.39002709  4402.54126157
0.26000001 91945.83269793  4319.61542453
0.26100001 89861.04663700  4591.00108991
0.26200001 87821.08991854  5889.72167407
0.26300001 85821.82672854  4418.10784904
0.26400001 83863.80685845  4667.02107251
0.26500001 81947.67031398  4250.62586032
0.26600001 80071.16602385  5130.96056160
0.26700001 78235.55543688  3774.08337287
0.26800001 76439.47342432  4009.63276821
0.26900001 74681.96378743  5141.85345008
0.27000001 72963.64498198  3262.56953976
0.27100001 71283.21119740  4071.69721628
0.27200001 69640.75231625  2851.78894231
0.27300001 68035.00453828  4194.35822828
0.27400001 66464.80042106  3290.00777654
0.27500001 64933.21581689  3225.88231445
0.27600001 63435.25031392  2899.30825281
0.27700001 61974.09799303  2842.75200948
0.27800001 60546.94246628  3294.05656078
0.27900001 59154.46959935  2981.38540891
0.28000001 57795.68550116  2923.30591100
0.28100001 56470.13698581  2866.42428907
0.28200001 55177.95931767  2576.53493229
0.28300001 53918.30183914  3675.07162730
0.28400001 52690.63892521  2703.02990480
0.28500001 51494.76539724  2650.95064812
0.28600001 50329.34475897  2383.34623387
0.28700001 49195.02809500  2762.79290859
0.28800001 48090.33815248  2501.65950910
0.28900001 47016.88133339  2454.28132177
0.29000001 45971.29942698  2207.31204647
0.29100001 44956.03393087  2953.61156907
0.29200001 43968.19578469  2125.64252583
0.29300001 43008.58249903  2086.34643579
0.29400001 42076.40150434  3165.19745299
0.29500001 41172.42001848  2010.86108889
0.29600001 40294.00895467  2333.62763908
0.29700001 39441.63874991  1939.34546914
0.29800001 38615.98620339  2597.89059481
0.29900001 37815.48128768  2382.37543390
0.30000001 37039.84523417  2341.28872809
0.30100001 36289.71042831  1643.92396023
0.30200001 35562.71258648  2424.48804536
0.30300001 34859.85396464  1589.60941604
0.30400001 34181.08522435  1563.78472305
0.30500001 33524.22820079  1692.63836199
0.30600001 32890.14143536  2423.34573569
0.30700001 32278.70740221  2535.16979939
0.30800001 31688.94018444  2056.29542592
0.30900001 31120.37628644  1591.80732241
0.31000001 30573.84108258  1711.52370483
0.31100001 30046.12240165  1828.00617346
0.31200001 29539.82293614  1802.96317827
0.31300001 29052.86765667  1642.06815770
0.31400001 28586.92358780  1485.80542382
0.31500001 28139.00965676  1467.16803297
0.31600002 27710.06459950  1449.37499750
0.31700002 27298.98611833  1692.81020935
0.31800002 26906.57325804  1544.97550963
0.31900002 26532.01304785  1273.53668660
0.32000002 26174.61492888  1386.33854535
0.32100002 25834.49808503  1746.92884323
0.32200002 25511.21824925  1359.62044097
0.32300002 25203.44052205  1347.37599411
0.32400002 24912.13424931  1578.80658281
0.32500002 24636.09150022  1566.11641083
0.32600002 24375.77139017  1315.19480763
0.32700002 24130.47538395  1424.66333413
0.32800002 23900.39251208  1297.43286896
0.32900002 23683.44760940  1875.72913949
0.33000002 23482.26355875  1399.07332908
0.33100002 23292.30939827  1623.93988815
0.33200002 23118.32860349  1270.23662527
0.33300002 22956.15763670  1495.13461768
0.33400002 22807.60803382  1260.69059377
0.33500002 22671.03466840  1485.40626182
0.33600002 22546.67366011  1253.70784824
0.33700002 22433.52164960  1364.85552180
0.33800002 22333.43377899  1249.22067759
0.33900002 22243.50629380  1588.18642459
0.34000002 22165.25486694  1587.25397619
0.34100002 22097.67139313  1473.69377500
0.34200002 22041.55288558  1247.44174464
0.34300002 21994.12951116  1588.85599113
0.34400002 21957.91895153  1363.58683147
0.34500002 21930.74948707  1252.02654751
0.34600002 21914.35110157  1596.89884040
0.34700002 21904.97667193  2058.19170557
0.34800002 21906.30878197  1261.47485096
0.34900002 21915.73481146  1380.69135851
0.35000002 21933.80880500  1154.81508828
0.35100002 21960.17187081  2203.04454642
0.35200002 21993.73614335  1397.48206074
0.35300002 22035.50387287  1170.08531107
0.35400002 22085.14687689  1528.84436496
0.35500002 22141.82669663  1418.84832192
0.35600002 22205.10425986  1307.99172838
0.35700002 22275.32538397  1674.65904169
0.35800002 22352.84246847  1685.18087352
0.35900002 22436.04849377  1211.54667605
0.36000002 22526.28453067  1219.79836511
0.36100002 22621.59350718  1596.85836131
0.36200002 22723.84559360  1608.50748653
0.36300002 22829.90787227  1620.46693753
0.36400002 22942.13537836  1632.90656290
0.36500002 23058.96343788  2025.49944433
0.36600002 23181.36847031  1531.36127369
0.36700002 23308.07785314  1286.60595844
0.36800002 23440.77913561  1427.19190528
0.36900002 23576.72561142  1308.50833342
0.37000002 23716.14620826  1451.78395891
0.37100002 23859.90379636  1464.52096439
0.37200002 24008.00841401  1746.22257471
0.37300002 24159.14130183  1897.45904773
0.37400002 24314.75384461  1641.24596226
0.37500002 24472.55895902  1794.32810787
0.37600002 24634.61012242  1671.70472210
0.37700002 24798.27169806  1968.48690064
0.37800002 24965.73951700  1987.02330229
0.37900002 25135.73050590  1576.01037738
0.38000002 25308.19506691  1735.63609991
0.38100002 25482.53084622  2628.26835599
0.38200002 25659.33240269  1916.36733128
0.38300002 25837.91811829  1785.91698494
0.38400002 26019.08115639  2404.16321275
0.38500002 26200.96432572  1820.44308759
0.38600002 26385.52317656  2144.35157015
0.38700002 26570.48397015  1855.68268839
0.38800002 26756.81289795  2029.63813853
0.38900002 26944.48371409  2049.12808354
0.39000002 27133.90940235  1750.54424803
0.39100002 27323.22815747  2570.56942684
0.39200002 27514.15405310  2432.93918741
0.39300002 27705.14881273  1637.37437241
0.39400002 27897.61177408  2479.40036389
0.39500002 28089.61703965  1835.37566433
0.39600002 28281.90962477  1684.18779795
0.39700002 28474.16521714  1699.90774400
0.39800002 28667.58488521  2230.48154767
0.39900002 28860.08396662  1904.76563204
0.40000002 29052.32861861  2096.99717904
0.40100002 29244.24915047  1939.77113806
0.40200002 29437.00164181  1957.41351691
0.40300002 29628.15679603  2154.55966429
0.40400002 29818.78450448  2173.78949337
0.40500002 30008.98452169  2924.07559034
0.40600002 30198.62660692  2212.35149005
0.40700002 30387.11728422  2045.66083250
0.40800002 30575.10561475  1875.78281834
0.40900002 30761.24344873  2270.17987408
0.41000002 30947.18930213  3243.42032849
0.41100002 31131.62535987  1923.93453840
0.41200002 31314.03504342  2327.88547543
0.41300002 31495.80290693  2347.06734384
0.41400002 31675.77212461  2760.54367146
0.41500002 31854.85091995  2186.51707075
0.41600002 32031.15383498  2203.90364404
0.41700002 32206.56714515  3029.02778353
0.41800002 32381.10403382  2849.21347894
0.41900002 32551.82277383  2255.84142512
0.42000002 32721.61814906  3099.55542604
0.42100002 32889.89315004  2498.31640206
0.42200002 33056.01884935  2516.88539445
0.42300002 33219.62241113  2746.59851110
0.42400002 33381.11435105  2553.65536886
0.42500002 33540.82955977  3643.54048773
0.42600002 33696.95439378  2805.77704055
0.42700002 33852.17818613  2390.64093679
0.42800002 34004.50146464  2407.00875023
0.42900002 34154.97137867  2202.99575832
0.43000002 34302.94107874  2217.68524583
0.43100002 34447.03579416  3348.25203786
0.43200002 34589.54054068  2471.24984104
0.43300002 34729.08438184  2260.86350040
0.43400002 34866.41635252  2502.53715229
0.43500002 35000.46275694  2746.83644733
0.43600002 35132.96210857  2533.26235289
0.43700002 35261.61020135  2316.68790001
0.43800002 35386.75953249  2330.21822564
0.43900002 35510.23385524  2343.67554551
0.44000002 35630.01363628  2828.31061648
0.44100002 35747.58831437  3081.08478283
0.44200002 35861.90108983  2621.32578439
0.44300002 35973.54959380  3354.17392308
0.44400002 36081.67120274  2890.14200031
0.44500002 36185.90928966  3631.25616931
0.44600002 36287.99242289  3649.66501089
0.44700002 36387.29074622  4156.88429185
0.44800002 36482.20517773  3194.19962571
0.44900002 36575.47076147  2468.84439340
0.45000002 36665.33215514  3224.53278920
0.45100002 36750.64375025  3488.37127010
0.45200002 36833.75614886  3003.42461872
0.45300002 36912.99060758  3267.90721336
0.45400002 36989.71907384  2524.54844644
0.45500002 37063.02109605  4056.17722099
0.45600002 37132.78362498  3054.54292576
0.45700002 37199.19821641  2811.14354244
0.45800002 37261.87111497  3335.12393221
0.45900002 37321.53575434  2832.70469801
0.46000002 37378.53280969  3101.67079955
0.46100002 37430.94440327  2853.36102710
0.46200002 37481.00752753  3123.66731539
0.46300002 37527.16407990  2873.07981813
0.46400002 37569.63193695  2882.53014698
0.46500002 37609.68173471  2891.80856564
0.46600002 37645.42433220  2900.76830940
0.46700002 37677.93869321  3173.98970595
0.46800002 37707.77598703  2918.01638306
0.46900002 37733.46768022  3192.25151705
0.47000002 37755.39400925  2934.16058450
0.47100002 37774.51944826  3744.21054518
0.47200002 37790.08227634  2681.20646459
0.47300002 37802.91578596  3494.12367171
0.47400002 37810.79842955  3232.82341895
0.47500002 37816.65266472  4320.17460518
0.47600002 37819.35338706  2976.57234941
0.47700002 37817.47949004  2982.66474875
