# SAXS profile: number of points = 501, q_min = 0, q_max = 0.5, delta_q = 0.001
#    q    intensity    error
0.00000000 1664650.74656090 324.60689558
0.00100000 1664582.26243386 749.06203588
0.00200000 1664376.75459123 898.76347594
0.00300000 1664034.39148652 1198.10480455
0.00400000 1663555.05359551 1621.96623889
0.00500000 1662939.17107663 1496.64531321
0.00600000 1662186.51710229 2094.35509681
0.00700000 1661297.68150677 3189.69168106
0.00800000 1660272.20522890 2241.36757169
0.00900000 1659111.33317657 3235.26723799
0.01000000 1657814.32485806 3282.47250495
0.01100000 1656382.37373690 5068.53028432
0.01200000 1654814.91442440 3226.88922461
0.01300000 1653113.38335506 4165.84590979
0.01400000 1651277.01508576 3715.37344865
0.01500000 1649307.56966853 4750.00601216
0.01600000 1647203.91214459 4620.40718011
0.01700000 1644968.15500971 5773.83848309
0.01800000 1642599.86436729 5149.55080651
0.01900000 1640099.82685179 6888.41958360
0.02000000 1637468.49446979 6705.43378818
0.02100000 1634707.60834426 6473.44242254
0.02200000 1631815.47055348 5629.76362918
0.02300000 1628794.85050573 8209.12642022
0.02400000 1625645.58711648 9753.87396745
0.02500000 1622369.05162681 7592.68750838
0.02600000 1618965.50498682 7212.49165460
0.02700000 1615435.90558756 8820.28044849
0.02800000 1611780.04760959 9815.74094009
0.02900000 1608000.83457843 10130.40572297
0.03000000 1604098.13912581 10442.67936571
0.03100000 1600072.41346473 8448.38273183
0.03200000 1595924.57675353 14219.68863381
0.03300000 1591657.57208377 8929.19939103
0.03400000 1587269.24680838 9166.48032326
0.03500000 1582763.15080987 8546.92140905
0.03600000 1578138.75082644 11386.27161341
0.03700000 1573397.93653066 11658.87924889
0.03800000 1568542.23584412 10093.56975478
0.03900000 1563572.47629669 14072.15293835
0.04000000 1558488.07790779 11501.64254793
0.04100000 1553292.57182193 11742.89238745
0.04200000 1547986.52686492 12979.86762994
0.04300000 1542569.88236852 11199.05786583
0.04400000 1537046.23957016 18675.11267809
0.04500000 1531415.36876700 13736.79649612
0.04600000 1525677.67782397 13982.83656727
0.04700000 1519836.02099252 16414.22979011
0.04800000 1513890.99185227 12239.80923862
0.04900000 1507844.97491243 14701.48918971
0.05000000 1501697.66135171 12636.78640872
0.05100000 1495452.46990737 16330.34173212
0.05200000 1489107.43421690 13022.24511908
0.05300000 1482668.08929192 14411.53449975
0.05400000 1476132.74632679 20702.76273268
0.05500000 1469505.45935512 16047.00036474
0.05600000 1462784.42037605 13757.48811562
0.05700000 1455975.00257320 13933.68142503
0.05800000 1449075.48337501 12824.31862667
0.05900000 1442088.17208940 18170.31181699
0.06000000 1435015.50532045 17069.51023325
0.06100000 1427859.26106985 18590.72844790
0.06200000 1420619.52203154 17452.31164394
0.06300000 1413299.96289248 13567.68027813
0.06400000 1405898.32699864 15078.26026222
0.06500000 1398421.02047054 16613.24250032
0.06600000 1390866.01112520 16773.84487899
0.06700000 1383235.97913180 16930.80917692
0.06800000 1375534.07241313 21355.16747383
0.06900000 1367760.80360949 17233.78693235
0.07000000 1359916.00428334 17379.72734861
0.07100000 1352004.44397236 17521.97841457
0.07200000 1344024.99636894 16188.78183966
0.07300000 1335982.15994650 17795.28320430
0.07400000 1327875.85848243 14938.60410801
0.07500000 1319707.78243517 21062.53719492
0.07600000 1311478.55801979 21206.60927736
0.07700000 1303193.37416604 18296.83583120
0.07800000 1294850.85239815 16878.38165254
0.07900000 1286452.54661562 16981.17441181
0.08000000 1278002.89026151 17080.50942961
0.08100000 1269501.68476156 21860.82003726
0.08200000 1260949.52306995 17268.70452878
0.08300000 1252350.16435820 18935.53537378
0.08400000 1243703.77759186 17442.94629947
0.08500000 1235014.56107507 19118.02630294
0.08600000 1226281.49244979 16002.97422783
0.08700000 1217508.10509068 20892.44006442
0.08800000 1208693.04425639 19363.26347836
0.08900000 1199842.61124623 19437.45121516
0.09000000 1190955.55501743 27636.12495240
0.09100000 1182034.09484274 19574.48553023
0.09200000 1173079.59312414 22910.24553019
0.09300000 1164095.34394816 21337.86865728
0.09400000 1155079.50981913 18105.87216735
0.09500000 1146036.98284482 21453.81332724
0.09600000 1136967.97024642 19851.46169368
0.09700000 1127876.12741614 21553.71380822
0.09800000 1118761.89397878 26581.78385075
0.09900000 1109627.23153700 18308.85018129
0.10000000 1100471.74525594 20006.57726961
0.10100000 1091298.68378263 25045.30597074
0.10200000 1082110.05399091 20062.32134465
0.10300000 1072906.37129063 20084.80821536
0.10400000 1063690.67439538 18428.44180087
0.10500000 1054465.53904723 20119.20343162
0.10600001 1045227.35589095 18453.48983656
0.10700001 1035983.84191819 23496.11464038
0.10800001 1026732.09836036 23501.89883751
0.10900001 1017476.37744487 18467.19711980
0.11000001 1008217.08602363 18465.49679969
0.11100001 998955.77190371 25173.68663698
0.11200001 989695.62879070 23485.47837683
0.11300001 980434.54026025 16765.43142778
0.11400001 971177.86191390 16752.81890681
0.11500001 961925.01175349 18411.24559191
0.11600001 952677.79555768 18391.44570932
0.11700001 943438.69593125 20038.63884530
0.11800001 934206.41436138 25013.37792261
0.11900001 924984.66526152 18314.69723483
0.12000001 915774.02366535 18283.42924372
0.12100001 906577.62154226 26544.59400922
0.12200001 897394.32294064 19868.31124593
0.12300001 888227.38057447 19825.23606848
0.12400001 879076.22123207 29668.82386450
0.12500001 869943.49733811 16441.93287444
0.12600001 860831.69631961 19678.61350519
0.12700001 851740.66947567 21259.44811199
0.12800001 842670.62102856 19566.81274245
0.12900001 833624.25526576 26009.07799015
0.13000001 824602.66755206 22684.82045360
0.13100001 815605.91651771 20993.69728076
0.13200001 806637.26306960 17701.65557252
0.13300001 797697.95907120 20843.84865317
0.13400001 788786.52946182 20764.80636705
0.13500001 779906.48764621 17501.10240793
0.13600001 771057.14859699 15845.22515078
0.13700001 762241.66557607 26823.28547643
0.13800001 753458.55010122 23564.41726561
0.13900001 744712.68680749 23458.45074069
0.14000001 736001.62703577 21793.00920430
0.14100001 727327.81000617 21688.91631730
0.14200001 718691.25265977 18499.11371598
0.14300001 710096.15437132 16871.88542367
0.14400001 701537.29548270 19835.96796543
0.14500001 693023.11960332 16694.92773878
0.14600001 684548.39676919 18113.15143299
0.14700001 676119.37518587 22514.77625586
0.14800001 667731.71148808 16416.18490143
0.14900001 659388.40433501 19287.11173678
0.15000001 651091.34060612 17696.66347265
0.15100001 642840.59251187 19053.79606110
0.15200001 634637.71543472 14564.93625650
0.15300001 626482.64521101 15918.92476601
0.15400001 618374.33676680 17252.64480996
0.15500001 610317.46648740 17137.71526775
0.15600001 602308.48317136 15602.80199293
0.15700001 594354.06891037 18312.04972740
0.15800001 586446.65336608 20980.13001441
0.15900001 578594.58238312 16663.52475916
0.16000001 570792.71246285 17920.03805364
0.16100001 563047.53952168 15050.26144185
0.16200001 555354.20815032 17651.93433934
0.16300001 547716.91477283 13473.83673948
0.16400001 540134.26289564 13368.32363778
0.16500001 532607.48052714 13261.92689124
0.16600001 525136.87558569 17101.08316084
0.16700001 517722.37618033 15655.92539488
0.16800001 510364.69813919 20700.39313392
0.16900001 503066.50401597 16676.65539557
0.17000001 495825.68876500 13989.72246909
0.17100001 488643.55390343 13867.70471463
0.17200001 481520.20690646 14994.53995115
0.17300001 474456.18113997 13621.63760380
0.17400001 467453.23712123 14724.77766471
0.17500001 460509.40029951 14588.93849049
0.17600001 453624.43472308 13248.10224178
0.17700001 446802.59721714 15508.51888188
0.17800001 440040.56220686 12996.59861864
0.17900001 433339.82632607 11700.17586344
0.18000001 426701.57280557 12743.44307378
0.18100001 420125.92588563 14910.26981399
0.18200001 413609.40279866 14759.65223609
0.18300001 407157.75641219 14608.82099018
0.18400001 400767.00146568 11121.28481605
0.18500001 394439.98791469 11004.87618271
0.18600001 388175.40977303 15243.64906195
0.18700001 381973.16262561 14003.13680343
0.18800001 375833.48159964 18113.29550148
0.18900001 369758.98404376 16861.01046904
0.19000001 363743.49197150 10421.25153737
0.19100001 357796.33743709 11334.98850559
0.19200001 351908.58392968 14262.85558061
0.19300001 346086.89327892 13092.46779139
0.19400001 340327.35312504 12940.94821409
0.19500001 334631.77798619 11805.80968524
0.19600001 328998.17341402 9721.89648381
0.19700001 323428.86911167 14408.75679985
0.19800001 317922.69592916 12336.99079856
0.19900001 312480.80331467 17811.40663070
0.20000001 307100.01045398 11110.87890334
0.20100001 301784.28416938 9144.06424250
0.20200001 296529.89140202 13544.00342992
0.20300001 291339.49581403 9806.48789260
0.20400001 286211.73628338 9681.11243737
0.20500001 281145.97737912 13899.85777863
0.20600001 276143.53394804 9431.68284781
0.20700001 271202.82357732 9307.68134514
0.20800001 266324.14416573 9184.18854569
0.20900001 261509.85809412 9061.31701130
0.21000001 256754.78878997 12189.43417403
0.21100001 252061.60004568 8817.11518641
0.21200001 247430.03801875 11858.08513263
0.21300001 242859.16623552 9354.93552565
0.21400001 238350.12417075 7686.79186791
0.21500001 233902.46268292 12125.50423875
0.21600001 229513.87449044 7470.67696787
0.21700001 225185.82957609 8836.29237034
0.21800001 220918.10469346 10160.02411522
0.21900001 216708.65094162 7866.52440112
0.22000001 212558.25701648 9864.82917457
0.22100001 208469.27938897 8330.43279828
0.22200001 204437.69902029 9573.81789781
0.22300001 200464.46290985 8756.28815395
0.22400001 196547.75080332 7960.18428394
0.22500001 192691.73372156 6532.25008205
0.22600001 188891.10816963 7074.91679105
0.22700001 185148.69050256 6332.08551463
0.22800001 181462.07950758 11843.12317912
0.22900001 177831.45549515 7362.22260567
0.23000001 174256.96938186 6641.80470209
0.23100001 170739.37042051 7130.07644596
0.23200001 167275.07104152 6430.89041033
0.23300001 163866.70469783 5751.72160692
0.23400001 160512.74707585 7921.30444283
0.23500001 157211.22222620 7791.38854203
0.23600001 153964.54617761 6020.78386304
0.23700001 150770.51151532 8612.01202509
0.23800001 147629.21168962 6351.00898728
0.23900001 144540.34943362 6764.48867345
0.24000001 141503.12963680 8184.54140532
0.24100001 138518.45528617 6033.86419767
0.24200001 135584.30667246 6424.66267557
0.24300001 132700.51121771 6799.57451643
0.24400001 129866.43287291 6681.62828738
0.24500001 127082.41387264 6565.07781122
0.24600001 124347.64747858 5067.78861272
0.24700001 121662.48524647 6336.18253138
0.24800001 119024.46450837 7557.45873148
0.24900001 116434.37683845 6549.43400700
0.25000001 113892.12932234 6432.05830777
0.25100001 111396.28897692 5474.01389930
0.25200001 108948.10021634 4134.58059882
0.25300001 106545.82895904 4465.33590293
0.25400001 104188.37099384 5579.28753068
0.25500001 101876.06549349 5085.65343005
0.25600001 99608.87252441  4607.90666099
0.25700001 97385.51245063  4522.58341219
0.25800001 95205.84165311  4068.62183555
0.25900001 93069.59012890  4355.65702412
0.26000001 90976.75862027  3917.91429536
0.26100001 88923.93908271  3494.71097131
0.26200001 86915.22373928  4114.56688651
0.26300001 84946.64826056  3700.27617332
0.26400001 83018.76245048  3959.99515627
0.26500001 81132.04326219  4855.75301901
0.26600001 79284.25003550  3175.33436418
0.26700001 77476.83797628  3114.56903403
0.26800001 75708.34972215  3665.79846702
0.26900001 73977.72909781  3894.92762131
0.27000001 72285.72863955  3232.25650908
0.27100001 70630.86144271  2881.73928323
0.27200001 69013.47204083  3673.93235796
0.27300001 67432.17589914  4157.19384092
0.27400001 65885.93557560  4348.47195378
0.27500001 64377.50868101  2931.75188408
0.27600001 62902.18785600  2613.58602911
0.27700001 61463.21434510  4100.82585518
0.27800001 60057.50752465  3267.42885152
0.27900001 58686.00658431  3697.21858979
0.28000001 57347.50922315  2417.19762816
0.28100001 56041.77139323  3081.73715477
0.28200001 54768.83819723  2557.43102066
0.28300001 53527.75632575  2736.33903288
0.28400001 52318.21467703  2683.92453996
0.28500001 51139.88246753  2852.07138021
0.28600001 49991.40906851  2582.55631472
0.28700001 48873.61629032  2955.87645315
0.28800001 47784.76168535  2278.61646882
0.28900001 46726.62071913  2439.12971699
0.29000001 45695.89279521  1994.62581492
0.29100001 44694.99261822  3327.98930788
0.29200001 43720.96872008  3074.45866593
0.29300001 42774.63187329  2829.54203236
0.29400001 41855.28026647  3333.77323103
0.29500001 40963.61503302  2364.41997163
0.29600001 40096.98765865  2500.84923865
0.29700001 39255.98529472  2632.11393861
0.29800001 38441.07899535  2068.89896947
0.29900001 37650.98698102  2033.15339322
0.30000001 36885.26539702  1665.36981151
0.30100001 36144.48500686  2292.28334765
0.30200001 35426.42068607  2093.17016533
0.30300001 34732.05897553  2217.29474997
0.30400001 34061.36454715  2025.79975235
0.30500001 33412.15271540  2147.06503514
0.30600001 32785.32462214  2113.66997846
0.30700001 32180.61031795  2081.44197391
0.30800001 31597.13075773  2050.33791194
0.30900001 31034.48796025  2308.96601356
0.31000001 30493.50450776  1849.27866843
0.31100001 29970.85296686  1542.89958378
0.31200001 29469.31418867  1937.01811333
0.31300001 28986.61008455  1501.79633959
0.31400001 28524.49049332  1482.56046358
0.31500001 28080.26008024  1331.00439082
0.31600002 27654.42344320  1840.95505578
0.31700002 27246.19263378  2209.39386528
0.31800002 26856.18934819  1542.08246539
0.31900002 26483.70063378  1525.46122873
0.32000002 26127.96438415  1635.48000807
0.32100002 25789.23285360  1743.86800813
0.32200002 25467.04527112  1727.42976253
0.32300002 25160.03315808  1589.61097020
0.32400002 24869.09547677  1212.36846190
0.32500002 24593.16863418  1683.64840442
0.32600002 24332.62961250  1312.86709291
0.32700002 24086.74995539  1185.06815392
0.32800002 23855.83792401  1412.74278876
0.32900002 23637.77630014  1521.09097694
0.33000002 23435.13636753  1512.62094847
0.33100002 23243.57593514  1620.54219094
0.33200002 23067.59732517  1728.33981143
0.33300002 22903.23259324  1147.45200726
0.33400002 22752.20392741  1371.95796179
0.33500002 22612.89725406  1253.65908313
0.33600002 22485.58528933  1363.97566824
0.33700002 22369.18563936  1587.76487187
0.33800002 22265.66736157  1245.43016285
0.33900002 22171.98823102  1356.92574400
0.34000002 22089.94668468  1581.86115700
0.34100002 22018.20343790  1355.44066783
0.34200002 21957.71675191  1242.69703843
0.34300002 21905.77474121  1130.33803018
0.34400002 21864.80342702  1810.40580950
0.34500002 21832.69452163  1246.42858927
0.34600002 21811.22976574  1248.80201938
0.34700002 21796.58401745  1251.55991356
0.34800002 21792.41468021  1254.91625879
0.34900002 21796.26531383  1487.59517812
0.35000002 21808.52715743  1148.21900922
0.35100002 21828.95624830  1267.82583895
0.35200002 21856.49241399  1388.76159376
0.35300002 21891.96029246  1278.70946125
0.35400002 21935.29213889  1401.66523406
0.35500002 21985.46038798  1995.84018855
0.35600002 22042.08681014  1298.38918505
0.35700002 22105.60004877  2018.02032404
0.35800002 22176.22722685  1194.18989273
0.35900002 22252.46850858  1682.28669893
0.36000002 22335.70909978  1572.32231655
0.36100002 22423.81809600  1582.89739437
0.36200002 22518.85053059  1471.38176336
0.36300002 22617.50874021  1975.86565714
0.36400002 22722.29823435  1492.85506471
0.36500002 22831.66584984  1253.45851453
0.36600002 22946.54477628  1263.20734977
0.36700002 23065.58783035  1655.18666111
0.36800002 23190.58734089  1668.67879116
0.36900002 23318.89874993  1553.03873031
0.37000002 23450.47386749  1696.52461231
0.37100002 23586.43715713  1710.96023243
0.37200002 23726.64203646  1991.25852724
0.37300002 23869.89076388  1606.92112234
0.37400002 24017.56294360  1621.18557549
0.37500002 24167.48659120  1499.35093914
0.37600002 24321.54192777  1650.45991340
0.37700002 24477.26779648  1526.64726479
0.37800002 24636.77184773  1960.84076425
0.37900002 24798.72730942  1554.88027596
0.38000002 24963.21361116  1997.30681565
0.38100002 25129.62552022  2015.89865473
0.38200002 25298.40184082  2180.08988191
0.38300002 25469.02995881  1467.01619513
0.38400002 25642.29461513  1628.92684260
0.38500002 25816.13450595  1793.70511045
0.38600002 25992.86672184  1508.88598469
0.38700002 26170.03339268  2132.33442185
0.38800002 26348.50861794  2306.15332604
0.38900002 26528.39364168  2017.48443203
0.39000002 26710.09394517  2193.16591774
0.39100002 26891.77648311  1897.48383854
0.39200002 27075.01090253  2553.71514931
0.39300002 27258.47529769  1610.97596642
0.39400002 27443.41571070  1951.22694947
0.39500002 27627.98493374  2625.76381250
0.39600002 27812.88422306  3146.88893451
0.39700002 27997.90024101  2340.06461301
0.39800002 28183.96991737  2024.17281537
0.39900002 28369.24617672  2212.80130662
0.40000002 28554.55771101  1889.31240046
0.40100002 28739.39304557  1906.28403103
0.40200002 28925.29266068  2797.65443869
0.40300002 29109.60584590  2822.46751655
0.40400002 29293.49089255  2313.45355285
0.40500002 29477.02743640  2333.69637271
0.40600002 29660.12903187  2535.05134847
0.40700002 29842.20923055  2739.51493717
0.40800002 30023.96310626  2947.15235815
0.40900002 30203.83310743  2043.28940653
0.41000002 30383.60819863  2435.09439446
0.41100002 30562.06698404  2455.35657784
0.41200002 30738.66699863  2094.68656187
0.41300002 30914.68862207  2495.74293071
0.41400002 31088.99536962  2515.87706950
0.41500002 31262.62350053  2145.86657875
0.41600002 31433.44901931  2359.39479519
0.41700002 31603.62983915  2774.16675873
0.41800002 31773.03651451  2596.01607143
0.41900002 31938.77569966  3018.21444663
0.42000002 32103.60872928  2635.54588351
0.42100002 32267.23142765  2451.01901539
0.42200002 32428.73183032  2469.12375856
0.42300002 32587.87757609  3316.14257928
0.42400002 32745.04353524  2087.49662429
0.42500002 32900.59550816  2312.58296785
0.42600002 33052.73606127  2540.43341405
0.42700002 33204.06658458  3410.72188119
0.42800002 33352.62269697  2146.24137225
0.42900002 33499.53565786  2592.86418279
0.43000002 33644.04031223  2827.61350203
0.43100002 33784.79866682  2846.03157456
0.43200002 33924.23065312  2644.05466240
0.43300002 34060.80822942  3326.03808122
0.43400002 34195.24525506  2454.36384449
0.43500002 34326.66272507  2469.46023347
0.43600002 34456.59765906  2710.35610030
0.43700002 34582.83303964  2726.51068605
0.43800002 34705.81201641  3428.06674437
0.43900002 34827.26008503  3677.75883927
0.44000002 34945.10844362  3929.75235626
0.44100002 35060.95779214  2789.44993413
0.44200002 35173.69340420  3272.20885246
0.44300002 35283.96420210  2819.89455267
0.44400002 35390.84281710  2834.80664399
0.44500002 35493.98753895  3324.36703044
0.44600002 35595.08451728  2625.31558299
0.44700002 35693.57716963  3597.91274921
0.44800002 35787.95802986  3133.41481380
0.44900002 35880.72903430  4117.31385181
0.45000002 35970.22071975  2676.72410172
0.45100002 36055.41917296  2444.55753578
0.45200002 36138.56804213  3437.86214078
0.45300002 36218.04238451  2959.73856393
0.45400002 36295.09338950  2477.14024123
0.45500002 36368.90413905  3731.44974151
0.45600002 36439.25127850  3247.28403158
0.45700002 36506.55634583  3009.60064779
0.45800002 36570.19722297  3525.00147739
0.45900002 36630.96732819  3033.04423852
0.46000002 36689.28991169  4313.00967998
0.46100002 36743.19459363  3310.19455783
0.46200002 36794.84316018  3833.10296788
0.46300002 36842.74280057  3077.10602454
0.46400002 36887.11227543  3602.02668442
0.46500002 36929.22008534  3097.62312757
0.46600002 36967.19464206  3625.37295037
0.46700002 37002.10547442  3117.05751290
0.46800002 37034.39733788  2605.36997620
0.46900002 37062.79885304  3396.80567588
0.47000002 37087.59540338  2882.26261338
0.47100002 37109.68108743  2890.10210007
0.47200002 37128.35507610  3424.53399276
0.47300002 37144.36990746  3697.35075583
0.47400002 37155.71557181  2647.34485997
0.47500002 37165.07856592  3715.02142953
0.47600002 37171.46536819  2925.58032047
0.47700002 37173.47583835  2665.33834394
