# SAXS profile: number of points = 501, q_min = 0, q_max = 0.5, delta_q = 0.001
#    q    intensity    error
0.00000000 1700912.83420644 331.67800267
0.00100000 1700843.12899588 612.30354098
0.00200000 1700633.95646341 841.81383511
0.00300000 1700285.47762035 1326.22271979
0.00400000 1699797.57884675 1402.33305583
0.00500000 1699170.72837161 1835.10445928
0.00600000 1698404.61157926 2139.98989771
0.00700000 1697499.91240995 3055.49996933
0.00800000 1696456.12651314 2748.25904098
0.00900000 1695274.54873102 2797.20312498
0.01000000 1693954.33733541 3074.52725502
0.01100000 1692496.81611356 3046.49440165
0.01200000 1690901.36430011 4286.43514643
0.01300000 1689169.40849839 3901.98150573
0.01400000 1687300.18505688 3796.42558468
0.01500000 1685295.53980307 5258.12231832
0.01600000 1683154.23791253 5150.45219826
0.01700000 1680878.46157141 4992.20925481
0.01800000 1678467.76428789 6218.72334651
0.01900000 1675922.86708581 5027.76882812
0.02000000 1673244.43393415 6851.93626691
0.02100000 1670434.05308190 7717.40567513
0.02200000 1667490.04981713 6328.12502656
0.02300000 1664415.17512761 7190.27388384
0.02400000 1661209.34646844 6852.48886664
0.02500000 1657874.00153786 8405.42157168
0.02600000 1654409.23865950 8040.42926764
0.02700000 1650816.20956336 7626.77123750
0.02800000 1647094.62489778 9314.32053095
0.02900000 1643247.17426127 9612.99641080
0.03000000 1639274.19725375 7622.62536761
0.03100000 1635175.89741090 10988.38253621
0.03200000 1630953.24350060 8073.21892717
0.03300000 1626609.15302815 9125.27776917
0.03400000 1622141.55613765 10219.49227520
0.03500000 1617553.93201810 8734.79163625
0.03600000 1612845.85191671 11636.68335935
0.03700000 1608019.22863120 14665.13604334
0.03800000 1603075.38851506 10315.79060250
0.03900000 1598015.51715897 10546.90290168
0.04000000 1592838.75748372 11755.15057495
0.04100000 1587548.86239415 11001.71412650
0.04200000 1582146.21173072 11225.32789300
0.04300000 1576631.03615924 11446.34185383
0.04400000 1571006.65653084 13785.58405129
0.04500000 1565272.99444013 14040.49941252
0.04600000 1559430.50579799 15391.57980773
0.04700000 1553482.07258184 14540.59287562
0.04800000 1547428.24920293 17060.39724125
0.04900000 1541271.35876071 13871.44287453
0.05000000 1535011.44678225 14091.40573764
0.05100000 1528651.48976092 16692.87504581
0.05200000 1522189.98547927 14521.69313820
0.05300000 1515631.91335659 12276.61907050
0.05400000 1508976.35850378 16183.77219966
0.05500000 1502226.79148910 16404.31732831
0.05600000 1495381.54386155 17899.71791530
0.05700000 1488446.12426528 16834.32645124
0.05800000 1481418.92930417 13110.55813651
0.05900000 1474301.86629747 18576.20438297
0.06000000 1467097.98333246 13423.94717464
0.06100000 1459808.78586055 20364.33351441
0.06200000 1452434.35813049 17843.15692369
0.06300000 1444978.20204786 22194.86622118
0.06400000 1437438.63101731 18219.53550021
0.06500000 1429821.31182506 25479.41696859
0.06600000 1422124.88695420 15721.59136087
0.06700000 1414351.85326368 18754.30645196
0.06800000 1406505.53145303 16013.06622515
0.06900000 1398586.16201201 16153.67092754
0.07000000 1390593.56988175 20733.75109787
0.07100000 1382532.85228235 16424.49105440
0.07200000 1374402.51902034 16554.67911713
0.07300000 1366207.65077794 15164.90563420
0.07400000 1357947.79379038 19859.98741491
0.07500000 1349624.69921020 20001.43897981
0.07600000 1341239.04700085 20138.70523483
0.07700000 1332796.20871348 28068.68947160
0.07800000 1324294.40476201 17262.17837560
0.07900000 1315735.63362992 25262.12535058
0.08000000 1307124.33775916 23822.34217319
0.08100000 1298460.27836765 17568.16839058
0.08200000 1289743.80393140 22480.23555741
0.08300000 1280979.39070136 17754.37518837
0.08400000 1272166.27943751 19464.14498901
0.08500000 1263309.27000960 19556.02841781
0.08600000 1254407.22707235 18007.01659008
0.08700000 1245463.73047801 21372.15861859
0.08800000 1236477.85201532 18157.67810960
0.08900000 1227455.30601039 18227.71215040
0.09000000 1218394.83385240 18294.19928967
0.09100000 1209299.26583458 18357.16371781
0.09200000 1200169.63515985 26787.78751544
0.09300000 1191009.34997715 18472.55588621
0.09400000 1181816.68394153 23577.24395270
0.09500000 1172596.19074308 18573.92453439
0.09600000 1163348.16552576 22004.73158531
0.09700000 1154076.89310259 22054.41046403
0.09800000 1144782.37688751 20400.02291530
0.09900000 1135466.38988758 18735.19631412
0.10000000 1126128.97258372 23885.19663175
0.10100000 1116773.03425247 18795.29105045
0.10200000 1107401.08299918 29085.89081307
0.10300000 1098013.58855090 18841.91406587
0.10400000 1088613.06084758 18860.22216647
0.10500000 1079202.62471780 24023.05155649
0.10600001 1069778.81987865 25754.92630044
0.10700001 1060348.38228035 18895.40906141
0.10800001 1050909.73405359 20618.84995249
0.10900001 1041466.56369164 22339.45884261
0.11000001 1032019.25704435 18901.43358245
0.11100001 1022569.58933756 22332.92088242
0.11200001 1013120.12604702 25758.58041739
0.11300001 1003669.79186111 22311.58052352
0.11400001 994223.38047066 27440.56659301
0.11500001 984780.66242248 17135.18433301
0.11600001 975343.10983437 20540.72686041
0.11700001 965913.39344227 18806.33465600
0.11800001 956490.22444926 23902.69183476
0.11900001 947077.48483803 23866.35374206
0.12000001 937675.36016133 17018.80858860
0.12100001 928287.73638328 22083.96628889
0.12200001 918912.39680236 22040.11487564
0.12300001 909553.58727967 18609.46727252
0.12400001 900210.39508060 18566.84027336
0.12500001 890885.71969476 18521.51498520
0.12600001 881581.95973513 20152.96454922
0.12700001 872298.63401735 21772.57493114
0.12800001 863036.23559895 20039.70233506
0.12900001 853797.78901073 23308.68073858
0.13000001 844584.40682104 23234.51812680
0.13100001 835395.33274571 29773.49106251
0.13200001 826235.17554376 29670.10655243
0.13300001 817103.86511018 19708.54615558
0.13400001 808000.52873654 21270.61492181
0.13500001 798929.09130969 17927.96965426
0.13600001 789888.51442521 27594.75655256
0.13700001 780882.04406476 21013.53679664
0.13800001 771908.04389987 25750.85355880
0.13900001 762971.74440057 17624.64812680
0.14000001 754070.11377382 19138.30039015
0.14100001 745206.61306520 19047.48192828
0.14200001 736380.42072648 17374.89684653
0.14300001 727596.41404903 22002.51659865
0.14400001 718848.42678460 20325.44022608
0.14500001 710145.65903757 15552.19066655
0.14600001 701483.13888286 17014.47433625
0.14700001 692866.33627794 16919.79673012
0.14800001 684291.82789961 16823.31538261
0.14900001 675761.95123201 16725.10908210
0.15000001 667278.86276069 18136.64034557
0.15100001 658842.35060708 24034.57008422
0.15200001 650454.76044195 16420.73120220
0.15300001 642115.26953244 25215.86782445
0.15400001 633823.06813819 19157.30313853
0.15500001 625582.89845828 16102.50456624
0.15600001 617391.96476062 17447.49774757
0.15700001 609255.44975173 14439.35484061
0.15800001 601166.69007775 18639.17410561
0.15900001 593134.13713800 17082.26395587
0.16000001 585152.75255659 21197.15946192
0.16100001 577228.63012955 16831.98764912
0.16200001 569357.20678465 22273.25498085
0.16300001 561542.37238323 16576.73161530
0.16400001 553783.09498036 13706.13224782
0.16500001 546080.66757982 13597.40926469
0.16600001 538434.77400084 24278.02510594
0.16700001 530846.51607117 16052.79940392
0.16800001 523315.28569213 15919.25174240
0.16900001 515844.86154058 15784.85350847
0.17000001 508432.68919692 13041.29909371
0.17100001 501080.03989420 18099.01189564
0.17200001 493787.05655926 16657.90713966
0.17300001 486554.61471650 13968.98364819
0.17400001 479383.90233534 12583.82803059
0.17500001 472273.45418044 13714.82175712
0.17600001 465222.74628712 18527.49674592
0.17700001 458236.13201328 14681.88636314
0.17800001 451310.80623710 18176.54357972
0.17900001 444447.48579735 18000.12402500
0.18000001 437647.62005022 13070.34679018
0.18100001 430911.43596324 14116.65930898
0.18200001 424235.49550079 18632.42384255
0.18300001 417625.85877695 13831.76909610
0.18400001 411077.85100323 15970.37526593
0.18500001 404594.85546142 12417.01670072
0.18600001 398175.37228271 16753.22958028
0.18700001 391819.55143259 17678.89899587
0.18800001 385526.85868106 18580.46783199
0.18900001 379301.14145946 14053.10795505
0.19000001 373135.48193402 13897.43168127
0.19100001 367039.04957842 13741.94266552
0.19200001 361003.94380675 15676.59700055
0.19300001 355035.42287062 12397.83755247
0.19400001 349130.47453296 11233.27354891
0.19500001 343290.51081641 13120.56394342
0.19600001 337514.30897366 14960.32245223
0.19700001 331803.09889953 11825.46300362
0.19800001 326156.43062370 15577.23186275
0.19900001 320575.49596602 11540.71840019
0.20000001 315056.64860513 9498.95840438
0.20100001 309604.33128784 11257.21401767
0.20200001 304214.67208613 9263.33720284
0.20300001 298890.18539504 11889.85213698
0.20400001 293629.78583561 9932.02797533
0.20500001 288432.80606504 14260.11860589
0.20600001 283299.86701117 9676.10741514
0.20700001 278230.70547818 11285.03794763
0.20800001 273224.23370531 11991.81218418
0.20900001 268283.83332389 12676.41172378
0.21000001 263404.09258606 8336.73992445
0.21100001 258587.53677100 11512.31768127
0.21200001 253833.75088859 11353.98421400
0.21300001 249142.02278462 9596.95117136
0.21400001 244513.81450224 11039.79924670
0.21500001 239948.13888567 12438.91210791
0.21600001 235442.44132880 11495.47774137
0.21700001 230999.32336334 7553.67823112
0.21800001 226617.34900395 9677.69434678
0.21900001 222295.15249804 9536.46249306
0.22000001 218033.59867189 7227.81413772
0.22100001 213834.86331323 7120.70128502
0.22200001 209694.73878323 11924.29188474
0.22300001 205614.53368417 6908.64865847
0.22400001 201591.88532719 9525.21703212
0.22500001 197631.24730388 8039.63952049
0.22600001 193727.85195056 7915.72040502
0.22700001 189883.65108648 8442.22752653
0.22800001 186096.70510255 8310.14875934
0.22900001 182367.04135720 8808.32851411
0.23000001 178695.11398852 8049.32179028
0.23100001 175081.17505095 7311.39021590
0.23200001 171522.05611160 8392.57460246
0.23300001 168020.22744204 7077.01231456
0.23400001 164574.20718454 6381.36518539
0.23500001 161182.04708336 7417.59815760
0.23600001 157845.77687887 5611.41763345
0.23700001 154563.69687447 6069.71666335
0.23800001 151335.86239971 5967.93001601
0.23900001 148161.66127543 6400.58406984
0.24000001 145040.57297707 7864.82544169
0.24100001 141973.08166607 5668.98541908
0.24200001 138957.69896397 7597.51255023
0.24300001 135993.86147482 5475.11312196
0.24400001 133081.11777858 5379.80444068
0.24500001 130219.82796628 5285.62306718
0.24600001 127408.78620180 6136.64447770
0.24700001 124649.24515019 5564.34256673
0.24800001 121937.76778630 9108.75168454
0.24900001 119275.57959168 6709.25166943
0.25000001 116662.56758347 5710.04964051
0.25100001 114097.35024838 4312.88004343
0.25200001 111580.95482636 4234.49743599
0.25300001 109111.68659221 6235.73318376
0.25400001 106688.67282657 4897.01031442
0.25500001 104311.90398616 4806.69276310
0.25600001 101981.66145724 5110.81120574
0.25700001 99696.63041299  4629.91173544
0.25800001 97456.19055339  4164.79050035
0.25900001 95260.67487073  4829.71644446
0.26000001 93109.55659911  4009.76324466
0.26100001 90999.75259787  3933.91949094
0.26200001 88935.50956180  4911.90842551
0.26300001 86912.48000457  4130.08124524
0.26400001 84931.22386658  4726.42283182
0.26500001 82992.36965512  5298.23312949
0.26600001 81093.70150223  4222.14376850
0.26700001 79236.61667913  4140.90578360
0.26800001 77419.50179178  4061.04015866
0.26900001 75641.47771005  3369.82799145
0.27000001 73903.12051917  4205.82678777
0.27100001 72203.27532333  3240.48314986
0.27200001 70541.91192646  3177.56057310
0.27300001 68917.65454714  3682.27045671
0.27400001 67329.53646088  3055.07786149
0.27500001 65780.59470471  3267.98009959
0.27600001 64265.74077136  3738.33831759
0.27700001 62788.04716490  2880.08785976
0.27800001 61345.06476870  3850.93662311
0.27900001 59936.96537709  3524.29373097
0.28000001 58563.21402925  2962.12750579
0.28100001 57223.07624221  2904.64348753
0.28200001 55916.80864743  3797.86982309
0.28300001 54643.50366964  3724.50138640
0.28400001 53402.60835445  2511.25777673
0.28500001 52194.15347396  2686.95514802
0.28600001 51016.28031578  3294.37645732
0.28700001 49870.12485186  2585.26739469
0.28800001 48753.93316804  2113.48310287
0.28900001 47669.54854876  3110.43819003
0.29000001 46613.22286978  2645.06745695
0.29100001 45587.64211802  2396.08658314
0.29200001 44590.07920235  1959.73407371
0.29300001 43621.09625970  3077.90469778
0.29400001 42679.81548020  2266.29830928
0.29500001 41767.07866289  2225.35005650
0.29600001 40880.35937301  3096.07416368
0.29700001 40020.12946520  2146.67984613
0.29800001 39186.84376645  2460.54203657
0.29900001 38379.07745006  2590.58785052
0.30000001 37596.52157300  1867.23133232
0.30100001 36839.95022442  1668.84982417
0.30200001 36106.69788762  1641.04949668
0.30300001 35398.01367765  1936.97940014
0.30400001 34713.72407015  2064.59883681
0.30500001 34051.53982114  1562.96575178
0.30600001 33412.49641152  1692.51008585
0.30700001 32796.49546618  1818.23779473
0.30800001 32202.38007314  1641.83842576
0.30900001 31629.83920346  1764.94511111
0.31000001 31079.45935384  1739.82821700
0.31100001 30548.28072486  2144.48940842
0.31200001 30038.77961377  1974.44907749
0.31300001 29548.96074598  1530.93172873
0.31400001 29080.29975181  1648.85307400
0.31500001 28629.90940075  1628.46932382
0.31600002 28198.88810651  2279.45722802
0.31700002 27785.92976315  1325.38891246
0.31800002 27391.81093680  1703.90768000
0.31900002 27015.67028622  1556.10268217
0.32000002 26657.12803851  1411.89485341
0.32100002 26315.98549686  1525.27459162
0.32200002 25991.89420445  1259.30733383
0.32300002 25683.51594482  1373.04082742
0.32400002 25391.80372787  2351.91593166
0.32500002 25115.64261437  1842.23247300
0.32600002 24855.21843168  1219.14852180
0.32700002 24610.07316627  1574.06035425
0.32800002 24380.42111915  1684.44337489
0.32900002 24164.00241975  1674.56544699
0.33000002 23963.50081538  1665.70302055
0.33100002 23774.37534423  1775.94592231
0.33200002 23601.45084343  1178.89252546
0.33300002 23440.39761205  1291.80037357
0.33400002 23293.10747512  1755.71805908
0.33500002 23158.01540227  1283.88043470
0.33600002 23035.15538881  1513.75530806
0.33700002 22923.83920089  1859.58192404
0.33800002 22825.49484895  1508.87940845
0.33900002 22737.58809639  1739.42557175
0.34000002 22661.39184180  1738.69537140
0.34100002 22595.97742903  1391.00843641
0.34200002 22542.12474690  1275.77161047
0.34300002 22497.13397359  1741.27825202
0.34400002 22463.40909027  1743.72221321
0.34500002 22438.71043907  1397.48295233
0.34600002 22424.97841738  1867.55229105
0.34700002 22418.34725194  1638.33289476
0.34800002 22422.56556871  1408.58563574
0.34900002 22434.80607634  1531.17558723
0.35000002 22455.85761715  1418.76115145
0.35100002 22485.22931591  1543.38621334
0.35200002 22521.75747620  1550.28524930
0.35300002 22566.73091220  1437.95216183
0.35400002 22619.51836933  1565.83623328
0.35500002 22679.33661379  1574.39962230
0.35600002 22745.88599039  1583.45492822
0.35700002 22819.33590556  1225.39839617
0.35800002 22900.23153387  1726.44853711
0.35900002 22986.79986245  1986.05960219
0.36000002 23080.35458507  1249.80125998
0.36100002 23179.10465872  2139.66325239
0.36200002 23284.71266922  1267.85266489
0.36300002 23394.21842911  1277.32438673
0.36400002 23509.80897802  1802.02694352
0.36500002 23630.11836226  1427.02291549
0.36600002 23755.92988632  1438.54040241
0.36700002 23886.08626992  1582.21442947
0.36800002 24022.22970951  1595.55657289
0.36900002 24161.55474714  1743.25625758
0.37000002 24304.32127096  1487.78909708
0.37100002 24451.46030406  1773.70901448
0.37200002 24602.92351157  1927.14708995
0.37300002 24757.36340525  1527.77696811
0.37400002 24916.33640558  1541.69838813
0.37500002 25077.43087395  1980.11403561
0.37600002 25242.68710509  1570.22142576
0.37700002 25409.64606204  2017.01779995
0.37800002 25580.19506560  2472.19806923
0.37900002 25753.28463627  2055.11221133
0.38000002 25928.90187290  2074.57153713
0.38100002 26106.24573526  1645.47674664
0.38200002 26286.07588729  2416.21621002
0.38300002 26467.58906303  1829.43984270
0.38400002 26651.61430276  1846.95695868
0.38500002 26836.38822555  2019.97503743
0.38600002 27023.67100320  1568.72417605
0.38700002 27211.31913999  2058.80850367
0.38800002 27400.32591384  2398.21363923
0.38900002 27590.55200686  2098.26157953
0.39000002 27782.52253718  1955.33402880
0.39100002 27974.23608513  1809.37367571
0.39200002 28167.64150897  1826.53080018
0.39300002 28360.86113123  1843.73966949
0.39400002 28555.62981717  2030.30537619
0.39500002 28749.64528540  2220.04771412
0.39600002 28944.05691950  2068.34240546
0.39700002 29138.27446822  2087.46608180
0.39800002 29333.67442292  2106.74459687
0.39900002 29527.99949652  2126.01606448
0.40000002 29721.83503284  2502.87584670
0.40100002 29915.52027385  1984.29655378
0.40200002 30109.77469793  2184.16316007
0.40300002 30302.32954418  2938.11401181
0.40400002 30494.43178007  2223.04418210
0.40500002 30685.89520514  1868.77110654
0.40600002 30876.76013164  1885.02629535
0.40700002 31066.29445545  2471.63450398
0.40800002 31255.20800676  2301.00852248
0.40900002 31442.26461397  1933.69936538
0.41000002 31629.02820063  2144.92264906
0.41100002 31814.12852581  2359.33588326
0.41200002 31997.10416800  2576.88690627
0.41300002 32179.44417463  2198.17793572
0.41400002 32359.67528299  2618.70684636
0.41500002 32539.13938951  2233.48663353
0.41600002 32715.63556353  2250.99941161
0.41700002 32891.10765667  2680.95431213
0.41800002 33065.64250545  2078.17572994
0.41900002 33236.22149228  2303.27025855
0.42000002 33405.71618447  2531.48529241
0.42100002 33573.68911596  2550.25754609
0.42200002 33739.36727769  3639.29702386
0.42300002 33902.40315121  2156.19294259
0.42400002 34063.20758708  2171.52958658
0.42500002 34222.14304325  2624.15405290
0.42600002 34377.36455592  2642.24436497
0.42700002 34531.55879257  2438.61879749
0.42800002 34682.82774465  2678.20808535
0.42900002 34832.05023013  2920.66755020
0.43000002 34978.70709113  3618.19763296
0.43100002 35121.40444587  2275.86711594
0.43200002 35262.30165648  2977.37258146
0.43300002 35400.23521598  3226.37759048
0.43400002 35535.82425189  3941.81149194
0.43500002 35667.96906722  2799.22234505
0.43600002 35798.45617905  3989.20115336
0.43700002 35925.09481294  2596.30672517
0.43800002 36048.01173369  3560.64252773
0.43900002 36169.22184653  2625.88563050
0.44000002 36286.58858118  2400.35794840
0.44100002 36401.59011084  2654.76809259
0.44200002 36513.33557619  2426.31126402
0.44300002 36622.22041131  3902.46399197
0.44400002 36727.48934296  3187.02803877
0.44500002 36828.83001685  3449.38838285
0.44600002 36927.87008410  4456.82485166
0.44700002 37024.00835222  2488.01347918
0.44800002 37115.59341991  2749.70886883
0.44900002 37205.57348798  3767.06449419
0.45000002 37292.02018851  3531.92739944
0.45100002 37373.75145266  3040.72856230
0.45200002 37453.19906741  3053.93399669
0.45300002 37528.60392180  4344.68668193
0.45400002 37601.57508808  2822.93838353
0.45500002 37670.91734329  3349.69812892
0.45600002 37736.66608710  3104.21829944
0.45700002 37798.92016141  3116.14312579
0.45800002 37857.30778007  2606.47576419
0.45900002 37912.65606296  2877.57073156
0.46000002 37965.17311286  2887.82102970
0.46100002 38013.07018567  3161.16706646
0.46200002 38058.51271789  2907.48021688
0.46300002 38100.02715415  2916.93821717
0.46400002 38137.66702348  3458.13312125
0.46500002 38172.92273828  4536.08862398
0.46600002 38203.63298078  4014.24692571
0.46700002 38231.13132926  3757.35576512
0.46800002 38255.80494948  3229.55520690
0.46900002 38276.34697494  3777.87562548
0.47000002 38292.92469839  3517.01383562
0.47100002 38306.62939291  3254.53138748
0.47200002 38316.72455542  2990.42890967
0.47300002 38324.14030693  3269.81580597
0.47400002 38326.34744493  3549.97810035
0.47500002 38326.50113154  3010.16354155
0.47600002 38323.53481752  2742.04904616
0.47700002 38315.76640965  3296.68869814
