# SAXS profile: number of points = 501, q_min = 0, q_max = 0.5, delta_q = 0.001
#    q    intensity    error
0.00000000 1700912.83420644 280.65061764
0.00100000 1700843.13640042 612.30354365
0.00200000 1700633.99246636 994.87091710
0.00300000 1700285.55604565 2142.35987693
0.00400000 1699797.71984530 1274.84833833
0.00500000 1699170.94105438 1835.10468897
0.00600000 1698404.92690365 2318.32281961
0.00700000 1697500.33619814 2240.70053691
0.00800000 1696456.67253358 3206.30324646
0.00900000 1695275.24459983 3051.49557072
0.01000000 1693955.20725224 3354.03145518
0.01100000 1692497.85598619 3351.14590076
0.01200000 1690902.61610812 3626.98627057
0.01300000 1689170.87008910 3901.98488200
0.01400000 1687301.88602876 4935.35823542
0.01500000 1685297.48751074 5258.12839517
0.01600000 1683156.45692876 6867.27865126
0.01700000 1680880.97962298 4992.21673342
0.01800000 1678470.56050068 5262.00544395
0.01900000 1675926.00376642 7541.66735725
0.02000000 1673247.87509806 6324.87725398
0.02100000 1670437.87254471 8268.66784399
0.02200000 1667494.25828616 8629.28317868
0.02300000 1664419.76856283 6591.10258353
0.02400000 1661214.31994799 8098.42017901
0.02500000 1657879.35746912 10345.16766308
0.02600000 1654415.06989501 8040.45760745
0.02700000 1650822.44417617 7626.80004141
0.02800000 1647101.35336026 9314.35858041
0.02900000 1643254.44209479 11831.43252631
0.03000000 1639281.90870845 7622.66122587
0.03100000 1635184.16654684 9418.66123269
0.03200000 1630962.03162152 8073.26242837
0.03300000 1626618.48091621 9125.33009862
0.03400000 1622151.46372047 8516.29557748
0.03500000 1617564.45252630 11355.30298110
0.03600000 1612856.90583689 10741.62748928
0.03700000 1608030.92415623 13748.66503738
0.03800000 1603087.67222740 10315.86964820
0.03900000 1598028.49418881 13423.43997283
0.04000000 1592852.44385557 11755.25158038
0.04100000 1587563.15082405 12001.97797672
0.04200000 1582161.17858028 14286.91610539
0.04300000 1576646.76206022 15608.80366893
0.04400000 1571023.07788404 11664.84689503
0.04500000 1565290.11837563 18360.85394168
0.04600000 1559448.43816244 14292.34560017
0.04700000 1553500.74729715 13422.24708089
0.04800000 1547447.66819381 13648.48906851
0.04900000 1541291.65207364 13871.62551435
0.05000000 1535032.52687753 12917.29931518
0.05100000 1528673.39938547 16693.11429892
0.05200000 1522212.68343141 16942.22795612
0.05300000 1515655.49526216 13504.49109234
0.05400000 1509000.74868000 13694.18243288
0.05500000 1502252.06335466 16404.59329710
0.05600000 1495407.76261078 17900.03175374
0.05700000 1488473.25626594 19424.57690098
0.05800000 1481446.96410803 17044.04811789
0.05900000 1474330.87782428 17249.67207620
0.06000000 1467127.89770540 14766.64298028
0.06100000 1459839.63461625 14934.16016002
0.06200000 1452466.12625726 13725.80553472
0.06300000 1445011.05073066 15259.31740917
0.06400000 1437472.42372555 22424.57085884
0.06500000 1429856.20342341 19817.80790648
0.06600000 1422160.74047892 22868.34577688
0.06700000 1414388.72186263 15869.44220197
0.06800000 1406543.42229603 17469.27012264
0.06900000 1398625.06553831 16154.12026329
0.07000000 1390633.56282442 19253.32257891
0.07100000 1382573.87778648 17918.15829536
0.07200000 1374444.77275688 16555.18806341
0.07300000 1366251.00466502 19715.00292107
0.07400000 1357992.11559661 18332.89441971
0.07500000 1349670.16310025 23079.36087080
0.07600000 1341285.69446983 29434.51594505
0.07700000 1332843.95476362 21831.98500270
0.07800000 1324343.31151985 28248.24415945
0.07900000 1315785.68736067 17368.37188780
0.08000000 1307175.59456294 28587.93159418
0.08100000 1298512.68194671 17568.87741104
0.08200000 1289797.46339832 20875.37292468
0.08300000 1281034.12264686 17755.13377317
0.08400000 1272222.23878249 22709.16802821
0.08500000 1263366.46087282 26075.88497655
0.08600000 1254465.65191554 18007.85527874
0.08700000 1245523.36542762 16440.90919567
0.08800000 1236538.54136786 19809.34836303
0.08900000 1227517.36483133 19885.78224430
0.09000000 1218458.19412506 23284.73718354
0.09100000 1209363.80865441 18358.14347786
0.09200000 1200235.41476237 21766.27026944
0.09300000 1191076.47779411 26870.68660175
0.09400000 1181885.03323340 21894.42126963
0.09500000 1172665.79311793 25329.58232191
0.09600000 1163419.16293590 20313.29953974
0.09700000 1154149.11213306 16965.99274597
0.09800000 1144855.83444373 22101.44292309
0.09900000 1135541.16204691 20439.74187797
0.10000000 1126205.03283509 25593.01057474
0.10100000 1116850.46934404 23922.93817849
0.10200000 1107479.80895672 20532.67662384
0.10300000 1098093.52175512 22269.33766876
0.10400000 1088694.37626051 20576.32467934
0.10500000 1079285.36388679 20592.76571184
0.10600001 1069862.71809624 17171.29743342
0.10700001 1060433.69322821 18896.92930257
0.10800001 1050996.28666563 24057.30613395
0.10900001 1041554.38967832 25778.47235782
0.11000001 1032108.59197319 29213.83507088
0.11100001 1022660.22866532 25771.03897550
0.11200001 1013211.96053107 20608.73224740
0.11300001 1003762.97336561 27462.95624426
0.11400001 994317.94848450 22297.58104463
0.11500001 984876.47117033 22277.90682689
0.11600001 975440.31221385 18830.87611406
0.11700001 966011.86534270 20518.09298618
0.11800001 956589.99421095 20490.15864105
0.11900001 947178.57098803 23868.90111316
0.12000001 937777.82942319 18722.73524637
0.12100001 928391.48654677 22086.43450540
0.12200001 919017.50758053 30520.57286461
0.12300001 909660.03706208 21995.58073247
0.12400001 900318.10632497 20257.15834678
0.12500001 890994.73575880 16839.80129934
0.12600001 881692.23519030 23514.73302062
0.12700001 872410.23032561 20100.33265396
0.12800001 863149.20972506 18372.13179486
0.12900001 853911.94932750 23311.79731537
0.13000001 844699.88664015 16598.35355484
0.13100001 835512.10742039 26469.02481076
0.13200001 826353.05252618 19782.89301005
0.13300001 817223.11565219 21354.04101868
0.13400001 808121.20199544 26183.12817907
0.13500001 799050.94759330 16300.64009945
0.13600001 790011.57104323 17858.21240546
0.13700001 781006.41305526 17783.51686382
0.13800001 772033.63183581 19316.28237941
0.13900001 763098.56062139 19230.08463451
0.14000001 754198.21278087 20736.68083836
0.14100001 745335.80239504 23813.48000964
0.14200001 736510.69016589 22117.41706886
0.14300001 727727.95274845 15718.92452079
0.14400001 718981.17880198 21892.97792721
0.14500001 710279.65828726 23332.68787539
0.14600001 701618.28601926 20111.88911751
0.14700001 693002.61222298 15384.65871714
0.14800001 684429.12385210 16826.69080376
0.14900001 675900.39961117 18249.31165052
0.15000001 667418.54335137 15117.03072017
0.15100001 658983.11227124 15024.81566873
0.15200001 650596.51234084 20903.66692789
0.15300001 642258.11268459 22254.24465468
0.15400001 633966.95690268 17687.67893228
0.15500001 625727.95544942 19034.64530307
0.15600001 617537.90393921 18905.92382136
0.15700001 609402.42319001 17331.40573351
0.15800001 601314.79064781 24380.30933753
0.15900001 593283.11737583 17086.55458692
0.16000001 585302.66228012 19789.08394578
0.16100001 577379.59695752 18239.42232887
0.16200001 569508.96373360 16709.39378473
0.16300001 561695.17455454 17963.01253025
0.16400001 553936.64529196 13709.93261822
0.16500001 546235.29581748 17681.63736039
0.16600001 538590.25333911 17539.19242807
0.16700001 531002.77130347 14719.39751550
0.16800001 523472.49499255 13270.02837462
0.16900001 516002.90786379 17105.49720337
0.17000001 508591.43199806 14349.90793142
0.17100001 501239.61632850 12931.98271194
0.17200001 493947.28896737 17945.10585560
0.17300001 486715.49534001 16514.25753676
0.17400001 479545.70701803 15105.69048445
0.17500001 472435.93909024 17461.23313343
0.17600001 465385.95565956 16062.79701822
0.17700001 458400.06496034 14687.13877501
0.17800001 451475.20141968 18183.16459601
0.17900001 444612.47294971 16806.35227132
0.18000001 437813.19332195 16641.28026422
0.18100001 431077.73841656 14122.10737760
0.18200001 424402.28714517 12814.82766569
0.18300001 417793.07664139 13837.30735203
0.18400001 411245.66656227 17118.10167933
0.18500001 404763.21961893 13551.47323304
0.18600001 398344.04454067 13408.26117269
0.18700001 391988.62461134 14370.30365717
0.18800001 385696.50080114 15308.29484005
0.18900001 379471.04414548 10814.92526912
0.19000001 373305.83960665 11764.73409107
0.19100001 367209.75121675 11633.20546822
0.19200001 361174.75281242 11501.61054678
0.19300001 355206.73955073 14471.12325310
0.19400001 349301.91788451 10217.08158092
0.19500001 343462.25797740 12117.34903405
0.19600001 337686.20569209 10976.49063473
0.19700001 331975.11074437 11831.59350606
0.19800001 326328.75595729 10715.00520824
0.19900001 320747.95388925 14433.65860715
0.20000001 315229.14340400 10454.57503509
0.20100001 309776.91784446 11263.48926516
0.20200001 304387.29926900 9268.59370081
0.20300001 299062.89113202 11896.72237153
0.20400001 293802.49145091 9937.86974305
0.20500001 288605.46517268 8917.90929536
0.20600001 283472.46247927 14963.09463924
0.20700001 278403.04625004 13897.88072574
0.20800001 273396.54111043 11142.27655965
0.20900001 268455.93820906 10147.63494399
0.21000001 263575.96052191 8342.17954487
0.21100001 258759.32587473 10697.11103735
0.21200001 254005.24003407 8927.01458302
0.21300001 249313.32889663 8803.25405952
0.21400001 244684.74410155 10258.40838144
0.21500001 240118.73951676 8557.83228097
0.21600001 235612.80557957 8436.11690262
0.21700001 231169.07457120 10582.92073423
0.21800001 226786.88893879 11174.92448082
0.21900001 222464.23966568 8809.58430729
0.22000001 218202.12980984 7956.74103973
0.22100001 214002.98451783 9264.18963782
0.22200001 209862.22619795 7019.89179825
0.22300001 205781.44198492 9679.95948869
0.22400001 201758.17057659 6809.33857895
0.22500001 197796.96263719 8046.38082057
0.22600001 193892.82144000 8582.66614690
0.22700001 190047.99777276 8449.53438055
0.22800001 186260.27457615 9597.06110138
0.22900001 182529.91856452 7556.73898594
0.23000001 178857.18914780 8676.36265588
0.23100001 175242.57429154 7927.97443588
0.23200001 171682.52501508 6000.30453305
0.23300001 168179.87966400 6493.42546093
0.23400001 164732.85418853 5806.83338478
0.23500001 161339.73872571 6853.71242522
0.23600001 158002.61557169 6740.39189909
0.23700001 154719.47351735 6628.18255898
0.23800001 151490.67493042 7060.22323907
0.23900001 148315.38106651 5873.28936804
0.24000001 145193.12300748 7348.22430298
0.24100001 142124.63291911 6706.86174470
0.24200001 139107.93466207 5577.53290410
0.24300001 136142.93913395 7474.24771201
0.24400001 133229.06391478 8323.48616181
0.24500001 130366.52588525 8658.94505890
0.24600001 127554.35869165 5198.47813439
0.24700001 124793.37421778 4642.31374051
0.24800001 122080.67968045 5927.62768230
0.24900001 119417.08579662 4925.95502215
0.25000001 116802.69830374 4397.62179918
0.25100001 114236.03526325 5181.74680468
0.25200001 111718.19449959 7631.47022731
0.25300001 109247.48502407 4578.56231397
0.25400001 106822.90239265 4494.57383081
0.25500001 104444.67846545 4010.67584283
0.25600001 102112.89545654 3936.45230609
0.25700001 99826.12430225  4249.59831261
0.25800001 97584.27346461  6065.83872556
0.25900001 95387.00984322  5208.13098386
0.26000001 93234.18165070  4015.13022277
0.26100001 91122.78932652  4297.35094797
0.26200001 89056.79474309  3864.61979074
0.26300001 87032.06095795  4480.41071012
0.26400001 85048.96319569  4394.90538110
0.26500001 83108.31354741  4310.82842769
0.26600001 81207.92470009  5529.04181484
0.26700001 79348.87333056  4784.73728825
0.26800001 77529.98572499  4379.66910085
0.26900001 75749.98576403  3374.66202548
0.27000001 74009.62327757  3911.03872718
0.27100001 72307.88425387  3835.21036232
0.27200001 70644.57104015  4628.63251359
0.27300001 69018.29725417  2836.65215139
0.27400001 67428.12370401  4172.11535163
0.27500001 65877.20179460  4090.97442505
0.27600001 64360.25923805  2941.58578769
0.27700001 62880.50949574  2622.11737007
0.27800001 61435.26559608  2828.17258557
0.27900001 60025.05387573  2773.15762031
0.28000001 58649.17680860  3708.09437922
0.28100001 57306.85392491  2424.08003575
0.28200001 55998.47149582  3090.27579576
0.28300001 54722.86833313  2331.19430133
0.28400001 53479.83901302  3200.76851642
0.28500001 52269.05176738  2915.04515504
0.28600001 51088.96445227  2639.25602853
0.28700001 49940.41586589  2804.65388778
0.28800001 48821.96894419  2539.71894469
0.28900001 47735.25897259  2491.78063631
0.29000001 46676.60170078  2444.92051282
0.29100001 45648.61466613  2199.35035872
0.29200001 44648.69891938  2747.23457455
0.29300001 43677.30871811  3274.48798960
0.29400001 42733.63385865  2080.05972653
0.29500001 41818.42654204  2228.08587163
0.29600001 40929.40929893  2188.08632470
0.29700001 40066.70062684  2328.27608364
0.29800001 39230.81825810  2639.25342325
0.29900001 38420.65280846  2247.60829569
0.30000001 37635.67217733  1869.17574717
0.30100001 36876.55475051  2004.60961114
0.30200001 36140.82461812  1971.12066799
0.30300001 35429.52893136  2423.37989363
0.30400001 34742.71580907  1748.42725586
0.30500001 34077.99973010  1720.59828783
0.30600001 33436.46210747  2001.67389883
0.30700001 32817.80894792  1819.41941421
0.30800001 32221.16042840  2389.52137050
0.30900001 31646.06236121  2060.15875725
0.31000001 31093.11801306  2175.74103597
0.31100001 30559.36765689  1859.23201627
0.31200001 30047.25137199  1551.79037058
0.31300001 29554.81925877  1531.23525830
0.31400001 29083.60544587  1923.88059133
0.31500001 28630.57206731  1628.50701629
0.31600002 28196.88303124  2145.21896259
0.31700002 27781.24038458  1590.19827491
0.31800002 27384.52928246  2227.59463995
0.31900002 27005.84473548  1555.53673042
0.32000002 26644.68567767  1924.41251419
0.32100002 26300.96813425  1524.40418524
0.32200002 25974.17418341  2516.89759755
0.32300002 25663.12264084  1496.67338328
0.32400002 25368.84835948  1607.75084091
0.32500002 25089.99208163  1349.59073798
0.32600002 24827.04825977  1704.87348473
0.32700002 24579.21422235  1572.08661610
0.32800002 24346.94766106  1802.28288595
0.32900002 24127.93681714  1313.76622190
0.33000002 23924.86690603  1900.59151702
0.33100002 23733.10175384  1536.48108030
0.33200002 23557.60794908  1647.38360189
0.33300002 23394.00604357  1406.44770994
0.33400002 23244.12508078  1635.22427687
0.33500002 23106.41940743  1630.38903060
0.33600002 22981.09159396  1394.03308211
0.33700002 22867.08811911  1275.29756480
0.33800002 22766.27923255  1389.19842456
0.33900002 22675.84957984  1734.70257501
0.34000002 22597.09585222  1387.00980910
0.34100002 22529.18907112  1502.47169031
0.34200002 22472.87861678  1734.34448939
0.34300002 22425.34407441  1157.14780904
0.34400002 22389.10872765  1622.09100414
0.34500002 22362.00781999  1276.64708691
0.34600002 22345.80786524  1163.09935447
0.34700002 22336.73123621  2215.35710893
0.34800002 22338.46015644  1637.18582241
0.34900002 22348.33621160  1525.27401868
0.35000002 22367.11392431  1177.62860389
0.35100002 22394.04274752  1182.40551307
0.35200002 22428.26927445  1662.60768006
0.35300002 22470.78803712  1551.15857167
0.35400002 22521.36249505  1798.89391449
0.35500002 22578.83596336  1687.99385657
0.35600002 22643.16248300  1697.55797175
0.35700002 22714.34690402  1707.66468113
0.35800002 22792.99303934  1350.14300663
0.35900002 22877.36917128  1482.45359252
0.36000002 22968.72727705  1616.88363325
0.36100002 23065.24605908  1252.44292033
0.36200002 23168.77372631  1387.69376807
0.36300002 23276.11397648  1397.96347164
0.36400002 23389.60700308  1664.75535730
0.36500002 23507.88181603  1806.81588196
0.36600002 23631.65565978  1431.01497626
0.36700002 23759.81118551  1573.84996748
0.36800002 23893.90193660  1587.03304181
0.36900002 24031.24323551  1467.10746902
0.37000002 24172.07897096  2017.76438768
0.37100002 24317.24228950  1628.28262084
0.37200002 24466.95189301  1642.71122791
0.37300002 24619.46606280  1381.15211155
0.37400002 24776.59385577  1811.78851153
0.37500002 24935.83603783  1547.01934107
0.37600002 25099.43129222  1987.12206954
0.37700002 25264.56936483  1575.75126593
0.37800002 25433.48386754  1590.48298900
0.37900002 25604.93398609  2189.22195952
0.38000002 25778.83122640  1620.58630182
0.38100002 25954.59050764  2230.79715981
0.38200002 26132.80782317  1651.46286862
0.38300002 26312.77546779  1515.61593874
0.38400002 26495.34630145  2142.14884995
0.38500002 26678.58310275  1853.62804179
0.38600002 26864.47163775  2183.27571343
0.38700002 27050.67219511  2361.52379451
0.38800002 27238.24991643  1748.28715371
0.38900002 27427.21328531  2406.73807981
0.39000002 27617.83237822  2267.70032401
0.39100002 27808.29583965  1962.15344741
0.39200002 28000.42785935  1815.68783056
0.39300002 28192.50182298  2499.26540501
0.39400002 28386.08404245  2354.62578288
0.39500002 28579.01758748  2206.87184266
0.39600002 28772.28911776  1713.38989814
0.39700002 28965.45443324  2420.93279623
0.39800002 29159.87709466  2443.30621752
0.39900002 29353.09172050  2113.42270401
0.40000002 29546.04123312  2310.35280369
0.40100002 29738.86129176  1972.57876294
0.40200002 29932.21923451  2171.28328615
0.40300002 30124.03153987  2190.61967737
0.40400002 30315.29064640  2025.81939343
0.40500002 30506.01765025  2415.16153180
0.40600002 30696.10218725  2623.59597825
0.40700002 30885.07159831  2457.21641279
0.40800002 31073.33662949  2478.25408031
0.40900002 31259.84806697  1922.48074721
0.41000002 31446.02283857  2520.24161981
0.41100002 31630.63096649  2541.20501226
0.41200002 31813.11504551  2956.23385568
0.41300002 31994.97648722  2384.26576080
0.41400002 32174.93680313  2403.46789308
0.41500002 32354.02166836  2422.66925732
0.41600002 32530.16492488  2848.66667745
0.41700002 32705.39554842  2665.81691747
0.41800002 32879.65859156  2066.48664040
0.41900002 33050.03492680  2290.36752895
0.42000002 33219.47200889  2727.15268379
0.42100002 33387.32293015  2958.78469827
0.42200002 33552.89719658  2128.93142800
0.42300002 33715.94323460  2573.20090960
0.42400002 33876.75533117  2591.57190564
0.42500002 34035.76598439  2392.37410441
0.42600002 34191.04298085  2408.93004737
0.42700002 34345.42213036  2645.97144631
0.42800002 34496.87335436  2663.84868665
0.42900002 34646.34654497  2681.62734966
0.43000002 34793.22641298  2924.19685245
0.43100002 34936.25348991  2716.64320011
0.43200002 35077.49234335  2506.11155923
0.43300002 35215.78521381  2521.80249866
0.43400002 35351.84209166  2306.70780579
0.43500002 35484.39831721  2552.74773591
0.43600002 35615.38704485  3034.96535085
0.43700002 35742.58610647  2583.11682033
0.43800002 35866.06578691  2361.78054399
0.43900002 35987.88117892  2850.24032444
0.44000002 36105.93520238  3104.93004487
0.44100002 36221.63298019  2641.64381843
0.44200002 36334.12754385  3138.72375662
0.44300002 36443.75931256  3640.73172786
0.44400002 36549.79994998  4147.48874588
0.44500002 36652.07576846  2942.42878214
0.44600002 36752.00131573  3449.91052700
0.44700002 36849.06000280  2971.50833945
0.44800002 36941.60813154  4478.43136603
0.44900002 37032.56648208  2749.66819161
0.45000002 37119.98852841  3766.75101443
0.45100002 37202.87119028  2774.59026487
0.45200002 37283.44778032  3800.11559511
0.45300002 37360.03457476  2798.64032263
0.45400002 37434.11022734  2554.87814410
0.45500002 37504.68734119  3847.98110358
0.45600002 37571.69335584  2833.09367177
0.45700002 37635.22053852  3619.75568295
0.45800002 37694.92989702  3114.35525569
0.45900002 37751.65728949  3386.32381936
0.46000002 37805.56182487  3659.95661373
0.46100002 37854.82519767  3148.00741264
0.46200002 37901.75018691  2895.50434276
0.46300002 37944.74984091  3961.43207114
0.46400002 37983.90094043  3974.06582424
0.46500002 38020.68106219  2923.41030543
0.46600002 38052.96630311  3465.29354063
0.46700002 38082.05427261  3475.36843764
0.46800002 38108.35350827  4289.47647420
0.46900002 38130.58282398  3225.84745980
0.47000002 38148.84578106  3503.78090683
0.47100002 38164.33057237  3782.84862563
0.47200002 38176.16162190  2979.45867500
0.47300002 38185.36082425  3257.97513994
0.47400002 38189.35001723  2720.99131770
0.47500002 38191.39050745  3817.61157607
0.47600002 38190.22811036  2732.51095081
0.47700002 38184.32845257  3011.59812780
