# SAXS profile: number of points = 501, q_min = 0, q_max = 0.5, delta_q = 0.001
#    q    intensity    error
0.00000000 1700912.83420644 357.19169518
0.00100000 1700843.16382294 765.37944190
0.00200000 1700634.10191711 841.81390710
0.00300000 1700285.80668366 1632.27443256
0.00400000 1699798.16710496 1657.30327590
0.00500000 1699171.63689118 1835.10544048
0.00600000 1698405.92353891 2318.32418001
0.00700000 1697501.70143831 2240.70233902
0.00800000 1696458.45269915 3206.30661097
0.00900000 1695277.47510542 3305.79121777
0.01000000 1693957.98561709 3633.54003604
0.01100000 1692501.20379150 4265.10321925
0.01200000 1690906.60480590 3626.99482633
0.01300000 1689175.55803252 3547.26882832
0.01400000 1687307.32360904 3796.44164642
0.01500000 1685303.73151688 4853.67496290
0.01600000 1683163.52242066 4721.27389145
0.01700000 1680888.96533911 5899.92053300
0.01800000 1678479.50306159 6218.76683867
0.01900000 1675935.99197908 6033.36984337
0.02000000 1673258.92896706 6324.91903761
0.02100000 1670450.04600334 6063.73394191
0.02200000 1667507.62571380 7478.77204110
0.02300000 1664434.35009834 7190.35671972
0.02400000 1661230.17579487 6229.61344329
0.02500000 1657896.56974317 7112.37660902
0.02600000 1654433.62700835 8040.54779502
0.02700000 1650842.44204736 9706.95400383
0.02800000 1647122.83176297 10747.47697013
0.02900000 1643277.50931114 8873.69895771
0.03000000 1639306.52181087 10671.88594752
0.03100000 1635210.45840766 10203.71372997
0.03200000 1630989.96963710 10495.42093801
0.03300000 1626648.13590722 12443.85881336
0.03400000 1622182.95819960 15329.62966230
0.03500000 1617597.80352385 11355.53710511
0.03600000 1612892.08496852 10741.86178231
0.03700000 1608068.03203641 13748.98230977
0.03800000 1603126.75341215 12191.77952393
0.03900000 1598069.62837993 10547.26003575
0.04000000 1592895.69445044 10775.93987230
0.04100000 1587608.45951691 10001.93375871
0.04200000 1582208.65900231 11225.77095642
0.04300000 1576696.44835197 15609.29556324
0.04400000 1571075.01281926 15907.13524355
0.04500000 1565344.36888798 12961.05197663
0.04600000 1559505.07452917 16491.76692980
0.04700000 1553559.65916891 12304.19307286
0.04800000 1547509.04368820 13649.03040039
0.04900000 1541355.56179908 15028.21742707
0.05000000 1535098.87637581 12917.85764624
0.05100000 1528742.38398999 14309.02938072
0.05200000 1522284.18288350 13312.37579969
0.05300000 1515729.68043145 15960.63427899
0.05400000 1509077.53614618 14939.86830455
0.05500000 1502331.55741526 12619.58567098
0.05600000 1495490.01469585 12786.44022232
0.05700000 1488558.32823801 19425.68709027
0.05800000 1481534.90681084 15733.90144498
0.05900000 1474421.62154958 15923.75425647
0.06000000 1467221.56500925 20137.61692056
0.06100000 1459936.26443342 17650.63026184
0.06200000 1452565.67197502 20590.11936270
0.06300000 1445113.57613542 18035.01827340
0.06400000 1437577.96363849 19622.94012137
0.06500000 1429964.89229554 15572.31840554
0.06600000 1422272.46997744 14293.83899206
0.06700000 1414503.52002283 15870.73023739
0.06800000 1406661.39308684 18926.62992992
0.06900000 1398746.05390857 16155.51767903
0.07000000 1390757.85701699 14811.57187083
0.07100000 1382701.27731685 19413.12684280
0.07200000 1374575.58416277 16556.76368687
0.07300000 1366385.10669325 22750.31309242
0.07400000 1358129.56780713 15278.95835387
0.07500000 1349810.89483997 21542.98289142
0.07600000 1341429.89183135 17042.86757470
0.07700000 1332991.36391259 20274.79959577
0.07800000 1324494.15581798 17264.78213074
0.07900000 1315940.00376514 17370.40886444
0.08000000 1307333.27379041 22237.74003037
0.08100000 1298673.89696192 20765.79658672
0.08200000 1289962.18988197 22484.04202471
0.08300000 1281202.24143019 20986.09369955
0.08400000 1272393.80653683 19467.62615380
0.08500000 1263541.57833802 22819.56197605
0.08600000 1254644.35045622 19647.73145063
0.08700000 1245705.68990297 19731.97905463
0.08800000 1236724.33366482 21463.35181875
0.08900000 1227706.71936492 23203.65808587
0.09000000 1218651.30657208 19961.50933935
0.09100000 1209560.40392518 28376.28840924
0.09200000 1200435.57672670 20095.29249862
0.09300000 1191280.32086367 23515.87463891
0.09400000 1182092.48405076 21898.26429620
0.09500000 1172876.90207082 18578.37100204
0.09600000 1163633.95509073 25396.31226368
0.09700000 1154367.46700707 25453.80384416
0.09800000 1145077.83782292 23806.16936765
0.09900000 1135766.88437988 22147.45528684
0.10000000 1126434.27878182 25598.22018913
0.10100000 1117083.43059828 18800.51502119
0.10200000 1107716.62615382 27382.75628651
0.10300000 1098333.74838114 17134.00728074
0.10400000 1088938.31488487 18865.85719293
0.10500000 1079533.02561020 17164.57591478
0.10600001 1070114.06870052 22327.93109404
0.10700001 1060688.56208567 25774.73327158
0.10800001 1051254.79389422 24063.22336469
0.10900001 1041816.40612999 27503.95441632
0.11000001 1032374.51167547 17189.03642848
0.11100001 1022929.63501394 18903.74054492
0.11200001 1013485.07496573 25767.85924408
0.11300001 1004039.64299737 22319.80231467
0.11400001 994598.18875147 20588.18347654
0.11500001 985160.16216666 18855.96639176
0.11600001 975727.64376404 18836.42304990
0.11700001 966302.67146328 18813.91389943
0.11800001 956884.44492536 18788.42696101
0.11900001 947476.47479787 22170.95055456
0.12000001 938079.24470791 22133.98082150
0.12100001 928696.37821179 23793.20233064
0.12200001 919325.72674818 18657.71650334
0.12300001 909971.86481236 22003.12072783
0.12400001 900633.32103109 21952.93823450
0.12500001 891313.42780341 21899.57195305
0.12600001 882014.26747545 23523.32162207
0.12700001 872735.61227118 16756.52454528
0.12800001 863477.97923984 16708.29968574
0.12900001 854243.94811682 19989.30932807
0.13000001 845035.13555490 21586.42355522
0.13100001 835850.64765217 19859.81232436
0.13200001 826694.70606713 19791.07219620
0.13300001 817568.11801907 19719.74393627
0.13400001 808469.39951878 19645.80733452
0.13500001 799402.18954090 17938.58597907
0.13600001 790365.80732357 17866.21991696
0.13700001 781363.72699487 19409.07589375
0.13800001 772394.01864839 17714.85765306
0.13900001 763461.84364132 19239.23936705
0.14000001 754564.49610514 22342.65578337
0.14100001 745705.04943807 20648.57379279
0.14200001 736882.95116754 18967.36805765
0.14300001 728102.89357497 15727.02324303
0.14400001 719359.02304545 17210.66543819
0.14500001 710660.03535642 20232.49216101
0.14600001 702001.54478818 21670.78870992
0.14700001 693388.64319260 20011.19718660
0.14800001 684817.74608819 18366.81281661
0.14900001 676291.59696103 19781.53014442
0.15000001 667812.34090030 24201.52037612
0.15100001 659379.40114042 18040.62126645
0.15200001 650995.13386376 16434.37292988
0.15300001 642659.13776382 17814.51213946
0.15400001 634370.42921503 19173.84712786
0.15500001 626133.86578840 16116.68646599
0.15600001 617945.94600701 20373.67880139
0.15700001 609812.70330691 14452.56175049
0.15800001 601727.30390882 15786.31656314
0.15900001 593697.80813716 19948.24729498
0.16000001 585719.39237398 18388.66119157
0.16100001 577798.28985660 16848.59892754
0.16200001 569929.57921898 15328.25675668
0.16300001 562117.70211065 13828.09612472
0.16400001 554361.05686512 17836.56784669
0.16500001 546661.45480803 13611.87086735
0.16600001 539018.22203468 20253.61064919
0.16700001 531432.25339539 14731.30275965
0.16800001 523903.72039522 21249.53590256
0.16900001 516435.72780131 14486.02284883
0.17000001 509025.55176454 20890.40963086
0.17100001 501675.33777536 16826.19162354
0.17200001 494384.34869345 19243.91168165
0.17300001 487153.74095558 13986.18456332
0.17400001 479985.40190374 13859.57913450
0.17500001 472876.68642066 16229.12864442
0.17600001 465828.00898032 13604.50764480
0.17700001 458843.14318840 13476.22375193
0.17800001 451919.28800717 13347.43680172
0.17900001 445057.33562209 14419.85835526
0.18000001 438259.01856391 16658.22608247
0.18100001 431524.44534819 18848.98866317
0.18200001 424849.66862048 12828.33634998
0.18300001 418241.08156804 15006.49071556
0.18400001 411694.41346383 12566.97256466
0.18500001 405212.53649415 22610.86060456
0.18600001 398793.92652098 13423.40420086
0.18700001 392438.72264597 12173.44975161
0.18800001 386147.09170546 12041.99762377
0.18900001 379921.84997939 17324.43717760
0.19000001 373756.74084605 12849.75735742
0.19100001 367660.97271685 11647.50016601
0.19200001 361625.90663587 11515.97754096
0.19300001 355657.91172772 12419.57486439
0.19400001 349753.07124064 11253.30559893
0.19500001 343913.31437441 12133.26230449
0.19600001 338136.94725375 11990.33671624
0.19700001 332425.58575862 11847.64843633
0.19800001 326778.89406559 10729.78549372
0.19900001 321197.71585042 13490.30470327
0.20000001 315678.33008757 11421.24252235
0.20100001 310225.56010784 13159.76888174
0.20200001 304835.24409002 15779.79715613
0.20300001 299510.15947277 10998.01357566
0.20400001 294248.86890788 9048.15314659
0.20500001 289051.15698707 10718.01740769
0.20600001 283917.25685940 11460.32061484
0.20700001 278846.81657284 8700.02108831
0.20800001 273839.27983160 11160.32037709
0.20900001 268897.39545168 11011.34886427
0.21000001 264016.32098599 14205.39882217
0.21100001 259198.37517001 9066.75959206
0.21200001 254442.93972014 8942.39753921
0.21300001 249749.55038636 8016.96094641
0.21400001 245119.48605850 8695.61417902
0.21500001 240551.87400196 7793.88108614
0.21600001 236044.39002214 8451.56978432
0.21700001 231598.95263216 11359.92916370
0.21800001 227214.96995718 9703.21575079
0.21900001 222890.48896469 11033.07972541
0.22000001 218626.42702098 7972.21303827
0.22100001 214425.29346249 7854.39887091
0.22200001 210282.47563418 7737.34405682
0.22300001 206199.46019294 7621.13240910
0.22400001 202173.97273361 7505.70909265
0.22500001 198210.55058743 8063.20557918
0.22600001 194304.10486948 9924.08262550
0.22700001 190456.87765750 7164.98807630
0.22800001 186666.69408276 8335.60161846
0.22900001 182933.80406021 6942.33819239
0.23000001 179258.41582293 6211.30440201
0.23100001 175641.11332891 7334.77323950
0.23200001 172078.30335430 7216.96438400
0.23300001 168572.77262841 7100.28551891
0.23400001 165122.96950323 8730.87742541
0.23500001 161726.88933460 9160.21144515
0.23600001 158386.72949539 5630.64849987
0.23700001 155100.48153329 5537.08745263
0.23800001 151868.60742692 6533.38780053
0.23900001 148690.06099397 6423.41093876
0.24000001 145564.50838740 7367.02011795
0.24100001 142492.71423297 5689.73434845
0.24200001 139472.64435370 7625.66719075
0.24300001 136504.21233235 5495.65984846
0.24400001 133586.84922479 5400.24863536
0.24500001 130720.70356437 5305.95360867
0.24600001 127904.85074019 5212.76243851
0.24700001 125140.26424867 6051.78346535
0.24800001 122423.83922587 5029.78367254
0.24900001 119756.38866626 6736.29718115
0.25000001 117138.17021373 5292.30278063
0.25100001 114567.66319617 5196.78944843
0.25200001 112045.81896705 5102.56683716
0.25300001 109571.07781228 4174.65826215
0.25400001 107142.36422354 4508.01518799
0.25500001 104760.01978980 4022.78495025
0.25600001 102424.13232173 4738.14058538
0.25700001 100133.03946413 4650.17857273
0.25800001 97886.96726603  4563.49062986
0.25900001 95685.25365290  4104.89757593
0.26000001 93528.18885345  3661.62876686
0.26100001 91412.31717522  4311.00508196
0.26200001 89341.80221502  4934.34796981
0.26300001 87312.57774829  4149.09389092
0.26400001 85324.96660844  3730.83434149
0.26500001 83379.69988486  3992.22021939
0.26600001 81474.68732372  3263.06138172
0.26700001 79610.85767119  4480.49928175
0.26800001 77787.29851088  4394.20470082
0.26900001 76002.54905685  5232.77575019
0.27000001 74257.44255671  3924.13473761
0.27100001 72550.75417358  2960.07091036
0.27200001 70882.57524594  3192.90575305
0.27300001 69251.43311020  3700.10424618
0.27400001 67656.31580609  2790.82315908
0.27500001 66100.32896661  3283.86449847
0.27600001 64578.42890328  4024.85077188
0.27700001 63093.56829820  2631.00192255
0.27800001 61643.39945403  3611.68694494
0.27900001 60227.96608515  4300.27698200
0.28000001 58846.97422633  3720.60012155
0.28100001 57499.52211676  2675.45289072
0.28200001 56185.91883384  3577.63855107
0.28300001 54905.17067781  2572.85641974
0.28400001 53656.84746096  2981.97943878
0.28500001 52440.80054504  4049.47880976
0.28600001 51255.40034135  2868.50861588
0.28700001 50101.63369671  2813.70788159
0.28800001 48977.80507030  2547.82554035
0.28900001 47885.78184674  2291.33476982
0.29000001 46821.78737572  3065.65667354
0.29100001 45788.50829267  2807.75146141
0.29200001 44783.11166014  2558.68320582
0.29300001 43806.33079550  2125.04520748
0.29400001 42857.28188213  2844.65221958
0.29500001 41936.68187505  2234.38651607
0.29600001 41042.14569173  2559.79874797
0.29700001 40173.96983244  2514.08715113
0.29800001 39332.76793895  2646.11208836
0.29900001 38517.10379945  2426.57765424
0.30000001 37726.72857951  2384.70662640
0.30100001 36962.07313008  1841.82019126
0.30200001 36220.99495070  1975.49315813
0.30300001 35504.17414075  1942.78850096
0.30400001 34811.84904731  1911.17060318
0.30500001 34141.74116045  1880.52719215
0.30600001 33494.75941451  1542.43374406
0.30700001 32870.67141602  2277.93763697
0.30800001 32268.56194131  2243.47187518
0.30900001 31688.02304893  2062.89039815
0.31000001 31129.73064172  2178.30300479
0.31100001 30590.49836455  1861.12600861
0.31200001 30072.93885249  1694.30945517
0.31300001 29575.15905035  1950.18608011
0.31400001 29098.49936839  1374.90416025
0.31500001 28640.14150203  2036.31415721
0.31600002 28201.07734989  1340.96129148
0.31700002 27780.11879631  1590.13407519
0.31800002 27378.07038080  1310.04072975
0.31900002 26994.07347526  1295.71558816
0.32000002 26627.58574311  1410.33014566
0.32100002 26278.63861756  1903.88745799
0.32200002 25946.57555521  1257.11164517
0.32300002 25630.31516240  1245.63337587
0.32400002 25330.87535099  1358.36825502
0.32500002 25046.82963633  1224.79002721
0.32600002 24778.69483140  1215.39503903
0.32700002 24525.88666246  1206.67368093
0.32800002 24288.41282422  1558.22319852
0.32900002 24064.38843151  1310.30601214
0.33000002 23856.24691120  1539.80152980
0.33100002 23659.56270960  1178.24627873
0.33200002 23479.06416363  1641.89103471
0.33300002 23310.41745971  1634.99275805
0.33400002 23155.72294533  1396.29015973
0.33500002 23013.26561533  1623.81609872
0.33600002 22883.01268765  1503.75724998
0.33700002 22764.23841542  1384.97633078
0.33800002 22658.69673932  1497.85321889
0.33900002 22563.52537754  1726.10977313
0.34000002 22480.17032030  1149.86076634
0.34100002 22407.64015609  1264.46319389
0.34200002 22346.75942027  1264.71490929
0.34300002 22294.67984276  1150.40553437
0.34400002 22254.04447966  1727.47028455
0.34500002 22222.40678270  1268.67726331
0.34600002 22201.81173540  1502.28566223
0.34700002 22188.40902754  1968.99951036
0.34800002 22185.88140934  1161.43094679
0.34900002 22191.52715532  1281.56075392
0.35000002 22206.03141685  1753.72141421
0.35100002 22228.88406338  1525.79067438
0.35200002 22259.01260159  1414.33772769
0.35300002 22297.46495301  1302.39498959
0.35400002 22344.11169110  1903.71840625
0.35500002 22397.64551813  1554.84462551
0.35600002 22458.08223225  1563.41946865
0.35700002 22525.47951187  1330.58013779
0.35800002 22600.32710492  1217.02767224
0.35900002 22681.00288607  1714.68389940
0.36000002 22768.70846685  1602.80330844
0.36100002 22861.69371798  1986.22404430
0.36200002 22961.69908358  1375.29103175
0.36300002 23065.55901257  1385.31753991
0.36400002 23175.60479274  1522.63730701
0.36500002 23290.59003714  1917.98018041
0.36600002 23411.10876979  1417.65975871
0.36700002 23535.98100969  1299.18621328
0.36800002 23666.96204443  1702.95633457
0.36900002 23801.31592615  1585.16771577
0.37000002 23939.07818830  1332.20976428
0.37100002 24081.29174021  1881.23059986
0.37200002 24228.05283961  1897.78346882
0.37300002 24377.79768932  1504.35396667
0.37400002 24532.15815610  1517.92735781
0.37500002 24688.74730333  2227.91266219
0.37600002 24849.69508948  1405.25032388
0.37700002 25012.30537098  1701.83733806
0.37800002 25178.74622816  1574.55296997
0.37900002 25347.75984998  1589.30461788
0.38000002 25519.31517054  1750.11471730
0.38100002 25692.86511257  1766.64148883
0.38200002 25868.84290925  2377.86415287
0.38300002 26046.69925262  1800.34793763
0.38400002 26227.12524270  1817.53986542
0.38500002 26408.44800487  2140.66889669
0.38600002 26592.36045627  2161.16123667
0.38700002 26776.87684126  2025.93859779
0.38800002 26962.56146292  1573.26553590
0.38900002 27149.79770727  1905.91588934
0.39000002 27338.81616144  1924.10597260
0.39100002 27527.68921308  1942.35384290
0.39200002 27718.36020108  1633.99741127
0.39300002 27909.01509604  1979.30744438
0.39400002 28101.24540843  2164.49853013
0.39500002 28292.96953642  2352.84345812
0.39600002 28485.03152067  1696.28370742
0.39700002 28677.03409739  1712.01901673
0.39800002 28870.37174917  2419.04856347
0.39900002 29062.68926576  1918.13758242
0.40000002 29254.75700603  2287.57583247
0.40100002 29446.67132980  1775.63436532
0.40200002 29639.37467993  2866.72045487
0.40300002 29830.44968174  2169.27040364
0.40400002 30021.16721955  2006.16459450
0.40500002 30211.27675771  3311.76031509
0.40600002 30400.95940334  2412.77225737
0.40700002 30589.40059968  2059.27854594
0.40800002 30777.45729046  2643.47593193
0.40900002 30963.63413864  3427.67446156
0.41000002 31149.69532237  2112.41668838
0.41100002 31334.13154306  2323.73930534
0.41200002 31516.60482139  2147.69913732
0.41300002 31698.58628335  2755.87522206
0.41400002 31878.57111237  2579.77348951
0.41500002 32057.83286595  2200.44975218
0.41600002 32234.22780015  2621.12635777
0.41700002 32409.76889924  2641.72038815
0.41800002 32584.46267371  2867.10700652
0.41900002 32755.31654706  2889.01905634
0.42000002 32925.16630820  2495.06922106
0.42100002 33093.72386935  2932.76594827
0.42200002 33259.92628347  2110.34242268
0.42300002 33423.68159085  2550.89549989
0.42400002 33585.33042707  2569.27789942
0.42500002 33745.19877562  3018.84562552
0.42600002 33901.38458350  2822.79892111
0.42700002 34056.77343307  2405.08945381
0.42800002 34209.27364788  2201.36686356
0.42900002 34359.81099728  3545.93266295
0.43000002 34507.92747213  2454.03137847
0.43100002 34652.14663773  2470.00512938
0.43200002 34794.71992863  2485.90888310
0.43300002 34934.36581534  3183.91825129
0.43400002 35071.91222239  2517.28661905
0.43500002 35205.90605048  3453.69954722
0.43600002 35338.51126097  2779.72742752
0.43700002 35467.26961155  3029.25964108
0.43800002 35592.46918908  2578.14062789
0.43900002 35716.06812532  2592.98666878
0.44000002 35835.87575790  3555.81494059
0.44100002 35953.42086704  2860.45429974
0.44200002 36067.82147384  3115.71890567
0.44300002 36179.38329395  2891.45644988
0.44400002 36287.60001832  2664.41715761
0.44500002 36391.78982660  3651.91628217
0.44600002 36493.85318884  3180.98686396
0.44700002 36593.12530946  2704.96395107
0.44800002 36687.85598440  2718.01993942
0.44900002 36781.12266879  3475.81625693
0.45000002 36870.93714594  3242.61472097
0.45100002 36956.11590658  2505.62477721
0.45200002 37039.11835359  2516.80821140
0.45300002 37118.16269529  2780.52169928
0.45400002 37194.76166772  2792.39686454
0.45500002 37267.93225198  3568.77736159
0.45600002 37337.59197313  4095.18728170
0.45700002 37403.69461383  2826.59733593
0.45800002 37466.15794795  3611.36313576
0.45900002 37525.58477592  3107.11856671
0.46000002 37582.27425941  2858.69582703
0.46100002 37634.41863314  3390.48493535
0.46200002 37684.20955831  3402.31902122
0.46300002 37730.09211190  3413.81889608
0.46400002 37772.14711400  3424.98960189
0.46500002 37811.99832426  2643.05880813
0.46600002 37847.26627542  3446.56146672
0.46700002 37879.38168380  3456.87253631
0.46800002 37908.82422252  2666.88591045
0.46900002 37934.16910551  3209.23085843
0.47000002 37955.58997699  2949.71881487
0.47100002 37974.22174959  3495.14753549
0.47200002 37989.28054846  4851.61124880
0.47300002 38001.70034431  3512.49732931
0.47400002 38008.91737964  3249.76258999
0.47500002 38014.27206562  3257.06298496
0.47600002 38016.48493593  2720.07962609
0.47700002 38013.93577469  3543.27912150
