# SAXS profile: number of points = 501, q_min = 0, q_max = 0.5, delta_q = 0.001
#    q    intensity    error
0.00000000 1682732.95097188 353.37391970
0.00100000 1682663.85618978 605.75900261
0.00200000 1682456.52185630 757.10545881
0.00300000 1682111.10489610 1513.90004834
0.00400000 1681627.49967157 1261.22067268
0.00500000 1681006.13544678 1815.48669814
0.00600000 1680246.76706748 2117.11101270
0.00700000 1679350.00833017 2015.22009375
0.00800000 1678315.38736585 2492.29845546
0.00900000 1677144.17167704 2767.28800156
0.01000000 1675835.59921959 3041.64174392
0.01100000 1674390.85559462 3918.07477268
0.01200000 1672809.45516948 4566.77001284
0.01300000 1671092.73957766 4562.08338026
0.01400000 1669239.98710898 4131.36915124
0.01500000 1667252.96844863 5601.97022344
0.01600000 1665130.51361463 4670.69129949
0.01700000 1662874.80316398 4938.73838694
0.01800000 1660485.36054644 6625.33688670
0.01900000 1657962.98332136 6466.05592672
0.02000000 1655308.12416753 7821.33124049
0.02100000 1652522.57405416 8725.31958660
0.02200000 1649604.56723985 6829.36321865
0.02300000 1646556.88336416 10076.92858487
0.02400000 1643379.40348128 8011.47495727
0.02500000 1640073.53645906 8315.17320961
0.02600000 1636639.45900656 10605.42417944
0.02700000 1633078.22423017 8230.71462710
0.02800000 1629389.61835742 8505.41419788
0.02900000 1625576.45774947 7315.09439574
0.03000000 1621638.68773787 9048.74429351
0.03100000 1617576.85257677 13199.42772437
0.03200000 1613391.68206390 11180.80487167
0.03300000 1609086.26752282 9847.60841122
0.03400000 1604658.51433852 12636.68638348
0.03500000 1600111.83177242 12096.84600681
0.03600000 1595445.71046531 8854.72410229
0.03700000 1590662.21190789 11786.80753535
0.03800000 1585762.55787238 10204.38253216
0.03900000 1580748.00155376 13278.28382797
0.04000000 1575617.73005762 10659.05443777
0.04100000 1570375.18569898 14840.04619294
0.04200000 1565021.02413451 11103.82468137
0.04300000 1559555.37816733 12351.67916842
0.04400000 1553981.68529398 11538.31454917
0.04500000 1548299.69808193 12819.92209579
0.04600000 1542509.97723166 11962.16542952
0.04700000 1536615.17759633 11063.62979324
0.04800000 1530616.04298333 12375.03128331
0.04900000 1524514.99521873 14864.02189527
0.05000000 1518311.76008686 17422.62825830
0.05100000 1512009.58112578 12973.04281040
0.05200000 1505606.65133477 13166.53077950
0.05300000 1499108.44285261 15785.61263913
0.05400000 1492513.40238451 14775.88337266
0.05500000 1485825.37304987 19969.49394535
0.05600000 1479042.72981401 15174.97911602
0.05700000 1472170.87263066 23054.19694153
0.05800000 1465208.02999664 14263.80083803
0.05900000 1458156.40488441 14435.74908259
0.06000000 1451018.65383361 14604.50343314
0.06100000 1443796.50244222 14770.03891021
0.06200000 1436490.03609392 14932.31462319
0.06300000 1429102.80197123 15091.32629442
0.06400000 1421632.83048940 18019.19696915
0.06500000 1414086.30106910 15399.40053899
0.06600000 1406461.22482007 22615.89755327
0.06700000 1398760.38465510 18547.56356853
0.06800000 1390987.06960851 17276.06021321
0.06900000 1383141.38405252 14522.98521250
0.07000000 1375223.58634141 19039.97144451
0.07100000 1367238.21508064 17719.40809738
0.07200000 1359184.37364677 16371.37654752
0.07300000 1351066.38473688 20995.57260257
0.07400000 1342884.22275800 18128.93785683
0.07500000 1334639.52176592 16736.38038742
0.07600000 1326333.21277876 19914.89412350
0.07700000 1317970.10028526 15420.25089637
0.07800000 1309548.99356730 17069.97193167
0.07900000 1301071.51333000 18735.43067071
0.08000000 1292542.11072437 18845.26485841
0.08100000 1283960.71231318 23689.07625363
0.08200000 1275327.58959670 20641.17800621
0.08300000 1266646.76973522 20747.67506199
0.08400000 1257918.22130291 22453.84130421
0.08500000 1249146.43122970 19336.78766320
0.08600000 1240330.19956696 21042.20282362
0.08700000 1231473.18381142 19506.53614755
0.08800000 1222573.92116842 24482.04392117
0.08900000 1213638.81289755 24576.18711551
0.09000000 1204666.66050423 19732.44082600
0.09100000 1195659.52557661 21450.13289660
0.09200000 1186618.91993479 19864.00165305
0.09300000 1177548.30009384 19924.11817387
0.09400000 1168445.59751135 18315.38560177
0.09500000 1159315.74238854 23371.80646509
0.09600000 1150158.84730840 16734.81201500
0.09700000 1140978.95441595 18449.63056027
0.09800000 1131776.29816660 20168.25458159
0.09900000 1122552.81826593 21889.78098550
0.10000000 1113307.95917582 23613.26292458
0.10100000 1104045.41572928 16891.89565511
0.10200000 1094767.16595376 18605.56886052
0.10300000 1085473.35318485 20320.06212749
0.10400000 1076167.12240952 20339.55957042
0.10500000 1066851.46393012 16962.93907458
0.10600001 1057522.46112933 23762.53081969
0.10700001 1048187.53750738 22074.83057870
0.10800001 1038844.26678593 18683.61501743
0.10900001 1029496.91413630 20384.03985929
0.11000001 1020146.02688656 20382.51857659
0.11100001 1010792.71751279 22075.71398966
0.11200001 1001440.18393847 25461.61787530
0.11300001 992086.56557789 18661.14917710
0.11400001 982737.42457859 20342.66564660
0.11500001 973391.89906483 27099.23174601
0.11600001 964051.93782479 27070.57968891
0.11700001 954719.81900200 16898.54159217
0.11800001 945394.68450172 20250.35509578
0.11900001 936079.89085909 25274.15824365
0.12000001 926776.14842728 18503.08667494
0.12100001 917486.62966906 21827.00794806
0.12200001 908209.84430335 16756.47241682
0.12300001 898949.67650226 21736.60420193
0.12400001 889705.15822465 18350.16975300
0.12500001 880479.19248767 21633.37477880
0.12600001 871274.12589924 23236.88203273
0.12700001 862089.71943081 16552.12339311
0.12800001 852926.34844760 29707.42611652
0.12900001 843786.68655971 19744.60939610
0.13000001 834672.07141906 18041.43767410
0.13100001 825582.07728975 24519.78885131
0.13200001 816520.36614185 21176.45669415
0.13300001 807488.23010272 16230.51419022
0.13400001 798483.91054252 27487.80991636
0.13500001 789511.02082466 25769.64093471
0.13600001 780569.06631319 22456.97309669
0.13700001 771661.21669664 15973.38793882
0.13800001 762785.77298344 19084.90094001
0.13900001 753947.76202533 20582.77487394
0.14000001 745144.56428743 20487.75076130
0.14100001 736379.05115804 20390.33688823
0.14200001 727650.83184380 21851.35551090
0.14300001 718964.51582858 15529.63427439
0.14400001 710314.28594679 21629.07102732
0.14500001 701709.00388939 16904.17070110
0.14600001 693143.70868583 25982.49314580
0.14700001 684624.15049051 24317.85097265
0.14800001 676146.21170034 21156.61596224
0.14900001 667713.11871163 16525.90046782
0.15000001 659326.45386650 20907.24283857
0.15100001 650986.19977081 19295.23187165
0.15200001 642694.09069625 20649.76210847
0.15300001 634450.23744507 24914.86200018
0.15400001 626253.46597665 16016.43314818
0.15500001 618108.53183733 17356.48839310
0.15600001 610011.82889468 14365.77924846
0.15700001 601969.80427353 17120.02204155
0.15800001 593975.28402246 16999.57343108
0.15900001 586036.40462040 15471.36181224
0.16000001 578148.25548331 20943.42154346
0.16100001 570316.98336949 20788.05502510
0.16200001 562538.05456789 15129.46169181
0.16300001 554815.47629277 17742.99976945
0.16400001 547147.87756341 16250.29273080
0.16500001 539536.88011297 13434.46894907
0.16600001 531982.17285733 13326.15405924
0.16700001 524484.10294805 17182.10002383
0.16800001 517043.25386493 17039.16123565
0.16900001 509662.57592427 12996.39629973
0.17000001 502339.25377299 15462.00296124
0.17100001 495075.41324352 21714.00865022
0.17200001 487870.67919077 12660.24472285
0.17300001 480725.73708400 20075.10772866
0.17400001 473642.60969198 14919.74290990
0.17500001 466618.79654780 20941.85257810
0.17600001 459654.55028045 12203.82888632
0.17700001 452753.72429805 13297.37751068
0.17800001 445913.44000987 13170.05407274
0.17900001 439134.54813685 14227.96003167
0.18000001 432418.94179853 15262.22727169
0.18100001 425766.47917056 12785.76797345
0.18200001 419173.47650487 12656.94372095
0.18300001 412646.03229192 12527.93413219
0.18400001 406180.10657230 13525.79818783
0.18500001 399778.37841764 13384.58074174
0.18600001 393439.61113965 14346.77609800
0.18700001 387163.60182243 12009.81549593
0.18800001 380950.78283362 15119.93728503
0.18900001 374803.69668899 11750.09644636
0.19000001 368716.33480567 13732.84053870
0.19100001 362697.73442705 13579.40381858
0.19200001 356739.14646710 12393.11853386
0.19300001 350847.23379624 13272.55148167
0.19400001 345017.99792699 11100.95460786
0.19500001 339253.18734040 13963.66185079
0.19600001 333551.11872808 9856.43602419
0.19700001 327913.72772286 14608.55726042
0.19800001 322340.26938503 14432.78624379
0.19900001 316831.73349600 12356.43819031
0.20000001 311384.56898696 12204.71875825
0.20100001 306003.25769496 10199.08906101
0.20200001 300683.91829271 10071.40831922
0.20300001 295429.14785273 10848.15882189
0.20400001 290237.53040818 14279.68717102
0.20500001 285108.76380442 9690.84733977
0.20600001 280043.61345437 10434.42553052
0.20700001 275041.00445380 10297.53569351
0.20800001 270100.93463111 8467.66470095
0.20900001 265225.79679140 13367.38079018
0.21000001 260410.68289125 11538.79790438
0.21100001 255658.08579590 10568.90576643
0.21200001 250967.53661122 12027.61976069
0.21300001 246338.40855204 10279.70227485
0.21400001 241771.78680208 7797.14049299
0.21500001 237267.06008416 7687.45311017
0.21600001 232821.96427165 13641.03953160
0.21700001 228438.16138475 11204.89234568
0.21800001 224115.20837604 8834.62193189
0.21900001 219851.13751172 10882.63182138
0.22000001 215646.84356300 7148.69320212
0.22100001 211504.67997082 10564.65926408
0.22200001 207420.24069946 9019.66959331
0.22300001 203394.93671784 8200.88423625
0.22400001 199426.60789724 8749.84283524
0.22500001 195519.70327324 7953.74190527
0.22600001 191668.95595170 7831.59391053
0.22700001 187876.84913853 10280.62167102
0.22800001 184141.22038296 6325.25121928
0.22900001 180462.13905224 9961.51054677
0.23000001 176839.83852055 7965.75090287
0.23100001 173275.06555828 8441.96159324
0.23200001 169764.15861257 6526.58338653
0.23300001 166309.75618806 10507.45089291
0.23400001 162910.46916774 8039.63203367
0.23500001 159564.18480467 7343.14413201
0.23600001 156273.25181203 6666.61723761
0.23700001 153035.60759589 6556.04573949
0.23800001 149851.50556255 6446.61207422
0.23900001 146720.18174824 5281.92679277
0.24000001 143641.11222569 6231.15174309
0.24100001 140615.17356906 7656.49656300
0.24200001 137640.40669707 5518.69236756
0.24300001 134716.57120738 6409.81476125
0.24400001 131843.08870185 6783.32723459
0.24500001 129020.22372541 5236.93112874
0.24600001 126246.99395535 5612.94161678
0.24700001 123524.21106257 7352.16139024
0.24800001 120849.05606988 5416.45494929
0.24900001 118222.29203633 4876.66977720
0.25000001 115644.02507486 5224.79730006
0.25100001 113112.81563158 4703.23109647
0.25200001 110629.73134944 5457.91805434
0.25300001 108193.01475304 4534.36946282
0.25400001 105801.77191735 4046.91796730
0.25500001 103456.13784557 5164.53064559
0.25600001 101156.36707989 3899.57813543
0.25700001 98900.73729562  4975.69632876
0.25800001 96689.52530903  4132.02705958
0.25900001 94522.08646982  3686.36154674
0.26000001 92398.64219973  6149.59192257
0.26100001 90315.78546363  4259.29264400
0.26200001 88277.57859842  5223.82596074
0.26300001 86280.03253181  4783.36522990
0.26400001 84323.60196617  4357.42233779
0.26500001 82408.83908278  4932.16925249
0.26600001 80533.67388265  4515.52330827
0.26700001 78699.19128947  4429.19069536
0.26800001 76904.33909076  3723.70827498
0.26900001 75147.66927356  3347.82882456
0.27000001 73430.08071826  2984.93292245
0.27100001 71750.23202605  3805.63248676
0.27200001 70108.30878129  3732.21599459
0.27300001 68502.94147853  4504.75364481
0.27400001 66933.07767428  3313.18750167
0.27500001 65401.57173709  2707.62519805
0.27600001 63903.64292964  3451.75543620
0.27700001 62442.31668437  3384.99814766
0.27800001 61014.92751128  3319.51728835
0.27900001 59621.99518585  3004.94869958
0.28000001 58262.69946911  2946.92747862
0.28100001 56936.48471569  3130.93744270
0.28200001 55643.54881946  2362.06875918
0.28300001 54382.90888547  2316.71202817
0.28400001 53154.19723186  2272.34203921
0.28500001 51957.19748200  3120.54942847
0.28600001 50790.33682414  2842.48133490
0.28700001 49654.62877560  2574.09607757
0.28800001 48548.24133385  3156.84954216
0.28900001 47473.14016442  2478.09803388
0.29000001 46425.64649766  2229.12752210
0.29100001 45408.35383648  2585.55178984
0.29200001 44418.45549102  2733.06769573
0.29300001 43456.57420686  2491.36551721
0.29400001 42522.04796590  2822.40106734
0.29500001 41615.51277570  1847.72885471
0.29600001 40734.50196223  2359.13879282
0.29700001 39879.35041859  2495.64986733
0.29800001 39050.75952141  2977.42530066
0.29900001 38247.24004068  2409.57623663
0.30000001 37468.56731381  2199.21766259
0.30100001 36715.11932279  2328.47297768
0.30200001 35984.77164399  2289.71112810
0.30300001 35278.34007873  2091.30009887
0.30400001 34595.92750782  2374.14563762
0.30500001 33935.36176970  1713.39649687
0.30600001 33297.46566545  1686.68320314
0.30700001 32682.05230812  1962.88415455
0.30800001 32088.13953901  1933.47093946
0.30900001 31515.41897079  1758.56046183
0.31000001 30964.57582161  2022.29654265
0.31100001 30432.39385902  1566.65971004
0.31200001 29921.57430705  1826.26337430
0.31300001 29430.00111961  2356.46030122
0.31400001 28959.23539806  1641.98872481
0.31500001 28506.49380046  1486.32865713
0.31600002 28072.55373644  1601.81999204
0.31700002 27656.39680162  1583.05222788
0.31800002 27258.84928600  1565.20320011
0.31900002 26878.96651211  1806.26663514
0.32000002 26516.18651413  1404.42988522
0.32100002 26170.70964733  1264.04533582
0.32200002 25841.79428982  1377.23849189
0.32300002 25528.39297301  1612.88394441
0.32400002 25231.34643239  1353.03101650
0.32500002 24949.48632529  1220.02993908
0.32600002 24683.26847170  1816.07156380
0.32700002 24432.00894016  1562.67136581
0.32800002 24195.79385204  1313.46873145
0.32900002 23972.72409266  1661.30985829
0.33000002 23765.27290971  1179.94585584
0.33100002 23569.05321755  1408.48668698
0.33200002 23388.71547253  1168.26639318
0.33300002 23220.01072636  1512.31937022
0.33400002 23064.94646032  1854.42178323
0.33500002 22921.87343802  1386.31497118
0.33600002 22790.78743984  1152.07435964
0.33700002 22670.93612065  1379.29981890
0.33800002 22564.08472877  1606.33726791
0.33900002 22467.32715115  1375.00048677
0.34000002 22382.21148827  1602.79024058
0.34100002 22307.69045045  1258.82303173
0.34200002 22244.56189310  1945.62069812
0.34300002 22190.13225782  1374.01305448
0.34400002 22146.82288574  1375.31776634
0.34500002 22112.47904923  1147.63771701
0.34600002 22088.89542113  1724.59059168
0.34700002 22072.31857035  1267.39259233
0.34800002 22066.39963311  1501.72889816
0.34900002 22068.56417051  1506.17957597
0.35000002 22079.32532607  1278.72418682
0.35100002 22098.34191386  1400.15100998
0.35200002 22124.54579138  1171.49475514
0.35300002 22158.83886778  1294.29783957
0.35400002 22201.19032318  1300.43478477
0.35500002 22250.35498222  1782.25351849
0.35600002 22306.20751350  1433.39696271
0.35700002 22368.97077228  1561.57792358
0.35800002 22438.94272016  1329.17083499
0.35900002 22514.69018863  1337.37266055
0.36000002 22597.41737580  1835.47531329
0.36100002 22685.24214229  1724.53218934
0.36200002 22780.01009494  1736.52025179
0.36300002 22878.53736392  1748.83547894
0.36400002 22983.14630460  1509.99278374
0.36500002 23092.57805317  1774.89563324
0.36600002 23207.51189223  1405.33094920
0.36700002 23326.71813691  1416.39839237
0.36800002 23451.94013832  1427.87144296
0.36900002 23580.55596505  1570.46510166
0.37000002 23712.42355879  1583.51572027
0.37100002 23848.72526447  1596.91071935
0.37200002 23989.47065198  1744.87423053
0.37300002 24133.23339009  1624.64934878
0.37400002 24281.48931635  2595.08429362
0.37500002 24431.99681671  1653.55762289
0.37600002 24586.76755580  1946.53447960
0.37700002 24743.19722168  2104.40902339
0.37800002 24903.45471510  1840.48990791
0.37900002 25066.23367263  1428.77538702
0.38000002 25231.57104596  1730.38122431
0.38100002 25398.85672521  1455.35455930
0.38200002 25568.55646571  1468.91363854
0.38300002 25740.14184479  1482.63224050
0.38400002 25914.34338946  1646.20874180
0.38500002 26089.30802142  1510.57100600
0.38600002 26267.03645553  2134.72215387
0.38700002 26445.29138045  1693.02763438
0.38800002 26624.76698527  1708.91074991
0.38900002 26805.77666550  1568.13800922
0.39000002 26988.62246301  1741.17106069
0.39100002 27171.37726285  1597.67705875
0.39200002 27355.76635961  1773.88475363
0.39300002 27540.36867359  2278.69021201
0.39400002 27726.51750936  1807.07586429
0.39500002 27912.26216447  2486.98267668
0.39600002 28098.33136362  2007.90685437
0.39700002 28284.44174483  2026.29750260
0.39800002 28471.81766361  2044.84604148
0.39900002 28658.29640507  1719.49786577
0.40000002 28844.66774556  2429.00958594
0.40100002 29030.77014191  2450.77773150
0.40200002 29217.84301902  2119.46243302
0.40300002 29403.33891777  2316.39514969
0.40400002 29588.47059116  2516.49954301
0.40500002 29773.08644578  2357.13536559
0.40600002 29957.38911291  2011.78856120
0.40700002 30140.54319597  2951.36212959
0.40800002 30323.39212376  1860.34019494
0.40900002 30504.40975217  2814.03193297
0.41000002 30685.35356202  2270.10256408
0.41100002 30864.82601597  2479.68023962
0.41200002 31042.44343507  2500.00330050
0.41300002 31219.56632442  2520.35570879
0.41400002 31394.87624818  1954.33113905
0.41500002 31569.48141781  2166.92930719
0.41600002 31741.30856119  2382.50273349
0.41700002 31912.45475224  2201.00210855
0.41800002 32082.79445851  3226.24596362
0.41900002 32249.41110208  2031.71299570
0.42000002 32415.14103308  2456.41950388
0.42100002 32579.65847369  2062.29247911
0.42200002 32741.95437769  2492.97252445
0.42300002 32901.88957323  2929.58438642
0.42400002 33059.82167215  2318.32010461
0.42500002 33216.11621315  2971.51389724
0.42600002 33368.86779144  2778.45890832
0.42700002 33520.91918855  2152.04311388
0.42800002 33670.11045042  2383.33888117
0.42900002 33817.54328455  3489.97063234
0.43000002 33962.65462024  2415.25429777
0.43100002 34103.95480359  2430.93001360
0.43200002 34243.81561614  3781.03108043
0.43300002 34380.82829022  2909.64963608
0.43400002 34515.78303199  3153.01692939
0.43500002 34647.44796158  2492.53752447
0.43600002 34777.76144355  3191.55531892
0.43700002 34904.31619213  2293.21368250
0.43800002 35027.54139402  2998.53282313
0.43900002 35149.19170107  3015.80079087
0.44000002 35267.24298383  2566.22105733
0.44100002 35383.18044831  2345.90497490
0.44200002 35496.02592955  2594.58213828
0.44300002 35606.27484693  2845.65362062
0.44400002 35713.19465280  2860.62702726
0.44500002 35816.25219120  3354.55033920
0.44600002 35917.28891565  3130.73063670
0.44700002 36015.69415457  2662.28023808
0.44800002 36109.77395105  3404.79074720
0.44900002 36202.40133845  2932.39464739
0.45000002 36291.66925608  2700.64469568
0.45100002 36376.51415281  3946.12444231
0.45200002 36459.33305234  3468.37651764
0.45300002 36538.32452738  2737.08602006
0.45400002 36614.93967488  2998.76370149
0.45500002 36688.26432545  3262.32061843
0.45600002 36758.15789435  2771.74902739
0.45700002 36824.80021761  2529.86389485
0.45800002 36887.80279564  2539.72534285
0.45900002 36947.89905072  3314.22670192
0.46000002 37005.45728574  4350.17673740
0.46100002 37058.54908874  3338.60484564
0.46200002 37109.38785107  3092.69653009
0.46300002 37156.46555111  2586.09012492
0.46400002 37199.86493497  3373.09791285
0.46500002 37241.10222255  3644.41443623
0.46600002 37277.99503136  2872.45604328
0.46700002 37311.82681727  3405.07747673
0.46800002 37343.08544924  3940.62927880
0.46900002 37370.34919707  3161.53169192
0.47000002 37393.90555575  3170.25546328
0.47100002 37414.72145139  3443.65112560
0.47200002 37432.11450076  3186.97037965
0.47300002 37446.87756135  2928.72043289
0.47400002 37456.74297060  2935.67236946
0.47500002 37464.70242476  2674.97987992
0.47600002 37469.66912198  3217.14594330
