# SAXS profile: number of points = 501, q_min = 0, q_max = 0.5, delta_q = 0.001
#    q    intensity    error
0.00000000 1664650.74656090 349.57665678
0.00100000 1664582.25046216 749.06203050
0.00200000 1664376.70672400 1123.45431261
0.00300000 1664034.28647056 1098.26266819
0.00400000 1663554.87372115 1996.26592432
0.00500000 1662938.87757042 1646.30955396
0.00600000 1662186.09825907 1919.82502165
0.00700000 1661297.11596718 2392.26794642
0.00800000 1660271.45581515 2689.63987198
0.00900000 1659110.38229988 2488.66567983
0.01000000 1657813.14126217 3829.54852167
0.01100000 1656380.94678583 3577.78300083
0.01200000 1654813.24140143 3549.57455843
0.01300000 1653111.40747703 3818.68751969
0.01400000 1651274.73431432 5944.58930706
0.01500000 1649304.92503374 5541.66479488
0.01600000 1647200.91151843 7140.61627064
0.01700000 1644964.80175147 5329.68619676
0.01800000 1642596.11993142 6553.95881344
0.01900000 1640095.64380345 6888.40201480
0.02000000 1637463.89239543 7737.01724156
0.02100000 1634702.55118439 6473.42239619
0.02200000 1631809.87622717 8444.61649313
0.02300000 1628788.74852296 7622.73169006
0.02400000 1625638.94726247 9144.21949531
0.02500000 1622361.82828029 8858.09598697
0.02600000 1618957.70564502 7868.13480931
0.02700000 1615427.52421856 8141.75509496
0.02800000 1611771.06418275 9815.68623102
0.02900000 1607991.17792106 8683.15275945
0.03000000 1604087.85090555 8950.81061948
0.03100000 1600061.43779898 7680.29525483
0.03200000 1595912.94847337 11059.67724231
0.03300000 1591645.21048094 12176.08642150
0.03400000 1587256.11956377 9166.40451342
0.03500000 1582749.28163652 8546.84651551
0.03600000 1578124.12757344 9634.44824408
0.03700000 1573382.55342217 10761.93716312
0.03800000 1568526.00309144 9175.87754274
0.03900000 1563555.43673579 14071.99958230
0.04000000 1558470.23198145 10543.05160791
0.04100000 1553273.83289049 9785.62560094
0.04200000 1547966.84088141 10982.82524558
0.04300000 1542549.33855269 10180.82610702
0.04400000 1537024.79412943 12449.90141065
0.04500000 1531393.01370456 17963.24088541
0.04600000 1525654.38201784 15058.20945053
0.04700000 1519811.85348792 18602.49795186
0.04800000 1513865.76299884 14464.98803848
0.04900000 1507818.76303703 16962.96187375
0.05000000 1501670.55129762 11487.78025237
0.05100000 1495424.27894530 12830.74091106
0.05200000 1489078.26528169 13021.99003673
0.05300000 1482637.89542090 15612.17776659
0.05400000 1476101.53157642 14613.40584409
0.05500000 1469473.15212274 17281.00507511
0.05600000 1462751.11245546 13757.17485461
0.05700000 1455940.56840075 12666.68353635
0.05800000 1449039.95406230 25648.00838447
0.05900000 1442051.48265931 14276.31034511
0.06000000 1434977.78103217 19695.07096480
0.06100000 1427820.34468444 22573.84070437
0.06200000 1420579.50961803 22821.61088878
0.06300000 1413258.77436035 13567.28486820
0.06400000 1405856.01328170 19189.93547875
0.06500000 1398377.59528532 19381.51437728
0.06600000 1390821.38650081 15375.53114717
0.06700000 1383190.12887228 16930.24796971
0.06800000 1375487.13437439 18507.18025931
0.06900000 1367712.64901174 18669.27853309
0.07000000 1359866.59602554 18827.35390363
0.07100000 1351953.90441132 20441.54399214
0.07200000 1343973.26394492 16188.15872258
0.07300000 1335929.29023265 22243.22372459
0.07400000 1327821.72333025 20913.19312253
0.07500000 1319652.40112339 22566.05711694
0.07600000 1311421.98341335 18176.30954223
0.07700000 1303135.62013430 19820.69371161
0.07800000 1294791.82696096 19946.26902974
0.07900000 1286392.33211407 18524.05045129
0.08000000 1277941.32087382 21737.78288781
0.08100000 1269438.98463569 23421.15036541
0.08200000 1260885.61722290 17267.82933816
0.08300000 1252285.06545952 15778.79256532
0.08400000 1243637.42719694 22198.92911745
0.08500000 1234947.01405841 22303.14412092
0.08600000 1226212.74905151 20802.70026438
0.08700000 1217438.13671195 19284.22099106
0.08800000 1208621.85825574 17748.61282203
0.08900000 1199770.23510837 19436.27872167
0.09000000 1190881.92762299 26008.86252107
0.09100000 1181959.33518697 21204.35146946
0.09200000 1173003.57262079 22908.76084969
0.09300000 1164018.08531732 18053.92135166
0.09400000 1155001.13864819 16458.76699926
0.09500000 1145957.41291464 29703.21753888
0.09600000 1136887.18369395 18195.88023037
0.09700000 1127794.12082384 26525.71896882
0.09800000 1118678.76851487 19934.85659223
0.09900000 1109543.06207198 16643.14671368
0.10000000 1100386.28552293 25006.27951448
0.10100000 1091212.04605934 18365.09959892
0.10200000 1082022.34014848 20060.69512993
0.10300000 1072817.60370833 18409.55094563
0.10400000 1063600.65772392 20102.05337669
0.10500000 1054374.56912098 18441.01208156
0.10600001 1045135.20290132 25161.63119379
0.10700001 1035890.63905419 18459.57205661
0.10800001 1026637.79067037 28535.39873461
0.10900001 1017381.07464963 18465.46737398
0.11000001 1008120.70989684 18463.73167084
0.11100001 998858.33781020 21815.06712468
0.11200001 989597.00493570 28515.23903964
0.11300001 980334.94894415 16763.72841619
0.11400001 971077.26674674 25126.62546014
0.11500001 961823.57196600 18409.30403429
0.11600001 952575.33964378 18389.46779781
0.11700001 943335.23493636 16697.03444472
0.11800001 934102.04773570 28345.32797356
0.11900001 924879.42314793 19977.39648096
0.12000001 915667.86305681 18281.30974707
0.12100001 906470.60795741 18247.25419778
0.12200001 897286.37303293 19865.92123486
0.12300001 888118.48437562 23126.60642274
0.12400001 878966.46860861 18128.68426923
0.12500001 869832.89961947 16439.84257746
0.12600001 860720.30152493 21315.73927174
0.12700001 851628.54330407 24526.90320302
0.12800001 842557.55855241 21194.53638427
0.12900001 833510.51138250 16253.45573802
0.13000001 824488.13769542 29162.14680484
0.13100001 815490.62251217 19376.05810423
0.13200001 806521.24700563 20917.12952713
0.13300001 797581.40210257 19237.66432563
0.13400001 788669.21727779 19164.66288338
0.13500001 779788.49273800 20679.99180244
0.13600001 770938.48941746 17427.06537498
0.13700001 762122.47229748 17353.52951249
0.13800001 753338.78716988 20419.24878912
0.13900001 744592.41793071 20327.37396811
0.14000001 735880.76310253 21789.43042307
0.14100001 727206.46583238 17038.44829804
0.14200001 718569.31852636 15413.31260936
0.14300001 709973.78977504 23003.15187372
0.14400001 701414.38153604 16781.33986982
0.14500001 692899.72113549 16691.95506955
0.14600001 684424.59959662 19619.03207295
0.14700001 675995.24538504 16507.80467108
0.14800001 667607.12091300 22381.52978454
0.14900001 659263.64153249 17800.11916120
0.15000001 650966.20034343 16218.82364681
0.15100001 642715.18733123 21980.86044389
0.15200001 634511.88338901 18930.66293419
0.15300001 626356.60305937 18809.48967747
0.15400001 618248.12309367 14374.26954026
0.15500001 610191.01941679 19989.85873947
0.15600001 602181.87662513 19853.93740934
0.15700001 594227.33785168 15491.50742894
0.15800001 586319.68012469 19577.21504338
0.15900001 578467.45034841 13883.21946366
0.16000001 570665.61783577 16537.89038551
0.16100001 562920.22421138 20518.44314106
0.16200001 555226.90353283 13575.29843221
0.16300001 547589.53298843 14817.77346218
0.16400001 540006.77870938 14701.68524442
0.16500001 532480.12097947 13258.75563835
0.16600001 525009.50577474 17096.93536275
0.16700001 517595.19359725 20869.43919119
0.16800001 510237.47930683 15521.42485338
0.16900001 502939.50092783 14107.45366715
0.17000001 495698.77798947 13986.14168139
0.17100001 488516.77995465 20165.97362879
0.17200001 481393.55950739 12492.16345913
0.17300001 474329.93299116 16094.01538642
0.17400001 467327.15621264 18401.00764488
0.17500001 460383.59350337 19446.60390800
0.17600001 453498.83330346 15652.51297072
0.17700001 446677.33345964 13118.91390332
0.17800001 439915.68245947 18898.77861109
0.17900001 433215.18052210 12866.49146924
0.18000001 426577.33750284 17372.36289039
0.18100001 420002.04071037 13759.26750361
0.18200001 413485.90411892 12485.20746465
0.18300001 407034.78753372 14604.40886661
0.18400001 400644.56312802 15565.04201283
0.18500001 394317.97185709 12101.61912800
0.18600001 388053.78525263 14150.38194775
0.18700001 381852.12010076 11845.05332514
0.18800001 375713.01926804 12781.75751939
0.18900001 369639.16711584 12641.66011265
0.19000001 363624.32701144 15626.75619166
0.19100001 357677.75600495 10301.11985967
0.19200001 351790.53494421 13239.63740822
0.19300001 345969.56557650 14094.80076760
0.19400001 340210.77131037 9951.16553106
0.19500001 334515.81512495 11801.71851530
0.19600001 328882.91996129 9718.49074412
0.19700001 323314.37804654 10562.68122995
0.19800001 317809.02482012 10435.25982313
0.19900001 312367.91901949 10308.14181481
0.20000001 306987.86297118 12957.95830842
0.20100001 301672.96162212 12796.96763682
0.20200001 296419.53907216 15344.15816529
0.20300001 291229.92243589 10693.96325729
0.20400001 286103.04633432 11436.96981779
0.20500001 281038.18641913 11289.30448207
0.20600001 276036.57181526 8570.93595999
0.20700001 271096.79114698 10995.68636868
0.20800001 266219.14365771 10015.16465782
0.20900001 261405.82099612 9881.14050075
0.21000001 256651.72517459 8123.02748577
0.21100001 251959.55485191 9614.77706767
0.21200001 247328.90139878 7902.15877326
0.21300001 242759.19723490 10909.59883949
0.21400001 238251.21689662 7683.60210817
0.21500001 233804.64452202 10605.37917692
0.21600001 229417.12938446 8214.28070597
0.21700001 225090.20886568 8832.54021349
0.21800001 220823.56412313 9430.27075175
0.21900001 216615.25692203 9292.79496133
0.22000001 212466.01431843 7747.57357845
0.22100001 208378.19980948 13184.08932534
0.22200001 204347.79765711 9569.60781678
0.22300001 200375.80565399 7405.89012716
0.22400001 196460.18568420 9945.79737056
0.22500001 192605.46126098 9141.05562370
0.22600001 188806.01329265 10929.03659626
0.22700001 185064.77458213 8860.90182602
0.22800001 181379.43884306 8099.49922456
0.22900001 177750.11095804 7358.85494167
0.23000001 174176.92869083 6638.75395101
0.23100001 170660.56950865 5938.98809977
0.23200001 167197.59077200 7012.26728861
0.23300001 163790.46731523 6323.95024213
0.23400001 160437.83951676 6220.97752149
0.23500001 157137.73290648 7231.47881038
0.23600001 153892.32127146 5470.87227996
0.23700001 150699.67540445 8069.96799960
0.23800001 147559.71201256 6348.01911103
0.23900001 144472.23143091 5201.00057752
0.24000001 141436.29269260 5624.21444495
0.24100001 138453.02599184 7036.18311372
0.24200001 135520.25118579 6421.62740619
0.24300001 132637.81081101 6310.90733691
0.24400001 129805.09802628 5724.40509374
0.24500001 127022.49584700 5155.84335032
0.24600001 124289.16256272 6446.87916710
0.24700001 121605.39036814 6333.20902997
0.24800001 118968.76106272 5776.52846667
0.24900001 116380.01827249 5237.10107002
0.25000001 113839.26922932 4714.65355817
0.25100001 111344.79207206 4629.71667338
0.25200001 108898.07468002 4545.95034258
0.25300001 106497.20614945 4463.29812088
0.25400001 104141.13182463 5975.09772113
0.25500001 101830.30265981 6256.45409142
0.25600001 99564.53768548  3838.21310937
0.25700001 97342.61938610  4520.59145817
0.25800001 95164.37145413  3697.13600592
0.25900001 93029.59147351  5442.23135870
0.26000001 90938.08503441  4272.27143706
0.26100001 88886.75113756  4191.89938199
0.26200001 86879.49715785  4798.35485507
0.26300001 84912.30719294  4371.28578113
0.26400001 82985.86531293  3628.55713250
0.26500001 81100.53876862  4853.86747498
0.26600001 79254.16602503  3174.12949950
0.26700001 77448.24520931  3736.10352569
0.26800001 75681.15083445  3359.10803874
0.26900001 73951.88786846  3294.55676044
0.27000001 72261.28312137  3524.90555747
0.27100001 70607.89070868  3456.96249269
0.27200001 68991.90050996  3390.26215150
0.27300001 67411.99420989  3324.75971177
0.27400001 65867.10118261  3803.82527331
0.27500001 64360.07881802  4529.66256158
0.27600001 62886.18088028  3919.38140885
0.27700001 61448.58035104  4099.84947505
0.27800001 60044.22818568  3769.27660275
0.27900001 58674.07612612  2464.31131393
0.28000001 57336.94323598  2900.10272613
0.28100001 56032.49256598  3081.22691203
0.28200001 54760.95595027  3719.36430418
0.28300001 53521.17018326  2964.00254504
0.28400001 52313.02820517  3354.57309243
0.28500001 51136.03239130  2413.10948276
0.28600001 49988.83815693  3443.23133522
0.28700001 48872.30408297  2322.41199995
0.28800001 47784.77752623  2692.91126495
0.28900001 46727.90759845  2845.72970744
0.29000001 45698.44530153  3590.52701730
0.29100001 44698.78622506  1957.80692933
0.29200001 43726.00943835  2882.63730867
0.29300001 42780.93872477  1886.63948707
0.29400001 41862.80250855  2222.91491843
0.29500001 40972.39768338  2546.84436056
0.29600001 40106.94766356  2680.14690449
0.29700001 39267.13304851  2106.28911643
0.29800001 38453.41411037  2242.02641584
0.29900001 37664.47521053  2372.86205059
0.30000001 36899.90119844  2165.83980337
0.30100001 36160.24769829  2293.28301759
0.30200001 35443.37286127  1771.99151009
0.30300001 34750.13915894  1584.60642066
0.30400001 34080.51963782  2338.77577087
0.30500001 33432.39970516  1994.91138485
0.30600001 32806.64345847  1963.96980362
0.30700001 32203.01797392  1636.55745091
0.30800001 31620.60427324  1758.73809294
0.30900001 31058.99938775  1588.66789390
0.31000001 30519.03259989  1566.08423201
0.31100001 29997.36323805  1403.87666601
0.31200001 29496.86521634  1384.87788748
0.31300001 29015.09390021  1776.59428362
0.31400001 28553.95826692  2293.59680638
0.31500001 28110.67943189  1465.69089498
0.31600002 27685.70112174  1711.39169587
0.31700002 27278.40223426  1561.41581782
0.31800002 26889.32990338  1415.31994648
0.31900002 26517.68683053  1400.13393095
0.32000002 26162.84611215  1763.63753993
0.32100002 25824.98270913  1247.34672391
0.32200002 25503.62673070  1482.78092833
0.32300002 25197.42236671  1224.59478501
0.32400002 24907.26923230  1821.34414886
0.32500002 24632.13144293  2047.66918381
0.32600002 24372.34405003  1315.00988549
0.32700002 24127.24744399  1187.06063045
0.32800002 23897.04974896  1297.25140705
0.32900002 23679.72326424  1406.57562850
0.33000002 23477.79256609  1981.64317538
0.33100002 23286.89432374  1391.62487069
0.33200002 23111.56816890  1500.74975012
0.33300002 22947.88678399  1724.53377348
0.33400002 22797.49394024  1718.36118712
0.33500002 22658.75796012  1484.60189185
0.33600002 22532.01669899  1366.79219769
0.33700002 22416.21581045  1250.15241495
0.33800002 22313.29107522  1248.09399540
0.33900002 22220.12053899  1246.54882127
0.34000002 22138.61953189  1132.39044268
0.34100002 22067.41302801  1698.08751292
0.34200002 22007.36559539  1698.41852026
0.34300002 21955.93580931  1472.80424384
0.34400002 21915.38550675  1701.18188053
0.34500002 21883.73870160  1590.07252936
0.34600002 21862.69082196  1479.33904453
0.34700002 21848.45970040  1824.78344060
0.34800002 21844.63844353  1143.56687668
0.34900002 21848.86762813  1605.89184673
0.35000002 21861.47625288  1151.00677923
0.35100002 21882.19563298  1386.45598097
0.35200002 21910.09435285  1508.18141621
0.35300002 21945.87559532  1398.39125917
0.35400002 21989.43832901  1288.03141113
0.35500002 22039.81966793  1765.38963902
0.35600002 22096.75947253  1419.93783096
0.35700002 22160.43265677  1666.02140605
0.35800002 22231.26931836  1556.30008235
0.35900002 22307.76453484  2288.77674968
0.36000002 22391.11743423  1939.96650639
0.36100002 22479.38471156  1953.00903625
0.36200002 22574.54451753  1720.85761008
0.36300002 22673.35141254  1609.35455949
0.36400002 22778.20303482  1745.94934532
0.36500002 22887.69550862  1256.53454294
0.36600002 23002.65240675  1392.92568247
0.36700002 23121.73947821  1531.58409559
0.36800002 23246.74605410  1672.71969156
0.36900002 23375.08028810  1686.51212267
0.37000002 23506.65651670  1308.14549712
0.37100002 23642.61979851  2110.81319560
0.37200002 23782.76396747  1862.90398982
0.37300002 23925.97379269  1744.92135136
0.37400002 24073.57106544  1760.37996755
0.37500002 24223.44386766  1639.44275863
0.37600002 24377.35805787  1792.10156252
0.37700002 24532.99883223  1947.42953956
0.37800002 24692.36810190  1824.88955102
0.37900002 24854.15022897  1558.35529318
0.38000002 25018.54858034  1715.77214292
0.38100002 25184.73721516  2020.31971511
0.38200002 25353.34840440  1747.85992180
0.38300002 25523.74165837  1617.18434809
0.38400002 25696.80573782  1632.38966183
0.38500002 25870.37657943  1797.47384989
0.38600002 26046.92998428  1663.22679294
0.38700002 26223.76587976  1984.09022046
0.38800002 26401.96726543  2002.72132180
0.38900002 26581.58941715  2177.03227640
0.39000002 26763.03791631  2040.54792260
0.39100002 26944.34727056  1742.76046403
0.39200002 27127.27612468  1918.98360397
0.39300002 27310.38452515  1614.04380190
0.39400002 27494.98671367  2606.52486395
0.39500002 27679.13965846  1644.14097361
0.39600002 27863.68790477  2157.06750135
0.39700002 28048.29652553  1841.93172010
0.39800002 28234.00656345  2534.70805932
0.39900002 28418.80979354  2046.15440208
0.40000002 28603.65170291  2064.61167773
0.40100002 28788.11049931  2083.10777443
0.40200002 28973.51638548  1751.44914849
0.40300002 29157.38012027  2473.71224661
0.40400002 29340.77427377  2138.94254590
0.40500002 29523.87748856  4315.21013818
0.40600002 29706.43808257  1994.93594396
0.40700002 29888.03062446  2377.89182915
0.40800002 30069.20576540  2029.22044722
0.40900002 30248.59780407  2232.34662371
0.41000002 30427.83071359  2438.63860809
0.41100002 30605.72139825  2458.86377364
0.41200002 30781.75006710  1906.92950701
0.41300002 30957.17444006  2883.66093573
0.41400002 31130.97685227  2325.48408105
0.41500002 31303.98534736  2930.05316735
0.41600002 31474.23283427  2165.58469277
0.41700002 31643.80181404  2182.47311453
0.41800002 31812.56096866  2599.24541711
0.41900002 31977.66925534  2014.59325855
0.42000002 32141.85928153  2029.75850981
0.42100002 32304.89346598  3067.34977994
0.42200002 32465.70992741  2677.93421026
0.42300002 32624.24164139  2074.90186671
0.42400002 32780.68522156  2089.76878190
0.42500002 32935.61881048  2735.96198423
0.42600002 33087.03456775  2543.06959738
0.42700002 33237.71994666  2774.02023820
0.42800002 33385.60162600  2363.19992308
0.42900002 33531.79048794  2162.80058896
0.43000002 33675.60578016  2830.26642191
0.43100002 33815.66016748  2848.63134750
0.43200002 33954.34011231  3087.46829272
0.43300002 34090.20769030  2441.19988839
0.43400002 34223.94946714  2679.73537027
0.43500002 34354.63179669  3370.18953896
0.43600002 34483.84486385  2486.45775174
0.43700002 34609.37851829  2955.98715933
0.43800002 34731.56557642  2744.48844191
0.43900002 34852.30191210  2990.32764577
0.44000002 34969.40355173  3469.83923186
0.44100002 35084.45659484  3721.75933196
0.44200002 35196.49235844  3040.44913647
0.44300002 35305.97630641  3997.34282685
0.44400002 35412.06974147  2600.13134399
0.44500002 35514.50619239  3088.69674993
0.44600002 35614.84494400  3343.16565333
0.44700002 35712.54587298  2639.87151604
0.44800002 35806.13948965  3135.00669159
0.44900002 35898.17394532  2907.75222737
0.45000002 35986.89283943  3895.22146554
0.45100002 36071.29210658  3179.32383695
0.45200002 36153.66652389  2947.97010807
0.45300002 36232.38982442  4194.62396877
0.45400002 36308.64341286  3717.09754556
0.45500002 36381.67751391  3235.05891786
0.45600002 36451.22180001  2748.60451010
0.45700002 36517.78306014  2759.64899664
0.45800002 36580.60713169  2518.57492038
0.45900002 36640.59181339  3792.30143242
0.46000002 36698.11710694  3045.20990186
0.46100002 36751.27842829  2801.55008737
0.46200002 36802.13495646  3578.27175141
0.46300002 36849.24824838  3334.12013953
0.46400002 36892.84840003  3345.25918722
0.46500002 36934.17700919  3614.37873342
0.46600002 36971.36639322  2848.82877245
0.46700002 37005.52671535  2857.56690840
0.46800002 37037.02491115  2605.55482599
0.46900002 37064.66671815  3658.28277847
0.47000002 37088.72637554  3144.38237115
0.47100002 37109.98331144  2627.38694298
0.47200002 37127.92496758  3161.07168156
0.47300002 37143.17818250  2904.96810334
0.47400002 37153.78432040  3176.64870996
0.47500002 37162.40375100  3184.07490430
0.47600002 37168.00267240  2659.37071726
0.47700002 37169.24716149  2665.03514780
