# SAXS profile: number of points = 501, q_min = 0, q_max = 0.5, delta_q = 0.001
#    q    intensity    error
0.00000000 1682732.95097188 277.65093691
0.00100000 1682663.87295750 656.23892604
0.00200000 1682456.57788357 908.52658083
0.00300000 1682111.24204984 1312.04681554
0.00400000 1681627.73686400 1639.58710574
0.00500000 1681006.51298833 1815.48710589
0.00600000 1680247.30059217 2117.11168494
0.00700000 1679350.75750076 2821.30938986
0.00800000 1678316.36134188 2945.44533851
0.00900000 1677145.39567994 2767.29002117
0.01000000 1675837.09044831 3871.18384609
0.01100000 1674392.69384589 3315.29767816
0.01200000 1672811.61314485 3261.98278865
0.01300000 1671095.27008168 4211.16026634
0.01400000 1669242.90295084 4506.95603776
0.01500000 1667256.29630646 4801.69834718
0.01600000 1665134.30341427 5944.52972893
0.01700000 1662879.07670866 5387.72845022
0.01800000 1660490.13843644 4732.39710749
0.01900000 1657968.23586911 5471.29542525
0.02000000 1655313.99654707 6778.51112249
0.02100000 1652528.99870352 6544.01513156
0.02200000 1649611.57103554 6260.27619650
0.02300000 1646564.51405007 7113.15902448
0.02400000 1643387.68333576 7395.24491222
0.02500000 1640082.47778781 7035.95415105
0.02600000 1636649.07845332 6628.42907091
0.02700000 1633088.58908839 7544.86962715
0.02800000 1629400.68219012 7087.89329258
0.02900000 1625588.17379297 7315.14711794
0.03000000 1621651.24954252 7540.67865698
0.03100000 1617590.12177081 7764.43294177
0.03200000 1613405.86298431 10382.26720649
0.03300000 1609101.22670374 10668.34162486
0.03400000 1604674.19767809 11794.35589713
0.03500000 1600128.37224310 8640.69360912
0.03600000 1595463.14319423 13282.23128091
0.03700000 1590680.45305486 10880.25480208
0.03800000 1585781.76706802 12059.87089668
0.03900000 1580768.01961461 13278.45197969
0.04000000 1575638.53686359 16473.30166626
0.04100000 1570396.91295224 12861.55131342
0.04200000 1565043.67927229 16151.25151939
0.04300000 1559578.96317122 10293.22163472
0.04400000 1554006.04234128 11538.49540025
0.04500000 1548325.00452453 13888.47593591
0.04600000 1542536.09071594 14137.34392861
0.04700000 1536642.30527876 13276.59013508
0.04800000 1530644.10520630 14625.30510573
0.04900000 1524543.88093470 16007.71149493
0.05000000 1518341.55556787 15099.90747327
0.05100000 1512040.21255230 12973.30562805
0.05200000 1505638.22210459 11969.82442354
0.05300000 1499140.84173527 17000.25793779
0.05400000 1492546.66786884 14776.21270097
0.05500000 1485859.54615782 13729.34284696
0.05600000 1479077.79005507 13910.72726460
0.05700000 1472206.60677089 16650.65749981
0.05800000 1465244.58520669 12967.41518456
0.05900000 1458193.64787773 15748.49213263
0.06000000 1451056.86169862 14604.88799532
0.06100000 1443835.47202651 16113.20462081
0.06200000 1436529.69438226 16290.24749576
0.06300000 1429143.20731458 19207.68560437
0.06400000 1421673.92062684 19405.84992410
0.06500000 1414128.01653005 16799.84162224
0.06600000 1406503.67749935 18375.97140631
0.06700000 1398803.38746997 15694.57474190
0.06800000 1391030.67832873 15836.88501408
0.06900000 1383185.66581451 15975.79518813
0.07000000 1375268.29629055 23434.57286620
0.07100000 1367283.51220256 20673.32767280
0.07200000 1359229.92576148 22325.35257650
0.07300000 1351112.49097882 22496.02402886
0.07400000 1342930.73001180 16618.76856272
0.07500000 1334686.43014470 24344.68162694
0.07600000 1326380.27589316 18383.63148571
0.07700000 1318017.63295532 18504.96843436
0.07800000 1309596.69751664 18622.46591201
0.07900000 1301119.49414702 15613.43466209
0.08000000 1292590.18557879 18845.96578982
0.08100000 1284008.84553748 25269.29526577
0.08200000 1275375.84299879 19054.11598852
0.08300000 1266695.22929205 17556.39670194
0.08400000 1257966.62947132 20850.79786220
0.08500000 1249194.74528858 25783.38075316
0.08600000 1240378.38791270 21043.02033894
0.08700000 1231521.05329120 22758.51013351
0.08800000 1222621.83272029 19586.40268003
0.08900000 1213686.49535700 18023.24530260
0.09000000 1204713.81684386 23022.08212136
0.09100000 1195706.40849704 19800.89905498
0.09200000 1186665.37202309 16553.98271754
0.09300000 1177594.16214743 24906.11769981
0.09400000 1168490.98799232 16650.99736145
0.09500000 1159360.45073861 20033.74953040
0.09600000 1150202.95933636 21756.08999855
0.09700000 1141022.30114073 21804.93719991
0.09800000 1131818.93716012 20169.01440849
0.09900000 1122594.65542767 20206.70474787
0.10000000 1113349.03804050 21927.41033539
0.10100000 1104085.30949679 27028.00964766
0.10200000 1094805.94244830 20297.70312772
0.10300000 1085511.08791376 16933.97376804
0.10400000 1076203.81468868 23730.29523028
0.10500000 1066886.86031904 18659.85206491
0.10600001 1057556.51872684 20368.53950909
0.10700001 1048220.27798349 18679.28623267
0.10800001 1038875.79443606 25478.43005760
0.10900001 1029526.98788857 22083.35492958
0.11000001 1020174.31664000 20383.08380589
0.11100001 1010819.28488596 18679.94126402
0.11200001 1001464.96044634 16974.83187869
0.11300001 992109.88782480 16965.07988053
0.11400001 982758.76457652 25428.88423072
0.11500001 973411.52306656 23712.30581847
0.11600001 964069.59041417 20303.30653024
0.11700001 954735.51517247 21968.46523872
0.11800001 945408.21694313 18563.09121397
0.11900001 936091.27798000 28644.39445539
0.12000001 926785.14374598 16821.15115135
0.12100001 917493.37275449 18469.14246359
0.12200001 908214.13932301 26810.48265589
0.12300001 898951.50663962 18392.54869240
0.12400001 889704.44000933 23354.74265066
0.12500001 880475.82378708 18305.09323908
0.12600001 871268.01935362 18257.42220591
0.12700001 862081.01829854 21517.54323078
0.12800001 852914.58687143 18154.28783716
0.12900001 843772.24495742 26325.69528346
0.13000001 834654.62711148 24601.44629370
0.13100001 825561.51655891 16346.11879838
0.13200001 816496.95194398 21175.84944690
0.13300001 807461.62100348 24344.96902095
0.13400001 798453.89601442 17785.56137223
0.13500001 789477.86234229 19326.41898135
0.13600001 780532.55224184 27267.90599827
0.13700001 771621.16929309 15972.55895753
0.13800001 762742.23522205 27035.39980232
0.13900001 753900.75234797 22164.68316428
0.14000001 745093.94931006 20486.35910243
0.14100001 736324.80777061 15683.71914520
0.14200001 727592.86532248 15606.86769727
0.14300001 718902.66018841 23292.44728875
0.14400001 710248.67371733 16992.70032023
0.14500001 701639.30444223 18439.08179055
0.14600001 693070.07118952 19866.85452785
0.14700001 684546.51169371 18236.31993185
0.14800001 676064.56241884 19643.05678781
0.14900001 667627.14934151 24034.57851026
0.15000001 659236.26892374 19411.21285434
0.15100001 650891.68857735 17808.39743976
0.15200001 642595.49695075 20646.59429128
0.15300001 634347.23616107 24910.81713956
0.15400001 626145.98277605 16013.68426520
0.15500001 617996.42851088 18799.45224250
0.15600001 609895.33061787 18671.94642809
0.15700001 601848.85006517 22822.10947160
0.15800001 593849.56129629 16995.97524649
0.15900001 585906.00790786 15467.91933886
0.16000001 578013.19030247 13959.01920470
0.16100001 570177.25653135 16626.36958529
0.16200001 562393.63823997 17875.68263530
0.16300001 554666.16447651 17738.22477734
0.16400001 546993.79474199 27076.19411798
0.16500001 539377.86443901 14773.56040446
0.16600001 531818.08022892 21315.26966193
0.16700001 524315.26952265 13212.74541581
0.16800001 516869.30949927 17033.42889881
0.16900001 509483.46287853 12991.82891685
0.17000001 502155.43424233 18032.40249513
0.17100001 494886.53431148 16598.49514461
0.17200001 487676.66472559 16451.77306142
0.17300001 480526.87391501 13795.92720161
0.17400001 473438.33897364 12427.75698497
0.17500001 466409.53009911 17238.49704660
0.17600001 459439.85261342 12198.12866299
0.17700001 452533.88363291 15707.45184277
0.17800001 445688.43879568 15556.75569094
0.17900001 438904.60517081 15405.55236915
0.18000001 432183.67898923 11733.78743880
0.18100001 425525.85588796 19748.65590462
0.18200001 418927.75232018 12649.52407884
0.18300001 412395.36143867 14796.74626741
0.18400001 405923.99757891 12390.83061145
0.18500001 399517.03650949 15605.13618328
0.18600001 393172.96379182 11028.50215539
0.18700001 386891.98580643 13092.42541824
0.18800001 380673.78640806 10792.10235455
0.18900001 374521.77339081 10673.87104595
0.19000001 368429.07448746 11611.04283108
0.19100001 362405.21427592 14612.17893003
0.19200001 356441.63066022 11350.88426472
0.19300001 350544.49807802 12241.01445130
0.19400001 344710.18031392 11091.05057570
0.19500001 338940.29592684 10961.32968825
0.19600001 333233.23681961 9847.04261335
0.19700001 327590.77844497 11675.33589553
0.19800001 322012.31916149 13456.89545371
0.19900001 316498.76523340 12343.45242745
0.20000001 311046.72828210 9378.05930092
0.20100001 305660.48230853 13892.26957750
0.20200001 300336.32657626 10059.76573413
0.20300001 295076.70966076 12641.08683934
0.20400001 289880.42620898 10696.58823269
0.20500001 284746.89514635 10558.41537109
0.20600001 279676.92458467 9552.36581071
0.20700001 274669.72806640 11997.57428906
0.20800001 269724.98016426 9301.46638065
0.20900001 264845.40992268 15016.73545248
0.21000001 260025.84803505 11521.74587109
0.21100001 255268.76588427 11364.56599441
0.21200001 250573.80009560 9606.99994983
0.21300001 245940.38989472 8684.15557773
0.21400001 241369.53559727 10119.41825833
0.21500001 236860.68846722 10744.00133682
0.21600001 232411.28586470 8321.48648381
0.21700001 228023.61947007 8202.00998013
0.21800001 223696.52828335 8083.27443170
0.21900001 219428.56575334 9413.48591590
0.22000001 215220.43633543 9988.38092260
0.22100001 211074.37302389 7731.65464944
0.22200001 206986.47961698 7616.06787763
0.22300001 202957.61425497 6819.37616142
0.22400001 198985.75442982 8730.50038844
0.22500001 195075.33475297 8596.97040909
0.22600001 191221.16368177 9766.62139689
0.22700001 187425.84840046 7691.95718210
0.22800001 183686.96624435 8833.50662443
0.22900001 180004.87386251 9315.25266291
0.23000001 176379.62733312 9778.48700179
0.23100001 172811.87153032 9020.78012050
0.23200001 169298.03095807 6508.66310800
0.23300001 165841.01499523 6985.22388196
0.23400001 162439.09439921 9734.16319225
0.23500001 159090.33645612 6194.97799460
0.23600001 155796.93274729 5538.58122112
0.23700001 152557.02157898 5990.91452076
0.23800001 149370.59176997 9103.39114600
0.23900001 146237.29830972 6317.45158579
0.24000001 143156.24431987 5175.09847695
0.24100001 140128.45683820 6103.99586860
0.24200001 137151.88221171 5999.02361171
0.24300001 134226.35867978 5895.22195208
0.24400001 131351.18137449 5792.58737263
0.24500001 128526.90409656 5216.90728406
0.24600001 125752.35549174 4659.12499137
0.24700001 123028.41078211 6864.98564640
0.24800001 120352.04081912 5394.17872469
0.24900001 117724.35576902 4856.12990520
0.25000001 115145.25323245 4768.74088822
0.25100001 112613.25304778 5108.13739991
0.25200001 110129.54966416 4179.41660748
0.25300001 107692.32615452 7385.54007709
0.25400001 105300.71214515 4833.30291613
0.25500001 102954.89266139 4348.81487177
0.25600001 100654.81825233 5044.31645538
0.25700001 98399.32604779  3808.05409822
0.25800001 96188.10408156  3736.90802038
0.25900001 94021.01444439  4766.86565787
0.26000001 91897.78407930  5036.91778371
0.26100001 89815.41272820  5294.61883085
0.26200001 87777.94979085  3809.12431141
0.26300001 85781.05612613  4076.31597999
0.26400001 83825.43639125  4998.09188133
0.26500001 81911.78750668  3921.93657140
0.26600001 80037.56586098  4487.70653018
0.26700001 78204.50023998  3458.20316425
0.26800001 76410.80997468  4008.12922689
0.26900001 74655.69313902  3325.91128673
0.27000001 72939.76915482  3854.50228339
0.27100001 71261.73674638  3488.97479621
0.27200001 69621.69379001  3706.31104431
0.27300001 68018.33467467  4193.33053114
0.27400001 66450.54834735  2741.08524905
0.27500001 64921.35988557  2956.51886911
0.27600001 63425.70534920  3953.00727297
0.27700001 61966.97750012  3100.82770086
0.27800001 60542.23773555  3547.16987680
0.27900001 59152.14415795  2732.82918944
0.28000001 57795.69573706  3166.91529780
0.28100001 56472.51312316  3105.42364362
0.28200001 55182.70397539  3279.50825248
0.28300001 53925.25677188  2986.38086137
0.28400001 52699.98083400  2703.50914474
0.28500001 51506.47941389  3093.47930002
0.28600001 50343.36351164  2817.46647229
0.28700001 49211.33439502  2125.92974649
0.28800001 48108.90110369  2502.62515387
0.28900001 47037.72792373  2659.98363999
0.29000001 45994.42606881  2409.18815152
0.29100001 44981.35524412  2561.23848884
0.29200001 43995.81504476  2900.42424412
0.29300001 43038.42817520  1897.99477237
0.29400001 42108.44734225  3167.60810126
0.29500001 41206.66456007  2378.44879100
0.29600001 40330.37464929  2874.74924108
0.29700001 39480.23517548  2117.71991506
0.29800001 38656.65387557  1733.75100839
0.29900001 37858.26672200  1873.98429145
0.30000001 37084.79375290  2344.12992409
0.30100001 36336.75186682  2798.29339374
0.30200001 35611.77907226  2589.68869673
0.30300001 34911.00013721  1910.33001795
0.30400001 34234.29543157  2192.70672620
0.30500001 33579.47027881  1541.29775877
0.30600001 32947.33441633  2124.11475038
0.30700001 32337.93727431  1494.01277280
0.30800001 31750.06790628  2501.74671912
0.30900001 31183.53210670  1885.04460510
0.31000001 30638.85061746  1858.09318367
0.31100001 30113.03420407  1691.14808097
0.31200001 29608.66617535  2085.19041412
0.31300001 29123.53778603  1371.71869467
0.31400001 28659.36928452  1489.57078909
0.31500001 28213.30768673  1337.31084767
0.31600002 27786.14785632  2378.21650763
0.31700002 27376.81892594  1567.04918952
0.31800002 26986.18196273  1807.80441528
0.31900002 26613.25311028  1405.17983076
0.32000002 26257.54416066  1770.02113568
0.32100002 25919.13240453  1502.27298530
0.32200002 25597.45327282  1736.27533771
0.32300002 25291.29075195  1720.81950424
0.32400002 25001.53602877  1584.47242085
0.32500002 24727.14406419  1571.90462259
0.32600002 24468.32265661  1200.17128314
0.32700002 24224.52506689  1430.21602767
0.32800002 23995.91641718  1776.29779690
0.32900002 23780.44297274  1412.55837947
0.33000002 23580.66860727  1287.85827697
0.33100002 23392.13767821  1514.40706500
0.33200002 23219.56166913  1507.76230838
0.33300002 23058.64413339  1386.28575095
0.33400002 22911.40891699  1266.42818786
0.33500002 22776.13661519  1492.29254170
0.33600002 22653.01473871  1259.62094420
0.33700002 22541.14179874  1485.68672631
0.33800002 22442.26658139  1255.30824068
0.33900002 22353.47829325  1368.03293633
0.34000002 22276.37222669  1139.43649336
0.34100002 22209.95397981  1139.37069312
0.34200002 22154.82809647  1481.82574741
0.34300002 22108.55405285  1483.04187610
0.34400002 22073.30666721  1713.44051119
0.34500002 22047.13972619  1373.09592718
0.34600002 22031.72279672  1490.77659364
0.34700002 22023.29743473  1264.57779859
0.34800002 22025.54169106  1498.94831078
0.34900002 22035.81404393  1272.56832131
0.35000002 22054.73196938  1509.53620114
0.35100002 22081.90808852  1399.10976275
0.35200002 22116.25794193  1522.37268754
0.35300002 22158.87483922  1882.61809551
0.35400002 22209.17419092  1537.43015618
0.35500002 22266.52040312  1189.03224584
0.35600002 22330.41282907  1195.79366363
0.35700002 22401.29013422  1323.24427090
0.35800002 22479.38453594  1452.61789752
0.35900002 22563.22577263  1705.77994921
0.36000002 22653.96822624  1594.72616882
0.36100002 22749.79382953  1729.43940884
0.36200002 22852.48360131  1493.18134924
0.36300002 22959.02635415  1378.91918815
0.36400002 23071.64456275  1263.17259964
0.36500002 23188.86166961  1400.37542256
0.36600002 23311.65487887  1283.30666187
0.36700002 23438.66544638  1940.72159089
0.36800002 23571.64041284  1565.62843038
0.36900002 23707.86427122  1842.10114113
0.37000002 23847.50974863  1459.82537841
0.37100002 23991.47271708  1472.59666513
0.37200002 24139.67718541  1485.67650275
0.37300002 24291.00220504  1498.99781708
0.37400002 24446.70542848  2750.25449099
0.37500002 24604.63203561  1665.24157505
0.37600002 24766.69831500  1820.72391288
0.37700002 24930.46346770  1554.91308014
0.37800002 25097.86125553  1712.17617596
0.37900002 25267.75790906  1728.31472285
0.38000002 25440.24024752  1599.30077892
0.38100002 25614.43538379  2201.56082553
0.38200002 25791.16067425  1778.04270111
0.38300002 25969.58385664  1495.84810101
0.38400002 26150.50598123  1661.21097116
0.38500002 26332.15842784  1524.63204520
0.38600002 26516.48494918  2154.99483391
0.38700002 26701.13897538  1864.80763439
0.38800002 26887.21385606  1882.64280339
0.38900002 27074.55784478  2059.02022164
0.39000002 27263.64672373  2558.42072976
0.39100002 27452.51954554  1937.04987090
0.39200002 27643.05255724  1629.55802545
0.39300002 27833.62155434  2302.95395651
0.39400002 28025.69121469  1826.57451146
0.39500002 28217.12026522  2011.31642780
0.39600002 28408.94289420  1860.92789245
0.39700002 28600.65233053  1878.20492753
0.39800002 28793.50589577  1723.29140951
0.39900002 28985.37247357  2782.59588930
0.40000002 29177.00328592  1754.99683080
0.40100002 29368.28940804  2125.08952225
0.40200002 29560.36150836  2144.30872541
0.40300002 29750.76813521  2704.34495162
0.40400002 29940.74001644  2364.57005483
0.40500002 30130.18838296  2385.40712730
0.40600002 30319.07171553  2036.07735753
0.40700002 30506.77945807  1867.01499129
0.40800002 30693.91307431  2259.68598760
0.40900002 30879.17629261  2088.97637517
0.41000002 31064.30008259  2106.62560992
0.41100002 31247.85185521  1931.11733615
0.41200002 31429.36355022  2336.45899703
0.41300002 31610.19035148  1962.99291384
0.41400002 31789.19060499  2176.76492982
0.41500002 31967.32291211  3191.61767077
0.41600002 32142.62208569  2211.57321740
0.41700002 32317.02354249  2431.53296655
0.41800002 32490.54881730  2858.84352590
0.41900002 32660.19329235  2469.11072990
0.42000002 32828.85215570  2902.39895661
0.42100002 32996.08204143  2088.65209219
0.42200002 33161.09692470  2314.47886953
0.42300002 33323.52453756  3391.00201763
0.42400002 33483.87020286  2774.97587456
0.42500002 33642.45881394  2149.75322008
0.42600002 33797.37984123  2597.66673769
0.42700002 33951.38906439  2179.67928122
0.42800002 34102.48061178  2633.39367763
0.42900002 34251.73075373  2872.00775980
0.43000002 34398.44688903  2446.24566643
0.43100002 34541.26440279  2685.92884724
0.43200002 34682.48251669  2477.89008083
0.43300002 34820.69411204  3173.55821176
0.43400002 34956.71362019  3649.48107489
0.43500002 35089.45022779  2294.85015365
0.43600002 35220.58959337  2770.45170870
0.43700002 35347.85986235  2786.82540361
0.43800002 35471.66410007  2569.39011085
0.43900002 35593.73105155  2584.10499680
0.44000002 35712.11586160  2598.59223382
0.44100002 35828.22428622  3800.65821240
0.44200002 35941.18835826  2865.95049551
0.44300002 36051.39948706  2641.12565159
0.44400002 36158.03366709  3137.61352016
0.44500002 36260.85450312  2668.43640934
0.44600002 36361.46291343  3169.44706505
0.44700002 36459.22457518  2940.07200908
0.44800002 36552.63883762  2708.00237662
0.44900002 36644.46259352  3215.55174497
0.45000002 36732.82505308  2733.47330587
0.45100002 36816.56632029  2745.77964630
0.45200002 36898.16861584  2757.95374390
0.45300002 36975.84693328  3525.27741369
0.45400002 37051.07465964  3287.35675497
0.45500002 37122.82988764  3047.04202159
0.45600002 37191.03136380  3059.33438498
0.45700002 37255.91476844  2815.42961248
0.45800002 37316.96143535  2569.27291659
0.45900002 37375.03061795  2836.76495835
0.46000002 37430.46354368  3105.98001206
0.46100002 37481.32980856  2597.45627884
0.46200002 37529.75298883  3649.01805605
0.46300002 37574.35902166  2876.69306304
0.46400002 37615.20286134  2886.02657632
0.46500002 37653.66134256  3947.98657888
0.46600002 37687.84499230  3960.05050026
0.46700002 37718.73347779  3442.21178033
0.46800002 37746.96550775  3452.14889413
0.46900002 37771.05157434  2662.85926220
0.47000002 37791.37109166  3470.94864242
0.47100002 37808.86156524  2944.55427826
0.47200002 37822.84312325  2951.88393146
0.47300002 37834.03610783  4304.00015162
0.47400002 37840.32291941  3774.57239012
0.47500002 37844.53299651  4053.14967604
0.47600002 37845.62651369  2707.85470540
0.47700002 37842.15979881  2984.61128480
