# SAXS profile: number of points = 501, q_min = 0, q_max = 0.5, delta_q = 0.001
#    q    intensity    error
0.00000000 1682732.95097188 277.65093691
0.00100000 1682663.88067571 757.19876429
0.00200000 1682456.61410860 757.10550032
0.00300000 1682111.32308707 1312.04687875
0.00400000 1681627.88386696 2144.07563340
0.00500000 1681006.73420024 1815.48734480
0.00600000 1680247.62461410 2822.81612427
0.00700000 1679351.19636472 2216.74367133
0.00800000 1678316.92981188 2718.87354109
0.00900000 1677146.11583766 3522.00699382
0.01000000 1675837.98424585 3041.64607274
0.01100000 1674393.77139302 3616.69070368
0.01200000 1672812.90827337 3914.38237698
0.01300000 1671096.77520851 3860.23372099
0.01400000 1669244.65185413 4131.38069649
0.01500000 1667258.30957837 4401.56213328
0.01600000 1665136.58656461 5944.53787978
0.01700000 1662881.67092752 5387.73685549
0.01800000 1660493.02137812 5205.64585626
0.01900000 1657971.46726349 6466.08901409
0.02000000 1655317.55342599 5735.67558208
0.02100000 1652532.93745907 5453.35894086
0.02200000 1649615.91115648 9105.88024329
0.02300000 1646569.24140234 6520.41449275
0.02400000 1643392.81471621 8011.54033705
0.02500000 1640088.01205783 7675.61224698
0.02600000 1636655.10101332 7954.14415473
0.02700000 1633095.03227132 10974.39911950
0.02800000 1629407.64798483 8505.50831254
0.02900000 1625595.67381581 8046.69895485
0.03000000 1621659.21287733 8294.78725514
0.03100000 1617598.64924794 11646.71081049
0.03200000 1613414.92887533 8785.04469235
0.03300000 1609110.84798866 9847.75884368
0.03400000 1604684.43662822 10951.97178532
0.03500000 1600139.21892663 12097.05305370
0.03600000 1595474.55555651 13282.32628883
0.03700000 1590692.53250667 9973.64264007
0.03800000 1585794.46041176 10204.58782501
0.03900000 1580781.41894886 13278.56453410
0.04000000 1575652.66117491 10659.29074679
0.04100000 1570411.66384737 9893.59394097
0.04200000 1565059.13863722 13123.02148629
0.04300000 1559595.18618732 11322.66157729
0.04400000 1554023.00475261 12587.58692309
0.04500000 1548342.69348222 10683.56508144
0.04600000 1542554.60719043 11962.51153486
0.04700000 1536661.59264290 15489.54957423
0.04800000 1530664.15114327 12375.42023780
0.04900000 1524564.82529286 16007.93141070
0.05000000 1518363.33112177 13938.57602876
0.05100000 1512062.83901668 14152.90883250
0.05200000 1505661.69336726 15561.01432611
0.05300000 1499165.18124588 14571.88624102
0.05400000 1492571.85635745 13545.09022810
0.05500000 1485885.63444246 13729.58390272
0.05600000 1479104.86016918 15175.61657349
0.05700000 1472234.60996355 14089.28587502
0.05800000 1465273.58091008 19451.50769482
0.05900000 1458223.60385612 13124.01304767
0.06000000 1451087.73968108 21243.92550142
0.06100000 1443867.31957397 17456.35670941
0.06200000 1436562.52810616 16290.61983020
0.06300000 1429177.09666976 17836.13100037
0.06400000 1421708.81278496 18020.16004479
0.06500000 1414164.05116168 16800.26971368
0.06600000 1406540.68614179 21203.60183567
0.06700000 1398841.46352555 15695.00195527
0.06800000 1391069.82435051 15837.33069156
0.06900000 1383225.85534914 20333.42102562
0.07000000 1375309.59895477 16111.75270624
0.07100000 1367325.85674332 19197.25592783
0.07200000 1359273.56201973 16372.45082152
0.07300000 1351157.25242699 16497.63082514
0.07400000 1342976.51027865 21151.88102815
0.07500000 1334733.38814763 24345.53814095
0.07600000 1326428.45790744 21448.34916987
0.07700000 1318066.92146963 23132.07555642
0.07800000 1309647.19274774 17071.25195804
0.07900000 1301171.18581024 20298.27145070
0.08000000 1292643.09755651 15705.61437208
0.08100000 1284062.95776430 17373.37263368
0.08200000 1275431.24944042 19054.94376080
0.08300000 1266751.72548409 17557.17973920
0.08400000 1258024.44094810 20851.75608747
0.08500000 1249253.77310351 17726.91187253
0.08600000 1240438.73384073 16187.72623666
0.08700000 1231582.64294729 22759.64831041
0.08800000 1222684.53940158 22851.97511463
0.08900000 1213750.55644878 18024.19660986
0.09000000 1204779.25925374 16445.23766134
0.09100000 1195773.10756050 21452.17055748
0.09200000 1186733.36759067 21521.41063248
0.09300000 1177663.46143236 19926.06670380
0.09400000 1168561.59949105 16652.00357535
0.09500000 1159432.37721424 16695.82701663
0.09600000 1150276.29492916 21757.47714136
0.09700000 1141096.87785078 20128.94987161
0.09800000 1131894.80969102 20170.36645706
0.09900000 1122671.82169358 23576.10936417
0.10000000 1113427.54460141 26989.48495038
0.10100000 1104165.27058694 16893.72943452
0.10200000 1094887.23892486 20299.21036447
0.10300000 1085593.67284561 20322.31451165
0.10400000 1076287.78873783 18646.68681712
0.10500000 1066972.29127376 25447.29034416
0.10600001 1057643.17516798 18672.69113621
0.10700001 1048308.34050552 22077.37468996
0.10800001 1038965.18808943 20384.49794964
0.10900001 1029617.69443982 20386.43130941
0.11000001 1020266.59166386 25481.15932619
0.11100001 1010912.90866730 18681.67143158
0.11200001 1001559.85429540 16976.44032951
0.11300001 992206.14578522 22056.74365925
0.11400001 982856.48486565 22040.55771088
0.11500001 973510.48379031 22020.80818025
0.11600001 964169.98563994 23689.65766275
0.11700001 954837.27496933 25350.93084434
0.11800001 945511.28401996 21940.59037905
0.11900001 936195.70524859 20221.82818585
0.12000001 926890.97681463 18505.37922380
0.12100001 917600.59469087 30225.76501300
0.12200001 908322.76450704 25137.83369201
0.12300001 899061.48448067 26756.07103874
0.12400001 889815.71049156 26694.47257252
0.12500001 880588.46779944 19971.74739077
0.12600001 871382.03383719 24899.74279026
0.12700001 862196.32921912 19865.00436137
0.12800001 853031.36867100 19807.38931405
0.12900001 843890.21335300 18101.44592958
0.13000001 834773.96303800 21324.30189092
0.13100001 825682.20850271 24522.76274848
0.13200001 816618.80225890 17920.70046036
0.13300001 807584.85001316 17855.70187556
0.13400001 798578.63346843 22639.70532619
0.13500001 789603.78736148 17718.70982380
0.13600001 780659.71016278 19251.06936032
0.13700001 771749.70580760 27157.87342795
0.13800001 762872.05705026 22268.23639537
0.13900001 754031.79894209 26918.93649168
0.14000001 745226.33238998 18913.84520805
0.14100001 736458.34548721 15686.56349870
0.14200001 727727.58347649 21853.66036253
0.14300001 719038.64580983 18637.48257848
0.14400001 710385.88208238 16995.98303052
0.14500001 701777.80322238 16905.82807711
0.14600001 693209.78781316 16813.80419659
0.14700001 684687.39978501 16720.06709154
0.14800001 676206.55356153 16624.53890363
0.14900001 667770.32751064 16527.31638566
0.15000001 659380.63618632 19415.46374858
0.15100001 651037.21916595 16328.01422712
0.15200001 642742.08849083 16226.02478961
0.15300001 634494.92937185 24916.61705222
0.15400001 626294.81388269 17473.62613193
0.15500001 618146.40128543 20250.47706179
0.15600001 610046.33585822 17239.91026499
0.15700001 602000.85043073 18547.64707716
0.15800001 594002.73641416 17000.35911857
0.15900001 586060.09149605 16878.53143176
0.16000001 578168.31529070 22340.42475736
0.16100001 570333.40612584 15245.01266537
0.16200001 562550.61053131 19256.10830749
0.16300001 554824.21528803 16378.41160849
0.16400001 547152.69786124 17604.63888479
0.16500001 539537.77274019 17464.83852814
0.16600001 531978.94708736 14658.68057907
0.16700001 524476.97703994 15860.18453452
0.16800001 517031.95845375 18349.46507192
0.16900001 509646.94213004 16894.79692935
0.17000001 502319.74444178 12884.50205333
0.17100001 495051.65084833 16604.03315352
0.17200001 487842.50588093 12659.51362543
0.17300001 480693.47778838 20073.76058042
0.17400001 473605.84429882 14918.58479996
0.17500001 466577.68660058 16012.94696038
0.17600001 459608.83269975 17083.66111830
0.17700001 452703.56958169 14504.62305446
0.17800001 445858.68877864 13168.43699505
0.17900001 439075.44729193 14226.04516421
0.18000001 432355.17420501 14086.13224096
0.18100001 425698.06804346 11621.55780655
0.18200001 419100.47311283 12654.73938343
0.18300001 412568.52468870 14802.95936511
0.18400001 406097.81715213 16903.82243751
0.18500001 399691.43103998 14496.80888868
0.18600001 393347.70200310 14343.42463118
0.18700001 387067.14787901 12006.82349447
0.18800001 380849.62400276 11876.79608566
0.18900001 374697.83384524 11746.77764605
0.19000001 368605.60138427 10560.55097863
0.19100001 362582.11275827 10442.36534084
0.19200001 356618.74454823 11356.52445675
0.19300001 350722.01455773 16329.61776942
0.19400001 344887.97511618 17149.55537303
0.19500001 339118.39462203 11964.09752763
0.19600001 333411.46387995 11822.77106788
0.19700001 327769.22700246 10708.22115221
0.19800001 322191.03497910 10579.14313350
0.19900001 316677.56731656 14250.49120272
0.20000001 311225.67218479 9383.45445984
0.20100001 305839.52905212 9266.93816826
0.20200001 300515.43902990 10065.76510605
0.20300001 295255.85495318 9938.31254745
0.20400001 290059.61762057 9811.26702975
0.20500001 284926.04638128 8804.21524933
0.20600001 279856.01196950 9558.48254063
0.20700001 274848.65816256 11147.86210202
0.20800001 269903.86620579 12692.22990829
0.20900001 265024.12442016 10017.91237664
0.21000001 260204.37558149 9882.56265176
0.21100001 255447.14690413 8935.54162112
0.21200001 250751.91989559 12818.43875105
0.21300001 246118.30497018 10270.51735195
0.21400001 241547.14630045 9347.87500376
0.21500001 237037.94362699 9984.03865759
0.21600001 232588.35639660 7570.75135864
0.21700001 228200.10686822 11193.21577110
0.21800001 223872.76788540 8825.06492730
0.21900001 219604.37539427 10870.41709599
0.22000001 215395.68435773 8568.44072889
0.22100001 211249.22020725 8441.51923863
0.22200001 207160.69086064 8315.43052434
0.22300001 203131.23526717 10237.81474156
0.22400001 199158.75136053 7393.76899388
0.22500001 195247.82136804 8604.57189458
0.22600001 191392.95451111 8472.00953206
0.22700001 187596.91887879 9623.72239358
0.22800001 183857.32840723 6947.04948239
0.22900001 180174.48432739 8080.82600423
0.23000001 176548.49349927 7952.62726577
0.23100001 172979.94479804 6019.70236366
0.23200001 169465.28131336 7699.65542062
0.23300001 166007.39810760 6992.23193899
0.23400001 162604.49166022 9170.89376338
0.23500001 159254.85206728 5637.62202982
0.23600001 155960.53499466 6653.27673755
0.23700001 152719.55084134 6542.50586749
0.23800001 149532.15023438 5896.80062340
0.23900001 146397.71424351 5270.31796205
0.24000001 143315.51412022 6217.02729660
0.24100001 140286.68187503 5092.40679294
0.24200001 137308.86667733 7507.36264070
0.24300001 134382.14291565 5410.22532970
0.24400001 131505.81663695 5316.12288902
0.24500001 128680.23964869 5223.13117442
0.24600001 125904.58084949 4664.76494114
0.24700001 123179.20587054 6873.40001273
0.24800001 120501.61588162 5400.88267931
0.24900001 117872.46269288 4862.23931610
0.25000001 115291.96986581 6077.04001912
0.25100001 112758.51991027 5540.95393053
0.25200001 110273.30739326 4184.87221356
0.25300001 107834.63638624 6573.59974511
0.25400001 105441.42994148 6453.01581772
0.25500001 103094.13391867 4354.69642275
0.25600001 100792.52636038 5439.77290504
0.25700001 98535.30635077  4194.64818982
0.25800001 96322.57825568  4864.77204498
0.25900001 94153.74286327  4039.19575995
0.26000001 92028.82802641  3963.22166648
0.26100001 89944.76373472  3888.31232023
0.26200001 87905.53055442  3814.66067891
0.26300001 85906.91174573  3742.10525271
0.26400001 83949.47067657  5005.48742594
0.26500001 82033.91059665  3600.46850646
0.26600001 80157.95614558  3852.39155465
0.26700001 78322.91254123  3778.29747978
0.26800001 76527.37568157  4631.81963231
0.26900001 74770.26976102  3633.83528234
0.27000001 73052.38743772  5048.28547278
0.27100001 71372.40127592  3494.39293183
0.27200001 69730.33616515  3426.54888131
0.27300001 68124.95084245  3359.92273455
0.27400001 66555.05114986  3294.47518783
0.27500001 65023.74664291  2961.18156226
0.27600001 63526.09170200  2903.46015865
0.27700001 62065.19312188  3364.55427837
0.27800001 60638.25221513  3299.02426790
0.27900001 59245.91630784  2488.32860270
0.28000001 57887.29905823  2683.94474786
0.28100001 56561.88431694  2392.56781984
0.28200001 55269.87211118  2815.44741860
0.28300001 54010.15616482  2760.99931382
0.28400001 52782.65400270  2256.45856542
0.28500001 51586.80028721  2213.07383707
0.28600001 50421.34618856  2821.83077301
0.28700001 49286.96018886  2980.87549331
0.28800001 48182.16717781  2088.69704602
0.28900001 47108.64618459  2049.22620603
0.29000001 46062.88847250  2814.90324780
0.29100001 45047.38122110  2367.69046906
0.29200001 44059.40580503  2517.33426983
0.29300001 43099.55223570  2470.89744663
0.29400001 42167.16157403  3172.02487956
0.29500001 41262.82797213  2381.69054329
0.29600001 40384.11451078  2338.84610261
0.29700001 39531.43752667  2827.28854575
0.29800001 38705.30972999  2083.11986828
0.29900001 37904.37913553  2558.54571277
0.30000001 37128.38561940  2011.61602809
0.30100001 36377.75147861  2142.28588599
0.30200001 35650.27722561  1782.33569427
0.30300001 34946.82722129  1912.29047608
0.30400001 34267.49760064  2038.05951628
0.30500001 33610.06774050  1696.97240056
0.30600001 32975.35545078  1822.21822848
0.30700001 32363.24228964  1794.21823748
0.30800001 31772.76319125  1619.93440800
0.30900001 31203.57526048  2176.44947746
0.31000001 30656.26764841  2145.17243026
0.31100001 30127.80078131  1691.97737199
0.31200001 29620.72261952  1668.83159140
0.31300001 29132.91347423  2332.67249232
0.31400001 28666.06836938  1489.91897404
0.31500001 28217.30197912  1605.00021256
0.31600002 27787.37936629  1453.41894657
0.31700002 27375.39486276  1828.12895549
0.31800002 26982.02453267  1420.19892852
0.31900002 26606.47206725  1660.24393561
0.32000002 26248.03730803  2022.14888996
0.32100002 25906.95453543  1251.30596331
0.32200002 25582.50853660  1859.20889593
0.32300002 25273.61746671  1351.12765375
0.32400002 24981.20203946  1583.18375422
0.32500002 24703.99895405  1932.84096969
0.32600002 24442.53533525  2277.92218843
0.32700002 24195.98704500  1309.48688088
0.32800002 23964.65212173  1300.92120203
0.32900002 23746.50274401  1292.99713564
0.33000002 23544.04249926  1285.85794199
0.33100002 23352.82989695  1279.26808233
0.33200002 23177.51344331  1389.26022158
0.33300002 23013.96028825  1152.99946504
0.33400002 22864.09247948  1378.70484180
0.33500002 22726.09301074  1489.01368458
0.33600002 22600.33849221  1256.69188137
0.33700002 22485.76437724  1596.03963108
0.33800002 22384.25134364  1252.06315820
0.33900002 22292.83589217  1705.40202651
0.34000002 22213.13689403  1590.68280831
0.34100002 22144.05436731  1590.38605998
0.34200002 22086.36874807  1704.51558886
0.34300002 22037.44227280  1137.13207513
0.34400002 21999.63753746  1138.48129648
0.34500002 21970.88944328  1482.37598094
0.34600002 21952.89759234  1371.17804856
0.34700002 21941.96624442  1259.90776143
0.34800002 21941.58406117  1378.37037600
0.34900002 21949.40442778  1267.57816574
0.35000002 21965.88549706  1503.45510405
0.35100002 21990.53998854  1625.54079294
0.35200002 22022.45486142  1399.30684817
0.35300002 22062.50931581  1288.67123017
0.35400002 22110.45657434  1648.33461569
0.35500002 22165.34932838  1301.99268122
0.35600002 22226.91521357  1666.35191249
0.35700002 22295.35967416  1676.16521969
0.35800002 22371.09974743  1445.62053415
0.35900002 22452.63349505  1939.90762586
0.36000002 22541.01028476  1220.59576473
0.36100002 22634.56250160  1597.77384267
0.36200002 22735.04177538  1609.30000830
0.36300002 22839.28254603  1247.02488608
0.36400002 22949.67777792  1382.14440964
0.36500002 23064.74632688  1266.25463333
0.36600002 23185.34738457  1659.25946417
0.36700002 23310.23594134  1415.39759340
0.36800002 23441.02919133  1427.20712992
0.36900002 23575.19036402  1308.42312718
0.37000002 23712.74216695  1979.42124615
0.37100002 23854.62551409  1996.63225011
0.37200002 24000.89219145  1342.84998172
0.37300002 24150.17066200  1354.82463832
0.37400002 24303.91440945  1367.09525029
0.37500002 24459.87780471  1655.44460824
0.37600002 24620.07024234  2366.85056487
0.37700002 24781.93756805  1826.67670467
0.37800002 24947.53453630  1418.26740558
0.37900002 25115.64686100  2290.54710223
0.38000002 25286.29031542  1589.62271598
0.38100002 25458.77548773  1604.66669501
0.38200002 25633.73528934  1619.92397835
0.38300002 25810.44076764  1635.34960451
0.38400002 25989.78313386  2551.54708004
0.38500002 26169.79667028  1818.27755879
0.38600002 26352.54386368  2141.67134126
0.38700002 26535.68008201  1853.25198473
0.38800002 26720.12906017  1715.03156498
0.38900002 26906.03700010  1731.40356298
0.39000002 27093.65501805  1589.04294209
0.39100002 27281.16124283  2085.37206420
0.39200002 27470.32453326  2105.18842034
0.39300002 27659.57985555  1961.61749629
0.39400002 27850.29100634  1650.12982030
0.39500002 28040.48867987  1665.60510650
0.39600002 28231.01249421  2353.61962315
0.39700002 28421.51946942  1866.44127199
0.39800002 28613.23149133  2055.00238307
0.39900002 28803.88508408  1901.05650562
0.40000002 28994.44350316  2092.81903121
0.40100002 29184.71836378  2463.77404100
0.40200002 29375.78265933  1953.34276048
0.40300002 29565.25216432  1970.81980265
0.40400002 29754.26696467  2892.11488600
0.40500002 29942.83273905  2188.22232025
0.40600002 30130.78333729  2575.27817386
0.40700002 30317.72543650  2040.98937309
0.40800002 30504.10180652  2245.71208140
0.40900002 30688.67588182  2076.08902177
0.41000002 30872.99989670  2283.98464058
0.41100002 31055.89879586  2495.03102748
0.41200002 31236.80601393  2322.14426910
0.41300002 31417.01322951  1950.99661400
0.41400002 31595.54491491  2753.55186981
0.41500002 31773.18584900  2379.17626911
0.41600002 31947.98551018  2398.01590602
0.41700002 32121.97764387  2618.26252182
0.41800002 32295.08536346  2435.69545353
0.41900002 32464.40899191  2454.30943608
0.42000002 32632.76830395  2472.91129925
0.42100002 32799.76616375  2906.71541517
0.42200002 32964.50732947  2300.75789808
0.42300002 33126.83479741  2106.86679295
0.42400002 33287.01171717  3183.07064629
0.42500002 33445.51512360  2992.03592474
0.42600002 33600.35357566  2367.31302335
0.42700002 33754.37406305  2383.73400929
0.42800002 33905.50187997  3709.09255392
0.42900002 34054.80713292  3514.45626266
0.43000002 34201.64439651  2211.13641501
0.43100002 34344.58769223  3115.74114309
0.43200002 34485.98589170  2463.85137879
0.43300002 34624.42603100  2479.45526558
0.43400002 34760.72591546  3175.39246285
0.43500002 34893.72531212  2966.66466662
0.43600002 35025.21350637  3673.44456663
0.43700002 35152.92895834  3464.32131301
0.43800002 35277.08043513  2555.29544241
0.43900002 35399.68059612  3037.29273908
0.44000002 35518.55320642  2584.50764654
0.44100002 35635.19335574  3071.39746088
0.44200002 35748.74771304  2613.05483792
0.44300002 35859.55097526  3821.19393301
0.44400002 35966.84619901  2640.86580731
0.44500002 36070.40602620  2895.73233301
0.44600002 36171.74743233  2425.31578028
0.44700002 36270.28587828  4143.51765510
0.44800002 36364.49607211  3428.80849714
0.44900002 36457.14332974  2953.02874966
0.45000002 36546.35661919  2966.83337095
0.45100002 36631.04447359  2731.94342631
0.45200002 36713.62833791  3243.09851293
0.45300002 36792.35298174  2505.55935680
0.45400002 36868.53083556  3774.41602317
0.45500002 36941.37012854  3537.50577116
0.45600002 37010.65658972  3298.20481831
0.45700002 37076.64945336  3311.31571962
0.45800002 37138.88504727  2812.71359236
0.45900002 37198.15702952  2823.34025235
0.46000002 37254.83109252  2833.78886136
0.46100002 37306.93822744  3102.44513003
0.46200002 37356.71796385  3632.19385977
0.46300002 37402.58831269  3644.50837792
0.46400002 37444.81463853  3656.48632275
0.46500002 37484.66281603  3406.23147153
0.46600002 37520.24838321  3416.78158096
0.46700002 37552.61220724  2899.81285208
0.46800002 37582.28219434  2908.30504545
0.46900002 37607.92060405  2916.49438108
0.47000002 37629.80126665  2924.40014404
0.47100002 37648.87250859  3198.64835994
0.47200002 37664.43346116  3741.20835302
0.47300002 37677.25647582  4018.27959360
0.47400002 37685.20159158  3759.09903693
0.47500002 37691.16474227  3229.37914818
0.47600002 37693.91429236  2966.69966500
0.47700002 37692.16988803  3783.54019269
