# SAXS profile: number of points = 501, q_min = 0, q_max = 0.5, delta_q = 0.001
#    q    intensity    error
0.00000000 1646666.22097351 321.09991309
0.00100000 1646598.40869028 493.97953434
0.00200000 1646394.91839865 814.96551041
0.00300000 1646055.91661388 1382.68701921
0.00400000 1645581.28146144 1481.02320959
0.00500000 1644971.43797829 1776.56922334
0.00600000 1644226.16304682 1899.08129563
0.00700000 1643346.05735052 1972.01535078
0.00800000 1642330.62594063 2660.57572635
0.00900000 1641181.14971784 2954.12619577
0.01000000 1639896.86665646 3517.57893087
0.01100000 1638478.98278173 3539.11475690
0.01200000 1636926.87811967 3192.00755228
0.01300000 1635242.08571311 3777.40938460
0.01400000 1633423.72450880 3675.20354307
0.01500000 1631473.60812998 4307.09051725
0.01600000 1629390.62318492 4154.94627486
0.01700000 1627176.81713205 6150.72864467
0.01800000 1624831.79046652 5556.92497344
0.01900000 1622356.29585916 5840.48292863
0.02000000 1619750.83554251 5612.43689904
0.02100000 1617017.08726623 6403.38795589
0.02200000 1614153.30128828 7796.36079943
0.02300000 1611162.39544426 6960.22186514
0.02400000 1608044.15298265 7839.21560324
0.02500000 1604799.76526761 7510.46324446
0.02600000 1601429.67802466 7782.94859118
0.02700000 1597934.79465490 8053.59173392
0.02800000 1594314.96198411 11096.43264429
0.02900000 1590572.85888050 10736.36729040
0.03000000 1586708.53238897 11805.11202360
0.03100000 1582722.54050423 8356.77539838
0.03200000 1578615.52722110 8595.56194161
0.03300000 1574390.61985621 12847.02805028
0.03400000 1570045.45206136 9891.28680437
0.03500000 1565583.73831965 10144.98309279
0.03600000 1561004.92093082 10396.29325385
0.03700000 1556310.86387986 12419.36126813
0.03800000 1551503.08422921 13614.44019418
0.03900000 1546582.37591134 12063.34309076
0.04000000 1541548.08396631 12324.67750242
0.04100000 1536403.88775503 11615.21392999
0.04200000 1531150.19436403 10863.51113300
0.04300000 1525787.01849422 12084.23374740
0.04400000 1520318.03215482 12314.57663237
0.04500000 1514742.92787968 11496.89935681
0.04600000 1509061.79142103 12766.66334890
0.04700000 1503278.15249586 11905.96352149
0.04800000 1497391.81682928 12106.41340235
0.04900000 1491405.63766242 13422.65136375
0.05000000 1485319.22317905 14771.50036237
0.05100000 1479135.86395056 14998.43835915
0.05200000 1472853.75167113 14051.02544574
0.05300000 1466478.25202473 14254.16927418
0.05400000 1460007.66822739 13249.57020704
0.05500000 1453446.14063723 17092.52741125
0.05600000 1446791.81051841 17318.09878004
0.05700000 1440049.95725072 15034.12225547
0.05800000 1433219.00426507 16489.18541399
0.05900000 1426301.29366751 12836.71224256
0.06000000 1419298.91804796 14285.24427754
0.06100000 1412213.67841058 17073.66416986
0.06200000 1405046.13196658 14605.45522450
0.06300000 1397799.41640152 14760.76252734
0.06400000 1390471.47824962 16268.51705635
0.06500000 1383068.85334911 15061.62051752
0.06600000 1375589.10856771 16589.60542553
0.06700000 1368035.12266624 19535.54246592
0.06800000 1360410.06164600 18304.31823626
0.06900000 1352714.48348609 18464.55356408
0.07000000 1344948.10750862 17188.43761887
0.07100000 1337115.64418330 27437.61430376
0.07200000 1329215.98439959 16010.40728213
0.07300000 1321253.73367820 24932.05912271
0.07400000 1313228.49547798 19205.96764644
0.07500000 1305142.25638348 19342.20914622
0.07600000 1296995.50898510 16478.32871417
0.07700000 1288793.46328615 16586.77265022
0.07800000 1280534.57099508 18209.20245349
0.07900000 1272220.68932731 15266.64898799
0.08000000 1263855.85438052 18427.01922130
0.08100000 1255440.06825164 18530.29627680
0.08200000 1246974.02290505 15524.82731367
0.08300000 1238461.05996103 17165.07109665
0.08400000 1229901.84027073 15681.24919951
0.08500000 1221300.23065487 20481.20582958
0.08600000 1212655.15970234 18990.18069256
0.08700000 1203970.33451096 19070.89099418
0.08800000 1195244.19851502 22339.11511937
0.08900000 1186483.23192881 16017.52438338
0.09000000 1177685.79438993 27328.20014257
0.09100000 1168854.83388043 22582.27645151
0.09200000 1159990.82668307 17800.06007182
0.09300000 1151097.66493768 19476.57340599
0.09400000 1142173.14947732 19531.16177398
0.09500000 1133222.20482305 19582.08061975
0.09600000 1124245.40702247 26172.43430579
0.09700000 1115245.72812600 18033.52427160
0.09800000 1106224.19579888 18070.17308799
0.09900000 1097182.61339120 18103.51397223
0.10000000 1088120.24492908 16485.02248592
0.10100000 1079040.50799337 23113.04876827
0.10200000 1069945.47083563 21489.85579254
0.10300000 1060835.73853048 24823.55744933
0.10400000 1051713.99538709 16564.49620662
0.10500000 1042583.07341400 19892.48597667
0.10600001 1033439.30361948 19904.04192427
0.10700001 1024290.52341282 18252.85798615
0.10800001 1015133.40096450 19916.91826425
0.10900001 1005972.47211138 18258.40122817
0.11000001 996807.98424034 19916.22446257
0.11100001 987641.70728057 23229.33404872
0.11200001 978476.59682898 18243.69700674
0.11300001 969310.63545845 29835.38276408
0.11400001 960149.08539143 19875.08700341
0.11500001 950991.61822058 19856.70592346
0.11600001 941839.58895114 16529.28556448
0.11700001 932695.63186153 23112.19884600
0.11800001 923558.52369410 26376.83267901
0.11900001 914431.96819049 16459.77620271
0.12000001 905316.53235648 19717.79500353
0.12100001 896215.25953716 26241.18403542
0.12200001 887126.92484146 22914.48954819
0.12300001 878054.67251776 16331.81767829
0.12400001 868998.50412341 16293.72272003
0.12500001 859960.45543282 19503.90404825
0.12600001 850943.34735193 19452.56583714
0.12700001 841946.70084001 17781.91515974
0.12800001 832970.80339753 24176.97870806
0.12900001 824018.80381379 19282.04091805
0.13000001 815091.06823883 19219.84829500
0.13100001 806188.06498809 20751.28177096
0.13200001 797312.80746639 17497.03038467
0.13300001 788466.99415589 15848.18732966
0.13400001 779648.69492025 20524.25286140
0.13500001 770861.51891517 18870.69087276
0.13600001 762104.92599801 23491.88545155
0.13700001 753381.69256266 18714.00212568
0.13800001 744690.68454680 18632.16180597
0.13900001 736036.70671334 17002.44872688
0.14000001 727417.07084634 21538.82048354
0.14100001 718834.37474114 26028.99393698
0.14200001 710288.67893687 15235.69288179
0.14300001 701784.15539684 15158.53847156
0.14400001 693315.54091359 16587.57509879
0.14500001 684891.22879105 16499.03047987
0.14600001 676505.77716316 25358.82025325
0.14700001 668165.98585447 23733.25693720
0.14800001 659866.97006332 16222.83022438
0.14900001 651612.15373563 20525.78381110
0.15000001 643402.84921541 18944.99778903
0.15100001 635239.67040857 15931.81168559
0.15200001 627123.80385860 21588.73796654
0.15300001 619055.54645122 20020.25731697
0.15400001 611033.55503709 14206.53082503
0.15500001 603062.50167670 15522.82952573
0.15600001 595138.75173056 18220.17374413
0.15700001 587269.15930455 19485.59162538
0.15800001 579446.26488887 20729.69110481
0.15900001 571677.96044160 15092.29886802
0.16000001 563959.69597126 19067.47822082
0.16100001 556297.38613001 18925.23796949
0.16200001 548686.47222269 14756.92336705
0.16300001 541131.04830151 15974.18929997
0.16400001 533629.74585260 14528.07051670
0.16500001 526183.94783773 15722.37710367
0.16600001 518793.82349403 18194.10024893
0.16700001 511459.07470531 18044.27700756
0.16800001 504180.63594051 15337.17566948
0.16900001 496961.29251668 16474.26762481
0.17000001 489798.39376931 22613.99290815
0.17100001 482693.89035469 14944.20355107
0.17200001 475647.96753813 16045.98494264
0.17300001 468660.35645616 13455.23946927
0.17400001 461733.23115546 14544.59746828
0.17500001 454864.86911430 14410.11973410
0.17600001 448054.57534647 14275.01944473
0.17700001 441306.96700218 14139.47589057
0.17800001 434618.51839025 17504.26165493
0.17900001 427990.75894893 16178.05145242
0.18000001 421424.83588250 14874.19028506
0.18100001 414921.17189492 15858.28793891
0.18200001 408475.79473692 15697.72553327
0.18300001 402094.65424982 15536.93817417
0.18400001 395774.06796713 14277.55017640
0.18500001 389516.27678307 11954.25509922
0.18600001 383320.30430498 10752.13504372
0.18700001 377186.20848951 10636.65158193
0.18800001 371114.16353074 10521.08703318
0.18900001 365106.60142938 11446.09249561
0.19000001 359157.39344238 14405.80373163
0.19100001 353275.81735629 11191.77842266
0.19200001 347452.86628151 16094.01752662
0.19300001 341695.69252516 9943.34512233
0.19400001 335999.87944134 11793.59632568
0.19500001 330367.44984742 10684.08383294
0.19600001 324796.23422976 10557.50209255
0.19700001 319288.86660535 12327.74372221
0.19800001 313843.79233450 16862.82775905
0.19900001 308462.40697353 12955.42170516
0.20000001 303141.66448807 10053.69377790
0.20100001 297884.98736175 10831.09865238
0.20200001 292689.40754664 8912.39288103
0.20300001 287556.99118664 8799.24434620
0.20400001 282486.55213632 9555.10807764
0.20500001 277477.42467133 9431.45811037
0.20600001 272531.01526406 9308.29726633
0.20700001 267645.66705764 12525.81781038
0.20800001 262822.02000714 12359.20607506
0.20900001 258062.01914000 9754.74478461
0.21000001 253360.30077546 8018.85389861
0.21100001 248720.06736618 11863.94777422
0.21200001 244140.62243321 9360.35190659
0.21300001 239621.51112199 9230.22104478
0.21400001 235163.44302163 12134.43423359
0.21500001 230766.11126291 8224.50459424
0.21600001 226427.33792553 8107.23121772
0.21700001 222148.68091438 10896.39331403
0.21800001 217929.29346989 9306.67091766
0.21900001 213767.74555518 8465.20312423
0.22000001 209664.75799373 10425.58058419
0.22100001 205622.39590190 7531.94871802
0.22200001 201636.92523310 7419.23101477
0.22300001 197709.00889225 7971.62761548
0.22400001 193837.08896260 7196.20226802
0.22500001 190025.47966310 9018.60969128
0.22600001 186268.33194711 6342.43700272
0.22700001 182569.04160303 7492.63382171
0.22800001 178924.92519915 7989.89291261
0.22900001 175336.13222942 6654.00653278
0.23000001 171802.87434405 8334.15782857
0.23100001 168326.03919242 9372.39430548
0.23200001 164901.73776093 8068.64241024
0.23300001 161532.85664892 6236.78389018
0.23400001 158217.84312719 7808.05092761
0.23500001 154954.71341295 6582.47653711
0.23600001 151745.82254861 8091.84637012
0.23700001 148589.22584870 6896.02629781
0.23800001 145484.50028273 5215.61958183
0.23900001 142431.83875515 6153.05572526
0.24000001 139430.13837587 7560.59961105
0.24100001 136480.51709544 5449.66730540
0.24200001 133580.68342199 4869.01614105
0.24300001 130730.99123686 6220.18085728
0.24400001 127930.37312379 6582.01800857
0.24500001 125179.16437316 4619.11138387
0.24600001 122476.89552271 6352.87687129
0.24700001 119823.38879625 4903.17330149
0.24800001 117216.60054107 5691.45230852
0.24900001 114657.30552914 6019.50882505
0.25000001 112145.50476801 4222.27845426
0.25100001 109679.36365507 4145.88014230
0.25200001 107260.44276000 4477.58739485
0.25300001 104887.04889214 6393.91480296
0.25400001 102557.75320147 6668.81821743
0.25500001 100273.27519427 4235.54334460
0.25600001 98033.42973144  5668.78334243
0.25700001 95836.91206859  4450.66640704
0.25800001 93683.56038138  4003.56714232
0.25900001 91573.24958247  4642.76397350
0.26000001 89505.83294363  4555.39958321
0.26100001 87478.00273660  4125.46280426
0.26200001 85493.89450440  3710.00772756
0.26300001 83549.25653054  3308.55071516
0.26400001 81645.14732748  4219.01318778
0.26500001 79781.58382032  4774.92801759
0.26600001 77956.47279058  3434.37257130
0.26700001 76171.52788027  3674.51467882
0.26800001 74424.87298737  3303.34814386
0.26900001 72715.71787886  4417.48007018
0.27000001 71044.87760253  2887.97441121
0.27100001 69410.62712655  4247.93058117
0.27200001 67813.56394949  3054.66213266
0.27300001 66252.11133868  3539.85047635
0.27400001 64725.38891686  3203.90690301
0.27500001 63235.93888615  2879.76479316
0.27600001 61779.24388259  2823.62047528
0.27700001 60358.71249594  2516.95843020
0.27800001 58970.82403804  2961.51492335
0.27900001 57617.06017036  2661.90830585
0.28000001 56295.64264345  3084.71988464
0.28100001 55006.81902201  2559.46741023
0.28200001 53750.33650878  2509.87208207
0.28300001 52525.29582739  2685.09324978
0.28400001 51331.73478800  3730.53400229
0.28500001 50168.75679673  3013.13567583
0.28600001 49035.44802244  2533.17136474
0.28700001 47932.38028017  3106.01838917
0.28800001 46857.96227735  2437.55131304
0.28900001 45813.93172171  2391.48734907
0.29000001 44797.04273484  2346.46920952
0.29100001 43809.63587397  2878.29321316
0.29200001 42848.77542056  2071.52414576
0.29300001 41915.30237319  2218.15790659
0.29400001 41008.45225601  2540.47373752
0.29500001 40129.19598250  2494.43094035
0.29600001 39274.53235146  1924.64854899
0.29700001 38445.24828693  1718.50267978
0.29800001 37641.74155634  1857.05540759
0.29900001 36862.78565182  2322.35560600
0.30000001 36108.00127393  2445.41450204
0.30100001 35377.82945728  2403.92362542
0.30200001 34670.05035675  2206.05540864
0.30300001 33985.76907124  1704.72625732
0.30400001 33324.93295682  1677.07733045
0.30500001 32685.25728595  1650.27871850
0.30600001 32067.73892236  1919.73528147
0.30700001 31472.12871927  2326.41986507
0.30800001 30897.54640231  2004.94188097
0.30900001 30343.49058757  2398.65304451
0.31000001 29810.84813033  1946.94658357
0.31100001 29296.32716777  1645.28181164
0.31200001 28802.83766734  1352.29329251
0.31300001 28327.73255522  1601.08351983
0.31400001 27873.09100302  1712.10469592
0.31500001 27436.29179978  1690.62438075
0.31600002 27017.27506915  2055.47438458
0.31700002 26616.01378205  1269.58391752
0.31800002 26232.74152316  1255.23674132
0.31900002 25866.69071225  1614.08157687
0.32000002 25517.16877563  1597.24725514
0.32100002 25184.57087629  1459.69779711
0.32200002 24868.27050199  1445.84131545
0.32300002 24567.00873390  1193.95668100
0.32400002 24281.59545861  1420.47340159
0.32500002 24011.03777049  1643.79572360
0.32600002 23755.83347427  1398.26842451
0.32700002 23514.84026136  2429.55341085
0.32800002 23288.81170645  1494.09378578
0.32900002 23075.52702513  1142.23864183
0.33000002 22877.36754924  1363.03362313
0.33100002 22690.20813059  1242.96966025
0.33200002 22518.57553028  1462.24377130
0.33300002 22358.31343295  1904.25764526
0.33400002 22211.20417229  1562.55828752
0.33500002 22075.69906890  1335.13834291
0.33600002 21952.09826317  1220.64648173
0.33700002 21839.24061154  1328.69946173
0.33800002 21739.19217392  1326.52556927
0.33900002 21648.71108841  1766.53490847
0.34000002 21569.90544884  1213.63078755
0.34100002 21501.21091642  1323.61460670
0.34200002 21443.48907894  1213.59432190
0.34300002 21394.50752178  1214.35230445
0.34400002 21356.09004260  1436.73102566
0.34500002 21326.63320130  1438.90801024
0.34600002 21307.63625690  1219.96877167
0.34700002 21295.29377777  1222.77582663
0.34800002 21293.33288256  1560.58844087
0.34900002 21299.38054703  1230.03928485
0.35000002 21313.70721819  1683.25010728
0.35100002 21336.10607780  1239.20109969
0.35200002 21365.60602747  1470.70156056
0.35300002 21402.78911304  1477.43460245
0.35400002 21447.85766729  1370.51816985
0.35500002 21499.63156061  1377.69645566
0.35600002 21557.70986962  1269.85696002
0.35700002 21622.74384165  1277.25553922
0.35800002 21694.62682950  1285.08128111
0.35900002 21772.27997945  1293.27349204
0.36000002 21856.69925061  1420.24838458
0.36100002 21945.91982650  1310.82985333
0.36200002 22042.07485177  1440.22923903
0.36300002 22141.71412643  1571.61894314
0.36400002 22247.48172007  2070.68445918
0.36500002 22357.75727424  1595.67321225
0.36600002 22473.42053605  1608.31041685
0.36700002 22593.24908399  2244.86533532
0.36800002 22718.99238180  1383.24591669
0.36900002 22847.98475610  1521.67585684
0.37000002 22980.08170594  1406.72576826
0.37100002 23116.73157787  1418.90505146
0.37200002 23257.42478840  1561.50357426
0.37300002 23401.14093044  1837.92569574
0.37400002 23549.20749254  1722.03587947
0.37500002 23699.60069895  2272.31782266
0.37600002 23853.97317071  1348.94224671
0.37700002 24010.01059893  1361.36766545
0.37800002 24169.93106247  1374.06064599
0.37900002 24332.07787810  1525.62135523
0.38000002 24496.83351918  1399.99410194
0.38100002 24663.39351007  2119.81877261
0.38200002 24832.42300719  1711.94732322
0.38300002 25003.07417883  2016.24799730
0.38400002 25176.45667457  1744.72853020
0.38500002 25350.33414464  1614.56285816
0.38600002 25527.25029730  1926.41403495
0.38700002 25704.45325005  1645.59917503
0.38800002 25882.95720375  1963.35181171
0.38900002 26062.89154068  2591.95468652
0.39000002 26244.59636288  2154.94390945
0.39100002 26426.34492443  2020.02990173
0.39200002 26609.43306655  1882.35138431
0.39300002 26792.98283674  2058.50496887
0.39400002 26977.86159248  1918.12605010
0.39500002 27162.40084103  2581.51469824
0.39600002 27347.33010519  2279.94701889
0.39700002 27532.20245363  2136.77433366
0.39800002 27718.29740913  1824.83419639
0.39900002 27903.51993066  1841.63240268
0.40000002 28088.86124942  1858.49959262
0.40100002 28273.59826496  1875.38786177
0.40200002 28459.46898213  2408.52497407
0.40300002 28643.76122160  2256.55561595
0.40400002 28827.66329332  2101.53675365
0.40500002 29011.18292670  1766.78112395
0.40600002 29194.26030728  2317.00257907
0.40700002 29376.43372239  1797.83782899
0.40800002 29558.22821601  2538.75634176
0.40900002 29738.14003650  1828.89569890
0.41000002 29917.98809693  3319.99929642
0.41100002 30096.47789604  2417.95114874
0.41200002 30273.18199777  2250.50845635
0.41300002 30449.22734099  2836.34566121
0.41400002 30623.86769766  2287.60302541
0.41500002 30797.59138371  2306.12375208
0.41600002 30968.60471284  2518.21221155
0.41700002 31139.02566685  2147.65870201
0.41800002 31308.55901779  2164.51733026
0.41900002 31474.55457912  2379.47643893
0.42000002 31639.68893156  1998.04645070
0.42100002 31803.63737985  2214.48737569
0.42200002 31965.45599413  2433.84993472
0.42300002 32124.99937408  2043.15005701
0.42400002 32282.52454748  2058.01103742
0.42500002 32438.54503697  2487.38775130
0.42600002 32591.15627577  2296.21002422
0.42700002 32743.06972778  2312.31569375
0.42800002 32892.10916745  2328.26805775
0.42900002 33039.63654487  2770.37365557
0.43000002 33184.70511169  2359.93041585
0.43100002 33326.13557453  3671.20726886
0.43200002 33466.25230502  2608.35982826
0.43300002 33603.53744197  2843.86750848
0.43400002 33738.75516607  2641.74465469
0.43500002 33871.10803226  2436.68762731
0.43600002 34001.80778556  2674.58232716
0.43700002 34128.94011878  3363.40720809
0.43800002 34252.85914878  2481.10597002
0.43900002 34375.32227489  2495.64851542
0.44000002 34494.20013355  2509.97059166
0.44100002 34611.14302831  3671.55022644
0.44200002 34725.05067983  3691.96756324
0.44300002 34836.47751943  3248.15331784
0.44400002 34944.57367791  2332.55040354
0.44500002 35049.03657654  3517.17098714
0.44600002 35151.47489617  2828.28780418
0.44700002 35251.22013194  2842.65852616
0.44800002 35347.12803221  2380.62918579
0.44900002 35441.35955956  2870.75026037
0.45000002 35532.37470032  2644.14178864
0.45100002 35619.12997582  2897.97255217
0.45200002 35703.90875087  2668.68878606
0.45300002 35785.13174570  2436.96758738
0.45400002 35863.92561000  2447.71303889
0.45500002 35939.50379838  3441.56704684
0.45600002 36011.64717408  3456.03794309
0.45700002 36080.92079567  3222.38718898
0.45800002 36146.45621818  2986.42035428
0.45900002 36209.16864156  2998.11930561
0.46000002 36269.64600265  3260.45998194
0.46100002 36325.73928567  3776.06077771
0.46200002 36379.52488488  2779.21393530
0.46300002 36429.64616085  2789.05384226
0.46400002 36476.28387399  3053.06510495
0.46500002 36520.64356172  3318.63103774
0.46600002 36561.10766167  3329.43742701
0.46700002 36598.48422523  4110.74194301
0.46800002 36633.28872624  3092.58238085
0.46900002 36664.20276317  3101.79170078
0.47000002 36691.72256665  3369.95141886
0.47100002 36716.47381148  2859.47911597
0.47200002 36737.86682601  2606.55177485
0.47300002 36756.53339123  2613.38964798
0.47400002 36770.87754926  2881.91766452
0.47500002 36783.08796561  3939.46890784
0.47600002 36792.38945585  3685.49382648
0.47700002 36797.51255973  2638.38177559
