# SAXS profile: number of points = 501, q_min = 0, q_max = 0.5, delta_q = 0.001
#    q    intensity    error
0.00000000 1682732.95097188 302.89193117
0.00100000 1682663.94582903 555.27911531
0.00200000 1682456.87247154 757.10561659
0.00300000 1682111.90187892 1009.26717708
0.00400000 1681628.89692786 1387.34389268
0.00500000 1681008.33783617 2269.36134590
0.00600000 1680249.91505594 2293.54122743
0.00700000 1679354.32009521 2418.27032144
0.00800000 1678321.00270670 2492.30679424
0.00900000 1677151.28848220 3270.44515234
0.01000000 1675844.35941590 3594.68630616
0.01100000 1674401.47031944 3918.09961114
0.01200000 1672822.05167625 4893.00471568
0.01300000 1671107.52865352 4562.12375444
0.01400000 1669257.06714504 3755.82856758
0.01500000 1667272.56552581 5201.89063607
0.01600000 1665152.80354013 7218.43772604
0.01700000 1662899.91313352 4938.81296356
0.01800000 1660513.41724222 5678.95614251
0.01900000 1657994.18074254 5968.77932000
0.02000000 1655342.64710067 5735.76253166
0.02100000 1652560.55523188 6544.14009542
0.02200000 1649646.15142941 5691.27948100
0.02300000 1646602.23675455 6520.54515435
0.02400000 1643428.67574554 8011.71515957
0.02500000 1640126.90434777 10234.39235054
0.02600000 1636696.97599731 8617.20997276
0.02700000 1633140.12450333 10974.70213932
0.02800000 1629456.04720274 10632.20119559
0.02900000 1625647.37843340 8778.49624660
0.03000000 1621714.40848136 8295.06958067
0.03100000 1617657.44835747 10094.18294222
0.03200000 1613477.37449162 11181.39872022
0.03300000 1609177.14056375 11489.52531330
0.03400000 1604754.55469587 10952.45034115
0.03500000 1600213.20774520 8641.15172086
0.03600000 1595552.62404952 10626.38096725
0.03700000 1590774.71397874 9974.15791793
0.03800000 1585880.86929053 9277.40351470
0.03900000 1580872.08418320 9485.23294436
0.04000000 1575747.55222319 11629.01747428
0.04100000 1570511.07167615 10883.64223135
0.04200000 1565163.11567355 13123.89333378
0.04300000 1559703.68922719 11323.44930940
0.04400000 1554136.20458980 14686.58781545
0.04500000 1548460.60955018 11752.81657258
0.04600000 1542677.17839921 14138.63699729
0.04700000 1536789.05102892 13277.85801842
0.04800000 1530796.60845730 11251.35559567
0.04900000 1524702.15131325 13722.32000056
0.05000000 1518505.64086304 15101.53930160
0.05100000 1512210.22054752 12974.76429671
0.05200000 1505814.17394491 13168.34556481
0.05300000 1499322.80751196 13358.96683770
0.05400000 1492734.63918362 13546.56748232
0.05500000 1486053.63684145 13731.13624496
0.05600000 1479278.00050980 13912.61024401
0.05700000 1472413.12150791 15371.99370608
0.05800000 1465457.29968253 16860.08702009
0.05900000 1458412.82283657 15750.85922229
0.06000000 1451282.18219784 17263.00236375
0.06100000 1444067.23903721 16115.79114077
0.06200000 1436767.96360489 13577.45789072
0.06300000 1429387.83670930 19210.97342359
0.06400000 1421925.03117988 16636.52364284
0.06500000 1414385.63506229 22403.86950739
0.06600000 1406767.68721283 14138.01591799
0.06700000 1399073.97326403 21405.83279271
0.06800000 1391307.67874575 15840.03866398
0.06900000 1383469.22478417 21789.64131052
0.07000000 1375558.48746570 19044.60815079
0.07100000 1367580.09104356 14769.86567506
0.07200000 1359533.10916035 19352.95471552
0.07300000 1351422.28903314 22501.18216671
0.07400000 1343246.91954147 25689.59854015
0.07500000 1335009.24415830 19784.83792579
0.07600000 1326709.52873375 24517.59324040
0.07700000 1318353.36339974 16967.20858252
0.07800000 1309938.77333155 20179.60774952
0.07900000 1301468.09438253 15617.61786511
0.08000000 1292945.37594193 21993.00187649
0.08100000 1284370.23384693 18957.30554102
0.08200000 1275743.68319849 22236.21344159
0.08300000 1267069.31909814 17561.58158690
0.08400000 1258346.96626995 20857.10194493
0.08500000 1249581.26795348 19343.51893600
0.08600000 1240771.14678440 25907.30276125
0.08700000 1231919.95686828 24392.01629139
0.08800000 1223026.67734627 21225.62898218
0.08900000 1214097.38628194 18029.34703312
0.09000000 1205130.68897079 18095.03814492
0.09100000 1196129.20593010 23109.21734427
0.09200000 1187094.04581851 21527.95153245
0.09300000 1178028.73179942 31559.39120795
0.09400000 1168931.22737046 23320.17908203
0.09500000 1159806.23615684 21711.57376136
0.09600000 1150654.34800678 18416.22370555
0.09700000 1141479.21628072 21813.66884865
0.09800000 1132281.26915314 21858.69092875
0.09900000 1123062.37107949 20215.12363000
0.10000000 1113822.02585422 18561.84493377
0.10100000 1104563.53129363 21969.76967071
0.10200000 1095289.12349438 16922.21775395
0.10300000 1085999.29656634 22024.06677039
0.10400000 1076696.85637603 16957.97628571
0.10500000 1067384.69039389 22062.84258848
0.10600001 1058059.16300274 25472.77554788
0.10700001 1048727.38600210 18688.32289799
0.10800001 1039387.43853287 22092.18104571
0.10900001 1030042.93503359 18695.28015077
0.11000001 1020694.70333436 16994.56761044
0.11100001 1011343.95821978 18689.63722769
0.11200001 1001993.62517634 20380.55129554
0.11300001 992642.36311457 18671.60372926
0.11400001 983295.12782973 20354.21010444
0.11500001 973951.44067212 27114.80938509
0.11600001 964613.20356086 20314.75502364
0.11700001 955282.61537752 23671.90432388
0.11800001 945958.54730498 18573.89695113
0.11900001 936644.81439429 21917.48968918
0.12000001 927341.95427767 23563.76016816
0.12100001 918053.24187859 20160.45014137
0.12200001 908776.72604851 23473.70393971
0.12300001 899516.88856887 25096.52237348
0.12400001 890272.43854511 18361.86991016
0.12500001 881046.39583021 19982.13319900
0.12600001 871840.98456911 23252.00015417
0.12700001 862656.04178411 19875.59613937
0.12800001 853491.65685889 23121.09007399
0.12900001 844351.37896789 21404.30846567
0.13000001 835235.50839159 18053.61636484
0.13100001 826144.16167175 16357.65517216
0.13200001 817080.87056332 19560.91696339
0.13300001 808046.90187787 16241.74349343
0.13400001 799040.54913234 21034.74344760
0.13500001 790065.65015428 19340.80802766
0.13600001 781121.34708294 30498.88443490
0.13700001 772210.71845713 19181.71515096
0.13800001 763332.43401432 23873.22299956
0.13900001 754491.52161231 17428.75497115
0.14000001 745685.15321133 18925.49008104
0.14100001 736916.21187153 17265.94765846
0.14200001 728184.32169255 20305.42076811
0.14300001 719494.33399882 20203.40185163
0.14400001 710840.10667687 17006.85035446
0.14500001 702230.44104447 16916.73212276
0.14600001 693660.65146409 16824.73989496
0.14700001 685136.54720234 16731.03527199
0.14800001 676653.87736449 21172.50082163
0.14900001 668215.51327425 18041.81970963
0.15000001 659823.68514780 16439.50789112
0.15100001 651477.84344875 16339.06508465
0.15200001 643180.44448892 19189.28946681
0.15300001 634930.80674297 17600.28279346
0.15400001 626727.90360336 16028.56689106
0.15500001 618576.74990399 15922.16629394
0.15600001 610473.86962850 15814.32633908
0.15700001 602425.27695001 14277.47973757
0.15800001 594424.16550139 15594.71871798
0.15900001 586478.23202501 19705.66952616
0.16000001 578582.90455941 18164.61114606
0.16100001 570744.75937614 13869.09830752
0.16200001 562958.26772747 15140.76332527
0.16300001 555228.01998898 17756.19291748
0.16400001 547552.66240888 14907.12193784
0.16500001 539933.93719021 22855.40464030
0.16600001 532370.80471336 13335.88928770
0.16700001 524864.80123359 14549.25297713
0.16800001 517415.47749399 14428.13127116
0.16900001 510026.10965553 16907.36633341
0.17000001 502694.37193583 12894.11124901
0.17100001 495421.69896419 17894.63261159
0.17200001 488208.02181456 13935.89864079
0.17300001 481054.15698566 13811.06549928
0.17400001 473961.63030875 12441.49338317
0.17500001 466928.61662885 13559.60766729
0.17600001 459954.59682037 18317.69268350
0.17700001 453044.12461748 14515.53443832
0.17800001 446194.19470069 13178.34616293
0.17900001 439405.59827325 17795.92757063
0.18000001 432679.94582672 17620.89162612
0.18100001 426017.49205640 12793.30589076
0.18200001 419414.37375826 14966.80263456
0.18300001 412876.77164849 13674.47932297
0.18400001 406400.36955242 13533.13294541
0.18500001 399988.18531322 12275.63798719
0.18600001 393638.77670338 12145.72502899
0.18700001 387352.27008828 13108.00143907
0.18800001 381128.76877344 12966.00132627
0.18900001 374970.96981479 14961.34240250
0.19000001 368872.72006818 16909.12628686
0.19100001 362843.03704152 10449.87996055
0.19200001 356873.75063051 12397.79468272
0.19300001 350970.60228062 13277.21851166
0.19400001 345130.40619603 14133.09080157
0.19500001 339354.52850751 10974.72597054
0.19600001 333641.30678261 10845.01118946
0.19700001 327992.61959836 12663.79564115
0.19800001 322407.97011177 12511.04187144
0.19900001 316888.09732775 13309.30071676
0.20000001 311429.72255577 13145.44921035
0.20100001 306036.99159981 12054.79766885
0.20200001 300706.37237005 10072.16041858
0.20300001 295440.36580316 10848.57074505
0.20400001 290237.44483678 12494.72259080
0.20500001 285097.14068647 9690.45226997
0.20600001 280020.51666744 11303.02868955
0.20700001 275006.53238932 12012.28590258
0.20800001 270055.17897978 16085.83749631
0.20900001 265168.85187652 9188.10115185
0.21000001 260342.43782771 9063.82240144
0.21100001 255578.50637179 9752.87626420
0.21200001 250876.63625187 8817.05979789
0.21300001 246236.27063731 11856.27699170
0.21400001 241658.56706117 12469.58264987
0.21500001 237142.67914647 9988.45011788
0.21600001 232686.34835710 9088.72919653
0.21700001 228291.62169079 11944.21821158
0.21800001 223957.62843099 8828.41013016
0.21900001 219682.55658490 11599.23953611
0.22000001 215467.41368405 7142.74510135
0.22100001 211314.40362976 7740.44697095
0.22200001 207219.36464557 7624.63688266
0.22300001 203183.33270356 8192.35236199
0.22400001 199204.37439831 7395.46274924
0.22500001 195286.99789184 9268.32135822
0.22600001 191425.72686099 7169.85093863
0.22700001 187623.31052722 7058.38927582
0.22800001 183877.49671497 7579.43077302
0.22900001 180188.27441402 6838.14533739
0.23000001 176555.90143661 8564.72718373
0.23100001 172981.39627909 6019.75287520
0.23200001 169460.47310061 7107.17257796
0.23300001 165996.51154960 6409.12561405
0.23400001 162587.45397728 5731.20802376
0.23500001 159231.76479167 6764.16568827
0.23600001 155931.58384002 7206.37848801
0.23700001 152684.72187932 6541.01379469
0.23800001 149491.51800005 6967.05252592
0.23900001 146351.28643985 10537.29312208
0.24000001 143263.48956482 5696.87293201
0.24100001 140228.83186175 6108.36820483
0.24200001 137245.38735733 5502.85406639
0.24300001 134313.30708057 6390.62745319
0.24400001 131431.59679203 6279.14483377
0.24500001 128600.68011656 4745.36532078
0.24600001 125819.69560262 6992.42991389
0.24700001 123088.99868008 5036.80206426
0.24800001 120406.23184527 4946.89026938
0.24900001 117772.07318386 5299.74354399
0.25000001 115186.55254526 6071.48347189
0.25100001 112648.22393732 5535.53398616
0.25200001 110158.16282140 5852.70346759
0.25300001 107714.74818011 6976.68456970
0.25400001 105316.95609571 5236.88588962
0.25500001 102965.01324315 3953.85669560
0.25600001 100658.95537491 5044.52378728
0.25700001 98397.36537200  4188.77604207
0.25800001 96180.30214399  4110.26540660
0.25900001 94007.21655436  3666.28161909
0.26000001 91878.18092877  4316.43714427
0.26100001 89789.97383714  4234.49536652
0.26200001 87746.92543073  3461.61637204
0.26300001 85744.44210277  4753.67209511
0.26400001 83783.22189077  3330.38322775
0.26500001 81863.97566408  3593.01006191
0.26600001 79984.49562538  4805.06880207
0.26700001 78145.97792484  3455.61530736
0.26800001 76347.08275357  3388.66542837
0.26900001 74586.66534693  3624.91210740
0.27000001 72865.55442219  3258.18342017
0.27100001 71182.51743833  3775.52090360
0.27200001 69537.51703229  2847.56145723
0.27300001 67929.20083863  5025.40251586
0.27400001 66356.51194740  4105.80937105
0.27500001 64822.55061040  3220.38446673
0.27600001 63322.29426242  2894.14559623
0.27700001 61858.92894826  3869.27618883
0.27800001 60429.46918118  4046.35744787
0.27900001 59034.93842109  2479.46753103
0.28000001 57674.09031226  3646.44453257
0.28100001 56346.54116275  2383.45880399
0.28200001 55052.58976075  3739.17207352
0.28300001 53790.95879743  3208.09293452
0.28400001 52561.68536371  3145.81701791
0.28500001 51364.09220082  2864.57555762
0.28600001 50197.06056178  2377.08191541
0.28700001 49061.13171509  2331.38508945
0.28800001 47954.98107449  2078.84852798
0.28900001 46880.24376160  2039.29070016
0.29000001 45833.25094458  2200.68364827
0.29100001 44816.53437716  3337.03930768
0.29200001 43827.63744007  2118.84723234
0.29300001 42866.82835824  2457.55538611
0.29400001 41933.53994952  2412.22699978
0.29500001 41028.46058990  2185.99648371
0.29600001 40149.23853105  2146.37839347
0.29700001 39295.97123515  2107.83599683
0.29800001 38469.30680620  2070.41819032
0.29900001 37668.06461150  1864.56928654
0.30000001 36891.79979637  2998.19671138
0.30100001 36141.10614641  2292.06906031
0.30200001 35413.38410340  1931.44606044
0.30300001 34709.95126449  1741.05123785
0.30400001 34030.77764429  2491.05304149
0.30500001 33373.42019766  1991.39207747
0.30600001 32738.92826148  1658.39048960
0.30700001 32127.16738687  1929.55776461
0.30800001 31537.18938486  1754.09855663
0.30900001 30968.44788749  1728.03947393
0.31000001 30421.57072874  2270.66614670
0.31100001 29893.84491584  1538.93520913
0.31200001 29387.54824343  2207.59272857
0.31300001 28900.53295585  1769.57971667
0.31400001 28434.58247773  2149.65453710
0.31500001 27986.72351417  1459.22783312
0.31600002 27557.89986842  1572.45384094
0.31700002 27146.97082976  1812.87479785
0.31800002 26754.82080612  1280.21823619
0.31900002 26380.49306782  1266.26372721
0.32000002 26023.28866080  2380.74067586
0.32100002 25683.57474808  1364.56839098
0.32200002 25360.59448043  1351.59294683
0.32300002 25053.20804115  1339.34456530
0.32400002 24762.39610933  1327.88355424
0.32500002 24486.74372787  2275.06346748
0.32600002 24227.05573396  1663.67199603
0.32700002 23982.09569456  1651.88682966
0.32800002 23752.62512884  1758.28815842
0.32900002 23536.29676069  1165.04674482
0.33000002 23335.77487159  1390.34553269
0.33100002 23146.45227399  1613.77072896
0.33200002 22973.22570639  1147.51267837
0.33300002 22811.75190819  1142.86882472
0.33400002 22663.88243887  1480.51819043
0.33500002 22527.99109611  1589.57512702
0.33600002 22404.48120643  1132.54657862
0.33700002 22292.10677464  1582.29381380
0.33800002 22192.80145743  1579.90561057
0.33900002 22103.80211717  1240.02335750
0.34000002 22026.31434325  1239.31063521
0.34100002 21959.63194547  1802.44667545
0.34200002 21904.35795173  1577.77097798
0.34300002 21857.90210146  1579.01492259
0.34400002 21822.46764396  1355.17530487
0.34500002 21796.30636135  1470.59685985
0.34600002 21780.81812086  1700.53745532
0.34700002 21772.41662057  1704.78030213
0.34800002 21774.52743961  1481.86553509
0.34900002 21785.01048468  1601.19834646
0.35000002 21804.13292520  1377.58518346
0.35100002 21831.39924412  1267.96772815
0.35200002 21865.96385203  1389.36340896
0.35300002 21908.67405029  1512.35584132
0.35400002 21959.37502387  1520.13780803
0.35500002 22016.95736400  1645.98781049
0.35600002 22081.18662695  1655.42663983
0.35700002 22152.41853881  1665.41890463
0.35800002 22230.84124951  1197.13085799
0.35900002 22315.10796910  1205.01588741
0.36000002 22406.25010289  1334.62835059
0.36100002 22502.53969638  1344.07675973
0.36200002 22605.79381805  1477.06263803
0.36300002 22712.78345975  1240.11803564
0.36400002 22825.95970723  1374.69348848
0.36500002 22943.72403513  1259.61050919
0.36600002 23067.10016109  1523.81270882
0.36700002 23194.77170319  2048.56233386
0.36800002 23328.30357629  2065.95466258
0.36900002 23465.18163242  1953.47646343
0.37000002 23605.40956794  1445.00521515
0.37100002 23750.05002780  2120.40456693
0.37200002 23899.14024626  1604.58835214
0.37300002 24051.06106362  1484.19104854
0.37400002 24207.53623443  1770.17617100
0.37500002 24366.13248575  1923.94991221
0.37600002 24529.01718375  2496.80877741
0.37700002 24693.47697380  2240.19233719
0.37800002 24861.80292629  1837.41163231
0.37900002 25032.53277657  1712.22532303
0.38000002 25205.79081436  1584.56211461
0.38100002 25380.81183170  1599.75264554
0.38200002 25558.34181304  1615.15948739
0.38300002 25737.60757730  2223.72940002
0.38400002 25919.50085318  2544.64711681
0.38500002 26102.01506996  1813.56809298
0.38600002 26287.19252263  2441.55455717
0.38700002 26472.77145115  1694.78690859
0.38800002 26659.67605656  1711.15138876
0.38900002 26848.01670769  1884.73086217
0.39000002 27037.98984667  2061.51163353
0.39100002 27227.84574907  1921.19688707
0.39200002 27419.28725037  2101.27717798
0.39300002 27610.82959344  1794.98011691
0.39400002 27803.78708288  2635.79914033
0.39500002 27996.22484864  1662.97583480
0.39600002 28188.90815362  2014.37947209
0.39700002 28381.60102533  2033.25799379
0.39800002 28575.49143149  2394.34054048
0.39900002 28768.20956270  2416.52971776
0.40000002 28960.81601725  1916.19248257
0.40100002 29153.17573715  2109.52389629
0.40200002 29346.18391728  2128.77228222
0.40300002 29537.62555566  2147.97623218
0.40400002 29728.55382462  2347.81264954
0.40500002 29919.01647908  1822.06818991
0.40600002 30108.83771945  1838.14462987
0.40700002 30297.61129139  2410.47806855
0.40800002 30485.77294739  2244.36271073
0.40900002 30672.11281108  2263.60203271
0.41000002 30858.16076709  3234.08969243
0.41100002 31042.73566569  2685.81761706
0.41200002 31225.21916790  1934.40241911
0.41300002 31406.99249699  1950.37432648
0.41400002 31587.18768393  2752.82353709
0.41500002 31766.26710967  1982.21516157
0.41600002 31942.57817391  2997.01253918
0.41700002 32118.02724444  2416.56048438
0.41800002 32292.51250847  2029.58450733
0.41900002 32463.21175147  2249.70068098
0.42000002 32632.98160696  2060.77288613
0.42100002 32801.15909549  2076.31346913
0.42200002 32967.18222293  2300.94459228
0.42300002 33130.71936201  2528.53662152
0.42400002 33292.08066582  2759.08131592
0.42500002 33451.71107341  2778.83377055
0.42600002 33607.64058942  2583.08337811
0.42700002 33762.78256143  2601.08489179
0.42800002 33914.87515501  2400.66455161
0.42900002 34065.17335757  3295.80567852
0.43000002 34212.97091843  2433.05554216
0.43100002 34356.90438633  2671.59301168
0.43200002 34499.12363069  2464.79000460
0.43300002 34638.38307253  3156.94238283
0.43400002 34775.52449851  2496.01338916
0.43500002 34909.30950151  2283.06894959
0.43600002 35041.48125916  2296.96920539
0.43700002 35169.92739201  2541.73077307
0.43800002 35294.70019605  2788.98734166
0.43900002 35417.90518403  3272.61459409
0.44000002 35537.39270025  2585.87850238
0.44100002 35654.69822787  2600.29726499
0.44200002 35768.73674896  2614.51593657
0.44300002 35880.03247753  2628.57130387
0.44400002 35987.67970983  3122.83105481
0.44500002 36091.72816042  2897.44407403
0.44600002 36193.41754768  3154.79939005
0.44700002 36292.35181677  2682.73077343
0.44800002 36386.95136094  2450.66129030
0.44900002 36479.84261168  2954.86739158
0.45000002 36569.30451652  3463.47899490
0.45100002 36654.27690736  3727.74013815
0.45200002 36737.05205138  2496.28280520
0.45300002 36815.96761523  2757.88426476
0.45400002 36892.32430427  2769.69137841
0.45500002 36965.25655150  3034.10840154
0.45600002 37034.65396788  3046.47077978
0.45700002 37100.72293695  3313.46572254
0.45800002 37162.99449063  3326.27397953
0.45900002 37222.30788836  2568.33936602
0.46000002 37278.98953072  3093.41069787
0.46100002 37331.02152319  3104.44789700
0.46200002 37380.76414542  3374.92245082
0.46300002 37426.61947105  3386.36069024
0.46400002 37468.69669654  2874.78589029
0.46500002 37508.41513889  3146.20601097
0.46600002 37543.86787556  2892.94287626
0.46700002 37576.06592712  3429.19193904
0.46800002 37605.60541784  3174.66535984
0.46900002 37630.96363758  3448.87798085
0.47000002 37652.64499639  3458.20734360
0.47100002 37671.52201003  3734.00143861
0.47200002 37686.74891603  2941.26245856
0.47300002 37699.34778319  3752.59325620
0.47400002 37707.00407150  3223.94900092
0.47500002 37712.61187379  4039.02092312
0.47600002 37715.06804273  4047.76986954
0.47700002 37712.99260460  4056.03254687
