# SAXS profile: number of points = 501, q_min = 0, q_max = 0.5, delta_q = 0.001
#    q    intensity    error
0.00000000 1664650.74656090 349.57665678
0.00100000 1664582.31630676 649.18711878
0.00200000 1664376.96603464 898.76359012
0.00300000 1664034.87613402 1098.26305737
0.00400000 1663555.89833482 2245.80054809
0.00500000 1662940.49329233 1646.31115352
0.00600000 1662188.41007256 2792.47664261
0.00700000 1661300.28824539 2790.98460025
0.00800000 1660275.57791945 2913.78376227
0.00900000 1659115.61942976 2488.67353553
0.01000000 1657819.60958080 3282.48296871
0.01100000 1656388.75533742 3577.79986730
0.01200000 1654822.52325358 3872.28487419
0.01300000 1653122.30072876 4165.86838157
0.01400000 1651287.31776984 4830.01561860
0.01500000 1649319.37303300 4750.04000585
0.01600000 1647217.34973011 4200.40442958
0.01700000 1644983.29049034 5329.74610027
0.01800000 1642616.77889627 5617.74963661
0.01900000 1640118.65454454 6396.46304135
0.02000000 1637489.33219375 7737.13744461
0.02100000 1634730.53003472 5934.07209307
0.02200000 1631840.57458450 6755.82028571
0.02300000 1628822.22583009 7622.88836387
0.02400000 1625675.30524726 7925.16747445
0.02500000 1622401.28804110 9491.04796850
0.02600000 1619000.21887398 7868.34142361
0.02700000 1615473.24380171 8141.98552167
0.02800000 1611820.17140000 7712.55987384
0.02900000 1608043.66533332 10854.29523937
0.03000000 1604143.89756529 7459.26946655
0.03100000 1600121.13189937 9984.75632248
0.03200000 1595976.36969217 11850.12509076
0.03300000 1591712.47626156 8117.73400317
0.03400000 1587327.32473569 10833.50949118
0.03500000 1582824.45628958 8547.25245866
0.03600000 1578203.39407851 14014.44678708
0.03700000 1573466.03266449 9865.63248107
0.03800000 1568613.80680155 9176.39119447
0.03900000 1563647.59555885 9381.88600783
0.04000000 1558566.68314632 13419.25976372
0.04100000 1553374.87474870 12722.14081407
0.04200000 1548072.53564205 9985.06831813
0.04300000 1542659.72760140 13236.02107721
0.04400000 1537139.95392215 12450.83420501
0.04500000 1531512.89304620 12680.92734364
0.04600000 1525779.12315508 13983.76631378
0.04700000 1519941.53144985 15321.01134956
0.04800000 1514000.56884160 13353.48563850
0.04900000 1507958.61411325 19226.47322489
0.05000000 1501815.41739402 11488.88847806
0.05100000 1495574.38000371 12832.02877820
0.05200000 1489233.60254104 15391.22999951
0.05300000 1482798.43603679 14412.80147017
0.05400000 1476267.37117496 18268.80957024
0.05500000 1469644.32589305 16048.51678740
0.05600000 1462927.61832164 13758.83489236
0.05700000 1456122.57897896 20269.22724552
0.05800000 1449227.35532656 12825.66269350
0.05900000 1442244.49139384 16874.26133743
0.06000000 1435176.15512820 21010.97989268
0.06100000 1428024.49429699 15936.75410110
0.06200000 1420789.22226838 17454.39641145
0.06300000 1413473.96173867 17640.15586727
0.06400000 1406076.91010413 13709.25051465
0.06500000 1398604.08245417 18000.03538319
0.06600000 1391053.42535507 18174.11385260
0.06700000 1383427.83749631 21166.44690426
0.06800000 1375730.37504697 18510.45306271
0.06900000 1367961.54580901 14363.59690348
0.07000000 1360121.22749382 15933.82092625
0.07100000 1352213.98380034 24826.64990540
0.07200000 1344238.99141737 19135.24293925
0.07300000 1336200.72601273 14831.82875370
0.07400000 1328098.66632077 17929.33283557
0.07500000 1319935.13596750 18056.71350640
0.07600000 1311710.15034348 22725.37942008
0.07700000 1303429.40154960 19825.16212714
0.07800000 1295090.95320909 27624.29132742
0.07900000 1286697.07150560 16984.40214051
0.08000000 1278251.63165374 15530.75805316
0.08100000 1269754.48647761 20303.37519138
0.08200000 1261206.69461563 23553.03612718
0.08300000 1252611.45070397 28409.22903527
0.08400000 1243969.12495236 15860.60708762
0.08500000 1235283.83522983 19122.19466705
0.08600000 1226554.72719242 20808.50192381
0.08700000 1217785.36477600 24112.15135482
0.08800000 1208974.03492110 17753.78453660
0.08900000 1200127.54488193 25922.75618703
0.09000000 1191244.20178650 19512.58094188
0.09100000 1182326.50394226 21210.93847724
0.09200000 1173375.58527517 18005.44920206
0.09300000 1164395.06069874 19701.56535284
0.09400000 1155382.76857016 18110.62574849
0.09500000 1146343.54143079 18158.08254974
0.09600000 1137278.10417350 16547.39719358
0.09700000 1128189.51874273 18242.82537572
0.09800000 1119078.58972212 21603.81319035
0.09900000 1109947.27295897 18314.13086500
0.10000000 1100794.83297830 23347.85950545
0.10100000 1091624.82090490 16701.86054536
0.10200000 1082438.98474194 21740.78803115
0.10300000 1073238.20443315 18416.76845441
0.10400000 1064025.27087080 28489.27796785
0.10500000 1054802.97670703 26834.18898996
0.10600001 1045567.44514300 25172.03742625
0.10700001 1036326.33727587 16788.48745390
0.10800001 1027077.15997182 23509.79729817
0.10900001 1017823.73434810 18473.50164789
0.11000001 1008566.79287232 20151.16547010
0.11100001 999307.64763477 23503.71697877
0.11200001 990049.38872652 18459.47172182
0.11300001 980790.42551861 20125.82047918
0.11400001 971535.62290163 25138.48542621
0.11500001 962284.48672761 18418.12594324
0.11600001 953039.05803966 25088.75438436
0.11700001 943801.52651691 16705.28780608
0.11800001 934570.59344089 18350.29446648
0.11900001 925350.24815170 16656.30525127
0.12000001 916140.93905322 21616.34647520
0.12100001 906945.82704641 19916.53130017
0.12200001 897763.36193724 18220.10828889
0.12300001 888597.55074752 19833.49826713
0.12400001 879447.12365271 18138.59777998
0.12500001 870315.33587881 19738.75274783
0.12600001 861204.12858333 16405.93942262
0.12700001 852113.62201474 17996.64054507
0.12800001 843043.76429068 19575.47712941
0.12900001 833998.00581208 17889.25806783
0.13000001 824976.45732439 22695.10341072
0.13100001 815979.88360403 22618.96343971
0.13200001 807011.17234185 17709.86101189
0.13300001 798071.74497798 19249.49139635
0.13400001 789160.05695615 15980.49190677
0.13500001 780279.76659011 19101.24958672
0.13600001 771429.94365047 25364.61774319
0.13700001 762613.74231433 15786.10521027
0.13800001 753830.03694157 15717.35701140
0.13900001 745083.37095091 18776.10183341
0.14000001 736371.41438700 17131.68176365
0.14100001 727696.64167373 21699.91487814
0.14200001 719058.92670368 15423.81470526
0.14300001 710462.68807169 18415.19374342
0.14400001 701902.48255940 19846.29363051
0.14500001 693386.70797836 16703.68658315
0.14600001 684910.48170877 16612.50451753
0.14700001 676479.87546491 21024.99552134
0.14800001 668090.50619625 17918.18822154
0.14900001 659745.22387438 20781.97553255
0.15000001 651446.29691141 20657.36304973
0.15100001 643193.27868597 17597.76893520
0.15200001 634988.35053056 16030.28166557
0.15300001 626830.98334196 14479.79639849
0.15400001 618720.18789129 14385.24504733
0.15500001 610660.87268021 15718.41160459
0.15600001 602649.40882116 15611.63367230
0.15700001 594692.31486750 19731.89193859
0.15800001 586782.16570544 19592.65743765
0.15900001 578927.10020768 15283.67616688
0.16000001 571122.27382952 19309.64498964
0.16100001 563374.12009099 21903.98682310
0.16200001 555677.60698410 24455.37263781
0.16300001 548036.91510321 14829.87962278
0.16400001 540450.86160431 17389.00729305
0.16500001 532920.75577107 15923.67293422
0.16600001 525446.52429564 21059.89768807
0.16700001 518028.56283529 14359.75243979
0.16800001 510667.02756084 16829.03268787
0.16900001 503365.16100053 19253.71831739
0.17000001 496120.46816535 13998.03967027
0.17100001 488934.39571584 15137.40960617
0.17200001 481806.93456584 13753.17959665
0.17300001 474738.95924642 17346.96239007
0.17400001 467731.83980562 13505.75751221
0.17500001 460783.83548283 12164.69383126
0.17600001 453894.36558401 14461.07517049
0.17700001 447068.06823586 11936.71798568
0.17800001 440301.74454823 13004.31263945
0.17900001 433596.36367030 16389.94332089
0.18000001 426953.56890255 13910.14793189
0.18100001 420373.33129695 12623.81173515
0.18200001 413852.08004833 17040.36020094
0.18300001 407395.69837229 13492.94616749
0.18400001 401000.14432042 14466.08088975
0.18500001 394668.17445093 17617.98813980
0.18600001 388398.62173095 14162.95641053
0.18700001 382191.42539045 11855.57857573
0.18800001 376046.87307864 13859.20816211
0.18900001 369967.12549194 10544.06357470
0.19000001 363946.67936196 13555.19471330
0.19100001 357994.20969292 12372.28047158
0.19200001 352101.33812403 10193.33422034
0.19300001 346274.32589976 15114.87503974
0.19400001 340509.67509534 12947.88100734
0.19500001 334808.80587333 12796.39316517
0.19600001 329169.76908968 10699.66384989
0.19700001 323595.07616889 9610.77421640
0.19800001 318083.56711563 14242.19239067
0.19900001 312636.29719845 10316.99829513
0.20000001 307250.00785739 10189.94699218
0.20100001 301928.75607928 11892.97426405
0.20200001 296668.92559908 11743.63997488
0.20300001 291473.11313869 9810.98545196
0.20400001 286339.87481086 10565.94187993
0.20500001 281268.53415610 9560.31792785
0.20600001 276260.36384269 11151.25011361
0.20700001 271314.09935001 10158.00035982
0.20800001 266429.93368483 11693.61034219
0.20900001 261610.14244393 9888.86385184
0.21000001 256849.55187211 11381.00418146
0.21100001 252150.89825674 9622.07873235
0.21200001 247513.62554460 12652.89713600
0.21300001 242937.16445376 9357.94001716
0.21400001 238422.69078137 8458.04535534
0.21500001 233969.46176732 8338.67201162
0.21600001 229575.34851550 9714.48133172
0.21700001 225241.91465923 9575.03424487
0.21800001 220968.63533724 7984.70201543
0.21900001 216753.65111706 7868.15790757
0.22000001 212597.84372869 9161.90450869
0.22100001 208503.38071609 7637.47919676
0.22200001 204466.45793893 8891.22434389
0.22300001 200487.83067281 8757.30885788
0.22400001 196565.58855732 7297.49782026
0.22500001 192704.36514367 7839.21394474
0.22600001 188898.33686635 7075.18754190
0.22700001 185150.57768846 7598.58006766
0.22800001 181458.76533169 8103.04154908
0.22900001 177822.97411598 6748.38218684
0.23000001 174243.25488183 7848.78778734
0.23100001 170720.62159454 8317.50907744
0.23200001 167251.16786675 7014.51431207
0.23300001 163837.74706947 8050.98727176
0.23400001 160478.71046882 6222.56229273
0.23500001 157172.31078096 8902.24010368
0.23600001 153920.68297584 7113.44470017
0.23700001 150721.75906351 6456.92046368
0.23800001 147575.66185810 6348.70527342
0.23900001 144482.01942116 7802.02941778
0.24000001 141440.08489297 6135.67117288
0.24100001 138450.76628879 6030.91566481
0.24200001 135511.86292133 5927.28916455
0.24300001 132623.57256682 7281.03447833
0.24400001 129785.03042089 4769.60009359
0.24500001 126996.56522702 5154.79082641
0.24600001 124257.51418284 5984.86345373
0.24700001 121567.91383795 5879.02459132
0.24800001 118925.66931888 6218.62354287
0.24900001 116331.26967030 4362.42281901
0.25000001 113784.98861530 5569.20653124
0.25100001 111285.00085345 6309.85984690
0.25200001 108832.83007286 4956.24731600
0.25300001 106426.57354113 4460.33790813
0.25400001 104065.21263871 4378.54402893
0.25500001 101749.12673532 4688.59998179
0.25600001 99478.26716143  4218.37611856
0.25700001 97251.19773882  4892.70798973
0.25800001 95067.96468357  4432.06872325
0.25900001 92928.11782537  4349.03612000
0.26000001 90831.82957914  4622.88618516
0.26100001 88775.59072832  4884.43323298
0.26200001 86763.70937622  4107.39419622
0.26300001 84791.83077828  3693.53232347
0.26400001 82860.72864239  5269.94259102
0.26500001 80970.91796655  4199.96171366
0.26600001 79120.11214122  3485.63670532
0.26700001 77309.85467277  4040.21319638
0.26800001 75538.43868614  4267.16660331
0.26900001 73804.96404107  3885.83154065
0.27000001 72110.25747456  4396.92315758
0.27100001 70452.80776547  4024.26457000
0.27200001 68832.89340439  3100.57783013
0.27300001 67249.09546465  3040.33174984
0.27400001 65700.38873290  2981.15527984
0.27500001 64189.60965355  3720.42995159
0.27600001 62712.04160822  2866.25399735
0.27700001 61270.89380245  3321.49531023
0.27800001 59863.04020446  3256.84885646
0.27900001 58489.49377838  2456.55885496
0.28000001 57149.06203156  3131.48300223
0.28100001 55841.31243363  3306.92267883
0.28200001 54566.67569068  3011.26214051
0.28300001 53323.79198529  2498.75301070
0.28400001 52112.66498044  2450.59818669
0.28500001 50932.73322828  2840.51866659
0.28600001 49782.73914915  2357.46172399
0.28700001 48663.50698321  2522.71632142
0.28800001 47573.30605600  2680.99378969
0.28900001 46513.92536745  2832.69818896
0.29000001 45481.98587778  2183.81765529
0.29100001 44479.80019094  3506.78761305
0.29200001 43504.79746584  2294.44312696
0.29300001 42557.39710119  2439.81569130
0.29400001 41637.11969532  2395.17542385
0.29500001 40744.53080165  2713.58587984
0.29600001 39877.19817803  2487.14096810
0.29700001 39035.42132401  2442.83678210
0.29800001 38219.81064733  1885.57444755
0.29900001 37429.10246641  2189.60259794
0.30000001 36662.90115007  1986.39607835
0.30100001 35921.67715319  2115.42766770
0.30200001 35203.15180370  2079.97832279
0.30300001 34508.50581510  1888.30552760
0.30400001 33837.50433361  2012.48566552
0.30500001 33188.03498042  2284.99631658
0.30600001 32560.93925258  1799.31758828
0.30700001 31956.17775795  1476.37548231
0.30800001 31372.74531538  1599.53949563
0.30900001 30810.05893403  1719.20136991
0.31000001 30269.05471840  1694.46176336
0.31100001 29746.59062753  1531.35455801
0.31200001 29245.25513294  2059.59719025
0.31300001 28762.72848900  2032.08686396
0.31400001 28300.91621968  1604.66202563
0.31500001 27856.92556290  1584.50200104
0.31600002 27431.48791725  1565.24077467
0.31700002 27023.69199812  1546.83620321
0.31800002 26634.20347821  1656.78070581
0.31900002 26262.24301681  1512.70526939
0.32000002 25906.98502916  1247.42138822
0.32100002 25568.92303933  1358.47694540
0.32200002 25247.34086538  1590.20383970
0.32300002 24941.02078460  1818.20050129
0.32400002 24650.86451572  1442.07564245
0.32500002 24375.61368698  1668.75459203
0.32600002 24115.98420278  1656.04471362
0.32700002 23870.83488345  1409.33415825
0.32800002 23640.81035388  1283.34145083
0.32900002 23423.69069009  1275.42001847
0.33000002 23222.03766196  1268.27164697
0.33100002 23031.44312891  1146.96592213
0.33200002 22856.50563372  1255.85076152
0.33300002 22693.20250394  1591.70129900
0.33400002 22543.21914470  1246.07649723
0.33500002 22404.94788532  1580.89319765
0.33600002 22278.77355844  1126.19205671
0.33700002 22163.48503794  1236.05761910
0.33800002 22061.15798382  1121.80993660
0.33900002 21968.71414286  1232.44492178
0.34000002 21887.85938326  1455.43327862
0.34100002 21817.33057077  1454.99784467
0.34200002 21758.08618933  1455.28966369
0.34300002 21707.49712826  1680.16035730
0.34400002 21667.66592721  1121.30176484
0.34500002 21636.99972558  1122.96033894
0.34600002 21616.81076916  1800.24808612
0.34700002 21603.55693400  1353.24687044
0.34800002 21600.57421420  1243.86912504
0.34900002 21605.87760992  1134.30862824
0.35000002 21619.53177143  1252.09524184
0.35100002 21641.22643386  1256.92249081
0.35200002 21670.22411379  1606.41378964
0.35300002 21707.09643381  1498.44093780
0.35400002 21751.81621945  1505.76954911
0.35500002 21803.34718338  1513.58843316
0.35600002 21861.33826356  1638.94460725
0.35700002 21926.25043341  1530.67161526
0.35800002 21998.24827016  2013.82973328
0.35900002 22075.97303866  1549.73338072
0.36000002 22160.55983669  1199.99437200
0.36100002 22250.08187612  1208.17950310
0.36200002 22346.56707636  1216.77063494
0.36300002 22446.60846328  1470.70185618
0.36400002 22552.81924144  1852.15036793
0.36500002 22663.52705821  1617.49600276
0.36600002 22779.85310248  1504.83716723
0.36700002 22900.27107779  1390.50452571
0.36800002 23026.57183426  1656.87705482
0.36900002 23156.19130874  1542.20241421
0.37000002 23289.12503686  1555.24784363
0.37100002 23426.45360106  1699.35502472
0.37200002 23568.06435424  1582.35991570
0.37300002 23712.59796647  1463.30448983
0.37400002 23861.57250123  1610.65622013
0.37500002 24012.77092573  1760.61644768
0.37600002 24168.11187131  1640.04814928
0.37700002 24325.10432705  1655.08017682
0.37800002 24485.94589812  2366.44435343
0.37900002 24649.14800439  1826.50195365
0.38000002 24814.88052424  1843.62163589
0.38100002 24982.46640953  1431.49539308
0.38200002 25152.44997189  1445.00831934
0.38300002 25324.27376484  1896.28170935
0.38400002 25498.72663706  2945.10306610
0.38500002 25673.73756607  2081.11326570
0.38600002 25851.56032735  2401.09303696
0.38700002 26029.79404732  2575.38794505
0.38800002 26209.35509634  1835.17913079
0.38900002 26390.40533065  2006.99042048
0.39000002 26573.13187822  1870.21711019
0.39100002 26755.86831224  2045.21867068
0.39200002 26940.17524432  1905.74808707
0.39300002 27124.63513564  1923.67921496
0.39400002 27310.59150493  2103.59841033
0.39500002 27496.07997695  1796.59395081
0.39600002 27681.90667115  2307.84066851
0.39700002 27867.81773264  1663.70879746
0.39800002 28054.87602279  1679.08440952
0.39900002 28240.90885690  1694.45461169
0.40000002 28427.10677891  2222.85771989
0.40100002 28612.87815631  1725.35663457
0.40200002 28799.52170771  1915.02428669
0.40300002 28984.63222080  2810.35007328
0.40400002 29169.28897386  1949.23782803
0.40500002 29353.66302873  2323.92961209
0.40600002 29537.44170781  1983.58699187
0.40700002 29720.31506786  1818.88336833
0.40800002 29902.72426383  2017.98544256
0.40900002 30083.30830278  2220.14825794
0.41000002 30263.74180009  2238.91172445
0.41100002 30442.82389766  2069.50326662
0.41200002 30620.03970826  3035.05847969
0.41300002 30796.51905710  3251.18867091
0.41400002 30971.60926444  2120.78104487
0.41500002 31145.70230549  2137.84110755
0.41600002 31317.10422070  2350.66195419
0.41700002 31487.80314776  2369.14242110
0.41800002 31657.68786682  2188.65435438
0.41900002 31823.91407521  2004.90668174
0.42000002 31989.23212408  3434.20417741
0.42100002 32153.25432005  2238.83120439
0.42200002 32315.17554240  2050.39798532
0.42300002 32474.77507462  2478.47495114
0.42400002 32632.30559909  2496.37149662
0.42500002 32788.30278787  2933.24170640
0.42600002 32940.76375626  2742.81282414
0.42700002 33092.51163083  2336.99328211
0.42800002 33241.33450250  2780.80396958
0.42900002 33388.57684137  3445.70129331
0.43000002 33533.42411281  2384.72956879
0.43100002 33674.53062112  3491.37550024
0.43200002 33814.16133942  3074.72183630
0.43300002 33950.92445783  2873.26687302
0.43400002 34085.69006839  2891.31879707
0.43500002 34217.35844595  3132.94148778
0.43600002 34347.50325516  2701.77473408
0.43700002 34474.02210188  3170.92070320
0.43800002 34597.10980999  2961.68572564
0.43900002 34718.76904028  2520.58275177
0.44000002 34836.81073213  2304.45513914
0.44100002 34952.88945216  2780.85201660
0.44200002 35065.85760542  2330.12634831
0.44300002 35176.25638073  4216.92981476
0.44400002 35283.13870562  3061.69450628
0.44500002 35386.56466307  3314.30580341
0.44600002 35487.79816699  3569.18546979
0.44700002 35586.39234864  2630.54624708
0.44800002 35680.94652399  3844.97897965
0.44900002 35773.81586928  3622.09902842
0.45000002 35863.41629398  3396.62431818
0.45100002 35948.70792935  3168.51926706
0.45200002 36031.96933030  3672.55864804
0.45300002 36111.61714789  3442.88174205
0.45400002 36188.75512210  3210.84745038
0.45500002 36262.67107918  2728.40350131
0.45600002 36333.11287434  3735.95250836
0.45700002 36400.52573966  3250.93110788
0.45800002 36464.21353937  3263.72958752
0.45900002 36525.08782948  3528.32365155
0.46000002 36583.59229557  4047.60884342
0.46100002 36637.57682360  3300.67945247
0.46200002 36689.32760002  2802.88131485
0.46300002 36737.33376827  4602.45339262
0.46400002 36781.80083916  3335.18994916
0.46500002 36824.00127289  2573.99781097
0.46600002 36862.14892922  2582.19365488
0.46700002 36897.18303549  3367.23708341
0.46800002 36929.61627463  3117.59835367
0.46900002 36958.08834820  2605.54535204
0.47000002 36983.05912752  2874.13857632
0.47100002 37005.31146497  3143.97141108
0.47200002 37024.09028836  2889.54526351
0.47300002 37040.27221534  2896.91982727
0.47400002 37051.82168073  3431.92514584
0.47500002 37061.35819514  2646.18110056
0.47600002 37067.87476802  3182.64787843
0.47700002 37070.09720295  3189.51131452
