# SAXS profile: number of points = 501, q_min = 0, q_max = 0.5, delta_q = 0.001
#    q    intensity    error
0.00000000 1664650.74656090 274.66737318
0.00100000 1664582.34584370 649.18713030
0.00200000 1664377.08815959 748.96971339
0.00300000 1664035.14596921 1098.26323546
0.00400000 1663556.39062975 1497.20080846
0.00500000 1662941.26422497 1945.64135615
0.00600000 1662189.51588738 2094.35887528
0.00700000 1661301.78539170 2392.27467039
0.00800000 1660277.53767306 3362.06215573
0.00900000 1659118.06936111 3235.28037355
0.01000000 1657822.63888545 3829.57046118
0.01100000 1656392.42510513 2981.50649500
0.01200000 1654826.87759324 3549.60380807
0.01300000 1653127.42759506 3471.56775106
0.01400000 1651293.25108092 5573.11496946
0.01500000 1649326.16176327 6729.25103964
0.01600000 1647225.05508224 5040.50889388
0.01700000 1644992.00366003 4885.62647003
0.01800000 1642626.55008408 4681.48587840
0.01900000 1640129.47546217 5412.42751325
0.02000000 1637501.31039763 7221.38110552
0.02100000 1634743.73369555 8091.98184867
0.02200000 1631854.98713591 7318.86994982
0.02300000 1628837.93630820 8795.72525643
0.02400000 1625692.41735332 6705.98152736
0.02500000 1622419.71545242 8225.66833302
0.02600000 1619020.11398514 9179.84446617
0.02700000 1615494.68427659 10177.61697709
0.02800000 1611843.18468345 8413.82180990
0.02900000 1608068.22292975 12301.72247024
0.03000000 1604170.07380315 8951.26942327
0.03100000 1600149.04808559 11521.07367634
0.03200000 1596006.04198743 11850.34540756
0.03300000 1591743.91888484 10553.26266872
0.03400000 1587360.52801238 11667.10041922
0.03500000 1582859.55064348 9402.18616500
0.03600000 1578240.32490951 11387.00447046
0.03700000 1573504.86639452 11659.67159921
0.03800000 1568654.64347080 12847.28212459
0.03900000 1563690.49757803 11258.57210395
0.04000000 1558611.62834353 10544.00815434
0.04100000 1553421.88058622 11743.86996175
0.04200000 1548121.61592982 13979.53884040
0.04300000 1542710.92428651 14254.64960208
0.04400000 1537193.29013171 11413.66070930
0.04500000 1531568.48072832 13738.16991048
0.04600000 1525836.82190809 13984.29512287
0.04700000 1520001.58650636 12038.41312501
0.04800000 1514062.76495849 16692.54276034
0.04900000 1508023.13156672 16965.26101982
0.05000000 1501882.30376831 14936.22020650
0.05100000 1495643.57093619 12832.62243643
0.05200000 1489305.10341734 14207.97134871
0.05300000 1482872.22621695 14413.51871076
0.05400000 1476343.56818351 12179.83500551
0.05500000 1469722.92038599 14814.80772859
0.05600000 1463008.65886843 13759.59707874
0.05700000 1456205.87191632 16469.68918015
0.05800000 1449313.12102851 15391.70606400
0.05900000 1442332.62176507 16875.29246283
0.06000000 1435266.83652052 14445.96138448
0.06100000 1428117.41681635 17265.94037617
0.06200000 1420884.57482672 13427.35985975
0.06300000 1413571.75794076 18998.40531500
0.06400000 1406177.02896821 16452.27200835
0.06500000 1398706.79594796 15231.91772039
0.06600000 1391158.41731925 15379.25702304
0.06700000 1383535.18467418 16934.47145293
0.06800000 1375840.21995039 18511.93102596
0.06900000 1368073.69448580 18674.20680404
0.07000000 1360235.77680247 15935.16287146
0.07100000 1352330.96373738 18986.72762017
0.07200000 1344358.21664561 17664.86779427
0.07300000 1336322.31317766 25216.40323119
0.07400000 1328222.45136177 16436.75360590
0.07500000 1320061.06717926 15048.69687121
0.07600000 1311838.44979449 19697.25524708
0.07700000 1303559.89714852 24402.64241882
0.07800000 1295223.68042780 19952.92173271
0.07900000 1286831.95654765 20074.57946372
0.08000000 1278388.56505057 18638.90615281
0.08100000 1269893.61591138 21867.56909198
0.08200000 1261348.00594985 18844.54009317
0.08300000 1252754.64873541 18941.65117785
0.08400000 1244114.52347350 17448.70701073
0.08500000 1235431.14970135 25499.30012690
0.08600000 1226704.04843994 19210.18630052
0.08700000 1217936.34912643 38584.22535215
0.08800000 1209127.19189052 16141.84876982
0.08900000 1200282.51418871 19444.57764316
0.09000000 1191400.80792858 16262.62179217
0.09100000 1182484.98514451 17950.12291781
0.09200000 1173535.66369463 16370.82327775
0.09300000 1164556.66167286 21346.32461157
0.09400000 1155546.12393866 26346.45286402
0.09500000 1146508.43375522 28066.52777753
0.09600000 1137444.45357221 18204.79933519
0.09700000 1128357.20411060 19904.22201626
0.09800000 1119247.62945529 26593.32492621
0.09900000 1110117.61770183 16651.76504853
0.10000000 1100966.49121661 21683.53606423
0.10100000 1091797.51918300 20045.40339497
0.10200000 1082612.93606880 18399.00771391
0.10300000 1073413.25357997 23443.34656098
0.10400000 1064201.35760683 30170.10990751
0.10500000 1054980.03398693 23483.85666145
0.10600001 1045745.37178651 21819.47820901
0.10700001 1036505.21084756 16791.38520589
0.10800001 1027256.68965632 16795.64766631
0.10900001 1018004.04100630 20156.48096060
0.11000001 1008747.63963926 18475.21388961
0.11100001 999488.99600864 23507.98229272
0.11200001 990231.12778803 23498.18576864
0.11300001 980972.61242196 18452.09570840
0.11400001 971718.08366912 28495.63414530
0.11500001 962467.47467585 18421.62833273
0.11600001 953222.29025371 25093.57797262
0.11700001 943984.80674331 21721.09142612
0.11800001 934754.12349657 20022.43426832
0.11900001 925533.78361678 21657.49155674
0.12000001 916324.23194529 23283.79983051
0.12100001 907129.00972858 21580.60015806
0.12200001 897946.26503680 26507.37499268
0.12300001 888779.94829951 23143.83094413
0.12400001 879629.23543198 18142.35383561
0.12500001 870496.84438203 18097.63024747
0.12600001 861385.09717418 22973.14162421
0.12700001 852293.91978783 18000.44843421
0.12800001 843223.37842527 24474.55971226
0.12900001 834176.70748771 26026.31450029
0.13000001 825154.45625346 17835.71441260
0.13100001 816156.71406796 17775.89407031
0.13200001 807187.12242388 19324.06062177
0.13300001 798246.71861613 30485.04362111
0.13400001 789333.78978163 22377.61399532
0.13500001 780452.14266910 17513.34690722
0.13600001 771601.06246610 23784.60387198
0.13700001 762783.35979330 22105.46280915
0.13800001 753998.17571671 17292.94897552
0.13900001 745250.06205098 20345.32765344
0.14000001 736536.23501200 23366.61315774
0.14100001 727859.73692573 26355.80231710
0.14200001 719220.27193346 21598.18578485
0.14300001 710622.01848581 21489.21085261
0.14400001 702059.87403620 18323.76357667
0.14500001 693541.97055544 22782.85480746
0.14600001 685063.64306936 18126.78485073
0.14700001 676630.83466097 24033.92838099
0.14800001 668239.11024447 17922.17378230
0.14900001 659891.58431409 16332.31748235
0.15000001 651590.10932969 22137.77500900
0.15100001 643334.63293502 19068.43941994
0.15200001 635126.95216758 16033.78066406
0.15300001 626967.02945578 21724.40859580
0.15400001 618853.53436795 15827.17988836
0.15500001 610791.40964703 15721.77162627
0.15600001 602777.10306937 15614.94159196
0.15700001 594816.92070659 15506.87785470
0.15800001 586903.74305241 18196.95141221
0.15900001 579045.50166547 13897.09269592
0.16000001 571237.68242033 17934.00788612
0.16100001 563486.23985920 15061.98790243
0.16200001 555786.43325961 16306.77472162
0.16300001 548142.37838073 13484.30314473
0.16400001 540552.84334226 16054.42020519
0.16500001 533019.37302162 15926.61961780
0.16600001 525541.68224589 17114.26569035
0.16700001 518119.98758903 15667.94916445
0.16800001 510754.71278792 12947.63258051
0.16900001 503449.08520832 14121.74750689
0.17000001 496200.66591979 16545.81198638
0.17100001 489010.79312521 15139.77487008
0.17200001 481879.65424905 13755.25538010
0.17300001 474807.77650750 17349.47697290
0.17400001 467796.54485657 13507.62587064
0.17500001 460844.51087367 12166.29566165
0.17600001 453950.99340252 12052.39944406
0.17700001 447120.67842398 16713.37174887
0.17800001 440350.16732336 15370.42331640
0.17900001 433640.63778922 11708.29777333
0.18000001 426993.45141007 15070.73457939
0.18100001 420408.88755415 20658.89371026
0.18200001 413883.26039037 14769.42484471
0.18300001 407422.70367463 13493.84058314
0.18400001 401022.67614616 14466.89372540
0.18500001 394686.40262454 11011.75115344
0.18600001 388412.19206470 16342.44375320
0.18700001 382200.57015240 15089.27922251
0.18800001 376051.43904004 17057.69408077
0.18900001 369967.34275186 14761.69767325
0.19000001 363942.25269834 15640.41904870
0.19100001 357985.27957028 13402.96950040
0.19200001 352087.63802931 11212.23136284
0.19300001 346256.08292614 13098.86823605
0.19400001 340486.67840619 9959.23581399
0.19500001 334781.25406797 15748.11093554
0.19600001 329137.64679529 9726.01792242
0.19700001 323558.17302328 9609.67819292
0.19800001 318042.01071059 14240.33170255
0.19900001 312589.95609030 13128.77877626
0.20000001 307199.10007380 10188.25863546
0.20100001 301872.97734553 13720.12746880
0.20200001 296608.56329235 10838.07741495
0.20300001 291407.98570936 9808.79326259
0.20400001 286270.04396815 11443.64554852
0.20500001 281193.96688259 8688.89398737
0.20600001 276181.12615006 9432.96680953
0.20700001 271230.07291625 9308.61654250
0.20800001 266341.33882023 9184.78150338
0.20900001 261516.88415467 9061.56046431
0.21000001 256751.54653239 11376.66156465
0.21100001 252048.17066952 10419.67186805
0.21200001 247406.26268578 10276.01960645
0.21300001 242825.47305314 8574.16785885
0.21400001 238306.29324906 9990.99181681
0.21500001 233848.53788388 7576.69298565
0.21600001 229449.77697735 8962.30871246
0.21700001 225111.99914484 10305.62780810
0.21800001 220834.11092186 7979.84097545
0.21900001 216614.64799273 8577.94046609
0.22000001 212454.48119626 8451.43966159
0.22100001 208355.62504413 10407.36396305
0.22200001 204314.40712322 6834.31724143
0.22300001 200331.50111163 7404.25263120
0.22400001 196404.98435078 6628.66853528
0.22500001 192539.49378132 8485.21589219
0.22600001 188729.35889958 8354.10546674
0.22700001 184977.47544347 7591.47595119
0.22800001 181281.52531641 9340.53103364
0.22900001 177641.71211529 6128.63935781
0.23000001 174057.98729285 7840.44240840
0.23100001 170531.35199290 7714.83872901
0.23200001 167058.00797394 7590.28095127
0.23300001 163640.80598202 7466.93033010
0.23400001 160277.99368494 6779.75945352
0.23500001 156967.94936940 7223.66537163
0.23600001 153712.54558409 7650.27375556
0.23700001 150510.20305593 5910.53595356
0.23800001 147360.58272141 5282.87714044
0.23900001 144263.53519303 6232.18501512
0.24000001 141218.05358620 7657.54931792
0.24100001 138225.51423810 5017.58640418
0.24200001 135283.26286066 5424.18268097
0.24300001 132391.88908240 4845.54336962
0.24400001 129550.16383595 7141.45311927
0.24500001 126758.63375465 4677.39380681
0.24600001 124016.60840044 8270.66800547
0.24700001 121324.20028419 6318.56464971
0.24800001 118679.08899566 6205.72985716
0.24900001 116081.92059393 5658.99389667
0.25000001 113533.04741230 4701.97138102
0.25100001 111030.57239030 4616.65141840
0.25200001 108575.88018550 6180.68227197
0.25300001 106167.24682613 4449.46952499
0.25400001 103803.58360842 3970.48726087
0.25500001 101485.25481749 4676.44076324
0.25600001 99212.25557516  4589.55916005
0.25700001 96983.11336067  3753.24666464
0.25800001 94797.91419288  4419.47896878
0.25900001 92656.23344746  5059.03058560
0.26000001 90558.04366346  4254.41709261
0.26100001 88500.16190941  3825.86218037
0.26200001 86486.77614216  3753.09382827
0.26300001 84513.33477905  5020.09232341
0.26400001 82580.86030997  4267.36615844
0.26500001 80689.77779074  4507.33120067
0.26600001 78837.66170993  4736.17275134
0.26700001 77026.30528253  3406.10338077
0.26800001 75253.81832944  3340.14088461
0.26900001 73519.43850358  3275.29114033
0.27000001 71823.95090683  4087.50123954
0.27100001 70165.73309247  3435.31445478
0.27200001 68545.12623761  2806.92305226
0.27300001 66960.79889092  3302.50675759
0.27400001 65411.69086546  3237.87885107
0.27500001 63900.57981832  3439.12936858
0.27600001 62422.68098113  2593.66251751
0.27700001 60981.41195278  4577.26499780
0.27800001 59573.51409175  3739.72752410
0.27900001 58200.11759337  2933.28606553
0.28000001 56859.75310221  3115.63031869
0.28100001 55552.43324853  3759.78886021
0.28200001 54278.00215038  2764.92156040
0.28300001 53035.53264601  2485.24517742
0.28400001 51825.05982635  2880.17783617
0.28500001 50645.76673983  2389.97384557
0.28600001 49496.63403072  2770.07925464
0.28700001 48378.12659945  2298.92868482
0.28800001 47288.89232277  2459.96829507
0.28900001 46230.58503577  2212.13359867
0.29000001 45199.75989645  2367.56353544
0.29100001 44198.88046630  2129.50216167
0.29200001 43225.18154267  2089.72150060
0.29300001 42279.26352416  2050.96717064
0.29400001 41360.48271680  2013.22159154
0.29500001 40469.61015053  2156.22093089
0.29600001 39603.88652390  1940.78855098
0.29700001 38763.98498715  1732.75021095
0.29800001 37950.36768082  2212.69629238
0.29900001 37161.62596534  2173.95522189
0.30000001 36397.60967605  2136.35780107
0.30100001 35658.60047487  1776.86814578
0.30200001 34942.34898622  1746.94282027
0.30300001 34250.04273302  1717.98222482
0.30400001 33581.59157399  1997.26525342
0.30500001 32934.73514460  1662.87485618
0.30600001 32310.25990815  2231.83130882
0.30700001 31708.24226797  1757.90503456
0.30800001 31127.52872144  1731.31322945
0.30900001 30567.92114511  1847.83092071
0.31000001 30029.89174630  2241.43122606
0.31100001 29510.49166973  1519.20018308
0.31200001 29012.35977382  1362.13035587
0.31300001 28533.07137442  1478.29849790
0.31400001 28074.55734711  2122.43663593
0.31500001 27634.10653167  1964.78506743
0.31600002 27212.01267404  1811.50376948
0.31700002 26807.81836446  1278.73299653
0.31800002 26421.96439742  1390.72016191
0.31900002 26053.69262848  1250.57730538
0.32000002 25702.26438800  1485.07690666
0.32100002 25368.12627909  1347.80861303
0.32200002 25050.40729766  1213.69229104
0.32300002 24748.04048941  1683.85675463
0.32400002 24461.93162318  1669.52691234
0.32500002 24190.87594805  1301.22727886
0.32600002 23935.45411388  1408.84089585
0.32700002 23694.56707270  1748.65913277
0.32800002 23468.84806995  1621.46278993
0.32900002 23256.16838917  1611.65254569
0.33000002 23058.88058311  1602.82286523
0.33100002 22872.76236204  1252.96998153
0.33200002 22702.42089993  1360.78317318
0.33300002 22543.61510742  1355.32220444
0.33400002 22398.29221962  1350.61708480
0.33500002 22264.75094506  1458.78655100
0.33600002 22143.28763670  1343.21189165
0.33700002 22032.85939877  1452.18583174
0.33800002 21935.37623647  1450.03811478
0.33900002 21847.76393565  2005.62482427
0.34000002 21771.81897532  1224.99145266
0.34100002 21706.32651618  1670.30190452
0.34200002 21651.95825990  1336.79196628
0.34300002 21606.49478726  1226.38470221
0.34400002 21571.73086757  1451.23826285
0.34500002 21546.12252528  1341.89257443
0.34600002 21531.05222666  1344.82958577
0.34700002 21522.89429309  1123.49513531
0.34800002 21525.17816651  1126.84313039
0.34900002 21535.59771491  1469.80461366
0.35000002 21554.52387039  1361.81488263
0.35100002 21581.57480285  1253.45792392
0.35200002 21615.77097215  1373.46615262
0.35300002 21657.96718849  1610.05335705
0.35400002 21707.93891722  1271.54258230
0.35500002 21764.81216605  1394.68922966
0.35600002 21828.11422314  1285.78512921
0.35700002 21898.38212652  1411.13181107
0.35800002 21975.65011336  1420.06657759
0.35900002 22058.82731590  1548.52975092
0.36000002 22148.67121256  1559.15578386
0.36100002 22243.58257908  1207.82659125
0.36200002 22345.36876177  1338.37592538
0.36300002 22450.81192898  1593.55870620
0.36400002 22562.38948185  1358.81997091
0.36500002 22678.46972723  1743.06726580
0.36600002 22800.05352583  1255.14300605
0.36700002 22925.82421799  1392.05611246
0.36800002 23057.49693457  1659.10227052
0.36900002 23192.45010972  1287.18104206
0.37000002 23330.68019720  1298.35241448
0.37100002 23473.28183820  1702.75194520
0.37200002 23620.06365240  1453.69688635
0.37300002 23769.88933716  1866.88719698
0.37400002 23924.07751345  1884.02119343
0.37500002 24080.52706073  1901.39850679
0.37600002 24240.98705975  1507.91067148
0.37700002 24403.22413159  1798.76173595
0.37800002 24569.08727865  1536.42794575
0.37900002 24737.34091632  1692.03419883
0.38000002 24908.20288300  1565.85424842
0.38100002 25080.80939983  1580.84349136
0.38200002 25255.84993999  2031.32810690
0.38300002 25432.58597107  1611.40872347
0.38400002 25611.88125806  2070.72069781
0.38500002 25791.76966655  1493.34353444
0.38600002 25974.48277981  1809.38255616
0.38700002 26157.51472617  1522.36742919
0.38800002 26341.84618602  1844.45615733
0.38900002 26527.55952966  1707.04853661
0.39000002 26714.96212209  1566.83260269
0.39100002 26902.29725883  2056.41169989
0.39200002 27091.06683241  2076.12400506
0.39300002 27280.11105170  1773.48010349
0.39400002 27470.52174571  1953.15418865
0.39500002 27660.39167267  1971.63281184
0.39600002 27850.61598283  2156.05553846
0.39700002 28040.68957980  1841.43217195
0.39800002 28232.04969880  2872.47003270
0.39900002 28422.33635352  2899.07844541
0.40000002 28612.56346803  1893.15035156
0.40100002 28802.34521940  2605.17224853
0.40200002 28993.01861426  2453.67928158
0.40300002 29182.01443606  1945.27317447
0.40400002 29370.65491397  2497.97431879
0.40500002 29558.68879217  1980.13665601
0.40600002 29746.22865827  1997.60808019
0.40700002 29932.75638776  1831.88477773
0.40800002 30118.73851424  2032.56316494
0.40900002 30302.84489489  3540.88759374
0.41000002 30486.70325778  3007.20855183
0.41100002 30669.18083630  1895.35546549
0.41200002 30849.68491962  1911.13807132
0.41300002 31029.42512130  1926.92739134
0.41400002 31207.59790060  2331.20767363
0.41500002 31384.81403390  2154.25373736
0.41600002 31559.21155264  2368.83453139
0.41700002 31732.83975219  2785.50880544
0.41800002 31905.55943317  2205.79095593
0.41900002 32074.50287757  2020.69377704
0.42000002 32242.50234333  3054.17117919
0.42100002 32409.18059135  2461.80147437
0.42200002 32573.66236264  2893.51856478
0.42300002 32735.66515818  2706.58492353
0.42400002 32895.54552188  3355.34580223
0.42500002 33053.84075251  2534.56862901
0.42600002 33208.50451198  3190.50722217
0.42700002 33362.32989640  2141.86168084
0.42800002 33513.25737575  4097.49860721
0.42900002 33662.47093141  2822.59832135
0.43000002 33809.16714167  2622.91531114
0.43100002 33952.00643289  2640.10814533
0.43200002 34093.37415094  2657.23770724
0.43300002 34231.80883387  2674.18903283
0.43400002 34368.04593438  3588.02416558
0.43500002 34501.20603687  2933.29267626
0.43600002 34632.66894305  2497.18871248
0.43700002 34760.46884169  2740.51549335
0.43800002 34884.81476785  2986.31470972
0.43900002 35007.55692806  2541.54875342
0.44000002 35126.63618604  3253.07793135
0.44100002 35243.56176263  3271.30755783
0.44200002 35357.43818201  2819.40225425
0.44300002 35468.57867295  2598.42819672
0.44400002 35576.24178926  2612.18567717
0.44500002 35680.24130130  2625.70908180
0.44600002 35782.06439138  3118.94379049
0.44700002 35881.00037450  2652.32367338
0.44800002 35975.84048781  2665.27026885
0.44900002 36069.06719212  3408.52701119
0.45000002 36158.89086210  2446.14908275
0.45100002 36244.25109653  2457.36034081
0.45200002 36327.56759724  2962.15000226
0.45300002 36407.07900186  2975.18663703
0.45400002 36484.11055848  2988.04879635
0.45500002 36557.82589676  3000.66649182
0.45600002 36627.99348388  3013.01888678
0.45700002 36695.02738050  3025.13820062
0.45800002 36758.21032679  2530.80290094
0.45900002 36818.51087760  4318.81153063
0.46000002 36876.38080212  3570.00259465
0.46100002 36929.73458775  3838.84609234
0.46200002 36980.67456879  2825.13876758
0.46300002 37027.81684860  3092.56340977
0.46400002 37071.40558156  2585.73066187
0.46500002 37112.54847190  3631.83416559
0.46600002 37149.65911977  2862.56711915
0.46700002 37183.49937245  3915.42266949
0.46800002 37214.72922646  2879.86195768
0.46900002 37241.91775077  2888.11085846
0.47000002 37265.53907140  2896.09150620
0.47100002 37286.31783304  3431.83285601
0.47200002 37303.63209791  5028.71636330
0.47300002 37318.16590622  3449.31823820
0.47400002 37328.12591492  2925.59200725
0.47500002 37335.93980830  3198.94347440
0.47600002 37340.65949842  3740.41403924
0.47700002 37341.04802859  2677.35327055
