# SAXS profile: number of points = 501, q_min = 0, q_max = 0.5, delta_q = 0.001
#    q    intensity    error
0.00000000 1664650.74656091 299.63713438
0.00100000 1664582.33867081 549.31218481
0.00200000 1664377.05406719 898.76363766
0.00300000 1664035.06935497 1098.26318490
0.00400000 1663556.24603457 1871.50084790
0.00500000 1662941.04721429 1795.97640208
0.00600000 1662189.19995897 1919.82860411
0.00700000 1661301.35724388 1993.56171155
0.00800000 1660276.97977899 3586.19842773
0.00900000 1659117.37587076 2737.54378721
0.01000000 1657821.76396963 3282.48723440
0.01100000 1656391.37307783 3875.95598176
0.01200000 1654825.61847475 3872.29211701
0.01300000 1653125.96284922 5554.50348015
0.01400000 1651291.53791310 3715.40612501
0.01500000 1649324.21077383 4354.21611033
0.01600000 1647222.82899427 7140.71128290
0.01700000 1644989.48408251 4885.61898689
0.01800000 1642623.73170207 4681.47784601
0.01900000 1640126.32993557 4920.37921183
0.02000000 1637497.83395510 7221.36577441
0.02100000 1634739.89914527 7013.03448529
0.02200000 1631850.76147213 6192.87392114
0.02300000 1628833.33854534 7622.94037138
0.02400000 1625687.43013499 8534.85939738
0.02500000 1622414.30421781 7592.89929051
0.02600000 1619014.24777449 8524.11040441
0.02700000 1615488.40831973 7463.55678828
0.02800000 1611836.38512868 11218.38175497
0.02900000 1608060.89224480 10130.78408629
0.03000000 1604162.29952807 11189.03255352
0.03100000 1600140.71736189 8448.74337642
0.03200000 1595997.21025962 10270.24252105
0.03300000 1591734.55664845 8117.84661314
0.03400000 1587350.53422882 9166.94975814
0.03500000 1582848.96687892 11966.33874219
0.03600000 1578229.22358709 10511.00711484
0.03700000 1573493.11712227 12556.47565534
0.03800000 1568642.27857095 10094.21352976
0.03900000 1563677.43511594 14073.09756777
0.04000000 1558597.89304039 9585.37748637
0.04100000 1553407.48368342 13701.05464136
0.04200000 1548106.52170612 13979.40253955
0.04300000 1542695.12788733 10181.78831667
0.04400000 1537176.73232482 14526.32079510
0.04500000 1531551.25644226 13738.01540862
0.04600000 1525818.76569432 11832.72507803
0.04700000 1519982.79358439 13132.65194734
0.04800000 1514043.24803933 11128.21839086
0.04900000 1508002.75487612 11310.02118802
0.05000000 1501861.13913012 11489.23824935
0.05100000 1495621.54377707 15165.60316037
0.05200000 1489282.22181189 15391.73247970
0.05300000 1482848.53216991 16815.50313871
0.05400000 1476319.01394574 12179.63243304
0.05500000 1469697.50342248 14814.55152559
0.05600000 1462982.28593244 16261.04886695
0.05700000 1456178.59973555 13935.62984996
0.05800000 1449284.92222076 15391.40659265
0.05900000 1442303.47895408 15576.87830024
0.06000000 1435236.76172112 18385.38377659
0.06100000 1428086.39058097 14609.32445836
0.06200000 1420852.66512209 14769.76414433
0.06300000 1413538.81102267 14926.97054231
0.06400000 1406143.01993047 20564.84262823
0.06500000 1398671.70460174 16616.22062794
0.06600000 1391122.43020257 15378.85918544
0.06700000 1383498.18745667 21167.52325871
0.06800000 1375802.13694290 15663.50806229
0.06900000 1368034.62904341 21546.54641622
0.07000000 1360195.59827083 18831.90893993
0.07100000 1352289.73251713 14604.72979524
0.07200000 1344315.82114526 19136.33661048
0.07300000 1336278.81764356 17799.23468501
0.07400000 1328177.96277215 16436.20305957
0.07500000 1320015.45948993 22572.26541530
0.07600000 1311791.60690307 16666.31314703
0.07700000 1303511.98510003 16776.20003485
0.07800000 1295174.59663626 21486.94756585
0.07900000 1286781.72976822 16985.51962962
0.08000000 1278337.21979168 17084.97774399
0.08100000 1269841.04175034 20304.75921025
0.08200000 1261294.18075878 26695.29258844
0.08300000 1252699.83569772 28411.23360702
0.08400000 1244058.35830136 23792.61721931
0.08500000 1235373.85680570 20717.22055120
0.08600000 1226645.53822284 16007.72502539
0.08700000 1217876.51120201 19291.16484331
0.08800000 1209066.26646770 20983.34604000
0.08900000 1200220.25766545 22684.16393535
0.09000000 1191337.30421964 22766.45695310
0.09100000 1182420.24150782 17949.14010936
0.09200000 1173469.77309503 18006.89451423
0.09300000 1164489.47934313 16419.30243032
0.09400000 1155477.62986817 24698.33549919
0.09500000 1146438.66263975 21461.33277336
0.09600000 1137373.27723014 16548.78196162
0.09700000 1128284.87364477 18244.36726455
0.09800000 1119174.04688233 18281.70891539
0.09900000 1110042.79225790 19980.77120019
0.10000000 1100890.42344621 18346.33976951
0.10100000 1091719.99132012 18373.64831806
0.10200000 1082534.17722128 18397.66920723
0.10300000 1073333.30600341 26790.40057809
0.10400000 1064120.01477734 16759.89102121
0.10500000 1054897.31215979 16772.86805249
0.10600001 1045661.43616727 16782.86684018
0.10700001 1036419.89862310 18469.00346257
0.10800001 1027170.13291921 20153.07895631
0.10900001 1017916.19080543 23513.86511430
0.11000001 1008658.38098573 16794.16283391
0.11100001 999398.44259515 20147.87355115
0.11200001 990139.29137891 23496.00649055
0.11300001 980879.50894491 18450.34443191
0.11400001 971623.61210204 26816.81295667
0.11500001 962371.71816769 23443.37615847
0.11600001 953125.16175035 16727.34737643
0.11700001 943886.44182322 16706.79080708
0.11800001 934654.44703748 25025.37399808
0.11900001 925432.79598329 18323.57022354
0.12000001 916222.03710687 16629.43075682
0.12100001 907025.47679840 21578.13710954
0.12200001 897841.38054846 23191.24395214
0.12300001 888673.73760303 24793.99844728
0.12400001 879521.78819593 23087.44802797
0.12500001 870388.07850435 19740.40255066
0.12600001 861275.11050470 18048.02079111
0.12700001 852182.67964822 21270.48068642
0.12800001 843110.73984991 19577.03230197
0.12900001 834062.96650237 19517.07433604
0.13000001 825039.37787366 25939.23926299
0.13100001 816040.35666071 21004.87977057
0.13200001 807069.55467705 24151.55756222
0.13300001 798127.91944211 24063.55790561
0.13400001 789213.57486424 17579.73320891
0.13500001 780330.84638020 22286.25002338
0.13600001 771478.55953234 20610.05068969
0.13700001 762659.66266391 20523.17249002
0.13800001 753873.24970473 18861.90959706
0.13900001 745123.96892639 18777.12490244
0.14000001 736408.91565472 18690.05916075
0.14100001 727731.30033007 20150.88065651
0.14200001 719090.62453804 23136.74193576
0.14300001 710491.33385634 21485.25894922
0.14400001 701928.00146432 16793.62822719
0.14500001 693408.88830004 16704.22090712
0.14600001 684929.37938349 18123.23223344
0.14700001 676495.51234201 19523.66140725
0.14800001 668102.72881707 17918.51603225
0.14900001 659754.08122473 19297.80778631
0.15000001 651451.53086871 17706.45344445
0.15100001 643195.00779179 17597.81624354
0.15200001 634986.36401354 17487.52529012
0.15300001 626825.38810327 15927.63386331
0.15400001 618710.84417374 15823.53058647
0.15500001 610647.64141168 17146.98658006
0.15600001 602632.39614471 22707.18975840
0.15700001 594671.30052355 18321.82363386
0.15800001 586757.14327675 20991.23779149
0.15900001 578898.06946812 16672.26518762
0.16000001 571089.19290879 16550.16559170
0.16100001 563336.93345609 17795.81456792
0.16200001 555636.24397725 17660.89884852
0.16300001 547991.31150485 20220.88034911
0.16400001 540400.98216168 13374.92493993
0.16500001 532866.65800112 13268.38041065
0.16600001 525387.95750171 14477.06585247
0.16700001 517965.65068021 14358.00851476
0.16800001 510599.56267431 18121.17933493
0.16900001 503293.08468927 12833.97426557
0.17000001 496043.99312104 13995.88192679
0.17100001 488853.40941661 21441.11154949
0.17200001 481721.55287443 17500.94484237
0.17300001 474649.08183772 18582.51243150
0.17400001 467637.11389010 15958.11726514
0.17500001 460684.44320333 15810.69083744
0.17600001 453790.24644327 15662.57109572
0.17700001 446959.34054215 11933.81495612
0.17800001 440188.28746599 17728.58411505
0.17900001 433478.28258569 14044.69701916
0.18000001 426830.54194626 17382.67464183
0.18100001 420245.42261256 18356.32092680
0.18200001 413719.37316038 18170.55572754
0.18300001 407258.44474674 12364.36696660
0.18400001 400857.86142489 13348.56741604
0.18500001 394521.12087369 11007.13979238
0.18600001 388246.71699238 15246.44929659
0.18700001 382034.64641760 18314.74181454
0.18800001 375885.11693578 13853.24663918
0.18900001 369800.80620251 12647.18816967
0.19000001 363775.33151750 12506.59648849
0.19100001 357818.10655415 13396.71054238
0.19200001 351920.38435412 11206.90516930
0.19300001 346088.47086953 10071.17497819
0.19400001 340318.99255205 11945.19720303
0.19500001 334613.33106506 15740.21183711
0.19600001 328969.65472603 12637.36988350
0.19700001 323390.03860109 10565.15306038
0.19800001 317873.77237836 13283.94557547
0.19900001 312421.78984806 11247.18496607
0.20000001 307030.81235036 11108.37531583
0.20100001 301704.77308065 10055.82056204
0.20200001 296440.44079274 18053.22369754
0.20300001 291239.90194082 10694.32970473
0.20400001 286101.99260446 15835.74603915
0.20500001 281026.05846600 8683.70561705
0.20600001 276013.37447986 9427.23725097
0.20700001 271062.57672559 8457.15279360
0.20800001 266173.98856264 8344.55493589
0.20900001 261349.82595163 8232.51990664
0.21000001 256584.80898671 9745.09150599
0.21100001 251881.72339027 8810.82310071
0.21200001 247240.17356769 9479.18870271
0.21300001 242659.66589294 8568.31320775
0.21400001 238140.98498996 13056.08011932
0.21500001 233683.64803723 7571.35055436
0.21600001 229285.19959321 8955.88031953
0.21700001 224947.97487177 11033.69868913
0.21800001 220670.61081695 9423.73888050
0.21900001 216451.68429168 9285.77769516
0.22000001 212292.14586239 8444.98196171
0.22100001 208193.86945963 8319.42741698
0.22200001 204153.36515271 12974.96773579
0.22300001 200171.02240279 6725.74667076
0.22400001 196245.31186286 6623.27958856
0.22500001 192380.51794895 7173.86985355
0.22600001 188571.13854882 7062.93232834
0.22700001 184820.06489980 6952.93117033
0.22800001 181124.96876577 6221.64297133
0.22900001 177485.98085801 10409.55326960
0.23000001 173903.12366989 7230.89222416
0.23100001 170377.54225662 6522.05262603
0.23200001 166905.03066733 6999.99731724
0.23300001 163488.84311901 9181.53386380
0.23400001 160127.03638141 6208.92612934
0.23500001 156817.98913467 6661.62849351
0.23600001 153563.73428383 7642.86741679
0.23700001 150362.52769133 5904.73674172
0.23800001 147213.95928477 6333.14482798
0.23900001 144118.17056525 5188.25438575
0.24000001 141073.90965076 6629.76869763
0.24100001 138082.47875324 8019.83074534
0.24200001 135141.61250548 5418.50320971
0.24300001 132251.52416684 5808.48721617
0.24400001 129411.08701525 4755.85767278
0.24500001 126620.97303441 5139.54553859
0.24600001 123880.26339539 5048.74037351
0.24700001 121189.30014474 6311.53905011
0.24800001 118545.51466973 7969.81532827
0.24900001 115950.04333829 5652.56488015
0.25000001 113402.57837999 5123.52873359
0.25100001 110901.61696791 4611.28945168
0.25200001 108448.50765662 4527.18316631
0.25300001 106041.47891502 4040.18053780
0.25400001 103679.48590389 4362.31457579
0.25500001 101362.81634612 6616.96496414
0.25600001 99091.43983348  3819.97518631
0.25700001 96864.02467122  5248.09310499
0.25800001 94680.54649678  4046.17334598
0.25900001 92540.69622830  4330.90478840
0.26000001 90444.23788890  4957.24891325
0.26100001 88388.13942007  4863.11566100
0.26200001 86376.66333574  4089.07143580
0.26300001 84405.08625183  4010.92988847
0.26400001 82474.48717808  3606.19712250
0.26500001 80585.37397122  4179.96354568
0.26600001 78735.17853283  3468.67845440
0.26700001 76925.83945987  3092.41889262
0.26800001 75155.33239225  3032.51780553
0.26900001 73423.00901385  4163.08480809
0.27000001 71729.52082556  3498.96619145
0.27100001 70073.41243954  2858.99536283
0.27200001 68454.94534263  3644.19918777
0.27300001 66872.75228965  3847.85834884
0.27400001 65325.79048432  2964.15788350
0.27500001 63816.89011437  3963.02906365
0.27600001 62341.15481280  3626.38514708
0.27700001 60902.14761775  2793.58164344
0.27800001 59496.42654240  2738.91812550
0.27900001 58125.37292186  2929.51893391
0.28000001 56787.26582214  2632.94170446
0.28100001 55482.26239568  4224.41965874
0.28200001 54210.18161863  3221.71124608
0.28300001 52970.05600914  3610.43918847
0.28400001 51761.91439346  2655.38633407
0.28500001 50585.04789006  3038.13812008
0.28600001 49438.26227133  2341.14902067
0.28700001 48322.22126723  2087.52005755
0.28800001 47235.45813988  2252.42292801
0.28900001 46179.59183078  2209.69357370
0.29000001 45151.28671996  2759.19526206
0.29100001 44152.86083856  2514.06401515
0.29200001 43181.67869116  2277.40184197
0.29300001 42238.30491349  2980.33493577
0.29400001 41322.03663066  2742.75031119
0.29500001 40433.78417662  2333.83813315
0.29600001 39570.57978329  1762.86941280
0.29700001 38733.30628750  2077.65464761
0.29800001 37922.21061239  1870.89234913
0.29900001 37136.15607142  1671.12710232
0.30000001 36374.69836270  1642.31770882
0.30100001 35638.35952694  1937.30131560
0.30200001 34924.67894626  1904.79207990
0.30300001 34235.06329755  2341.67844041
0.30400001 33569.29902283  1689.37505330
0.30500001 32925.06879202  1662.38680201
0.30600001 32303.32028617  1487.56796960
0.30700001 31704.07157593  1611.20099377
0.30800001 31125.98251094  1442.68935768
0.30900001 30569.07558895  2132.19312328
0.31000001 30033.74222620  1681.28896942
0.31100001 29517.05897133  1519.53826779
0.31200001 29021.68467943  1498.82497623
0.31300001 28545.09965736  1344.47425752
0.31400001 28089.30925827  1592.66391035
0.31500001 27651.59920849  1310.68586454
0.31600002 27232.29125038  2071.83281643
0.31700002 26830.77613453  1407.81089044
0.31800002 26447.72484948  1265.52369397
0.31900002 26082.18447481  2378.69533673
0.32000002 25733.47478552  1239.06686959
0.32100002 25402.05749700  1349.61137872
0.32200002 25087.11441908  1337.01782627
0.32300002 24787.50819088  1686.54213717
0.32400002 24504.09142702  1314.03196500
0.32500002 24235.81101078  1659.18370036
0.32600002 23983.11985188  1646.92091821
0.32700002 23744.96978277  1285.07782550
0.32800002 23522.02058429  1276.89294788
0.32900002 23312.02999198  1500.12920102
0.33000002 23117.47655175  1492.11759469
0.33100002 22934.06811762  1256.32831098
0.33200002 22766.45484651  1705.77671015
0.33300002 22610.33415257  1472.61113309
0.33400002 22467.65747382  1467.69979398
0.33500002 22336.83770202  1463.50967554
0.33600002 22218.03713182  1123.12183020
0.33700002 22110.33623192  1457.29233006
0.33800002 22015.42987086  1119.48466195
0.33900002 21930.53690685  1342.14892226
0.34000002 21857.09958775  1453.38790592
0.34100002 21794.31305231  1677.07246880
0.34200002 21742.55479935  1789.84719585
0.34300002 21699.69772352  1679.55668334
0.34400002 21667.48540678  1681.93863436
0.34500002 21644.44726932  1460.35092642
0.34600002 21631.93181240  1576.31894582
0.34700002 21626.29853014  1241.78212041
0.34800002 21631.12805740  1811.82337190
0.34900002 21644.04588007  1363.57495503
0.35000002 21665.40393465  1368.82028542
0.35100002 21694.96704278  1374.59317693
0.35200002 21731.56793581  1495.89254971
0.35300002 21776.23269356  1387.58161295
0.35400002 21828.60870543  2092.27224351
0.35500002 21887.87294930  1636.33745919
0.35600002 21953.53064059  1410.73394578
0.35700002 22026.17393051  1774.20839414
0.35800002 22105.76437010  1309.43501448
0.35900002 22191.18014808  1557.82092018
0.36000002 22283.33425139  1568.63538893
0.36100002 22380.53992025  1822.89506285
0.36200002 22484.47935548  1591.56394656
0.36300002 22592.19418523  1603.59401923
0.36400002 22705.92365359  1491.77925470
0.36500002 22824.15200437  1754.26440615
0.36600002 22947.85434939  1768.59121848
0.36700002 23075.74237171  1655.91535103
0.36800002 23209.48208821  1413.10938388
0.36900002 23346.49501387  1554.87664158
0.37000002 23486.72937620  1699.14751721
0.37100002 23631.33489958  1582.35425983
0.37200002 23780.05606898  1596.59304010
0.37300002 23931.83307725  2282.37902869
0.37400002 24087.93827829  1625.93591081
0.37500002 24246.21907800  2051.23023117
0.37600002 24408.52054416  1380.30190216
0.37700002 24572.56174797  1950.57004396
0.37800002 24740.17825957  1406.47920068
0.37900002 24910.15825938  1987.83072327
0.38000002 25082.77265963  1863.52468303
0.38100002 25256.99153220  1591.94825169
0.38200002 25433.70452813  1607.28303380
0.38300002 25612.09738145  2065.35963068
0.38400002 25792.89809740  1638.49392926
0.38500002 25974.35808954  1804.69848556
0.38600002 26158.50797770  1822.20175205
0.38700002 26343.01786592  1839.79645492
0.38800002 26528.82449394  1702.75268081
0.38900002 26715.90279236  2031.74450361
0.39000002 26904.70099331  2840.32941843
0.39100002 27093.29877805  2071.01185671
0.39200002 27283.33962945  1930.02353683
0.39300002 27473.60300402  1786.05901591
0.39400002 27665.22351495  2130.91394220
0.39500002 27856.27147140  1654.66260380
0.39600002 28047.61874865  1837.25935318
0.39700002 28238.81049762  2191.61418655
0.39800002 28431.18850990  2041.92805552
0.39900002 28622.53328921  1889.08728659
0.40000002 28813.71701254  2426.40322459
0.40100002 29004.41307891  2273.65604898
0.40200002 29195.98389860  2117.87677235
0.40300002 29385.81311544  2493.09250284
0.40400002 29575.25088173  2156.03589143
0.40500002 29764.08003084  2537.68558367
0.40600002 29952.38848093  2742.89010510
0.40700002 30139.56656589  2397.90402960
0.40800002 30326.17287733  2604.71511185
0.40900002 30510.82123993  2064.05715468
0.41000002 30695.32095099  2270.83995155
0.41100002 30878.32549200  2099.10866641
0.41200002 31059.27650593  2308.94672485
0.41300002 31239.46263600  2909.95608242
0.41400002 31418.01211312  2151.34848138
0.41500002 31595.56768735  2365.87622053
0.41600002 31770.27608015  1987.23086298
0.41700002 31944.18914824  2804.06105630
0.41800002 32117.14248998  2220.41875126
0.41900002 32286.25424510  2644.24434797
0.42000002 32454.43359314  2869.29660993
0.42100002 32621.13240247  3303.86844628
0.42200002 32785.70832597  3120.37993778
0.42300002 32947.66305892  2095.47146984
0.42400002 33107.60129265  2954.85355539
0.42500002 33265.77363210  2550.81964298
0.42600002 33420.32921529  2782.74384397
0.42700002 33573.99665658  2586.54082499
0.42800002 33724.69113378  2604.22077276
0.42900002 33873.66462446  2184.85147181
0.43000002 34020.08678785  2419.33858656
0.43100002 34162.60777803  2877.85821560
0.43200002 34303.60045722  2673.62274633
0.43300002 34441.61690496  2466.36430344
0.43400002 34577.42959606  3609.88382089
0.43500002 34710.10816592  2951.05353611
0.43600002 34841.04121190  3197.36250354
0.43700002 34968.22885064  2527.15401880
0.43800002 35091.98703561  3466.21118370
0.43900002 35214.01465188  3021.36260031
0.44000002 35332.39074390  2804.68531016
0.44100002 35448.65065519  4465.46673465
0.44200002 35561.70452943  2835.69045356
0.44300002 35672.03244589  2613.33322083
0.44400002 35778.82170436  4537.64927770
0.44500002 35881.90967343  3120.64983219
0.44600002 35982.73807874  2895.17124302
0.44700002 36080.72822233  2667.08755659
0.44800002 36174.58028108  2923.62971687
0.44900002 36266.73033445  2692.80485495
0.45000002 36355.49388105  3443.22898866
0.45100002 36439.68687001  2717.67197556
0.45200002 36521.83520113  3226.15646539
0.45300002 36600.11134943  2990.96124123
0.45400002 36675.92428605  3003.75834139
0.45500002 36748.33302651  3267.66192758
0.45600002 36817.19002401  3533.34589406
0.45700002 36882.86235975  2787.23804062
0.45800002 36944.68401370  2798.00577639
0.45900002 37003.55880446  3063.89481422
0.46000002 37059.96525299  3075.23606244
0.46100002 37111.79792785  3343.40203378
0.46200002 37161.20153596  2838.93012589
0.46300002 37206.82405455  3884.39261540
0.46400002 37248.77641457  2857.91250586
0.46500002 37288.32815896  3388.39054040
0.46600002 37323.75663491  3398.88805905
0.46700002 37355.89476731  3146.86072435
0.46800002 37385.46532427  3419.08789328
0.46900002 37410.83449657  2637.46395701
0.47000002 37432.67221698  3966.92762621
0.47100002 37451.63765357  3447.04889301
0.47200002 37467.12404971  2658.29257732
0.47300002 37479.79368566  3464.25749456
0.47400002 37487.79514768  4006.50829631
0.47500002 37493.67401009  2944.75329633
0.47600002 37496.47142017  3219.44718873
0.47700002 37494.84491248  2957.21855841
