# SAXS profile: number of points = 501, q_min = 0, q_max = 0.5, delta_q = 0.001
#    q    intensity    error
0.00000000 1646666.22097351 271.69992646
0.00100000 1646598.39174035 493.97952925
0.00200000 1646394.84726223 1259.49209804
0.00300000 1646055.76114740 1185.16019025
0.00400000 1645581.00379512 1481.02295969
0.00500000 1644971.00304362 1628.52135747
0.00600000 1644225.54618282 2071.72427253
0.00700000 1643345.22186144 2760.82008747
0.00800000 1642329.52551916 2217.14495306
0.00900000 1641179.75020140 4185.00854191
0.01000000 1639895.13885828 3246.99251514
0.01100000 1638476.88097334 3834.03606841
0.01200000 1636924.41426607 4788.00412165
0.01300000 1635239.18665335 4464.20317646
0.01400000 1633420.35999958 3675.19597292
0.01500000 1631469.72702301 4698.63302305
0.01600000 1629386.22077710 4570.42855359
0.01700000 1627171.86578054 5711.37350509
0.01800000 1624826.26144323 5556.90606418
0.01900000 1622350.13295394 5353.75568032
0.02000000 1619744.00434997 6122.63261340
0.02100000 1617009.58033597 6936.97141415
0.02200000 1614145.04432648 8353.20098390
0.02300000 1611153.38546924 5800.15245170
0.02400000 1608034.34825274 7236.15489709
0.02500000 1604789.14903828 10639.75254405
0.02600000 1601418.18280914 10377.19029924
0.02700000 1597922.46504999 9395.78452483
0.02800000 1594301.70203708 9015.77653848
0.02900000 1590558.62885772 10020.51982189
0.03000000 1586693.41391068 9591.56212797
0.03100000 1582706.36253522 13674.58360151
0.03200000 1578598.38505481 9376.87483911
0.03300000 1574372.41104658 8832.22963314
0.03400000 1570026.09193042 9891.16483554
0.03500000 1565563.27610025 9299.44628947
0.03600000 1560983.35092335 9529.80379779
0.03700000 1556288.12199844 10645.01124677
0.03800000 1551479.16542290 10891.38424532
0.03900000 1546557.24027269 11135.21264564
0.04000000 1541521.70039232 13272.50245541
0.04100000 1536376.24290672 10647.08785701
0.04200000 1531121.22256389 10863.30557807
0.04300000 1525756.76800632 14097.99319078
0.04400000 1520286.46359738 11288.12751645
0.04500000 1514709.94136877 12541.79889729
0.04600000 1509027.42277153 12766.37259012
0.04700000 1503242.40317018 17317.35328991
0.04800000 1497354.61711414 14307.22403221
0.04900000 1491367.01379411 19014.93031097
0.05000000 1485279.14284481 17043.57895780
0.05100000 1479094.30316175 12690.62971231
0.05200000 1472810.61504432 16392.38290935
0.05300000 1466433.59635803 16629.35775793
0.05400000 1459961.53636464 14453.61988404
0.05500000 1453398.39726484 21975.38479178
0.05600000 1446742.52259542 14843.57897449
0.05700000 1439999.08614717 17539.18968798
0.05800000 1433166.44371730 15220.22834295
0.05900000 1426247.07421496 14119.84669421
0.06000000 1419243.07348223 18180.50462068
0.06100000 1412156.22666841 13133.05352174
0.06200000 1404987.03130983 19915.69209975
0.06300000 1397738.52038079 14760.11946533
0.06400000 1390408.88422494 14912.13598070
0.06500000 1383004.61785612 20537.61953587
0.06600000 1375523.03831637 24883.21292739
0.06700000 1367967.34403140 19534.57458697
0.06800000 1360340.58744445 15487.47831301
0.06900000 1352643.18419629 18463.58032872
0.07000000 1344875.03187161 14322.91976015
0.07100000 1337040.81341929 14440.04146127
0.07200000 1329139.32844222 16009.48396108
0.07300000 1321175.34067114 19064.56105917
0.07400000 1313148.24343815 14772.91843100
0.07500000 1305060.19564992 17853.22431332
0.07600000 1296911.65702970 19473.12944321
0.07700000 1288707.84721781 18093.45902331
0.07800000 1280447.07551236 21242.61797895
0.07900000 1272131.40901173 21371.80867381
0.08000000 1263764.67820788 24567.58649685
0.08100000 1255347.00512158 21617.07644243
0.08200000 1246879.32758590 18628.37802827
0.08300000 1238364.49575359 17163.73271667
0.08400000 1229803.45186348 17247.99422198
0.08500000 1221199.95794095 22054.87227578
0.08600000 1212553.05250128 20570.96350152
0.08700000 1203866.35537653 15891.03663718
0.08800000 1195138.48431894 17550.60946647
0.08900000 1186375.69281127 17617.67986574
0.09000000 1177576.48847266 17681.31180501
0.09100000 1168743.70875378 22580.12951396
0.09200000 1159877.84585096 17798.32638087
0.09300000 1150982.83378574 17851.74459091
0.09400000 1142056.57958257 19529.16842868
0.09500000 1133103.89862169 22843.37566991
0.09600000 1124125.24777043 16356.02312392
0.09700000 1115123.86591610 22949.25023946
0.09800000 1106100.46786298 16425.59272006
0.09900000 1097057.24255596 19747.03129456
0.10000000 1087993.12668275 18131.40630884
0.10100000 1078911.54383733 19808.81687650
0.10200000 1069814.77912804 19834.36693797
0.10300000 1060703.39200872 23165.76317121
0.10400000 1051579.92326822 18218.62302772
0.10500000 1042447.46557209 18232.40703068
0.10600001 1033301.98731036 23218.29674737
0.10700001 1024151.52013288 24886.88311035
0.10800001 1014992.77378449 21573.67242208
0.10900001 1005830.28798913 24894.30079940
0.11000001 996664.11974900 16594.45837491
0.11100001 987496.20903031 23225.91192971
0.11200001 978329.42988913 18240.95307901
0.11300001 969162.08615076 18229.93969878
0.11400001 959998.94625936 18215.98086296
0.11500001 950840.04247117 18199.07926986
0.11600001 941686.55066592 23137.23963943
0.11700001 932541.09674812 19807.17382775
0.11800001 923402.60155935 19779.28465697
0.11900001 914274.65473461 21394.02792848
0.12000001 905157.76746046 24642.92137991
0.12100001 896055.07025934 21317.15112568
0.12200001 886965.30883167 19637.41286268
0.12300001 877891.78135163 19594.54548295
0.12400001 868834.21844202 22806.89930871
0.12500001 859794.92751582 26000.19983322
0.12600001 850776.48801935 17828.02214656
0.12700001 841778.66983049 17778.36634465
0.12800001 832801.46759323 17726.18007314
0.12900001 823848.36567311 19278.05266537
0.13000001 814919.34948641 17614.48256941
0.13100001 806015.21833118 19150.92249028
0.13200001 797139.02117872 17493.21664440
0.13300001 788292.19448499 19013.60862734
0.13400001 779472.64769457 15784.32185998
0.13500001 770684.60128005 23582.94991106
0.13600001 761926.92641656 17223.35898374
0.13700001 753202.71671950 21827.81575978
0.13800001 744510.83460796 23284.57745037
0.13900001 735855.96928806 20088.86890892
0.14000001 727235.42525618 16919.13296650
0.14100001 718652.01173855 16838.01742917
0.14200001 710105.48828995 16754.93978645
0.14300001 701600.10406929 19700.93185151
0.14400001 693130.71674701 15075.59380036
0.14500001 684705.57166773 17994.06327225
0.14600001 676319.53437021 19386.70036728
0.14700001 667979.20679992 17794.96690865
0.14800001 659679.56216569 22115.75836500
0.14900001 651424.13626834 17588.45250908
0.15000001 643214.40210043 18939.44896347
0.15100001 635050.65246928 17374.98667140
0.15200001 626934.25098510 23021.02678247
0.15300001 618865.55425386 20014.11296902
0.15400001 610843.10716489 15622.31320297
0.15500001 602871.65637827 18339.35665252
0.15600001 594947.65272265 16813.22145944
0.15700001 587077.84450953 15305.12012872
0.15800001 579254.56383335 22104.35519918
0.15900001 571486.14362783 16458.80171335
0.16000001 563767.61908150 14976.48750783
0.16100001 556105.10113653 21621.36735281
0.16200001 548494.19473108 14751.75206366
0.16300001 540938.59466117 13307.09005686
0.16400001 533437.22086552 18483.60057559
0.16500001 525991.47402153 17026.34481791
0.16600001 518601.33728424 15589.15693478
0.16700001 511266.77719423 15460.70807233
0.16800001 503988.23805229 15331.32292544
0.16900001 496769.00248092 15201.13219368
0.17000001 489606.35827298 17581.76515579
0.17100001 482502.13465724 17427.97792679
0.17200001 475456.29125417 17273.32787696
0.17300001 468469.25344467 14672.45771079
0.17400001 461542.32016682 14538.58377185
0.17500001 454674.29686591 14404.08240498
0.17600001 447864.28940508 17836.19616794
0.17700001 441117.21360683 14133.39619149
0.17800001 434429.22574297 12830.86778835
0.17900001 427801.96899169 13860.78445003
0.18000001 421236.52407908 13723.88660274
0.18100001 414733.33027941 12454.44249659
0.18200001 408288.57294911 14569.77841393
0.18300001 401908.26022661 14420.46905814
0.18400001 395588.28207299 15368.60548456
0.18500001 389331.20506699 15207.27758834
0.18600001 383136.01043661 10746.96560047
0.18700001 377002.62925647 12757.76957678
0.18800001 370931.44813582 15773.86057723
0.18900001 364924.73668169 12480.42658418
0.19000001 358976.45195030 13370.07858461
0.19100001 353095.87732507 12202.99409695
0.19200001 347273.83608359 12064.29363560
0.19300001 341517.49619588 11925.79153068
0.19400001 335822.84528838 13751.94616439
0.19500001 330191.47061283 11649.15563370
0.19600001 324621.36881077 13429.58666233
0.19700001 319115.08292351 9477.71841072
0.19800001 313671.23328489 10299.39543165
0.19900001 308291.03284359 10173.60456464
0.20000001 302971.45566129 12788.42574786
0.20100001 297716.11454622 10824.95843651
0.20200001 292521.85957066 9798.02014941
0.20300001 287390.77070459 8794.15799921
0.20400001 282321.65089716 11285.80852805
0.20500001 277313.92003577 11139.70069438
0.20600001 272368.85514292 8457.05335194
0.20700001 267484.92709824 10014.63614394
0.20800001 262662.86250742 8234.48112885
0.20900001 257904.29825868 8123.98577918
0.21000001 253204.15352178 8815.30302158
0.21100001 248565.46486782 8694.82037211
0.21200001 243987.55309003 10913.56376565
0.21300001 239470.18448484 8455.69261391
0.21400001 235013.77807746 7579.19470132
0.21500001 230618.18815233 8966.43557927
0.21600001 226281.02398027 8101.99244666
0.21700001 222004.11732266 11615.25596749
0.21800001 217786.48325474 10731.42946977
0.21900001 213626.67243345 7049.68052362
0.22000001 209525.50799128 12502.38765298
0.22100001 205484.91584818 8895.44242768
0.22200001 201501.39069117 10110.33275599
0.22300001 197575.38969412 7302.38674839
0.22400001 193705.36652098 7845.06771506
0.22500001 189895.66084206 8368.70216904
0.22600001 186140.47676828 10140.93365388
0.22700001 182443.09463572 6863.50954477
0.22800001 178800.97287890 6755.99507972
0.22900001 175214.24148069 6649.38077865
0.23000001 171682.95295263 7138.57752137
0.23100001 168208.17922544 7609.73838804
0.23200001 164786.00618332 7487.05254503
0.23300001 161419.20099603 6798.97706751
0.23400001 158106.29098833 6130.57172302
0.23500001 154845.41557227 7674.13915872
0.23600001 151638.55037089 5929.82579272
0.23700001 148484.14984022 5830.97284002
0.23800001 145381.59544168 5733.12348741
0.23900001 142331.17663092 9223.06068193
0.24000001 139331.56726485 5540.52003436
0.24100001 136384.26101444 7426.12336350
0.24200001 133486.69372402 6811.82630295
0.24300001 130639.22359817 6693.95413381
0.24400001 127840.77685102 6577.40828012
0.24500001 125091.89509142 6462.24760612
0.24600001 122391.94446264 4534.62175685
0.24700001 119740.75454343 4899.79190771
0.24800001 117136.29807281 4812.54503399
0.24900001 114579.31466221 6874.75920496
0.25000001 112069.80686321 4641.37127081
0.25100001 109606.01815175 4557.41845036
0.25200001 107189.47522354 5694.97708805
0.25300001 104818.37835327 4392.93844462
0.25400001 102491.49035751 4704.35962998
0.25500001 100209.44671684 4617.65152318
0.25600001 97971.93695293  4532.18201787
0.25700001 95777.79509305  5559.90126821
0.25800001 93626.84838176  4728.62420125
0.25900001 91518.94136231  3926.16277021
0.26000001 89453.85783249  5953.60178974
0.26100001 87428.47643240  4466.72107228
0.26200001 85446.81962519  3707.96491308
0.26300001 83504.56369435  4629.49323027
0.26400001 81602.83713323  3568.08422249
0.26500001 79741.74142062  3818.03475988
0.26600001 77918.99414142  3120.65586303
0.26700001 76136.51114522  4284.96305002
0.26800001 74392.25531627  3301.90040846
0.26900001 72685.50856730  2943.76323628
0.27000001 71017.02641408  3175.52648638
0.27100001 69385.18805390  4529.46529051
0.27200001 67790.55781949  3886.43286371
0.27300001 66231.48099241  3538.74819689
0.27400001 64707.13440200  3469.92024652
0.27500001 63220.14146545  3402.50817470
0.27600001 61765.80182124  3336.27994327
0.27700001 60347.68380182  3019.79824036
0.27800001 58962.16420759  3207.83669553
0.27900001 57610.77377572  3387.51365834
0.28000001 56291.72853412  3321.77505801
0.28100001 55005.19243182  2559.39172499
0.28200001 53751.09448512  2281.73406889
0.28300001 52528.37093874  3132.79219106
0.28400001 51337.15175212  3072.52867779
0.28500001 50176.54409123  3013.60338076
0.28600001 49045.56750619  2322.55295919
0.28700001 47944.74461036  2278.33437172
0.28800001 46872.63042654  2641.50721272
0.28900001 45830.86238950  1993.64260831
0.29000001 44816.24223968  1956.22906636
0.29100001 43831.06028580  2687.72074395
0.29200001 42872.47802738  3014.79279759
0.29300001 41941.23572486  2034.56944132
0.29400001 41036.59771932  2723.80430255
0.29500001 40159.57710420  1961.39383862
0.29600001 39307.03103135  1926.24114687
0.29700001 38479.95665626  2064.06497275
0.29800001 37678.58661584  1858.87315869
0.29900001 36901.79060267  2158.75485245
0.30000001 36149.07583134  2284.98319147
0.30100001 35420.98415689  2888.22718488
0.30200001 34715.30772470  1893.37297294
0.30300001 34033.15270766  1707.10302063
0.30400001 33374.32340613  1832.25044174
0.30500001 32736.68143345  2103.65924851
0.30600001 32121.14769751  2070.85049010
0.30700001 31527.56707841  1602.23103478
0.30800001 30954.88624601  2439.09037723
0.30900001 30402.85370428  1413.73276418
0.31000001 29872.13879277  1393.53534066
0.31100001 29359.48482444  1648.82874580
0.31200001 28867.92909231  1761.95413557
0.31300001 28394.65772071  2139.82150714
0.31400001 27941.83128276  1584.30190874
0.31500001 27506.86701934  1564.59067014
0.31600002 27089.69427891  1416.92652635
0.31700002 26690.14897088  1655.05621605
0.31800002 26308.62122380  1384.75434368
0.31900002 25944.25617020  1369.85679065
0.32000002 25596.44662027  1355.71585944
0.32100002 25265.52759690  1586.42255293
0.32200002 24950.90345334  1208.87132956
0.32300002 24651.22162559  1677.26919883
0.32400002 24367.43295201  1544.28613646
0.32500002 24098.48685097  1414.09927537
0.32600002 23844.77320425  1286.54479916
0.32700002 23605.33686860  1161.38262893
0.32800002 23380.80767342  1269.22720465
0.32900002 23168.99457089  1490.92487124
0.33000002 22972.27276647  1482.74541593
0.33100002 22786.57113444  1702.15694435
0.33200002 22616.24469879  1242.64962382
0.33300002 22457.36043735  1237.62519231
0.33400002 22311.55703642  1345.38695301
0.33500002 22177.34593605  1676.60743216
0.33600002 22055.00732279  1226.36874026
0.33700002 21943.44817411  1335.03945014
0.33800002 21844.56553409  1221.87583101
0.33900002 21755.31177062  1331.42514342
0.34000002 21677.62536668  1774.09694403
0.34100002 21610.10597629  1330.31818690
0.34200002 21553.47758604  1552.49706405
0.34300002 21505.59114834  1775.50168929
0.34400002 21468.16809306  1666.46662715
0.34500002 21439.72409529  1223.99390657
0.34600002 21421.71146907  1226.50014825
0.34700002 21410.34827027  1229.38225590
0.34800002 21409.30987116  1344.93290980
0.34900002 21416.25839314  1349.22434267
0.35000002 21431.44060395  1579.71156174
0.35100002 21454.64495429  1472.64689941
0.35200002 21484.93230008  1592.67810684
0.35300002 21522.94877439  1371.44236086
0.35400002 21568.70728156  1378.24046057
0.35500002 21621.18724683  1731.85718050
0.35600002 21680.00694242  1741.44664013
0.35700002 21745.60485967  1284.51293990
0.35800002 21818.12648999  1174.90616714
0.35900002 21896.40721584  1418.88725479
0.36000002 21981.36108382  1666.40706270
0.36100002 22071.11896520  1677.84654321
0.36200002 22167.72957943  1569.14281260
0.36300002 22267.87047502  1215.82578553
0.36400002 22374.02964918  1224.97818132
0.36500002 22484.72791946  1851.61743187
0.36600002 22600.80760717  1493.00942125
0.36700002 22720.94206773  1881.29409232
0.36800002 22846.95275112  1643.95256308
0.36900002 22976.24972922  2040.29107260
0.37000002 23108.63049963  2314.79162680
0.37100002 23245.49007477  1297.09840762
0.37200002 23386.35062308  2093.54620695
0.37300002 23530.23399955  1980.06928486
0.37400002 23678.45366620  1598.29569818
0.37500002 23828.94675194  1747.13845862
0.37600002 23983.32775243  1898.76014811
0.37700002 24139.49324471  1505.58026499
0.37800002 24299.34975259  1657.70171865
0.37900002 24461.44240510  1673.16273977
0.38000002 24626.22603969  1688.86666181
0.38100002 24792.70159928  2415.05717719
0.38200002 24961.57773241  2007.65979213
0.38300002 25132.17221458  1881.89714458
0.38400002 25305.35955873  1607.52304212
0.38500002 25479.00997510  1917.80517168
0.38600002 25655.69158581  1638.24426382
0.38700002 25832.62583252  1804.15067361
0.38800002 26010.89320321  1669.50925934
0.38900002 26190.51572535  2298.21786378
0.39000002 26371.93189183  2010.72804235
0.39100002 26553.24022293  1561.33059908
0.39200002 26736.00731963  1891.30524739
0.39300002 26919.10522533  1909.10303303
0.39400002 27103.57439116  2087.65291639
0.39500002 27287.60314407  2755.50229604
0.39600002 27472.03465624  1799.55571542
0.39700002 27656.41108688  1981.30538413
0.39800002 27841.94103356  1832.97427479
0.39900002 28026.57686985  2186.07309942
0.40000002 28211.30638547  2205.98320733
0.40100002 28395.45019248  2739.59316437
0.40200002 28580.65131673  2073.24054474
0.40300002 28764.27279066  2266.04951781
0.40400002 28947.47074140  1758.55893086
0.40500002 29130.29485587  2306.24555301
0.40600002 29312.61205201  2684.30257585
0.40700002 29494.00476489  2346.54313028
0.40800002 29674.96763946  2002.61528604
0.40900002 29854.06435610  2386.83255836
0.41000002 30033.05786684  1851.53810522
0.41100002 30210.71987677  2240.42709222
0.41200002 30386.54580988  2258.93592254
0.41300002 30561.68764455  2087.66898192
0.41400002 30735.34694028  2487.25806900
0.41500002 30908.13135160  2700.13448282
0.41600002 31078.16985270  2138.33357804
0.41700002 31247.59637081  3134.75901646
0.41800002 31416.13563034  2171.95463972
0.41900002 31581.08789531  2387.53035802
0.42000002 31745.12957820  2205.17553064
0.42100002 31908.01314777  2423.73279355
0.42200002 32068.76754034  2238.23973654
0.42300002 32227.17438147  2459.57806534
0.42400002 32383.55144006  3096.67725319
0.42500002 32538.45785026  2495.04906619
0.42600002 32689.88995918  2512.54506132
0.42700002 32840.58298235  2530.03863285
0.42800002 32988.44553071  3608.77116984
0.42900002 33134.73692627  2992.06688623
0.43000002 33278.59984527  2581.75389834
0.43100002 33418.76026837  2815.19649841
0.43200002 33557.61698213  2833.43752416
0.43300002 33693.60658449  2412.79928185
0.43400002 33827.52786003  2648.69555696
0.43500002 33958.56285494  3775.51319713
0.43600002 34087.95119547  3128.25142945
0.43700002 34213.75218474  2247.84362506
0.43800002 34336.31622298  3617.67444869
0.43900002 34457.36978027  2501.60516460
0.44000002 34574.86703876  2973.26583190
0.44100002 34690.39613215  2529.97070981
0.44200002 34802.94929216  2775.18730807
0.44300002 34912.93820492  2325.20179464
0.44400002 35019.58712716  2337.55755152
0.44500002 35122.64966638  2819.64644884
0.44600002 35223.60997475  2597.91747681
0.44700002 35321.88875989  4272.53586688
0.44800002 35416.31260716  2862.34652056
0.44900002 35509.08222670  3115.92211306
0.45000002 35598.60683122  2649.07045289
0.45100002 35683.84508582  2419.36481148
0.45200002 35767.11421687  4131.63839457
0.45300002 35846.80969838  2441.16785615
0.45400002 35924.07417236  2451.81817846
0.45500002 35998.14988440  3693.41035318
0.45600002 36068.74806660  4203.27175515
0.45700002 36136.49164442  2730.83480299
0.45800002 36200.43462609  2492.40004213
0.45900002 36261.60743417  3502.87144416
0.46000002 36320.50742993  3767.34481172
0.46100002 36375.06514163  3529.10898730
0.46200002 36427.25337835  3035.84744044
0.46300002 36475.78723372  2792.58640297
0.46400002 36520.86598867  4075.72883751
0.46500002 36563.65034341  3322.53906418
0.46600002 36602.52582180  4102.41128854
0.46700002 36638.29942827  2829.20961594
0.46800002 36671.51006906  3095.80902676
0.46900002 36700.82907032  2587.40857209
0.47000002 36726.76269323  3113.69508871
0.47100002 36749.87870183  3902.83730312
0.47200002 36769.71001322  3391.45436381
0.47300002 36786.80270601  3661.75851491
0.47400002 36799.52627881  3670.75292030
0.47500002 36810.14723477  3679.54249199
0.47600002 36817.84396568  3161.18023273
0.47700002 36821.32827859  3168.10723525
