# SAXS profile: number of points = 501, q_min = 0, q_max = 0.5, delta_q = 0.001
#    q    intensity    error
0.00000000 1628779.37420970 244.31690613
0.00100000 1628712.36180565 635.19783619
0.00200000 1628511.27299367 806.11310566
0.00300000 1628176.27852082 1269.97754249
0.00400000 1627707.24119628 1342.85852501
0.00500000 1627104.58765927 1903.71244291
0.00600000 1626368.12489316 2049.22392079
0.00700000 1625498.39663930 2145.65797274
0.00800000 1624494.94248057 2631.68191793
0.00900000 1623359.05969339 4383.06964854
0.01000000 1622089.92600946 4014.67274022
0.01100000 1620688.77046377 3208.96390523
0.01200000 1619154.98858135 3157.35236616
0.01300000 1617490.04677770 4415.74802246
0.01400000 1615693.24259862 4725.90294410
0.01500000 1613766.05868048 4260.34258462
0.01600000 1611707.62883119 4520.84010097
0.01700000 1609519.93975584 6953.12645165
0.01800000 1607202.62523930 5954.68599446
0.01900000 1604756.30045316 7702.83058975
0.02000000 1602181.58026886 5551.55942676
0.02100000 1599480.06427889 7389.59823200
0.02200000 1596650.01294560 7160.97563340
0.02300000 1593694.42720270 5737.30019908
0.02400000 1590612.91075224 6561.27855603
0.02500000 1587406.78596020 6190.88674799
0.02600000 1584076.49575052 7057.06111135
0.02700000 1580622.73266426 7966.33893750
0.02800000 1577045.46781661 7546.16290957
0.02900000 1573347.48208757 9912.08959226
0.03000000 1569528.75769298 8028.13996462
0.03100000 1565589.64366544 11272.24595306
0.03200000 1561531.08206069 8502.53713343
0.03300000 1557355.84645882 7942.51518309
0.03400000 1553061.85620881 9784.29014557
0.03500000 1548652.61183299 10871.54183709
0.03600000 1544127.72876807 8569.90929071
0.03700000 1539488.89836238 8775.08712649
0.03800000 1534737.70227745 9876.03757121
0.03900000 1529874.83876897 13768.87418656
0.04000000 1524899.74198151 15942.82754119
0.04100000 1519816.01022133 10532.32543918
0.04200000 1514624.13093292 9769.32609774
0.04300000 1509323.93909852 12949.99999858
0.04400000 1503919.26859221 12181.74664134
0.04500000 1498409.58467402 11372.92927612
0.04600000 1492795.21706390 13681.46880040
0.04700000 1487079.37168717 12848.36636893
0.04800000 1481262.15477398 13064.73281298
0.04900000 1475346.34226809 17704.15693130
0.05000000 1469331.18506501 12364.42249809
0.05100000 1463220.46420309 18260.99224393
0.05200000 1457011.90705389 16216.54328122
0.05300000 1450711.21618279 16451.06595843
0.05400000 1444316.47540498 14298.73377331
0.05500000 1437831.72562293 13285.56576452
0.05600000 1431255.44051871 12237.23458748
0.05700000 1424592.52993674 16112.14226568
0.05800000 1417841.58824205 15057.47837020
0.05900000 1411004.62320059 13968.94642212
0.06000000 1404084.35329124 14132.10967611
0.06100000 1397081.91567441 16890.72114983
0.06200000 1389998.13663932 14449.03130576
0.06300000 1382836.14674664 14602.75039240
0.06400000 1375593.78071949 17435.65198603
0.06500000 1368277.62049590 18964.32870718
0.06600000 1360885.12756987 19147.65464080
0.06700000 1353419.43225655 22087.80616811
0.06800000 1345883.11718315 20894.83637234
0.06900000 1338277.40399481 15457.10473982
0.07000000 1330601.42688715 15587.99644595
0.07100000 1322860.25883327 15715.58061102
0.07200000 1315052.46963520 14399.82521709
0.07300000 1307182.95954787 15960.70468393
0.07400000 1299251.14587653 17539.89129133
0.07500000 1291259.02820328 19136.45969495
0.07600000 1283206.93289819 22231.56115469
0.07700000 1275100.14803827 17902.40691787
0.07800000 1266937.36174725 18015.85012892
0.07900000 1258719.84995063 19636.03058023
0.08000000 1250452.11875483 15192.99395559
0.08100000 1242133.83244813 22917.37028391
0.08200000 1233765.97928999 19968.50331183
0.08300000 1225351.42483661 21615.20014856
0.08400000 1216891.46949433 15515.36696432
0.08500000 1208389.51915121 17147.04808173
0.08600000 1199844.34126063 17223.76632748
0.08700000 1191260.01988532 17297.09630097
0.08800000 1182634.70976162 15788.17411679
0.08900000 1173974.91046939 19018.39444289
0.09000000 1165279.09331062 17496.66640797
0.09100000 1156549.98692984 27132.66396810
0.09200000 1147788.09412799 20815.13806505
0.09300000 1138997.33539359 17665.84950211
0.09400000 1130175.70797354 20936.50597417
0.09500000 1121327.66831245 30679.52644705
0.09600000 1112454.22094849 21042.07257838
0.09700000 1103558.05639562 21088.99544917
0.09800000 1094639.97517285 19506.48527473
0.09900000 1085702.21042568 24428.30088326
0.10000000 1076743.82946080 19575.20374016
0.10100000 1067768.01984434 21237.90691356
0.10200000 1058777.17181479 22901.35130355
0.10300000 1049771.69411998 21289.37095822
0.10400000 1040754.36040089 22948.63472646
0.10500000 1031727.85512576 22966.26313565
0.10600001 1022688.39232076 21338.39430982
0.10700001 1013644.13318086 16421.03573027
0.10800001 1004591.44165198 22995.09918160
0.10900001 995534.86599223 18068.95866819
0.11000001 986474.60003550 18067.28315007
0.11100001 977412.61762660 24630.79912364
0.11200001 968351.66734535 16413.56153421
0.11300001 959290.03646540 16403.86039587
0.11400001 950232.43558254 21308.96337126
0.11500001 941178.80971464 19651.81447221
0.11600001 932130.44818966 26174.22421775
0.11700001 923090.05177085 26141.91149730
0.11800001 914056.05092460 26105.44204393
0.11900001 905032.75574387 16290.59037070
0.12000001 896020.21173679 17889.04436999
0.12100001 887021.45121915 22725.49065079
0.12200001 878035.63451813 19439.70986406
0.12300001 869065.40281475 19397.54070473
0.12400001 860111.06017548 24190.62470724
0.12500001 851174.47145498 17695.91809539
0.12600001 842258.71155488 16045.02921122
0.12700001 833362.96017292 27200.96830193
0.12800001 824487.63268106 15953.83644427
0.12900001 815635.84150362 22266.85952253
0.13000001 806807.54800174 20609.89978515
0.13100001 798004.09985338 18960.57830627
0.13200001 789227.98504826 18894.11885273
0.13300001 780480.57004818 21962.72427654
0.13400001 771760.28159727 15628.14643914
0.13500001 763070.94555126 28019.96644173
0.13600001 754411.37368353 17053.46990620
0.13700001 745784.88676222 26244.17140266
0.13800001 737190.19437857 19981.54116088
0.13900001 728631.93892994 19891.65287084
0.14000001 720107.60304670 28937.52539314
0.14100001 711619.50356793 19704.74498313
0.14200001 703167.99878698 16591.24971391
0.14300001 694756.98893978 21009.45233650
0.14400001 686381.50191428 16421.67820791
0.14500001 678049.68756349 17819.14662974
0.14600001 669756.11490473 19198.55993942
0.14700001 661507.67992710 17622.56542463
0.14800001 653299.40872862 23361.98795832
0.14900001 645134.76988817 24676.40611248
0.15000001 637014.87033798 17314.06499271
0.15100001 628940.77825167 17207.82050492
0.15200001 620912.98130654 17099.94431208
0.15300001 612932.23970441 16990.48248637
0.15400001 604997.31192925 14066.18816615
0.15500001 597112.54283376 19561.40782640
0.15600001 589274.15153733 16652.88830838
0.15700001 581489.92644158 20671.96786065
0.15800001 573751.16070779 19157.55216025
0.15900001 566066.44097312 17661.27379198
0.16000001 558430.94619397 13486.10798716
0.16100001 550850.84762014 16062.81147484
0.16200001 543321.36473335 23911.57439069
0.16300001 535846.76004308 14500.01401128
0.16400001 528425.46378422 13078.53084609
0.16500001 521058.75752233 14271.80004233
0.16600001 513747.49739280 18017.12558421
0.16700001 506490.56448102 14039.91911030
0.16800001 499289.14470705 15188.37649913
0.16900001 492146.14838104 13804.70011392
0.17000001 485058.79781770 14930.11050182
0.17100001 478029.15255101 13566.46799002
0.17200001 471057.27236785 13446.33047472
0.17300001 464143.08961146 21805.44337970
0.17400001 457288.42853294 24007.64363177
0.17500001 450491.94047890 14271.58534838
0.17600001 443752.54443848 12959.79367241
0.17700001 437075.37453952 12836.90435652
0.17800001 430456.39497069 13869.30570103
0.17900001 423897.41977127 14878.80013675
0.18000001 417399.40802331 12465.63390943
0.18100001 410962.82127557 13463.14266094
0.18200001 404584.02741224 13326.99849250
0.18300001 398268.51072673 13190.65369839
0.18400001 392012.81787370 11966.19183089
0.18500001 385818.93947207 11840.78381178
0.18600001 379686.42889493 12780.24580039
0.18700001 373614.71663911 11589.52905769
0.18800001 367604.63506183 16674.54703421
0.18900001 361658.01231276 12368.70460549
0.19000001 355768.96611834 12231.33763306
0.19100001 349947.04137235 12094.17032128
0.19200001 344182.51127981 11956.90100684
0.19300001 338483.15743165 13789.80448537
0.19400001 332844.50761614 14603.55346173
0.19500001 327268.43253833 13470.36931982
0.19600001 321752.78253751 10458.57469062
0.19700001 316300.30642945 11272.94345388
0.19800001 310909.28084363 10208.70671895
0.19900001 305581.13158633 13751.15157126
0.20000001 300312.85116672 11770.76275778
0.20100001 295108.17732801 8941.77819565
0.20200001 289963.51464546 11478.20626974
0.20300001 284881.31395742 15691.26351442
0.20400001 279860.44869921 8605.70920426
0.20500001 274900.12177494 10193.29699722
0.20600001 270001.78329481 8383.55576758
0.20700001 265163.70451943 14064.28355252
0.20800001 260386.69481235 9795.74792189
0.20900001 255672.52112846 9664.42175551
0.21000001 251015.92141096 11122.51600351
0.21100001 246420.18984596 9403.39488905
0.21200001 241884.30809624 7728.20400902
0.21300001 237408.34389510 8382.88901924
0.21400001 232992.46587498 9016.80885565
0.21500001 228636.79294408 8148.61568577
0.21600001 224338.97874387 8762.68092402
0.21700001 220100.38283089 7197.28285885
0.21800001 215920.54478573 7092.99023157
0.21900001 211797.94509679 7688.26577053
0.22000001 207733.08230812 8263.62240494
0.22100001 203728.08067672 6784.14540731
0.22200001 199779.60496334 6682.62810201
0.22300001 195887.86544104 8556.38236706
0.22400001 192051.49919461 8426.25992561
0.22500001 188274.86004229 6382.51805725
0.22600001 184551.74822591 6912.38605668
0.22700001 180886.06390266 7423.56441362
0.22800001 177274.88967622 6089.39274835
0.22900001 173718.46946876 7791.27372413
0.23000001 170216.96512823 7077.62174475
0.23100001 166771.21092129 6384.00225598
0.23200001 163377.56593310 6281.05081935
0.23300001 160038.54523654 6179.08852382
0.23400001 156752.81909841 7183.19827492
0.23500001 153518.50651286 7608.37754262
0.23600001 150337.76481851 6413.40935049
0.23700001 147208.80189398 9985.17350475
0.23800001 144130.90320653 7750.63968653
0.23900001 141104.82428356 6095.72869737
0.24000001 138128.98987870 5492.69954233
0.24100001 135204.89143463 5889.52534947
0.24200001 132329.80455602 4823.42160422
0.24300001 129504.39700724 4739.86115467
0.24400001 126727.39611955 5122.95523047
0.24500001 123999.45373961 5948.25407727
0.24600001 121320.00902919 5393.88785660
0.24700001 118688.66949374 5739.78432824
0.24800001 116103.65411721 4336.47168642
0.24900001 113565.52770865 4684.57823960
0.25000001 111074.48294652 6272.93172117
0.25100001 108628.48839199 6159.23558321
0.25200001 106229.36439842 4837.68548357
0.25300001 103875.33494290 5540.71062799
0.25400001 101564.80689361 3884.85404748
0.25500001 99298.84654055  3813.07588756
0.25600001 97076.76083964  3742.30930743
0.25700001 94897.77587667  5508.81615028
0.25800001 92761.39195359  3964.15827270
0.25900001 90667.81154099  3889.64929915
0.26000001 88616.70456676  3816.27856274
0.26100001 86604.67295507  4424.63295063
0.26200001 84635.78696987  4674.43473553
0.26300001 82706.08558172  3602.67725841
0.26400001 80816.57842265  4818.68871646
0.26500001 78967.20286302  4096.02900632
0.26600001 77155.84158303  4944.14656260
0.26700001 75384.45119134  4848.72813007
0.26800001 73650.77296594  3268.98971278
0.26900001 71954.24454999  2914.14704218
0.27000001 70295.65028343  3143.27015117
0.27100001 68673.40522695  3082.06257244
0.27200001 67087.99283950  3571.42946782
0.27300001 65537.66286186  2962.95787820
0.27400001 64021.92672009  2904.99506240
0.27500001 62543.09626620  3366.06960035
0.27600001 61096.58857323  3046.27605043
0.27700001 59686.14486491  3235.58606626
0.27800001 58307.80603440  2684.19997783
0.27900001 56963.38043439  2631.70830062
0.28000001 55650.99706047  2345.68963712
0.28100001 54370.77168879  2529.87212642
0.28200001 53122.77507809  3608.09905407
0.28300001 51905.94626972  3316.79012362
0.28400001 50720.18873384  2601.94580520
0.28500001 49564.84500763  2126.33195147
0.28600001 48438.75728336  2085.28859975
0.28700001 47342.83528882  3067.81587192
0.28800001 46275.13127665  2206.62973937
0.28900001 45237.48667834  1967.83076365
0.29000001 44226.94495251  2123.55686241
0.29100001 43245.60620443  1894.15764141
0.29200001 42290.43483673  1858.66469905
0.29300001 41362.59304911  2371.31757175
0.29400001 40461.07186955  3043.68427546
0.29500001 39587.00741627  1933.42953373
0.29600001 38737.06490950  2243.45722043
0.29700001 37912.55713814  2033.62966116
0.29800001 37113.39652575  2163.89668687
0.29900001 36338.77241612  1962.29380336
0.30000001 35587.99872841  2249.51750611
0.30100001 34861.49647633  2052.99362468
0.30200001 34157.32324808  2173.43058117
0.30300001 33476.61252133  1984.49368421
0.30400001 32818.91881914  1801.75872847
0.30500001 32182.30091979  1624.88445037
0.30600001 31567.78500559  2616.65382299
0.30700001 30974.96002679  2432.77347568
0.30800001 30402.78133540  1972.83657426
0.30900001 29851.09020256  1804.49848818
0.31000001 29320.65857690  2188.49405979
0.31100001 28808.20090321  1617.86863932
0.31200001 28316.64683699  1595.35995833
0.31300001 27843.18127268  1442.55529004
0.31400001 27390.13700618  1553.02084178
0.31500001 26954.81827234  1405.42429126
0.31600002 26537.09622407  1261.83898520
0.31700002 26136.96757296  1496.08009471
0.31800002 25754.67907910  2095.01446889
0.31900002 25389.54014913  1218.69798486
0.32000002 25040.72905933  1687.99562582
0.32100002 24708.71726893  1551.46043078
0.32200002 24393.00441360  1181.84111980
0.32300002 24092.16149287  1170.87910400
0.32400002 23807.02086677  1392.71078665
0.32500002 23536.63348039  1611.31800437
0.32600002 23281.42787142  1370.34490940
0.32700002 23040.44055401  1473.66664762
0.32800002 22814.24402285  1576.23619418
0.32900002 22600.70416799  1118.73490929
0.33000002 22402.05853960  1112.26225916
0.33100002 22214.58818255  1659.42981582
0.33200002 22042.26396710  1101.01113729
0.33300002 21881.45430951  1205.88700410
0.33400002 21733.56904564  1528.95665477
0.33500002 21597.23139987  1415.05066833
0.33600002 21472.80348763  1193.99529447
0.33700002 21358.91319925  1407.76603563
0.33800002 21257.76763153  1189.05328878
0.33900002 21166.10542454  1511.25999888
0.34000002 21086.15144335  1186.41236715
0.34100002 21016.16759748  1832.82006298
0.34200002 20957.14278790  1293.89405700
0.34300002 20906.76693321  1726.06275975
0.34400002 20866.79137817  1187.84215546
0.34500002 20835.74693474  1405.78791227
0.34600002 20815.17015522  1191.77262368
0.34700002 20801.23476444  1628.73675919
0.34800002 20797.51879880  1197.62517675
0.34900002 20801.81170499  1201.30468286
0.35000002 20814.35376488  1643.81366644
0.35100002 20834.81947137  1210.08637221
0.35200002 20862.49600658  1436.06998063
0.35300002 20897.66921424  1331.59954540
0.35400002 20940.75223256  1895.66168564
0.35500002 20990.52177597  1457.16209070
0.35600002 21046.50365731  1127.04032423
0.35700002 21109.32025172  1246.92760633
0.35800002 21179.08000205  1368.59221456
0.35900002 21254.54969500  1492.06945926
0.36000002 21336.84514481  1502.00728511
0.36100002 21423.81289541  1395.97571439
0.36200002 21517.65355820  1523.12717926
0.36300002 21614.90396398  1770.26071850
0.36400002 21718.38456429  1545.80609458
0.36500002 21826.34892947  1318.09327429
0.36600002 21939.70727756  1449.33713141
0.36700002 22057.09084560  1461.06176682
0.36800002 22180.39842219  1718.75915515
0.36900002 22307.04012592  1361.84486420
0.37000002 22436.71768266  2497.20679637
0.37100002 22570.93130112  1511.34963152
0.37200002 22709.18536261  1397.63687935
0.37300002 22850.44877717  1538.29228455
0.37400002 22996.06894512  1422.88183338
0.37500002 23143.99002933  1435.85320944
0.37600002 23295.86221345  1976.07160587
0.37700002 23449.43893784  1861.41655106
0.37800002 23606.99219322  1610.46908371
0.37900002 23766.61050833  1625.63623578
0.38000002 23928.88438769  1367.53580754
0.38100002 24093.00211024  2208.84653811
0.38200002 24259.57051497  1393.71239211
0.38300002 24427.87863824  1829.15963909
0.38400002 24598.83896143  1562.64131905
0.38500002 24770.15237504  1577.61107950
0.38600002 24944.74195036  1592.84657270
0.38700002 25119.55354597  1461.95808564
0.38800002 25295.77690982  1476.00865261
0.38900002 25473.27886617  2235.28032640
0.39000002 25652.70478340  2106.34368955
0.39100002 25832.16418552  2430.29012171
0.39200002 26012.94199561  1840.15560395
0.39300002 26194.25438857  2322.12076156
0.39400002 26376.90117212  1562.83146849
0.39500002 26559.29332737  1735.38430823
0.39600002 26742.07928287  1910.98907609
0.39700002 26924.80353372  1928.89301654
0.39800002 27108.70486586  1784.70166940
0.39900002 27291.84046258  1965.01260641
0.40000002 27475.20157906  2478.95017992
0.40100002 27657.90956402  1834.54922830
0.40200002 27841.81576457  2524.55676407
0.40300002 28024.25618865  2037.92400660
0.40400002 28206.18959845  2056.23131915
0.40500002 28387.90411117  2247.47047497
0.40600002 28569.19077845  2092.97901560
0.40700002 28749.63311738  1759.47763015
0.40800002 28929.75742737  2307.29291294
0.40900002 29107.98267485  2327.18332512
0.41000002 29286.25117243  1986.04721736
0.41100002 29463.13752883  2002.90418411
0.41200002 29638.43743407  3488.59244347
0.41300002 29813.01306632  2406.80465888
0.41400002 29986.20374362  2239.96952578
0.41500002 30158.64544830  2070.08952166
0.41600002 30328.31558274  2276.44347551
0.41700002 30497.54315196  2294.63525548
0.41800002 30665.95358640  2505.56185650
0.41900002 30830.87931499  2136.58003777
0.42000002 30994.85316471  1957.32507010
0.42100002 31157.86868414  3352.89840798
0.42200002 31318.79317429  2583.33077739
0.42300002 31477.45236891  2602.55588519
0.42400002 31634.27713395  2621.69084171
0.42500002 31789.54021260  2437.62205901
0.42600002 31941.59256545  2250.44501084
0.42700002 32092.87610034  2266.39901760
0.42800002 32241.41966392  2074.73545369
0.42900002 32388.52295008  2715.77777806
0.43000002 32533.28812133  2103.27717671
0.43100002 32674.38802485  2329.03048878
0.43200002 32814.33422635  2557.54933080
0.43300002 32951.49746511  2359.65684530
0.43400002 33086.62087141  2590.68253700
0.43500002 33219.08598551  4345.05665281
0.43600002 33349.86977269  3279.12610079
0.43700002 33477.17507562  3079.23070938
0.43800002 33601.37481325  3318.97595446
0.43900002 33724.15186108  2893.53236680
0.44000002 33843.47409897  2462.62050951
0.44100002 33960.91284112  2251.60862807
0.44200002 34075.41226015  2717.17350239
0.44300002 34187.54247440  2504.57948037
0.44400002 34296.41393110  2976.07145991
0.44500002 34401.71798113  2991.91755461
0.44600002 34505.09335222  2313.56661891
0.44700002 34605.80765890  3023.16350035
0.44800002 34702.91975465  2804.69010749
0.44900002 34798.27240074  2818.66019804
0.45000002 34890.54030236  4012.58677764
0.45100002 34978.66654376  2608.70907447
0.45200002 35064.84212928  2859.18736273
0.45300002 35147.72456319  3111.62820305
0.45400002 35228.13086074  2885.18405423
0.45500002 35305.46120176  2656.38302671
0.45600002 35379.32059947  2910.30305044
0.45700002 35450.53138574  3409.63227028
0.45800002 35518.11172012  3179.04874018
0.45900002 35582.88267394  2700.74092295
0.46000002 35645.54545170  2711.37854329
0.46100002 35703.97278496  2721.71397439
0.46200002 35760.06058235  2731.88995767
0.46300002 35812.56902930  2991.06590709
0.46400002 35861.74752588  3752.03551272
0.46500002 35908.73171130  3012.02455870
0.46600002 35951.94561349  3022.12069151
0.46700002 35992.10644687  2779.31059156
0.46800002 36029.71623945  3802.03598637
0.46900002 36063.67758736  3050.98726850
0.47000002 36094.28822716  3825.09237617
0.47100002 36122.22474419  3836.18044966
0.47200002 36146.88576224  2821.08383303
0.47300002 36168.78972599  2571.60107140
0.47400002 36186.59590557  3093.95409657
0.47500002 36202.29311696  3101.81262128
0.47600002 36215.16680714  2850.31483865
0.47700002 36224.01320754  3636.16661812
