# SAXS profile: number of points = 501, q_min = 0, q_max = 0.5, delta_q = 0.001
#    q    intensity    error
0.00000000 1664650.74656091 324.60689558
0.00100000 1664582.52417361 499.37476911
0.00200000 1664377.80784324 748.97003725
0.00300000 1664036.75490260 1098.26429736
0.00400000 1663559.25063122 1497.20338246
0.00500000 1662945.74060226 1496.65122578
0.00600000 1662195.95272077 1919.83640355
0.00700000 1661310.52645913 2392.28725753
0.00800000 1660288.94519797 2689.66820478
0.00900000 1659132.54897057 2488.69892984
0.01000000 1657840.47635886 3008.98059452
0.01100000 1656413.98032417 3876.00888272
0.01200000 1654852.50896222 3549.65878735
0.01300000 1653157.43144413 4860.28306281
0.01400000 1651328.09008600 4458.58604089
0.01500000 1649366.06338460 5146.02234691
0.01600000 1647270.41220839 5880.75563447
0.01700000 1645043.10071959 7106.58651390
0.01800000 1642683.77412148 6086.14365698
0.01900000 1640193.09337312 5904.69540258
0.02000000 1637571.69628653 5674.18618431
0.02100000 1634821.20314010 7552.87430094
0.02200000 1631939.88503049 5630.19285915
0.02300000 1628930.57495336 8209.81047146
0.02400000 1625793.00575761 6706.39645455
0.02500000 1622528.71228829 8859.00717369
0.02600000 1619137.81799399 7213.25930909
0.02700000 1615621.24622478 8821.29240841
0.02800000 1611978.99218421 11920.58519388
0.02900000 1608213.53255627 7236.96122878
0.03000000 1604325.22309081 9698.14641936
0.03100000 1600314.17141128 13826.71507720
0.03200000 1596181.55704667 11061.53869981
0.03300000 1591930.06391009 8118.84370022
0.03400000 1587557.69932281 10835.08179781
0.03500000 1583067.71369299 10258.27925844
0.03600000 1578460.00938350 12264.63483970
0.03700000 1573736.14405950 9867.32607959
0.03800000 1568897.75982168 11013.66278366
0.03900000 1563945.72121670 11260.40971423
0.04000000 1558879.21676335 11504.52915282
0.04100000 1553702.07650569 10767.15588942
0.04200000 1548414.65787813 16978.36751131
0.04300000 1543016.83658745 12220.69391303
0.04400000 1537512.50363452 12453.85185782
0.04500000 1531900.99340828 13741.15254935
0.04600000 1526182.96459967 11835.54944067
0.04700000 1520361.41049461 13135.92319760
0.04800000 1514436.63132222 11131.10975813
0.04900000 1508411.10899019 15838.31738163
0.05000000 1502284.50280367 14940.22007609
0.05100000 1496060.21101139 17503.90528424
0.05200000 1489736.34957150 15396.42589031
0.05300000 1483318.22366339 18022.31725767
0.05400000 1476804.38394886 15838.72775647
0.05500000 1470198.71685612 17289.53771677
0.05600000 1463499.51944969 16266.79791776
0.05700000 1456711.99105134 13940.73440509
0.05800000 1449834.58196128 16680.34764431
0.05900000 1442869.38625657 14284.40759111
0.06000000 1435819.12119753 22334.16747365
0.06100000 1428685.19647262 15944.12753773
0.06200000 1421468.23619922 18806.02564398
0.06300000 1414171.06387203 19006.45998709
0.06400000 1406792.08878691 13716.22350714
0.06500000 1399337.51450905 20780.16306251
0.06600000 1391805.08310665 18183.93426159
0.06700000 1384197.86055144 18354.46448988
0.06800000 1376518.65449539 19945.75623728
0.06900000 1368768.27861357 20120.89463766
0.07000000 1360946.18016877 15943.48524729
0.07100000 1353057.36366797 18996.92627567
0.07200000 1345100.36566465 17674.61963283
0.07300000 1337080.45399042 17809.91248165
0.07400000 1328996.62611443 22426.81911669
0.07500000 1320851.10888116 18069.24401644
0.07600000 1312644.28089617 16677.14637062
0.07700000 1304381.58753494 16787.39181871
0.07800000 1296061.20589886 15358.32601015
0.07900000 1287684.93525349 16997.44194259
0.08000000 1279257.43569152 18651.57428735
0.08100000 1270777.83797917 20319.73858265
0.08200000 1262247.63668899 25143.97410273
0.08300000 1253669.72153074 17375.86315590
0.08400000 1245044.88981403 20636.62001732
0.08500000 1236376.77637578 15949.26116399
0.08600000 1227664.66144172 28837.84425125
0.08700000 1218911.96389736 24134.45801847
0.08800000 1210117.69852166 17770.57923736
0.08900000 1201287.69247415 16217.38461013
0.09000000 1192420.57955316 26042.46668080
0.09100000 1183519.12201532 29398.61637204
0.09200000 1174584.04302193 22939.62743808
0.09300000 1165619.05987652 21365.79837156
0.09400000 1156622.62578148 16481.87319199
0.09500000 1147598.57906234 21483.04640981
0.09600000 1138548.04761603 16565.87487154
0.09700000 1129474.46356631 16603.27539499
0.09800000 1120378.08999002 21628.90004420
0.09900000 1111260.84706837 20002.69618781
0.10000000 1102122.62873652 18366.87447164
0.10100000 1092966.30041691 16722.38518286
0.10200000 1083793.98306823 25116.92673901
0.10300000 1074606.68978788 18440.25166420
0.10400000 1065406.61639520 18458.17049741
0.10500000 1056196.91767449 18472.88495926
0.10600001 1046973.75562248 20164.71548211
0.10700001 1037744.65419566 23536.04986471
0.10800001 1028507.29999212 18497.70466089
0.10900001 1019265.29517642 16817.87816196
0.11000001 1010019.23296539 18498.50312248
0.11100001 1000771.07678861 20175.54585779
0.11200001 991523.11855557 30251.37177128
0.11300001 982274.33871654 16796.89198286
0.11400001 973029.08964996 18463.22784544
0.11500001 963787.70915362 18446.89762183
0.11600001 954551.29272748 18427.61357389
0.11700001 945322.38713339 25098.31056039
0.11800001 936099.71316338 18380.31873364
0.11900001 926887.64736397 18352.37628223
0.12000001 917685.74312788 18321.59672459
0.12100001 908498.07120189 19950.61858343
0.12200001 899322.47250853 21570.25051932
0.12300001 890162.69919106 19868.43238203
0.12400001 881018.54420094 18171.00833032
0.12500001 871892.29226736 24718.14765051
0.12600001 862786.58609600 16436.08523965
0.12700001 853700.83059485 22947.47940782
0.12800001 844635.51514132 19612.43758590
0.12900001 835593.76233984 26070.52661376
0.13000001 826576.04529869 22739.10807797
0.13100001 817582.75708088 27519.83690056
0.13200001 808617.23092929 25811.06322801
0.13300001 799680.07228914 17680.92723184
0.13400001 790770.38824806 19215.72134036
0.13500001 781891.84250265 28711.06981037
0.13600001 773043.37402613 15886.04208528
0.13700001 764228.16046620 17401.47603435
0.13800001 755444.84312258 17326.12829404
0.13900001 746698.45559074 23521.00246032
0.14000001 737986.03612077 18730.08648007
0.14100001 729310.58000838 15534.31608682
0.14200001 720671.83502489 20095.93506750
0.14300001 712074.11350864 16918.88173499
0.14400001 703511.78456824 21421.93485057
0.14500001 694993.80059745 15220.36495106
0.14600001 686514.66884621 22706.47374325
0.14700001 678080.79875393 19569.41277526
0.14800001 669688.00290422 16464.28032816
0.14900001 661339.01727182 17856.15430881
0.15000001 653035.47354584 16270.37959108
0.15100001 644777.86711156 17641.12327657
0.15200001 636567.91413133 18992.00461428
0.15300001 628405.02818553 15967.77251970
0.15400001 620288.39022069 23074.72920513
0.15500001 612222.78600445 18623.81802917
0.15600001 604204.77062836 15651.92532182
0.15700001 596240.58611605 25435.62460419
0.15800001 588323.04592596 16837.80636912
0.15900001 580460.15104949 19503.46199584
0.16000001 572647.28011634 13829.43246759
0.16100001 564890.69339115 16472.21339684
0.16200001 557185.36098853 20434.77407890
0.16300001 549535.51942832 21629.71906579
0.16400001 541939.87553527 14754.31380799
0.16500001 534399.96533073 14637.21574145
0.16600001 526915.64296888 13199.23747955
0.16700001 519487.26983440 18327.51174509
0.16800001 512114.57316751 12982.10504276
0.16900001 504801.57007004 18021.41690244
0.17000001 497545.33661039 15314.44618401
0.17100001 490347.44850605 15181.15772262
0.17200001 483208.26344484 12539.25502853
0.17300001 476127.89931734 12426.93875904
0.17400001 469107.77901764 14776.89573691
0.17500001 462146.89804622 13420.74655309
0.17600001 455244.07544222 16921.42308337
0.17700001 448404.40128412 19155.83692760
0.17800001 441624.30752814 14229.13586063
0.17900001 434904.93266573 17613.65060492
0.18000001 428247.69941390 17440.38838243
0.18100001 421652.74523766 19568.90483085
0.18200001 415116.76249639 19371.42463696
0.18300001 408645.35386415 15790.05721922
0.18400001 402234.65159013 14510.61574161
0.18500001 395887.01876384 14358.82284891
0.18600001 389601.82178342 16392.49742598
0.18700001 383378.76287319 11892.40978618
0.18800001 377217.87509337 16041.19089623
0.18900001 371121.96796210 11634.67424532
0.19000001 365084.98502079 14643.55944107
0.19100001 359116.01079573 14479.55823944
0.19200001 353206.42031969 15337.98952712
0.19300001 347362.19061590 12129.88826948
0.19400001 341580.32738198 12988.59256246
0.19500001 335862.00904849 10861.77788590
0.19600001 330205.82786631 10733.34094201
0.19700001 324613.54719755 13497.43193033
0.19800001 319084.34469926 10477.13495334
0.19900001 313618.98910887 10349.42712971
0.20000001 308214.78015292 11151.21127295
0.20100001 302875.48691682 10094.84045604
0.20200001 297597.69074929 10874.22013393
0.20300001 292383.54816249 10736.32439597
0.20400001 287232.04062476 12365.33993335
0.20500001 282142.30261330 13949.11610053
0.20600001 277115.68019364 9464.88650440
0.20700001 272151.06135547 14434.89297662
0.20800001 267248.39507011 9216.06133964
0.20900001 262410.06907105 12398.87634972
0.21000001 257630.77132907 11415.62001723
0.21100001 252913.41047141 10455.44088315
0.21200001 248257.42852163 7931.82521624
0.21300001 243662.54024242 8603.72470271
0.21400001 239129.39098871 10025.50019117
0.21500001 234657.55203775 10644.06706366
0.21600001 230244.65265693 10492.24931763
0.21700001 225892.64732061 9602.69689161
0.21800001 221600.56070115 10191.41026850
0.21900001 217367.07885534 10759.67091207
0.22000001 213192.84372928 7774.07741417
0.22100001 209079.95063894 7658.59895403
0.22200001 205024.62037931 7543.88126356
0.22300001 201027.75067052 10807.25238707
0.22400001 197087.19972300 7316.86263570
0.22500001 193207.74314292 8514.66564294
0.22600001 189383.76856057 10317.62819908
0.22700001 185617.97070741 8252.57536791
0.22800001 181908.24340883 6873.40330225
0.22900001 178254.50000664 9224.67081159
0.23000001 174657.12047797 7262.24341292
0.23100001 171116.77410075 7145.83682439
0.23200001 167630.08131166 8788.00742838
0.23300001 164199.21943007 8068.75002440
0.23400001 160823.11318082 9637.32551316
0.23500001 157499.65526755 5575.48806017
0.23600001 154231.03844030 7127.78777864
0.23700001 151015.51352602 7547.75572302
0.23800001 147852.86685528 5830.57808022
0.23900001 144742.83017329 5731.81634597
0.24000001 141684.68578402 5634.09179670
0.24100001 138679.27202244 5537.46359378
0.24200001 135724.48638463 4947.15776273
0.24300001 132820.57475442 4861.23326596
0.24400001 129966.46789017 7164.40188135
0.24500001 127162.76202830 6099.99798305
0.24600001 124408.54454176 5531.20415198
0.24700001 121704.12974659 6338.35137704
0.24800001 119047.24410830 5335.69773335
0.24900001 116438.41829601 4366.44089267
0.25000001 113877.86224398 4716.25188795
0.25100001 111363.93450078 5051.46830794
0.25200001 108897.92303195 4959.21164949
0.25300001 106478.23451462 4462.50301963
0.25400001 104103.64238683 4380.16096066
0.25500001 101774.41943991 4298.95168053
0.25600001 99490.72142859  4218.90424179
0.25700001 97251.28505743  4892.71238273
0.25800001 95055.42489929  4431.48411848
0.25900001 92903.76772544  4347.89653527
0.26000001 90795.63460183  3910.11418914
0.26100001 88727.80768786  3487.00300712
0.26200001 86704.68546799  3762.55000392
0.26300001 84721.78056402  3690.48093599
0.26400001 82779.99130179  4606.70673393
0.26500001 80879.63270854  4517.93649688
0.26600001 79018.62425930  4430.57447187
0.26700001 77198.47673837  4034.39258526
0.26800001 75417.42518416  4260.33055026
0.26900001 73674.59321123  4774.11386601
0.27000001 71970.66691526  3803.29007312
0.27100001 70304.48213897  4015.79220982
0.27200001 68676.02844464  3937.19689705
0.27300001 67083.82479644  3032.85986257
0.27400001 65527.27773715  3784.20046841
0.27500001 64008.74020086  2914.95816670
0.27600001 62523.80969497  2857.65085735
0.27700001 61075.51416955  2801.53396754
0.27800001 59660.86208831  3245.84935553
0.27900001 58280.75472313  3182.12935849
0.28000001 56934.09147847  3839.63531103
0.28100001 55620.36317307  2588.01562093
0.28200001 54339.86331498  2998.74549897
0.28300001 53091.71120978  2261.70700458
0.28400001 51875.31722227  3104.73788270
0.28500001 50690.64843982  2392.09181310
0.28600001 49536.00798305  2985.53534245
0.28700001 48412.52519613  2509.70542496
0.28800001 47318.28126322  2461.49710782
0.28900001 46255.16224802  2816.93951424
0.29000001 45219.69895573  2763.37593399
0.29100001 44214.38140210  3292.20299504
0.29200001 43236.52948599  2090.27011694
0.29300001 42286.53648000  2051.31998175
0.29400001 41363.80507915  2013.38330753
0.29500001 40469.17668136  2156.19783565
0.29600001 39600.01949162  3175.52571335
0.29700001 38756.64656735  1905.66440193
0.29800001 37939.84281408  1871.76223384
0.29900001 37148.10457009  1838.83126327
0.30000001 36381.02830554  1971.12420691
0.30100001 35639.30882429  1937.35291940
0.30200001 34920.48868891  1904.56354326
0.30300001 34225.84654696  1716.76854407
0.30400001 33555.17324492  1842.17909836
0.30500001 32906.04878470  2567.65910823
0.30600001 32279.76458345  1783.77987533
0.30700001 31676.00357416  1756.11772129
0.30800001 31093.68585120  1585.31164818
0.30900001 30532.47146930  1987.66398676
0.31000001 29993.06214665  1958.84698154
0.31100001 29472.50897748  1793.10753108
0.31200001 28973.29268401  1632.35538710
0.31300001 28493.10163268  2013.03772566
0.31400001 28033.84411412  1324.59919711
0.31500001 27592.63422114  1831.04729361
0.31600002 27170.15957198  1679.52349346
0.31700002 26765.57052741  1276.71777461
0.31800002 26379.38124645  2019.60552385
0.31900002 26010.93424806  1373.37739333
0.32000002 25659.47664352  1729.70540244
0.32100002 25325.33732308  1712.49939087
0.32200002 25007.89302884  1211.63247462
0.32300002 24705.88709368  1200.70616961
0.32400002 24420.19471144  1309.53300341
0.32500002 24149.56669783  1417.09664093
0.32600002 23894.68626423  1640.84818346
0.32700002 23654.57889085  1629.32747115
0.32800002 23429.71392759  1618.75901191
0.32900002 23217.86681389  1608.99824639
0.33000002 23021.58736229  1257.32405333
0.33100002 22836.55741934  1592.16485867
0.33200002 22667.29276402  1471.90072533
0.33300002 22509.88517554  1240.51983077
0.33400002 22365.82223889  1573.43566902
0.33500002 22233.65366165  1344.69143714
0.33600002 22113.67918889  1453.20049672
0.33700002 22004.80925467  1115.64388205
0.33800002 21908.85313233  1225.47175799
0.33900002 21822.94256353  1224.26713579
0.34000002 21748.73803714  1223.69280361
0.34100002 21684.98702802  1223.68387594
0.34200002 21632.57698808  1335.59536650
0.34300002 21588.92205063  2005.17917503
0.34400002 21556.19780415  1227.08661812
0.34500002 21532.41041632  1452.79179959
0.34600002 21519.47496879  1792.14196028
0.34700002 21513.41944074  1347.60065759
0.34800002 21517.77006028  1689.68297401
0.34900002 21530.35077059  1243.37781589
0.35000002 21551.47142135  1361.62202889
0.35100002 21580.63304179  1709.18621786
0.35200002 21617.09652214  1488.01290958
0.35300002 21661.54091404  1150.22787701
0.35400002 21713.85324506  1387.51528808
0.35500002 21772.95559917  1395.21106088
0.35600002 21838.61253684  1520.29508376
0.35700002 21911.13867631  1176.62820265
0.35800002 21990.83544610  1302.62719935
0.35900002 22076.26292021  1311.33007957
0.36000002 22168.56156721  1320.47043230
0.36100002 22265.81701844  1209.03392137
0.36200002 22369.91729661  1705.25887629
0.36300002 22477.65344489  1350.00792985
0.36400002 22591.60393684  1979.02459861
0.36500002 22710.02673864  1371.45857971
0.36600002 22833.98859351  1759.81558426
0.36700002 22962.09895623  1394.25871467
0.36800002 23096.07187557  1661.87793053
0.36900002 23233.30496685  1418.39333541
0.37000002 23373.79911234  1430.82718044
0.37100002 23518.70679047  1837.28146150
0.37200002 23667.75153201  1721.47398923
0.37300002 23819.71066660  1737.17158121
0.37400002 23976.16638913  1618.39130793
0.37500002 24134.73319457  2177.91842665
0.37600002 24297.32456531  1511.41514618
0.37700002 24461.58282120  1803.06335517
0.37800002 24629.60630328  2380.32841394
0.37900002 24799.87708772  1837.67097926
0.38000002 24972.71815691  1712.62909233
0.38100002 25147.23037768  1440.93636890
0.38200002 25324.23991078  1745.85318216
0.38300002 25502.86390035  1468.96503025
0.38400002 25684.05371526  1779.90500679
0.38500002 25865.72949496  2396.20129393
0.38600002 26050.17174435  1663.43379554
0.38700002 26234.90617732  2137.62025660
0.38800002 26420.95862514  2004.16191146
0.38900002 26608.23895868  1867.89846339
0.39000002 26797.21810629  1885.98829967
0.39100002 26986.13974880  2380.17763861
0.39200002 27176.47593954  1922.46399904
0.39300002 27366.76993256  1940.85141557
0.39400002 27558.55311131  2449.26652381
0.39500002 27749.75426069  1648.33548118
0.39600002 27941.28851248  2495.85571463
0.39700002 28132.61747832  1679.51734303
0.39800002 28325.11501096  1864.78403510
0.39900002 28516.51055634  2395.38700022
0.40000002 28707.74489863  2072.12512496
0.40100002 28898.52001642  1916.83892351
0.40200002 29090.11732280  1758.49767548
0.40300002 29280.00410012  2129.24199904
0.40400002 29469.39122941  3222.47808362
0.40500002 29658.24255026  2167.42446827
0.40600002 29846.51686622  2004.34293512
0.40700002 30033.70806144  2205.67562454
0.40800002 30220.15105605  2224.80762616
0.40900002 30404.84517637  2430.86748703
0.41000002 30589.19201921  2262.98853281
0.41100002 30772.02226047  2282.05327896
0.41200002 30952.87571316  2492.78996367
0.41300002 31132.94143780  2126.69133038
0.41400002 31311.30490825  2144.04170518
0.41500002 31488.65714682  2750.84921869
0.41600002 31663.17280761  2376.63786355
0.41700002 31836.83964934  1996.16994060
0.41800002 32009.52820333  2816.51852007
0.41900002 32178.49196223  2432.69410762
0.42000002 32346.32129867  2451.20434416
0.42100002 32512.80290716  2469.67262585
0.42200002 32677.02117987  3317.37134737
0.42300002 32838.71617231  2715.10518178
0.42400002 32998.28330935  3576.18912311
0.42500002 33156.14181210  3178.01634328
0.42600002 33310.32858892  2773.58464139
0.42700002 33463.60850398  2792.87289809
0.42800002 33614.01741970  3028.28697284
0.42900002 33762.43302399  2613.21243989
0.43000002 33908.49362942  2411.40263873
0.43100002 34050.67217324  2427.13202752
0.43200002 34191.20424933  2442.79070335
0.43300002 34328.83798520  2234.80745874
0.43400002 34464.13199906  3598.05555121
0.43500002 34596.36858528  2715.12313524
0.43600002 34726.83440765  3414.51615494
0.43700002 34853.58599689  2289.88070851
0.43800002 34976.78915055  2763.86600965
0.43900002 35098.44083809  2548.14692560
0.44000002 35216.33954437  4193.20974826
0.44100002 35332.06486502  3045.27081503
0.44200002 35444.61067686  2590.82394020
0.44300002 35554.50314178  3315.10203004
0.44400002 35660.79870085  2618.39426870
0.44500002 35763.33305179  3110.33722292
0.44600002 35863.68861776  2885.59252294
0.44700002 35961.21129641  2658.25286501
0.44800002 36054.54379993  2428.27364001
0.44900002 36146.13619211  3659.79646290
0.45000002 36234.32654291  2941.50276816
0.45100002 36318.17758149  2462.37255672
0.45200002 36399.76845036  2968.03726011
0.45300002 36477.59737269  3229.36184845
0.45400002 36552.92820775  2494.73746841
0.45500002 36624.79886286  3256.67726923
0.45600002 36693.14804797  3772.97312685
0.45700002 36758.38824993  3030.36167094
0.45800002 36819.74073132  3295.55105035
0.45900002 36878.16223692  2799.05264644
0.46000002 36934.06205358  2809.38956325
0.46100002 36985.48640632  3588.33206121
0.46200002 37034.44327074  2829.24642776
0.46300002 37079.66609164  3096.89385875
0.46400002 37121.19407567  2848.12375044
0.46500002 37160.37792920  3117.01264843
0.46600002 37195.32834146  2605.53287381
0.46700002 37227.14369031  4181.35297747
0.46800002 37256.23378182  3145.17140493
0.46900002 37281.35263170  3154.00258213
0.47000002 37302.80233657  3162.53173199
0.47100002 37321.46295497  4227.77552392
0.47200002 37336.57767571  3443.73940514
0.47300002 37349.02312165  3452.17037076
0.47400002 37356.75901094  2927.83612625
0.47500002 37362.37210386  4001.51024199
0.47600002 37364.91416718  2673.45973538
