# SAXS profile: number of points = 501, q_min = 0, q_max = 0.5, delta_q = 0.001
#    q    intensity    error
0.00000000 1646666.22097351 321.09991309
0.00100000 1646598.57378302 592.77550064
0.00200000 1646395.57964393 889.05364116
0.00300000 1646057.40554259 1283.92482206
0.00400000 1645583.92119037 1851.28198168
0.00500000 1644975.56003815 2072.66928769
0.00600000 1644232.09874784 2589.66566096
0.00700000 1643354.13091309 2169.22754296
0.00800000 1642341.14406547 2660.59276572
0.00900000 1641194.50245640 3446.50860249
0.01000000 1639913.31492743 2705.85708647
0.01100000 1638498.84980649 5013.80669871
0.01200000 1636950.53600982 3830.46442221
0.01300000 1635269.75375028 3777.47329777
0.01400000 1633455.87870281 6615.49660202
0.01500000 1631510.39345944 5090.31265426
0.01600000 1629432.41936425 4986.06342615
0.01700000 1627223.93068658 4393.50480994
0.01800000 1624884.57183447 7409.47398097
0.01900000 1622414.96341272 6327.41864282
0.02000000 1619815.76163000 6122.90385594
0.02100000 1617088.54256286 6403.67091888
0.02200000 1614231.57460778 6682.91902250
0.02300000 1611247.81603235 6960.59088209
0.02400000 1608136.88256277 7236.61630150
0.02500000 1604900.23452101 8762.75568069
0.02600000 1601538.17720710 9080.72188010
0.02700000 1598051.45083913 8725.36132121
0.02800000 1594440.11583913 7629.39630417
0.02900000 1590706.75625763 9305.63495137
0.03000000 1586851.55826669 7378.86008511
0.03100000 1582874.73237799 8357.57897151
0.03200000 1578777.37380500 9377.93803233
0.03300000 1574562.17313778 9636.32094384
0.03400000 1570227.12719773 11541.16991742
0.03500000 1565775.58546726 13528.30168315
0.03600000 1561207.32323931 9531.17114885
0.03700000 1556523.99688561 8872.18719256
0.03800000 1551727.07900088 9077.60383226
0.03900000 1546817.57018149 12065.17760615
0.04000000 1541794.62551159 10430.24112491
0.04100000 1536662.00685785 12585.26241970
0.04200000 1531420.09943485 10865.42610957
0.04300000 1526068.89165332 15108.08272865
0.04400000 1520612.10305117 11290.54538951
0.04500000 1515049.14427168 13589.99145557
0.04600000 1509380.62905317 15961.70089425
0.04700000 1503609.53516329 19486.78048201
0.04800000 1497736.05628667 12109.19657850
0.04900000 1491762.96993327 13425.86735434
0.05000000 1485689.57958671 12502.07839440
0.05100000 1479519.54342651 12694.27827395
0.05200000 1473250.82379758 14054.81351400
0.05300000 1466888.83658961 14258.16015634
0.05400000 1460431.99097949 14458.27738494
0.05500000 1453884.11821049 14655.15259521
0.05600000 1447243.75832868 18560.90206669
0.05700000 1440515.86446341 13785.73746641
0.05800000 1433698.99406051 16494.70769684
0.05900000 1426795.22518955 23114.08372763
0.06000000 1419807.17445222 16888.60712912
0.06100000 1412736.23550566 14452.29236460
0.06200000 1405583.12722836 17267.58952515
0.06300000 1398350.76124522 14766.58472917
0.06400000 1391037.33437601 18987.66050222
0.06500000 1383649.13517009 16437.75249474
0.06600000 1376183.83116797 13830.64815035
0.06700000 1368644.57171016 16752.21034172
0.06800000 1361034.04887837 15495.37337180
0.06900000 1353353.21336004 14210.20940559
0.07000000 1345601.22832405 14330.65375273
0.07100000 1337783.44509382 15892.86807210
0.07200000 1329898.25730306 18931.10257957
0.07300000 1321950.70762283 30814.67243853
0.07400000 1313939.99575857 22172.73846753
0.07500000 1305868.35769565 19352.96996817
0.07600000 1297736.03116563 23982.16298024
0.07700000 1289548.43107992 16596.48908618
0.07800000 1281304.01614579 15183.45330337
0.07900000 1273004.29240882 19858.86789303
0.08000000 1264653.84512403 18438.65392689
0.08100000 1256252.10083555 23177.85234788
0.08200000 1247800.23966454 15535.11371281
0.08300000 1239301.25690299 17176.71622681
0.08400000 1230756.13158644 21968.99798001
0.08500000 1222168.35623873 17342.56978918
0.08600000 1213536.91079807 22171.32040126
0.08700000 1204865.77393596 17494.65185906
0.08800000 1196153.17005602 20759.23924125
0.08900000 1187405.61272455 19235.97182965
0.09000000 1178621.47700458 16088.18391686
0.09100000 1169803.53070382 17757.61843036
0.09200000 1160952.42660481 17814.81582331
0.09300000 1152071.92996944 17868.63647351
0.09400000 1143160.38052202 19548.04342564
0.09500000 1134221.75644326 19599.35287256
0.09600000 1125257.31251598 18009.74413342
0.09700000 1116269.92850902 19691.00246463
0.09800000 1107260.27480535 18087.09743936
0.09900000 1098230.33560992 19768.14697053
0.10000000 1089179.63672950 16501.07227245
0.10100000 1080111.22347417 23135.98349494
0.10200000 1071027.29357086 18202.10971040
0.10300000 1061928.67610138 16566.08812646
0.10400000 1052817.67889051 19898.25506715
0.10500000 1043697.43369617 16594.78997654
0.10600001 1034563.94431523 23246.65292260
0.10700001 1025425.16119828 19934.26607175
0.10800001 1016277.97070747 19939.37472366
0.10900001 1007126.66354288 23264.62702281
0.11000001 997971.50528070 16616.22634504
0.11100001 988814.59408188 23256.92034759
0.11200001 979658.04231888 16605.20459903
0.11300001 970501.04695385 19914.68242109
0.11400001 961347.78809008 19899.90015044
0.11500001 952198.58136410 19881.90731508
0.11600001 943054.38721122 28136.02896741
0.11700001 933918.12214928 18183.38669459
0.11800001 924788.06110014 21459.70796854
0.11900001 915668.89009702 21426.65303750
0.12000001 906560.17641125 19744.88157232
0.12100001 897465.52492408 18065.98186778
0.12200001 888383.51157430 19668.81187288
0.12300001 879317.07696693 26168.47744345
0.12400001 870266.47725356 22844.49610428
0.12500001 861233.79777799 19532.78345400
0.12600001 852221.89397103 19481.79341423
0.12700001 843230.03168284 22666.02431980
0.12800001 834258.69078982 20985.77835586
0.12900001 825310.89059570 20921.63206268
0.13000001 816386.91206665 25667.20572520
0.13100001 807487.73321874 19185.90944566
0.13200001 798616.05207170 20712.10828686
0.13300001 789772.99238008 23811.65684281
0.13400001 780957.29595422 18977.26318638
0.13500001 772172.68430990 17327.55585288
0.13600001 763418.05944322 29807.65953641
0.13700001 754696.78015921 18746.66890312
0.13800001 746007.31491392 15554.25324943
0.13900001 737354.59202089 20129.78131145
0.14000001 728735.88754900 18495.31769824
0.14100001 720153.87379472 27610.70082349
0.14200001 711608.42181617 16790.40150468
0.14300001 703104.00967308 18224.45679033
0.14400001 694634.95832156 18129.97326738
0.14500001 686210.20736721 15028.00425024
0.14600001 677823.88960084 17935.22096492
0.14700001 669482.75869796 20807.52512196
0.14800001 661182.37167181 23643.88272647
0.14900001 652925.94233562 19098.08471438
0.15000001 644714.51953163 20443.89837895
0.15100001 636549.04784811 15964.65087332
0.15200001 628430.59736091 18749.22775698
0.15300001 620359.31779782 18629.39119257
0.15400001 612334.05552049 14236.76746270
0.15500001 604359.55734960 21213.02146408
0.15600001 596432.07875854 15450.57372943
0.15700001 588558.64697722 16738.60871004
0.15800001 580731.33516736 16620.53159696
0.15900001 572958.34083352 17876.30107778
0.16000001 565235.20177110 16380.51692053
0.16100001 557567.77199162 18968.45649855
0.16200001 549951.46949692 14790.94547034
0.16300001 542390.45064995 14677.08628746
0.16400001 534883.16743016 14562.19492076
0.16500001 527431.16202951 15759.64386548
0.16600001 520034.70275083 15632.24390274
0.16700001 512693.49043865 14211.86422597
0.16800001 505407.90477892 14093.30009020
0.16900001 498181.41972198 20325.80288440
0.17000001 491011.22955097 20151.10181230
0.17100001 483899.07713629 16229.97581355
0.17200001 476845.14425755 13611.54528561
0.17300001 469849.73417454 12263.07864107
0.17400001 462914.15005679 19442.39522057
0.17500001 456037.40931517 13243.32699196
0.17600001 449218.11561245 13119.41568608
0.17700001 442461.76521091 12995.10265801
0.17800001 435764.22651994 16380.37804856
0.17900001 429127.18042486 12745.07786061
0.18000001 422551.71094939 13766.73539300
0.18100001 416038.12880639 14765.19388879
0.18200001 409582.98214081 13491.66406904
0.18300001 403191.78169900 13353.71244069
0.18400001 396860.97745844 14316.76043815
0.18500001 390592.59213458 11987.28721891
0.18600001 384386.19810267 12938.44003939
0.18700001 378241.37162982 13866.32933906
0.18800001 372158.49710762 14770.97144807
0.18900001 366139.73663320 13565.47788319
0.19000001 360179.47397429 10319.14241693
0.19100001 354286.67726795 14284.83950240
0.19200001 348452.29462459 11096.46384664
0.19300001 342683.39676407 10969.29604875
0.19400001 336975.94493164 10842.20154051
0.19500001 331331.52102629 9741.14717849
0.19600001 325748.49756770 14438.80283701
0.19700001 320229.05788353 11412.96416232
0.19800001 314771.96009279 11275.13214337
0.19900001 309378.32438968 11137.62020439
0.20000001 304045.03703397 15583.82910969
0.20100001 298776.15288279 14484.66857634
0.20200001 293568.11353475 10726.97937555
0.20300001 288423.06549336 10590.89546549
0.20400001 283340.06810378 12197.79050841
0.20500001 278318.27311438 11180.04555945
0.20600001 273358.96633962 14429.25372028
0.20700001 268460.90843393 10051.17688688
0.20800001 263624.37004034 8264.62439144
0.20900001 258851.40743307 13046.11155133
0.21000001 254136.85282629 12065.14765828
0.21100001 249483.68580912 12693.73053404
0.21200001 244891.11716683 13301.26165773
0.21300001 240359.11182252 9258.63342511
0.21400001 235888.11826091 12171.82747770
0.21500001 231477.83535701 10499.83510820
0.21600001 227125.94870735 7392.94997995
0.21700001 222834.04130476 8744.00819421
0.21800001 218601.65829306 12207.81018457
0.21900001 214427.17799304 9198.92637084
0.22000001 210311.09767385 8366.17586104
0.22100001 206255.73724011 10302.47456228
0.22200001 202257.34514773 9471.71192113
0.22300001 198316.64176315 7996.12737399
0.22400001 194431.73767091 7218.27860236
0.22500001 190607.30615160 7753.90558091
0.22600001 186837.32503812 10178.89794942
0.22700001 183125.11043202 8141.74279482
0.22800001 179468.26656630 7397.68229770
0.22900001 175866.80575560 7280.88610260
0.23000001 172321.00055188 6568.01524665
0.23100001 168831.52403779 8225.47224013
0.23200001 165394.98463669 8670.83247965
0.23300001 162013.62440595 10236.02127407
0.23400001 158686.28524007 7271.79936505
0.23500001 155410.98501382 7702.16878157
0.23600001 152189.94767529 5410.35289575
0.23700001 149021.20278324 9576.10294378
0.23800001 145904.49036108 6276.81147222
0.23900001 142839.99001096 6684.91184871
0.24000001 139826.49682104 6065.67371901
0.24100001 136865.36873014 4968.21311991
0.24200001 133953.88695431 6835.66717462
0.24300001 131092.65346440 5757.58961251
0.24400001 128280.59961288 5185.74348465
0.24500001 125518.29731823 6484.27554619
0.24600001 122805.01078854 4549.92586495
0.24700001 120140.48034339 5809.99390425
0.24800001 117522.95186685 5706.32719784
0.24900001 114952.84741055 4741.80518001
0.25000001 112430.41087031 4656.30568648
0.25100001 109953.74639352 6650.00289648
0.25200001 107524.52375375 4488.61145646
0.25300001 105140.97636598 4005.87138906
0.25400001 102801.65501584 3932.16349039
0.25500001 100507.33700810 5403.27469319
0.25600001 98257.63237309  4924.18147935
0.25700001 96051.60874327  6319.23563820
0.25800001 93888.67145532  4012.33256448
0.25900001 91769.18297954  4652.69779720
0.26000001 89692.62319741  5267.19954649
0.26100001 87655.80852454  3789.36078181
0.26200001 85662.77986616  4055.27619075
0.26300001 83709.48379944  3646.38528684
0.26400001 81796.72156089  3576.56181949
0.26500001 79924.76243897  4145.69762388
0.26600001 78091.52949688  5004.10544695
0.26700001 76298.59465167  4294.08511019
0.26800001 74543.97420149  4210.98930191
0.26900001 72827.01078381  4129.29170685
0.27000001 71148.45145116  4627.49550137
0.27100001 69507.01597163  4253.82957877
0.27200001 67902.70604311  3336.73913286
0.27300001 66334.00614253  2998.96055963
0.27400001 64800.38224169  3207.61907276
0.27500001 63304.25578776  2882.87594501
0.27600001 61841.03166795  2826.44448615
0.27700001 60414.07566200  4030.82731893
0.27800001 59019.86145077  2469.98131861
0.27900001 57659.89470051  2421.71569204
0.28000001 56332.71241192  3561.63591081
0.28100001 55037.87018379  2793.72242275
0.28200001 53775.87344066  3880.73609052
0.28300001 52545.55536542  2686.12891742
0.28400001 51346.52200563  2634.07670356
0.28500001 50178.56079241  2367.92639587
0.28600001 49040.14328430  2322.29609515
0.28700001 47932.38530584  2070.67914322
0.28800001 46853.31504591  2234.20043372
0.28900001 45804.75747234  1992.50704436
0.29000001 44783.56418078  2345.76320282
0.29100001 43791.90644755  2301.70271183
0.29200001 42827.07436761  2446.92500982
0.29300001 41889.77934387  1847.33935651
0.29400001 40979.26474859  3263.99859173
0.29500001 40096.42370903  1958.30942665
0.29600001 39238.35360027  1748.06873564
0.29700001 38405.80168896  2403.43518347
0.29800001 37599.19344747  1854.95629654
0.29900001 36817.29037841  1988.13377455
0.30000001 36059.59169035  1790.89970608
0.30100001 35326.63640800  2080.38571655
0.30200001 34616.31115411  2359.96712465
0.30300001 33929.80276960  1701.91898749
0.30400001 33266.59366290  1674.14140534
0.30500001 32624.68920838  1497.47330556
0.30600001 32005.24232695  2358.14636629
0.30700001 31407.80494128  1596.14472268
0.30800001 30831.43130087  1857.74798099
0.30900001 30275.65644585  1689.38170966
0.31000001 29741.45431468  1664.92669136
0.31100001 29225.65395261  1641.31280369
0.31200001 28730.84537943  1753.58723076
0.31300001 28254.52814073  1996.18250765
0.31400001 27798.98102283  1838.90268173
0.31500001 27361.03736878  1685.98720249
0.31600002 26941.33299613  1665.37857801
0.31700002 26539.28458962  1519.10872184
0.31800002 26155.36099912  1752.14771629
0.31900002 25788.86345641  1237.86550452
0.32000002 25438.89728909  1592.34785121
0.32100002 25105.89920439  1455.13798679
0.32200002 24789.40145357  1921.67449167
0.32300002 24487.97903868  1428.13900516
0.32400002 24202.58559326  1297.86371389
0.32500002 23931.93930810  1287.29907634
0.32600002 23676.75626652  1277.47944485
0.32700002 23436.10234040  1498.97317667
0.32800002 23210.29775184  1947.22802210
0.32900002 22997.33140336  1593.71514172
0.33000002 22799.59137383  1584.79967144
0.33100002 22612.94028324  1238.73692738
0.33200002 22441.65307219  1345.15274885
0.33300002 22282.22154904  1786.14296395
0.33400002 22135.68706748  1334.78199338
0.33500002 22000.83167606  1995.91554417
0.33600002 21878.04361080  1216.52867259
0.33700002 21765.97400567  1544.94890809
0.33800002 21666.81210860  1211.93319269
0.33900002 21577.25884056  1210.48427828
0.34000002 21499.41301021  1209.66453031
0.34100002 21431.66054535  1319.33308565
0.34200002 21375.15632494  1539.65258300
0.34300002 21327.20679867  1540.67749210
0.34400002 21289.89728803  1322.10268420
0.34500002 21261.57047653  1434.51822799
0.34600002 21243.75930036  1548.03281353
0.34700002 21232.74817707  1219.18445807
0.34800002 21231.91145464  1333.78874075
0.34900002 21239.26498141  1672.59219650
0.35000002 21254.96485925  1454.79613869
0.35100002 21278.48161266  1797.60621178
0.35200002 21309.33692658  1241.16238807
0.35300002 21347.87034932  1700.35795386
0.35400002 21394.23239729  1481.01580785
0.35500002 21447.36509452  1717.93402544
0.35600002 21506.87844099  1266.86273457
0.35700002 21573.07045650  1390.16872606
0.35800002 21646.41752384  1165.65963887
0.35900002 21725.41265859  1642.44127478
0.36000002 21811.24501275  1299.18687072
0.36100002 21901.81005884  1664.97567954
0.36200002 21999.29697226  1437.43413225
0.36300002 22100.18379209  1327.33710142
0.36400002 22207.34830573  1337.43761506
0.36500002 22318.89421970  1470.36882084
0.36600002 22435.96611314  1605.62999094
0.36700002 22557.05455060  1494.17936421
0.36800002 22683.97233983  1506.66951418
0.36900002 22814.16566429  1772.66075609
0.37000002 22947.59726968  1277.03384855
0.37100002 23085.40730104  1803.43210379
0.37200002 23227.34303558  1689.44087572
0.37300002 23372.14676445  2491.23724163
0.37400002 23521.41825728  1455.38782361
0.37500002 23672.81083765  1735.69057284
0.37600002 23828.23770248  2021.23035886
0.37700002 23985.28527605  1767.95546145
0.37800002 24146.24720477  1784.52848421
0.37900002 24309.37678533  1662.76145089
0.38000002 24475.01204632  1538.62170518
0.38100002 24642.47537246  1694.41668688
0.38200002 24812.31401060  1568.01425818
0.38300002 24983.91679675  1726.88841080
0.38400002 25158.16716737  2034.03791184
0.38500002 25332.71526234  1613.44071149
0.38600002 25510.35926262  1925.13935296
0.38700002 25688.10878918  1644.55280259
0.38800002 25867.35288815  1660.29612378
0.38900002 26047.82386734  2438.07642949
0.39000002 26230.11954759  1692.23624278
0.39100002 26412.40675285  2640.18430410
0.39200002 26596.03509507  1567.83634313
0.39300002 26779.86741142  1740.95926290
0.39400002 26965.14505416  2076.99039620
0.39500002 27150.05722357  1773.98482304
0.39600002 27335.23249439  2116.15712381
0.39700002 27520.39971814  1971.56152922
0.39800002 27706.66177281  1989.89254280
0.39900002 27891.91901567  2342.92130832
0.40000002 28077.33592375  2195.50738658
0.40100002 28262.24583832  1704.21350479
0.40200002 28448.03823128  1891.65239181
0.40300002 28632.35812807  2602.68147716
0.40400002 28816.06699470  2625.86422931
0.40500002 28999.52951685  1942.67857438
0.40600002 29182.39482404  2316.06087495
0.40700002 29364.40005052  2336.23177871
0.40800002 29545.81154911  2537.68987419
0.40900002 29725.53223312  2010.93235085
0.41000002 29905.00117539  2581.10077375
0.41100002 30083.05174954  2788.69902932
0.41200002 30259.33167362  2249.47882320
0.41300002 30434.79672053  2268.00115908
0.41400002 30608.94867447  2286.48857432
0.41500002 30782.02739473  2304.95832053
0.41600002 30952.41898735  2129.68128934
0.41700002 31122.15217796  2341.63084082
0.41800002 31290.98474830  2359.96618154
0.41900002 31456.29398187  2179.92127624
0.42000002 31620.55700023  2595.88974994
0.42100002 31783.61389211  3420.23485300
0.42200002 31944.62623017  3445.70727159
0.42300002 32103.23053734  2450.11867071
0.42400002 32259.78990491  2056.56170389
0.42500002 32414.83897925  2485.56997071
0.42600002 32566.44433329  3545.99745926
0.42700002 32717.24283366  2310.49179840
0.42800002 32865.23148701  2114.87774641
0.42900002 33011.49394234  2342.16560620
0.43000002 33155.49372989  2786.55360258
0.43100002 33295.74628815  2804.83380023
0.43200002 33434.58332652  3040.20680595
0.43300002 33570.62403411  2841.08204664
0.43400002 33704.49493564  2419.14023864
0.43500002 33835.51459841  2212.84275960
0.43600002 33964.88413565  2449.03808666
0.43700002 34090.72390766  2911.68886693
0.43800002 34213.13396917  2478.22847650
0.43900002 34334.14394794  2719.26432954
0.44000002 34451.60003039  2506.87079501
0.44100002 34567.02523964  2520.97327020
0.44200002 34679.45164813  3456.67450684
0.44300002 34789.35758811  2780.36559020
0.44400002 34895.84558931  3028.08714452
0.44500002 34998.78049418  2341.41852602
0.44600002 35099.68499121  3059.46418725
0.44700002 35197.80872881  3311.41000214
0.44800002 35292.12206921  3090.00189421
0.44900002 35384.67040388  2627.31190200
0.45000002 35473.96190712  3599.72045512
0.45100002 35559.14256170  2652.00097794
0.45200002 35642.22305938  3875.02267466
0.45300002 35721.83031025  4378.78216695
0.45400002 35798.87923273  2931.92834811
0.45500002 35872.75942995  2944.43623356
0.45600002 35943.11464450  3449.46087591
0.45700002 36010.71721649  2473.93639002
0.45800002 36074.56496201  2732.10730688
0.45900002 36135.57502569  2493.35479494
0.46000002 36194.29639205  3253.68642837
0.46100002 36248.64895195  2512.03149143
0.46200002 36300.66282312  4285.83795934
0.46300002 36349.05141385  2782.88350814
0.46400002 36393.95789308  3807.71802503
0.46500002 36436.61526627  3056.30343339
0.46600002 36475.30645346  2810.60487198
0.46700002 36510.93151435  2819.37426516
0.46800002 36543.91974214  3085.03785085
0.46900002 36573.16455087  3094.08986765
0.47000002 36598.96507183  2844.28870537
0.47100002 36622.03170536  3111.40796116
0.47200002 36641.72672702  3119.67676140
0.47300002 36658.73036252  3388.36660801
0.47400002 36671.36066132  3919.25185644
0.47500002 36681.92784634  3928.63465855
0.47600002 36689.53023525  2625.13601276
0.47700002 36692.91286965  2630.88197745
