# SAXS profile: number of points = 501, q_min = 0, q_max = 0.5, delta_q = 0.001
#    q    intensity    error
0.00000000 1628779.37420969 244.31690613
0.00100000 1628712.34576742 635.19782993
0.00200000 1628511.20462270 806.11307181
0.00300000 1628176.12749517 1367.66799582
0.00400000 1627706.97522984 1464.93633337
0.00500000 1627104.16473105 1610.83318684
0.00600000 1626367.51451220 2049.22315171
0.00700000 1625497.58028140 2145.65689515
0.00800000 1624493.85148634 2193.06679210
0.00900000 1623357.68113919 2678.54028838
0.01000000 1622088.23685036 2676.44570637
0.01100000 1620686.71186525 3792.40707088
0.01200000 1619152.57077301 5051.75624230
0.01300000 1617487.20070693 4755.41257981
0.01400000 1615689.93695439 4725.89327509
0.01500000 1613762.24017904 4647.63545867
0.01600000 1611703.30144663 4520.82796265
0.01700000 1609515.06917695 5649.39814624
0.01800000 1607197.16993711 5496.61456852
0.01900000 1604750.24876718 6739.95134895
0.02000000 1602174.87266923 6560.90640037
0.02100000 1599472.71542859 6861.73826029
0.02200000 1596641.94074519 6610.09793500
0.02300000 1593685.59506698 6884.72208407
0.02400000 1590603.27643142 7754.19132618
0.02500000 1587396.35653545 7429.01528787
0.02600000 1584065.19339974 7057.01075937
0.02700000 1580610.60102990 7302.42131122
0.02800000 1577032.47960987 8232.10992108
0.02900000 1573333.53085763 7788.00133533
0.03000000 1569513.87667336 8757.88783440
0.03100000 1565573.74269931 9017.70517288
0.03200000 1561514.21048242 8502.44526768
0.03300000 1557337.95726062 11913.63592227
0.03400000 1553042.87884612 10599.51813719
0.03500000 1548632.57734022 10871.40119495
0.03600000 1544106.55679030 9426.77096485
0.03700000 1539466.60154965 9652.45603812
0.03800000 1534714.15782912 11671.50171044
0.03900000 1529850.16661607 12850.74199469
0.04000000 1524873.83882793 13129.16436070
0.04100000 1519788.80985566 10532.13694064
0.04200000 1514595.65037099 14653.71359717
0.04300000 1509294.24857251 10957.47675326
0.04400000 1503888.23541637 10151.24606050
0.04500000 1498377.14530081 14474.32389615
0.04600000 1492761.47315859 13681.15953749
0.04700000 1487044.25412683 11777.39104043
0.04800000 1481225.59721255 14153.11123988
0.04900000 1475308.40769985 11064.81357279
0.05000000 1469291.77917375 13488.09916090
0.05100000 1463179.57637663 18260.48196383
0.05200000 1456969.60825832 12741.19981798
0.05300000 1450667.37532333 17625.60943185
0.05400000 1444271.08583958 11915.23701383
0.05500000 1437784.84593149 12077.39326923
0.05600000 1431207.00604148 19578.91275628
0.05700000 1424542.52621495 16111.57672356
0.05800000 1417789.97521713 13802.18605320
0.05900000 1410951.39914713 13968.41950396
0.06000000 1404029.50468578 12846.87056807
0.06100000 1397025.46946871 18189.27246249
0.06200000 1389940.05092205 23642.88137134
0.06300000 1382776.32703434 21239.44537630
0.06400000 1375532.36720203 17434.87356966
0.06500000 1368214.57614393 20317.98740617
0.06600000 1360820.26101171 19146.74196828
0.06700000 1353352.80018324 13804.19920789
0.06800000 1345814.90935138 15322.10346018
0.06900000 1338207.43288227 21076.76805469
0.07000000 1330529.64435894 18421.18378879
0.07100000 1322786.74998242 17143.31708273
0.07200000 1314977.20069467 17278.80122658
0.07300000 1307106.05737626 15959.76570837
0.07400000 1299172.33834534 16077.25844047
0.07500000 1291178.49002714 16191.37902387
0.07600000 1283124.64285613 22230.13547964
0.07700000 1275016.02270403 16409.45698162
0.07800000 1266851.41305673 19515.84693336
0.07900000 1258632.23749817 21145.02258175
0.08000000 1250362.56784369 16711.09650317
0.08100000 1242042.52210322 15277.12373864
0.08200000 1233672.88010719 19966.99650149
0.08300000 1225256.52129533 15438.23289287
0.08400000 1216794.87828361 20168.37605423
0.08500000 1208291.07774059 17145.65119804
0.08600000 1199744.03814283 23484.99064930
0.08700000 1191158.03424701 17295.61546943
0.08800000 1182530.88952094 17365.46692816
0.08900000 1173869.36875091 22186.13211147
0.09000000 1165171.75896397 20675.97383408
0.09100000 1156440.84078002 27130.10339930
0.09200000 1147677.16086670 20813.12629026
0.09300000 1138884.55406890 19269.92756038
0.09400000 1130061.33927206 25765.39974631
0.09500000 1121211.44172754 19374.53462371
0.09600000 1112336.24771370 17802.94248153
0.09700000 1103438.39131046 21086.70864929
0.09800000 1094518.53097637 19504.32113905
0.09900000 1085579.10552440 17912.05608342
0.10000000 1076618.97300900 26097.24513302
0.10100000 1067641.51955048 19601.89922086
0.10200000 1058648.92301635 22898.57728191
0.10300000 1049641.78713687 18011.85391456
0.10400000 1040622.69321147 24584.71228371
0.10500000 1031594.70395624 16402.35656462
0.10600001 1022553.60855038 18053.18480842
0.10700001 1013507.65059539 21344.47212596
0.10800001 1004453.42655285 18065.09572673
0.10900001 995395.29396231 19708.82774806
0.11000001 986333.38964539 21349.18722377
0.11100001 977269.99764585 19701.76407997
0.11200001 968207.20333194 19693.33544288
0.11300001 959144.28034782 21321.77835598
0.11400001 950085.01080830 19666.76064973
0.11500001 941030.05187128 18011.31604093
0.11600001 931980.15828095 21263.12831249
0.11700001 922938.29351304 16336.00856452
0.11800001 913902.94326060 19575.80196663
0.11900001 904878.28754906 22802.93392029
0.12000001 895864.32584068 16259.93827993
0.12100001 886864.27372943 17852.57867117
0.12200001 877877.14655019 19436.20094029
0.12300001 868905.51107776 16161.64326749
0.12400001 859949.85682352 16124.06057517
0.12500001 851012.04875487 20909.36702317
0.12600001 842094.95713313 24062.86453400
0.12700001 833198.12996602 15997.40484925
0.12800001 824321.48400452 17545.68361395
0.12900001 815468.60147607 19081.96617391
0.13000001 806639.03658456 20605.59516079
0.13100001 797834.66790355 17376.83988604
0.13200001 789057.43036993 15741.69647795
0.13300001 780309.05274194 18821.05523942
0.13400001 771587.61392686 18749.57990238
0.13500001 762897.32195441 17119.41671181
0.13600001 754236.67461541 17049.52083358
0.13700001 745609.35174789 20064.34860164
0.13800001 737013.68939544 19976.75699308
0.13900001 728454.58569903 15297.54702108
0.14000001 719929.36893975 19794.45893252
0.14100001 711440.65983015 16669.05544598
0.14200001 702988.29901836 18094.91967018
0.14300001 694576.54805468 21003.99580388
0.14400001 686200.19502164 19402.31142944
0.14500001 677867.73454565 14845.30408683
0.14600001 669573.52861715 17716.91640299
0.14700001 661324.50761413 22022.10714248
0.14800001 653115.61762805 16056.84821693
0.14900001 644950.53946639 15962.52660492
0.15000001 636830.04239731 15866.62125496
0.15100001 628755.43151290 14335.62451492
0.15200001 620727.14847928 17094.82647577
0.15300001 612746.03569210 15569.87750166
0.15400001 604810.64103849 18280.40248806
0.15500001 596925.58877532 19555.28321115
0.15600001 589086.96623395 16647.59845145
0.15700001 581302.43392702 19287.61566801
0.15800001 573563.36996575 16415.38442320
0.15900001 565878.40537265 19013.51531797
0.16000001 558242.79673904 13481.56417761
0.16100001 550662.39823316 17395.42598132
0.16200001 543132.87270826 14607.55930105
0.16300001 535658.15190284 14494.91027476
0.16400001 528236.84927925 16996.02142793
0.16500001 520870.22123860 16860.56985750
0.16600001 513558.88839317 15437.58091395
0.16700001 506302.19848906 14034.69760476
0.16800001 499100.74469797 12652.20447548
0.16900001 491957.89974306 12544.92703580
0.17000001 484870.71378765 16168.01471470
0.17100001 477841.34281120 13561.13794936
0.17200001 470869.62029119 19550.50755772
0.17300001 463955.99916915 15742.02779522
0.17400001 457101.54262820 14398.69927278
0.17500001 450305.50218150 14265.67898284
0.17600001 443566.26860615 14132.02198523
0.17700001 436889.66117335 12831.44995470
0.17800001 430271.06993215 16173.89028268
0.17900001 423712.60507824 14872.31314072
0.18000001 417215.10769158 16991.08606331
0.18100001 410779.09044273 13457.12363857
0.18200001 404400.90827541 15541.12763915
0.18300001 398086.06489144 13184.61109204
0.18400001 391831.09380978 14135.30737695
0.18500001 385637.82080582 17214.87313404
0.18600001 379506.09032178 11709.66097008
0.18700001 373435.25375831 10530.87465351
0.18800001 367425.94834386 10416.52612769
0.18900001 361480.18418798 12362.62288333
0.19000001 355592.04489120 14262.79759449
0.19100001 349771.13557053 13095.43193452
0.19200001 344007.51892865 11950.82177227
0.19300001 338309.14950648 11813.75605900
0.19400001 332671.54051822 9730.64301997
0.19500001 327096.47372803 14424.95517306
0.19600001 321581.91591942 11403.29527738
0.19700001 316130.52985177 11266.89261636
0.19800001 310740.77348650 12985.85753770
0.19900001 305413.80484478 10078.65603619
0.20000001 300146.62685393 13574.13184100
0.20100001 294943.16325984 12511.48957680
0.20200001 289800.02250992 9706.85221275
0.20300001 284719.13279775 10454.88705048
0.20400001 279699.58617060 14621.29655815
0.20500001 274740.66361772 9338.43559776
0.20600001 269843.63490876 14243.69694193
0.20700001 265007.03196600 8268.21978817
0.20800001 260231.62749296 10605.74047981
0.20900001 255518.86084413 11268.38229590
0.21000001 250863.83604105 9527.80894324
0.21100001 246269.57522233 10963.92200720
0.21200001 241735.21313967 10812.81659491
0.21300001 237260.91893336 8377.68344360
0.21400001 232846.78887194 9011.17115536
0.21500001 228492.82492934 11845.06860434
0.21600001 224196.68593009 11676.16395527
0.21700001 219959.69969201 7911.95077200
0.21800001 215781.65448637 9923.79875903
0.21900001 211660.85798177 9778.73210111
0.22000001 207597.71943894 8258.23766975
0.22100001 203594.60780480 7457.67083651
0.22200001 199647.91948571 6678.22322257
0.22300001 195758.13581466 8550.71577671
0.22400001 191923.61830643 7772.90690896
0.22500001 188148.92754100 8291.72362883
0.22600001 184427.74350467 9419.64744494
0.22700001 180763.92805621 6182.12663187
0.22800001 177154.80441860 7302.32138346
0.22900001 173600.43720552 6588.13690351
0.23000001 170100.90834801 6483.39642830
0.23100001 166657.20014217 6379.63792315
0.23200001 163265.72589911 7988.59234605
0.23300001 159928.70750698 10104.29621817
0.23400001 156645.05068879 7730.43361711
0.23500001 153412.96033827 7060.06476868
0.23600001 150234.33782171 8011.24644325
0.23700001 147107.43903063 5776.90940397
0.23800001 144031.78493133 5679.89370742
0.23900001 141007.81607827 5583.90978082
0.24000001 138034.19821973 6486.91745217
0.24100001 135112.35452579 4904.57870128
0.24200001 132239.49518791 5302.14281036
0.24300001 129416.25904559 6631.28942717
0.24400001 126641.48071017 4654.07463625
0.24500001 123915.88111974 4572.49622962
0.24600001 121238.79419502 4491.89753742
0.24700001 118609.66537289 5294.73571272
0.24800001 116027.01181564 5200.33091559
0.24900001 113491.14324169 4681.50988019
0.25000001 111002.45889322 4597.16705255
0.25100001 108558.76700748 4103.52158702
0.25200001 106161.96927866 6043.27038709
0.25300001 103810.27006535 3955.17147661
0.25400001 101502.09885904 4658.94655805
0.25500001 99238.56496079  4953.98939723
0.25600001 97018.85554799  4488.09246999
0.25700001 94842.32651204  3670.39820967
0.25800001 92708.22890064  3601.71486320
0.25900001 90617.08623471  3887.47318340
0.26000001 88568.29835239  3814.19394902
0.26100001 86558.70770503  3741.93311114
0.26200001 84592.18502314  3337.16185707
0.26300001 82664.90278434  3600.88333567
0.26400001 80777.78370435  4495.28387586
0.26500001 78930.81620295  3464.27368707
0.26600001 77121.90654375  3397.60575356
0.26700001 75352.92051218  3937.94381231
0.26800001 73621.59010975  3267.69443165
0.26900001 71927.40370965  4369.58998214
0.27000001 70271.22276792  3427.83040883
0.27100001 68651.46534110  3081.07791031
0.27200001 67068.49069829  2746.45482407
0.27300001 65520.47849131  3500.75933146
0.27400001 64007.10244986  3432.38103131
0.27500001 62530.67354531  2588.77000729
0.27600001 61086.68511811  3553.41264149
0.27700001 59678.56017584  2488.59607711
0.27800001 58302.58780816  3171.95243982
0.27900001 56960.42308393  2392.33788275
0.28000001 55650.48283318  3283.93514741
0.28100001 54372.47049654  2989.94229412
0.28200001 53126.92821710  2931.80967242
0.28300001 51912.50064523  3538.35621145
0.28400001 50728.96208913  2602.39587835
0.28500001 49575.98873245  2977.53402420
0.28600001 48452.20023235  2711.62751435
0.28700001 47358.53642957  2455.06664471
0.28800001 46293.21513438  2408.17316528
0.28900001 45257.79277859  2165.58548696
0.29000001 44249.52865226  2124.64121881
0.29100001 43270.40031189  2084.76798571
0.29200001 42317.51956877  2231.82608770
0.29300001 41391.89191547  1825.38251988
0.29400001 40492.63268982  2329.33880574
0.29500001 39620.68875928  1935.07453060
0.29600001 38772.96987418  2936.47101243
0.29700001 37950.61081875  1696.39238390
0.29800001 37153.61232820  1999.60751016
0.29900001 36381.16004639  1800.86750755
0.30000001 35632.38131674  1930.56251113
0.30100001 34907.96304997  2055.73004133
0.30200001 34205.94075299  2487.45612932
0.30300001 33527.35054207  2140.38615993
0.30400001 32871.70351159  1955.04465891
0.30500001 32237.04367298  2515.45663689
0.30600001 31624.55620371  1893.20414676
0.30700001 31033.71272161  1863.88487430
0.30800001 30463.60610100  1694.38585156
0.30900001 29913.76816221  1530.08931394
0.31000001 29385.32094053  1919.15540149
0.31100001 28874.73478140  1621.60518210
0.31200001 28385.10559324  2532.09346433
0.31300001 27913.50083220  1840.61633202
0.31400001 27462.35188196  1427.35580665
0.31500001 27028.82542224  1793.63293994
0.31600002 26612.90741316  1518.53256889
0.31700002 26214.55430090  1625.56458917
0.31800002 25834.04562758  1483.39097017
0.31900002 25470.64113673  1711.62716543
0.32000002 25123.51036545  1330.66678951
0.32100002 24793.07328579  1197.50549641
0.32200002 24479.13109691  2016.22372827
0.32300002 24179.86243934  1175.14137020
0.32400002 23896.46018254  1514.43823578
0.32500002 23627.59003806  1617.54489060
0.32600002 23373.86189885  1490.43437456
0.32700002 23134.48972329  1252.03864311
0.32800002 22909.76382361  1243.65658806
0.32900002 22697.71869457  1235.89084144
0.33000002 22500.56339093  1452.29893284
0.33100002 22314.51303664  1222.38908203
0.33200002 22143.44952401  1437.88496293
0.33300002 21984.20561790  1321.69050434
0.33400002 21837.59967911  1426.54126659
0.33500002 21702.51685536  1421.94897170
0.33600002 21579.38310211  1963.50816145
0.33700002 21466.70504051  1197.19819680
0.33800002 21366.88543812  1738.40988157
0.33900002 21276.40710036  1627.64522026
0.34000002 21197.61699978  1192.68397698
0.34100002 21128.77861114  1625.85959113
0.34200002 21070.90362103  1084.09804264
0.34300002 21021.52993952  1193.18209588
0.34400002 20982.69371742  1085.85445130
0.34500002 20952.65399116  1087.44279364
0.34600002 20933.07591001  1416.43664853
0.34700002 20920.16516250  1310.43920784
0.34800002 20917.28764687  1533.02808425
0.34900002 20922.58675411  1318.12302794
0.35000002 20936.04591787  1543.19601770
0.35100002 20957.28938087  1549.16290441
0.35200002 20985.77529547  1333.43622543
0.35300002 21021.74534902  1786.00756944
0.35400002 21065.55654825  2019.13369078
0.35500002 21116.03899590  1691.39480368
0.35600002 21172.81125048  1360.56491540
0.35700002 21236.19432910  1254.42205844
0.35800002 21306.67186327  1491.57363444
0.35900002 21382.71291680  1616.53317308
0.36000002 21465.63490378  1278.60060361
0.36100002 21553.09095900  1170.33289451
0.36200002 21647.47699066  1414.44621357
0.36300002 21745.20183564  1543.47449940
0.36400002 21849.15215749  1315.86525101
0.36500002 21957.48833972  1567.10601704
0.36600002 22071.33143033  1701.03759391
0.36700002 22189.03280155  1959.73546986
0.36800002 22312.64282707  1605.50629067
0.36900002 22439.54881170  1619.01352346
0.37000002 22569.56520454  1632.79527207
0.37100002 22704.00856311  1520.26048540
0.37200002 22842.48995954  1917.05606067
0.37300002 22983.87052859  1547.27423728
0.37400002 23129.67858181  1431.14893004
0.37500002 23277.74002059  1312.86459935
0.37600002 23429.65936632  1987.42094990
0.37700002 23583.31678251  1470.89153740
0.37800002 23740.87053879  1619.60226488
0.37900002 23900.51735554  1771.02841994
0.38000002 24062.73487792  1787.74097245
0.38100002 24226.82088811  1943.47566371
0.38200002 24393.21665977  1681.66843619
0.38300002 24561.45127804  1980.63552489
0.38400002 24732.35820692  1428.29375411
0.38500002 24903.42163952  2451.24390810
0.38600002 25077.83822216  1601.34543554
0.38700002 25252.31832606  2939.36999241
0.38800002 25428.32525265  1780.49141854
0.38900002 25605.53860938  2246.88611942
0.39000002 25784.67890162  1814.72578707
0.39100002 25963.78064415  2290.00556131
0.39200002 26144.27489857  1541.20507829
0.39300002 26325.10719504  1555.81390894
0.39400002 26507.35074937  1884.67272757
0.39500002 26689.28557470  2536.54982119
0.39600002 26871.53540092  1600.20000894
0.39700002 27053.89763383  2099.65309484
0.39800002 27237.21916782  2119.19193776
0.39900002 27419.70566886  1809.70065989
0.40000002 27602.52239482  1992.35016085
0.40100002 27784.69051997  2513.12537660
0.40200002 27967.89623087  1859.72534799
0.40300002 28149.67992793  1705.87068446
0.40400002 28330.83954241  2065.31830050
0.40500002 28511.93414934  1736.37687197
0.40600002 28692.44378301  1751.67377595
0.40700002 28872.16951897  2120.37222994
0.40800002 29051.43541103  2138.76677630
0.40900002 29228.97051507  2157.09812622
0.41000002 29406.35604621  1812.90193615
0.41100002 29582.42470786  2193.83272028
0.41200002 29756.78342600  2212.11938470
0.41300002 29930.45323403  1858.68123390
0.41400002 30102.81471528  2248.68036578
0.41500002 30274.21026786  2078.02189125
0.41600002 30442.98657181  2285.05068035
0.41700002 30611.19138865  2495.11832832
0.41800002 30778.55328618  2901.64824855
0.41900002 30942.55156232  2339.25700896
0.42000002 31105.39491008  2160.73635981
0.42100002 31267.30849670  2968.83108244
0.42200002 31427.21955289  1994.05717512
0.42300002 31584.75797970  2209.66977297
0.42400002 31740.34267195  2225.79163534
0.42500002 31894.53376524  2241.86688459
0.42600002 32045.41839515  2257.76006002
0.42700002 32195.51912636  2273.64766844
0.42800002 32342.87527762  2705.64335956
0.42900002 32488.70154549  2514.62561878
0.43000002 32632.23658715  2953.54387346
0.43100002 32772.12017555  2548.36018561
0.43200002 32910.75999890  3633.84173748
0.43300002 33046.68465442  3227.00890943
0.43400002 33180.45822987  2598.03000251
0.43500002 33311.58957078  2396.43586729
0.43600002 33441.01479746  2411.26448624
0.43700002 33567.06745780  2425.89208014
0.43800002 33689.83376945  3993.25618593
0.43900002 33811.27806471  3124.16224123
0.44000002 33929.17771058  3815.50586026
0.44100002 34045.20344825  2257.19709559
0.44200002 34158.33901435  2950.76825559
0.44300002 34269.00081269  3879.93645588
0.44400002 34376.42354443  3441.93957050
0.44500002 34480.31605108  3229.42655439
0.44600002 34582.17448111  2782.48189062
0.44700002 34681.45481880  2796.71264913
0.44800002 34777.05635959  2576.45834250
0.44900002 34870.91899851  2824.54457274
0.45000002 34961.59516380  3547.72803738
0.45100002 35048.32148089  2376.27630902
0.45200002 35132.91914698  2864.73836301
0.45300002 35214.32138165  2877.71447969
0.45400002 35293.13662008  2649.63235733
0.45500002 35368.89249801  2419.23236152
0.45600002 35441.15412907  2672.44035376
0.45700002 35510.82171078  2683.55292387
0.45800002 35576.84057242  2939.35870740
0.45900002 35640.05028207  4672.41081343
0.46000002 35701.07454635  2962.47530626
0.46100002 35757.91538460  3469.23311504
0.46200002 35812.40565369  2487.17169053
0.46300002 35863.33359829  2745.69695042
0.46400002 35910.89527983  2504.78506448
0.46500002 35956.28828404  3518.68253825
0.46600002 35997.80690509  3530.30509050
0.46700002 36036.35455577  2782.72743069
0.46800002 36072.28437433  2537.68532601
0.46900002 36104.62559442  2545.37622505
0.47000002 36133.66016499  2808.12753282
0.47100002 36159.93138574  3328.16024249
0.47200002 36182.96126020  3594.05371232
0.47300002 36203.28244391  3088.86420452
0.47400002 36219.41848230  2838.69705810
0.47500002 36233.50535858  2845.77964575
0.47600002 36244.73851704  3371.30451295
0.47700002 36251.87284013  3638.96316817
