# SAXS profile: number of points = 501, q_min = 0, q_max = 0.5, delta_q = 0.001
#    q    intensity    error
0.00000000 1646666.22097351 296.39991978
0.00100000 1646598.46216003 543.37750542
0.00200000 1646395.12975744 1037.22896459
0.00300000 1646056.39515903 1283.92403396
0.00400000 1645582.11143426 1727.86128266
0.00500000 1644972.76316392 2072.66576363
0.00600000 1644228.06431357 2589.65930672
0.00700000 1643348.65078845 2366.42215548
0.00800000 1642333.99030476 2660.58117662
0.00900000 1641185.44803298 3200.31176047
0.01000000 1639902.12907793 3247.00635578
0.01100000 1638485.35356593 3244.20114131
0.01200000 1636934.46480126 3830.42681558
0.01300000 1635250.95962663 4807.63803334
0.01400000 1633434.04814214 3675.22677125
0.01500000 1631485.42033927 4307.12170149
0.01600000 1629404.01750774 5401.47455950
0.01700000 1627191.91909447 4393.41837864
0.01800000 1624848.70660652 6946.22853331
0.01900000 1622375.05111611 5840.55044756
0.02000000 1619771.61426714 5102.28081575
0.02100000 1617039.97343204 5869.85536969
0.02200000 1614178.35040564 8353.37334286
0.02300000 1611189.72834000 8700.42492907
0.02400000 1608073.83921197 9648.44347522
0.02500000 1604832.00485143 6884.72961524
0.02600000 1601464.46440406 6485.93137749
0.02700000 1597972.21193128 11409.52211576
0.02800000 1594355.02759228 9016.07809451
0.02900000 1590615.65358160 10736.65615464
0.03000000 1586754.36376662 9591.93056986
0.03100000 1582771.22734860 9876.49291310
0.03200000 1578667.38423945 9377.28469428
0.03300000 1574445.49105408 8832.63961200
0.03400000 1570103.55925986 13188.87050632
0.03500000 1565645.06311342 11836.27722371
0.03600000 1561069.63866803 12995.90534250
0.03700000 1556379.05323304 9758.49711508
0.03800000 1551574.71054947 10892.05497214
0.03900000 1546657.48261759 9279.94532546
0.04000000 1541626.80465839 11377.20634559
0.04100000 1536486.31901175 9679.86425860
0.04200000 1531236.47672356 13827.06602629
0.04300000 1525877.06193975 12084.94689152
0.04400000 1520412.01906502 12315.33792638
0.04500000 1514840.69559766 13588.12167088
0.04600000 1509163.51123434 12767.52389856
0.04700000 1503383.76415694 12989.23632642
0.04800000 1497501.52435570 13207.96405936
0.04900000 1491519.64177582 15660.95696762
0.05000000 1485437.21489918 13636.31426776
0.05100000 1479258.17580997 16153.50003234
0.05200000 1472980.22303447 11710.19331883
0.05300000 1466609.00028853 14255.44014736
0.05400000 1460142.80765662 13250.79659742
0.05500000 1453585.57940462 17094.16721123
0.05600000 1446935.66637408 17319.82073471
0.05700000 1440198.20196362 13782.69743615
0.05800000 1433371.82059858 13953.87532507
0.05900000 1426458.32036998 14121.93803124
0.06000000 1419460.44338858 16884.48276293
0.06100000 1412379.93655747 17075.67423095
0.06200000 1405216.94517506 13279.30075263
0.06300000 1397974.71606679 20130.83685259
0.06400000 1390651.35545112 16270.62161970
0.06500000 1383253.17430991 13694.20706625
0.06600000 1375777.94079654 15209.22584712
0.06700000 1368228.71407027 16747.12024397
0.06800000 1360608.06560535 19715.21179347
0.06900000 1352917.17012528 18467.32023683
0.07000000 1345155.32193907 15758.49533446
0.07100000 1337327.38346105 15887.45005965
0.07200000 1329432.19424317 14557.28320892
0.07300000 1321474.56629934 14668.36837322
0.07400000 1313453.80515907 17731.62720063
0.07500000 1305372.37674802 19345.61953018
0.07600000 1297230.05133378 20976.21091344
0.07700000 1289032.54737968 18098.01781380
0.07800000 1280778.26503828 18212.66778295
0.07900000 1272468.73291040 18323.55061335
0.08000000 1264108.49470512 16894.81082429
0.08100000 1255696.77889905 16989.57821562
0.08200000 1247235.44283490 17080.89019115
0.08300000 1238726.77202075 21851.14128396
0.08400000 1230171.86120974 17253.16116331
0.08500000 1221574.56058101 15758.31257127
0.08600000 1212933.63990888 22160.29864159
0.08700000 1204253.12994178 20664.98468018
0.08800000 1195531.32956464 20748.44719902
0.08900000 1186774.59358429 19225.74931909
0.09000000 1177981.23506075 16079.44461392
0.09100000 1169154.27707683 20974.62871617
0.09200000 1160294.39759822 16186.10760703
0.09300000 1151405.12157321 19481.77557251
0.09400000 1142484.69314372 21164.52993517
0.09500000 1133537.56009900 19587.52995918
0.09600000 1124564.76954558 17998.65998265
0.09700000 1115568.90649739 18038.75006611
0.09800000 1106550.89461545 18075.50971341
0.09900000 1097512.87475073 18108.96328492
0.10000000 1088454.47150613 16490.08601880
0.10100000 1079378.01051693 19817.38120514
0.10200000 1070286.45506595 23150.29711198
0.10300000 1061180.16224867 24831.61696472
0.10400000 1052061.99703178 26511.96357246
0.10500000 1042934.32182364 19899.18779664
0.10600001 1033793.75900539 23229.34685787
0.10700001 1024648.12834906 19919.16055245
0.10800001 1015494.20964680 18263.66422002
0.10900001 1006336.34500805 23246.37066379
0.11000001 997174.78188112 18263.25698980
0.11100001 988011.48594827 18258.45311981
0.11200001 978849.06032300 19909.79082427
0.11300001 969686.18872174 21556.12499016
0.11400001 960527.21824860 16569.09529493
0.11500001 951372.38327885 16553.88024854
0.11600001 942222.93641864 28111.22263185
0.11700001 933081.69648070 16515.54680551
0.11800001 923946.63803082 18141.69309218
0.11900001 914822.71557318 24700.21448390
0.12000001 905709.50521759 19726.35395285
0.12100001 896610.38014579 22971.15902146
0.12200001 887524.20681777 16374.82238723
0.12300001 878453.85507672 22874.93946394
0.12400001 869399.54181354 16301.24217708
0.12500001 860363.60843767 21139.13485540
0.12600001 851348.25122200 24327.27742505
0.12700001 842353.19791535 17790.50037837
0.12800001 833378.99543623 16125.88432169
0.12900001 824428.59207004 17683.99413339
0.13000001 815502.34080490 16024.62175213
0.13100001 806600.90968570 15970.69876460
0.13200001 797727.24180666 20689.05699154
0.13300001 788882.43406542 23784.80650836
0.13400001 780065.23851919 17375.95400721
0.13500001 771279.41399053 23601.15118086
0.13600001 762523.69601526 25071.78030713
0.13700001 753801.50193151 18724.43019090
0.13800001 745111.27156218 23303.35611699
0.13900001 736458.15302344 18558.74633139
0.14000001 727839.29597107 20011.94238650
0.14100001 719257.32764700 16852.19998157
0.14200001 710712.26612790 16769.25671021
0.14300001 702208.28770105 16684.46970274
0.14400001 693739.99701718 18106.61477624
0.14500001 685316.15518850 18010.10940793
0.14600001 676931.11777268 22389.49777654
0.14700001 668591.56867775 25232.64699229
0.14800001 660292.82277554 19184.80887086
0.14900001 652037.97552993 20539.19719825
0.15000001 643828.89671057 29165.45039710
0.15100001 635665.70698835 18841.13244415
0.15200001 627549.80010083 20163.17602868
0.15300001 619481.36824391 20034.02839439
0.15400001 611459.17978238 18481.35458108
0.15500001 603487.84707304 16945.93954554
0.15600001 595563.74938396 22440.84313588
0.15700001 587694.08714103 20892.52578392
0.15800001 579870.64940363 16595.89876924
0.15900001 572102.02202592 17849.58392972
0.16000001 564382.98603036 14992.83473159
0.16100001 556720.30817213 17586.79536533
0.16200001 549108.82806753 25508.85181205
0.16300001 541552.73638967 14654.41773851
0.16400001 534050.77358191 14539.53299717
0.16500001 526604.08600260 14423.68659657
0.16600001 519213.20509968 13006.29140181
0.16700001 511877.77441615 15479.18462919
0.16800001 504598.32067258 17908.19524623
0.16900001 497377.94468996 12683.13818847
0.17000001 490214.23898553 13831.39540609
0.17100001 483108.67948552 19942.72723088
0.17200001 476061.76652058 17295.32479443
0.17300001 469073.23920527 19588.49939427
0.17400001 462144.87632596 13344.43393412
0.17500001 455275.40262635 13221.19831667
0.17600001 448463.76877079 15478.72771017
0.17700001 441715.08604141 14152.55202520
0.17800001 435025.40086891 11680.43256502
0.17900001 428396.57738767 13880.04976296
0.18000001 421829.24269726 14888.46382426
0.18100001 415324.20596727 17007.52703774
0.18200001 408877.76487343 16835.54276394
0.18300001 402495.33291923 13330.64605602
0.18400001 396173.30914727 15391.33378747
0.18500001 389914.16551541 11966.46630499
0.18600001 383717.02320578 16144.89451412
0.18700001 377581.50869848 11712.57895319
0.18800001 371508.11941394 11585.48125129
0.18900001 365499.13532755 12500.07101880
0.19000001 359548.44293433 12361.27605214
0.19100001 353665.62013989 16296.91254608
0.19200001 347841.44171125 12084.01225603
0.19300001 342082.64336238 10950.06593145
0.19400001 336385.42768050 13774.98391444
0.19500001 330751.59114582 10696.50696312
0.19600001 325178.99319712 12491.75161398
0.19700001 319670.31649178 13291.89238787
0.19800001 314223.94364250 12193.46070929
0.19900001 308841.14292517 9265.23472563
0.20000001 303518.96907462 11896.42655512
0.20100001 298260.99109147 10844.77014863
0.20200001 293064.03671020 9816.18037355
0.20300001 287930.36740455 14097.07145442
0.20400001 282858.69514649 12177.06740161
0.20500001 277848.18991516 10302.61136903
0.20600001 272900.50343172 10168.27323850
0.20700001 268013.92045920 12543.05207039
0.20800001 263188.99409842 9901.17042601
0.20900001 258427.61302381 11396.65827308
0.21000001 253724.91826474 10439.51225550
0.21100001 249083.53594611 11089.19954454
0.21200001 244502.94848729 7811.86957347
0.21300001 239982.67155718 7703.44412117
0.21400001 235523.68191048 9114.76692085
0.21500001 231125.29078683 10483.84368574
0.21600001 226785.33523836 8120.04931211
0.21700001 222505.65641935 8003.52883981
0.21800001 218285.29165059 11473.07547161
0.21900001 214122.80259002 9185.86866543
0.22000001 210018.88813906 9050.76441230
0.22100001 205975.59531044 9602.58270742
0.22200001 201989.47159946 8107.85777338
0.22300001 198060.70875815 6654.84012895
0.22400001 194188.08905865 7209.23314720
0.22500001 190375.70106429 9680.60485689
0.22600001 186617.83726379 6989.77142525
0.22700001 182917.88504585 7506.95035728
0.22800001 179273.15287988 9852.85294822
0.22900001 175683.75031438 6061.08967248
0.23000001 172149.92870490 7157.99437406
0.23100001 168672.53037814 8217.72606866
0.23200001 165247.86604113 6352.95451041
0.23300001 161878.62153918 6818.32786170
0.23400001 158563.20376698 6707.22383656
0.23500001 155299.80789147 10445.46557281
0.23600001 152090.58140183 5947.50246702
0.23700001 148933.61484347 5848.62333153
0.23800001 145828.62782772 6273.54786588
0.23900001 142775.86583059 5653.92455432
0.24000001 139774.01304742 5052.83081067
0.24100001 136824.39456630 7450.08863653
0.24200001 133924.47159854 7810.47555308
0.24300001 131074.71213585 6716.26856754
0.24400001 128274.01399211 5185.47726092
0.24500001 125522.98572457 5094.97823158
0.24600001 122820.97151288 5460.62065178
0.24700001 120167.48890764 4470.23079883
0.24800001 117561.00881923 5269.08466454
0.24900001 115001.97182068 6900.11863567
0.25000001 112490.35284664 5505.84058055
0.25100001 110024.57886701 4990.71513351
0.25200001 107605.89152895 6125.46566508
0.25300001 105232.94103981 4410.31276763
0.25400001 102904.19266830 4723.30266694
0.25500001 100620.20827371 4636.57941662
0.25600001 98380.77537437  5309.61069817
0.25700001 96184.83380771  4094.58856892
0.25800001 94032.00346237  4018.45785809
0.25900001 91922.38075791  3943.47032110
0.26000001 89855.58857797  3517.84645928
0.26100001 87828.47202507  4141.99093669
0.26200001 85845.13999907  4741.22730649
0.26300001 83901.21666820  4319.23483845
0.26400001 81997.82714805  4563.17929671
0.26500001 80135.15281220  4156.61057305
0.26600001 78310.90645117  4704.52792767
0.26700001 76526.84275097  3691.65506900
0.26800001 74781.01984751  3922.63858172
0.26900001 73072.81195450  2959.44902420
0.27000001 71402.79530530  3773.28089647
0.27100001 69769.58622531  3985.23895378
0.27200001 68173.54919631  3070.87766887
0.27300001 66613.02671811  2737.79552768
0.27400001 65087.34492626  2684.85310527
0.27500001 63598.98692397  3159.59781991
0.27600001 62143.38644209  3356.67517753
0.27700001 60724.04792990  3291.85079407
0.27800001 59337.13395661  2731.58509097
0.27900001 57984.57058650  2435.35207989
0.28000001 56664.32185759  3821.44204694
0.28100001 55376.53121141  3279.39833355
0.28200001 54121.19135086  2756.93361790
0.28300001 52897.38245931  2929.45717925
0.28400001 51704.85830951  2431.42107709
0.28500001 50543.13890923  2168.30076183
0.28600001 49410.99433979  2765.28642911
0.28700001 48309.17590410  3339.13039654
0.28800001 47235.92820400  2866.74861839
0.28900001 46193.08111353  3014.09868533
0.29000001 45177.44576646  2760.79384147
0.29100001 44191.06899452  2516.23958765
0.29200001 43231.52207323  2470.03313057
0.29300001 42299.26214813  1865.39754903
0.29400001 41393.65420026  1831.66928507
0.29500001 40515.42358495  1798.88489233
0.29600001 39661.96468182  1943.63467124
0.29700001 38833.89259314  1735.87508109
0.29800001 38031.53124425  2217.42853417
0.29900001 37253.72730693  2011.70136981
0.30000001 36499.98872545  2471.96185345
0.30100001 35770.90220796  1782.46414140
0.30200001 35064.10623018  1593.66370361
0.30300001 34381.00163548  1724.55112368
0.30400001 33721.19700188  1697.01931946
0.30500001 33082.38809470  1822.17802252
0.30600001 32465.94847263  1943.57409733
0.30700001 31871.36563548  1619.70287828
0.30800001 31297.64114744  1595.71030945
0.30900001 30744.51373069  1858.50594301
0.31000001 30212.61729795  1691.30239641
0.31100001 29699.07056575  1945.88319560
0.31200001 29206.38831480  1508.36399593
0.31300001 28732.08852170  1353.28143344
0.31400001 28278.22381552  1736.98998011
0.31500001 27841.97283701  1979.56436244
0.31600002 27423.83606008  2347.20623952
0.31700002 27023.14063686  2062.40619106
0.31800002 26640.42762873  1274.74452239
0.31900002 26274.96690021  1639.55801220
0.32000002 25925.92382705  1373.16662052
0.32100002 25593.74225496  1607.03115228
0.32200002 25277.86894311  1714.59793160
0.32300002 24976.97045698  1578.04506819
0.32400002 24691.96720285  1685.22684139
0.32500002 24421.62252963  1194.21739825
0.32600002 24166.62551524  1896.59686024
0.32700002 23925.81716464  2001.15544241
0.32800002 23699.95355789  1286.55203981
0.32900002 23486.64025640  1860.14199639
0.33000002 23288.53337691  1271.90331061
0.33100002 23101.42870890  1265.49632460
0.33200002 22929.54242299  1603.46297757
0.33300002 22769.19144793  1254.81020012
0.33400002 22621.78744931  1250.41936047
0.33500002 22485.97058289  1133.29297105
0.33600002 22362.09567679  1130.40398999
0.33700002 22248.86663483  1128.01759181
0.33800002 22148.31236949  1576.73843225
0.33900002 22057.30441044  1237.41483603
0.34000002 21977.89313918  1798.67085969
0.34100002 21908.45868405  1123.90398372
0.34200002 21850.17088025  1236.61047953
0.34300002 21800.38322588  1912.32970714
0.34400002 21761.11541617  1576.59288657
0.34500002 21730.65860910  1917.29609988
0.34600002 21710.69639095  1356.05016080
0.34700002 21697.38615818  1698.90541665
0.34800002 21694.27090996  1249.26464952
0.34900002 21699.13366641  1367.04548573
0.35000002 21712.27637230  1257.46654566
0.35100002 21733.21698312  1262.26530216
0.35200002 21761.28309646  1958.84199070
0.35300002 21797.10187384  1388.91139718
0.35400002 21840.56708184  1744.51537829
0.35500002 21890.77804751  1402.76112373
0.35600002 21947.17749477  1645.37997472
0.35700002 22010.35476783  1418.34732842
0.35800002 22080.48451763  1307.93756235
0.35900002 22156.24424519  1316.08097050
0.36000002 22238.74451548  1324.65087981
0.36100002 22325.94051233  1575.98821541
0.36200002 22419.96272356  2197.38065062
0.36300002 22517.30594981  1229.44496309
0.36400002 22620.92029788  1362.34498947
0.36500002 22728.77249159  1996.49547023
0.36600002 22842.14943658  1634.69850186
0.36700002 22959.45949968  1901.04333662
0.36800002 23082.60284788  1916.43319222
0.36900002 23208.96226970  1416.90721368
0.37000002 23338.44647720  2207.93383356
0.37100002 23472.32008698  1309.75552290
0.37200002 23610.27520872  1585.19395260
0.37300002 23751.02556218  1998.64889573
0.37400002 23896.19679527  2822.73838016
0.37500002 24043.43722843  1762.86490110
0.37600002 24194.70472456  1505.03167869
0.37700002 24347.60070118  1518.55992767
0.37800002 24504.27487010  1950.29532930
0.37900002 24663.12586380  1968.11753717
0.38000002 24824.46840127  1844.33396724
0.38100002 24987.55571742  2004.50181461
0.38200002 25153.06620734  1734.05246648
0.38300002 25320.28999785  1604.29365027
0.38400002 25490.00288060  1913.66205692
0.38500002 25660.17211507  1485.72403585
0.38600002 25833.28524203  1649.58450728
0.38700002 26006.62331254  1816.30265820
0.38800002 26181.32579323  1833.21651889
0.38900002 26357.31603790  1850.28367352
0.39000002 26534.97782530  1867.53182782
0.39100002 26712.73327945  2198.99230774
0.39200002 26891.73460454  1743.79461305
0.39300002 27071.05393594  2239.85910878
0.39400002 27251.69712145  1776.12944404
0.39500002 27431.97745603  2607.13526094
0.39600002 27612.57997769  1973.19505869
0.39700002 27793.11527464  1991.09887261
0.39800002 27974.71128807  2176.57251489
0.39900002 28155.36864427  1858.25441856
0.40000002 28336.20896680  2045.30766013
0.40100002 28516.39802612  2579.30832367
0.40200002 28697.59635796  2255.20071664
0.40300002 28877.22794680  1924.95610614
0.40400002 29056.38149595  1941.69278546
0.40500002 29235.13917512  2136.50407215
0.40600002 29413.39034908  1975.25632248
0.40700002 29590.77371264  2173.14652442
0.40800002 29767.60853396  2374.11573111
0.40900002 29942.59490665  2209.76360881
0.41000002 30117.48817232  2042.41755718
0.41100002 30290.96116012  2246.37778607
0.41200002 30462.72778319  2453.31589826
0.41300002 30633.63334361  2473.05333701
0.41400002 30803.09960932  2684.49025815
0.41500002 30971.71013314  2512.42524505
0.41600002 31137.50551344  2142.41616837
0.41700002 31302.72630111  2158.94913529
0.41800002 31467.11988662  2373.25029430
0.41900002 31627.91655407  1992.55883732
0.42000002 31787.72097052  2810.35254417
0.42100002 31946.27465478  2426.63913776
0.42200002 32102.88669741  2851.69956046
0.42300002 32257.00475756  2667.00927973
0.42400002 32409.21323184  2892.52241801
0.42500002 32559.84065214  2496.68869951
0.42600002 32707.11396359  2723.35797323
0.42700002 32853.49084053  2531.03305429
0.42800002 32997.12253480  2123.36493573
0.42900002 33139.11318895  2137.47290198
0.43000002 33278.83931846  2151.47706389
0.43100002 33414.80019662  2814.86290195
0.43200002 33549.51099658  2614.84901099
0.43300002 33681.26255269  2411.91532569
0.43400002 33810.91553443  2868.01104612
0.43500002 33937.84378348  3107.34912407
0.43600002 34063.03070896  2679.39812254
0.43700002 34184.68588709  2919.71415998
0.43800002 34303.07447670  2484.74331747
0.43900002 34419.94541328  2726.05980592
0.44000002 34533.39399648  2512.82253324
0.44100002 34644.79659222  2296.95012292
0.44200002 34753.24228472  2540.28836519
0.44300002 34859.19244977  3018.10902533
0.44400002 34961.72557719  2567.06482216
0.44500002 35060.75000578  3049.23357251
0.44600002 35157.70995550  3064.52193350
0.44700002 35251.94877593  2605.82417701
0.44800002 35342.43693378  2380.31324030
0.44900002 35431.20292023  3109.08820360
0.45000002 35516.70893946  2402.70547362
0.45100002 35598.14956873  2654.91012066
0.45200002 35677.49441261  2909.14303228
0.45300002 35753.36108937  3408.72560781
0.45400002 35826.77070652  3423.24810325
0.45500002 35897.02268379  3437.49905511
0.45600002 35963.81697288  3451.44767846
0.45700002 36027.80197176  3465.15415787
0.45800002 36088.04624666  3230.06073239
0.45900002 36145.52259792  3741.06176619
0.46000002 36200.76505527  3003.93962666
0.46100002 36251.62010422  2512.23739229
0.46200002 36300.19349617  3529.46798091
0.46300002 36345.17548317  3035.54920022
0.46400002 36386.66869142  2791.76728767
0.46500002 36425.92375594  3310.02384858
0.46600002 36461.37197429  2809.53115064
0.46700002 36493.61166715  3074.22199255
0.46800002 36523.39169355  3083.30487291
0.46900002 36549.31726738  3092.07238737
0.47000002 36571.88344614  4392.46626949
0.47100002 36591.80518841  2849.76992314
0.47200002 36608.27508096  3116.82868812
0.47300002 36622.14351922  3384.98488592
0.47400002 36631.64031618  2871.00494586
0.47500002 36639.08413912  2877.63380468
0.47600002 36643.66952661  3932.78201835
0.47700002 36644.05189946  2627.37864572
