# SAXS profile: number of points = 501, q_min = 0, q_max = 0.5, delta_q = 0.001
#    q    intensity    error
0.00000000 1682732.95097189 353.37391970
0.00100000 1682663.98386709 504.79920715
0.00200000 1682457.03070124 757.10568779
0.00300000 1682112.25220494 1110.19412600
0.00400000 1681629.52287486 1765.71106611
0.00500000 1681009.31532014 1815.49013241
0.00600000 1680251.32542867 2293.54315259
0.00700000 1679356.23172741 2015.22756183
0.00800000 1678323.47263339 2265.73678371
0.00900000 1677154.46305411 2767.30498234
0.01000000 1675848.24387241 3594.69463832
0.01100000 1674406.15033031 3315.32432200
0.01200000 1672827.63032646 4240.61822880
0.01300000 1671114.02847926 3860.27357604
0.01400000 1669264.66210057 4507.01478747
0.01500000 1667281.22088867 6002.21266247
0.01600000 1665162.65205235 5520.01443832
0.01700000 1662911.01408295 5836.81792126
0.01800000 1660525.85999625 5678.99869673
0.01900000 1658007.92182333 5968.82878789
0.02000000 1655357.88819674 5735.81534207
0.02100000 1652577.34811548 6544.20659524
0.02200000 1649664.52272374 5691.34286197
0.02300000 1646622.27270241 5927.84045155
0.02400000 1643450.42159120 7395.52723438
0.02500000 1640150.47130760 7036.24584326
0.02600000 1636722.44709690 7954.47145671
0.02700000 1633167.46731949 8231.16441229
0.02800000 1629485.36601687 8505.91400069
0.02900000 1625678.65585696 8047.10971597
0.03000000 1621747.88276144 7541.12800147
0.03100000 1617692.92694684 8541.41904730
0.03200000 1613515.15756419 8785.59043758
0.03300000 1609217.07963008 10669.10972980
0.03400000 1604796.89041645 9267.70246977
0.03500000 1600257.80121007 14690.36729348
0.03600000 1595599.71102703 10626.69456654
0.03700000 1590824.20140205 10881.23804082
0.03800000 1585932.78660359 11133.24867720
0.03900000 1580926.54487047 14228.33956275
0.04000000 1575804.62417401 12598.55855408
0.04100000 1570570.83706765 9894.59673230
0.04200000 1565225.55807681 13124.41691335
0.04300000 1559768.60470995 14412.26257651
0.04400000 1554203.99293026 10490.87743950
0.04500000 1548531.10189716 11753.35160952
0.04600000 1542750.39513104 15226.94710780
0.04700000 1536865.13101647 13278.51534954
0.04800000 1530875.37560633 13502.32144109
0.04900000 1524783.90334510 11435.87980740
0.05000000 1518590.28283384 16264.10268651
0.05100000 1512297.76033360 14155.10769612
0.05200000 1505904.65514738 13169.13682296
0.05300000 1499416.14130718 14574.32557293
0.05400000 1492831.05605585 22168.54221623
0.05500000 1486152.97734254 16228.79126964
0.05600000 1479380.38327556 18973.05430087
0.05700000 1472518.40674423 19216.36610500
0.05800000 1465565.73054522 14267.28305303
0.05900000 1458524.06373488 13126.71718671
0.06000000 1451396.51621765 14608.30661821
0.06100000 1444184.53385731 20146.37518878
0.06200000 1436888.50513973 14936.45670911
0.06300000 1429511.29642104 13723.30908728
0.06400000 1422051.42835017 22184.00331974
0.06500000 1414514.98178941 16804.43876973
0.06600000 1406900.05133729 15553.28079525
0.06700000 1399209.37906969 17126.32360131
0.06800000 1391446.01730686 15841.61364857
0.06900000 1383610.61072238 18886.28572060
0.07000000 1375702.73888464 17581.48182626
0.07100000 1367727.33913395 16248.60154996
0.07200000 1359683.08615970 16377.38354002
0.07300000 1351575.26685135 15002.48616500
0.07400000 1343402.58731252 18135.93577864
0.07500000 1335167.87850213 19787.18888688
0.07600000 1326870.99113832 16857.89673272
0.07700000 1318517.68094185 21597.32062649
0.07800000 1310105.90491865 23287.13355201
0.07900000 1301637.78285703 18743.58495229
0.08000000 1293117.74893401 18853.65766390
0.08100000 1284545.10212455 18959.88659692
0.08200000 1275921.23076362 22239.30809579
0.08300000 1267249.35677132 15967.34264470
0.08400000 1258529.74490196 22464.75700097
0.08500000 1249766.46532392 19346.38579143
0.08600000 1240958.75770744 22672.31756781
0.08700000 1232109.95590955 21143.00783624
0.08800000 1223219.30357650 19595.97416360
0.08900000 1214292.35648505 19671.53709902
0.09000000 1205327.76080155 18097.99717860
0.09100000 1196328.56103032 16509.33491785
0.09200000 1187295.54027068 34781.82448651
0.09300000 1178232.19704708 16613.07475905
0.09400000 1169136.97347106 19992.24318594
0.09500000 1160013.87833090 18374.62069642
0.09600000 1150864.10319017 23443.10288399
0.09700000 1141690.82709730 16782.85594734
0.09800000 1132494.72106359 25226.32109777
0.09900000 1123277.32568369 21903.90888081
0.10000000 1114038.98956127 28692.07552546
0.10100000 1104781.94388839 25354.74680472
0.10200000 1095509.04351028 20310.73862202
0.10300000 1086221.09753511 23723.06988612
0.10400000 1076920.08234822 22049.93972342
0.10500000 1067609.20581883 16974.98717118
0.10600001 1058284.97829210 23779.66458114
0.10700001 1048954.52892854 22090.98341878
0.10800001 1039615.92640624 18697.49331635
0.10900001 1030272.66497212 18699.44974935
0.11000001 1020925.19072693 20398.08627085
0.11100001 1011575.67668257 20393.36660191
0.11200001 1002226.23518003 20385.28258324
0.11300001 992876.10121357 22071.63676913
0.11400001 983529.49677639 20359.06154187
0.11500001 974186.97109382 20341.02491426
0.11600001 964849.32283870 22013.03833719
0.11700001 955519.48352109 18603.96522031
0.11800001 946195.70869930 21956.47245448
0.11900001 936882.82144442 16863.89158032
0.12000001 927580.20701721 23569.81417056
0.12100001 918292.00279336 25207.11666414
0.12200001 909016.01031727 20125.61541657
0.12300001 899755.92732632 25103.19155513
0.12400001 890511.78483808 25045.64512866
0.12500001 881285.81491975 26650.08429894
0.12600001 872080.51062837 19935.76141241
0.12700001 862895.41871637 21537.87066616
0.12800001 853730.94397591 19823.63345339
0.12900001 844590.60183628 16469.51751205
0.13000001 835474.54559617 18058.78315426
0.13100001 826383.08548845 22907.34020954
0.13200001 817319.74301916 24458.29446282
0.13300001 808285.08198165 16246.53091374
0.13400001 799278.26710774 16185.38567200
0.13500001 790302.94037011 17734.39881805
0.13600001 781358.09480406 24085.36440798
0.13700001 772446.81279690 17588.61475675
0.13800001 763567.92999398 17512.43130022
0.13900001 754726.31911841 20604.02948358
0.14000001 745918.99126312 17353.80615015
0.14100001 737149.45722159 18841.54101521
0.14200001 728416.77943334 20311.90285252
0.14300001 719725.78179723 20209.90090612
0.14400001 711070.41487436 17012.36047834
0.14500001 702460.06760509 16922.26382687
0.14600001 693889.13645075 15300.25618052
0.14700001 685363.73813223 16736.58327476
0.14800001 676880.20028820 15128.27319017
0.14900001 668440.79239449 18047.90224617
0.15000001 660047.55687788 25415.13237674
0.15100001 651700.52116507 19316.40435878
0.15200001 643401.86871356 16242.68094212
0.15300001 635150.95178274 22007.98151781
0.15400001 626946.76848910 17491.81566630
0.15500001 618794.04767682 18823.71581868
0.15600001 610689.89307985 20134.44672509
0.15700001 602639.92479386 18567.33695922
0.15800001 594637.02884571 18436.72194955
0.15900001 586689.81785369 15488.61192241
0.16000001 578793.08465159 20966.78048119
0.16100001 570953.26874593 19423.83111962
0.16200001 563165.44380703 20654.09362662
0.16300001 555433.59085301 17762.76707402
0.16400001 547756.74246402 14912.67801760
0.16500001 540136.24841073 16139.27186447
0.16600001 532571.90044815 17343.20475692
0.16700001 525064.38480679 19847.43468279
0.16800001 517613.00053501 17057.93723805
0.16900001 510222.31470794 14311.73660333
0.17000001 502888.89238716 12899.10069882
0.17100001 495614.44815099 19180.28004916
0.17200001 488399.51019515 17743.55504329
0.17300001 481244.27709165 16328.61909283
0.17400001 474149.80714532 16180.36293297
0.17500001 467115.20527059 12331.84200155
0.17600001 460139.63721572 14660.04953407
0.17700001 453227.69749344 16941.65213247
0.17800001 446376.27139830 17977.80517970
0.17900001 439586.30269688 11868.83073342
0.18000001 432859.11490867 14102.55062986
0.18100001 426194.91463304 13962.14606290
0.18200001 419590.61654189 13821.31556178
0.18300001 413051.58599627 15960.31403685
0.18400001 406573.74802555 13538.90644884
0.18500001 400160.11608818 13397.36131955
0.18600001 393809.44680543 15464.89770666
0.18700001 387521.62967383 13113.73256772
0.18800001 381296.75480192 12971.71621122
0.18900001 375137.69782244 17106.27982893
0.19000001 369038.38552349 15859.42536721
0.19100001 363007.63292111 10454.62032211
0.19200001 357037.43728091 14470.72801676
0.19300001 351133.08231876 14305.16244962
0.19400001 345291.75249021 12119.74108511
0.19500001 339514.82246606 11978.08350263
0.19600001 333800.78247002 14795.72038218
0.19700001 328151.38220278 14619.14476800
0.19800001 322565.92594864 10591.45267906
0.19900001 317045.10893358 9511.35371751
0.20000001 311585.95444706 12212.61206173
0.20100001 306192.56687626 10205.39873632
0.20200001 300861.54966858 13741.85193060
0.20300001 295594.84453091 12663.28373823
0.20400001 290391.61920189 8929.54271252
0.20500001 285250.82634687 10577.10114089
0.20600001 280173.77735163 11309.21505736
0.20700001 275159.64581350 10301.97762622
0.20800001 270208.09875810 9318.12672614
0.20900001 265321.61158374 10029.15739196
0.21000001 260495.09209301 11542.53807628
0.21100001 255731.13639991 11385.15073074
0.21200001 251029.37080112 12030.58316438
0.21300001 246389.24785339 10281.82379900
0.21400001 241811.85595519 8578.27599556
0.21500001 237296.23877733 9226.07819985
0.21600001 232840.15980350 9852.63182790
0.21700001 228445.95461545 9711.23798985
0.21800001 224112.24031691 8834.50493099
0.21900001 219837.92388278 7254.65183114
0.22000001 215623.49457694 9292.29493816
0.22100001 211471.27203081 7041.99369160
0.22200001 207377.11407284 9017.79423186
0.22300001 203342.15082734 6832.29659087
0.22400001 199364.16275264 7401.39489218
0.22500001 195447.87777694 9275.95671793
0.22600001 191587.91791164 9785.35337007
0.22700001 187786.73962138 6422.30679876
0.22800001 184042.27069920 8850.59321647
0.22900001 180354.37748059 8711.11684427
0.23000001 176723.51403639 6735.81705605
0.23100001 173150.50366324 11448.71184365
0.23200001 169631.54493800 6521.48505357
0.23300001 166169.28990351 8748.81352719
0.23400001 162762.15803553 7458.57624473
0.23500001 159408.44304440 6771.67098080
0.23600001 156110.13956211 8324.57358588
0.23700001 152865.65156508 6548.76482279
0.23800001 149674.50610280 8585.33007613
0.23900001 146536.73336392 7912.98397593
0.24000001 143451.22611943 6222.91448341
0.24100001 140419.08140198 7136.09805439
0.24200001 137438.26196151 5510.58737401
0.24300001 134508.88617675 5907.63056033
0.24400001 131629.76190433 5804.87277457
0.24500001 128801.64171950 5228.05888470
0.24600001 126023.48515377 6069.92144957
0.24700001 123295.84677168 5045.26628857
0.24800001 120616.14614855 6307.01858047
0.24900001 117985.28050218 5309.33787377
0.25000001 115402.95271090 4779.41351263
0.25100001 112867.87343947 4693.04639964
0.25200001 110381.11486062 5026.75620857
0.25300001 107941.21094241 5346.32843091
0.25400001 105547.02863916 6459.47845832
0.25500001 103198.57878271 3962.82561275
0.25600001 100896.26114125 4278.50615612
0.25700001 98638.53251925  4580.77366693
0.25800001 96424.99596839  4120.72239768
0.25900001 94256.04343217  5881.57738845
0.26000001 92130.94778346  3967.61945402
0.26100001 90046.79181528  3538.83908578
0.26200001 88007.82899149  4860.67262519
0.26300001 86009.47179514  4087.17029310
0.26400001 84052.49059015  4343.41265677
0.26500001 82137.54617735  4260.47472182
0.26600001 80262.37947901  3535.95929527
0.26700001 78428.28998746  5359.78959137
0.26800001 76633.81420343  3710.60945932
0.26900001 74878.07274503  4245.58692555
0.27000001 73161.41665085  3271.41290035
0.27100001 71482.92529539  6416.30767815
0.27200001 69842.57385362  4004.07494851
0.27300001 68238.96522341  3365.54592409
0.27400001 66671.24768475  4400.30255544
0.27500001 65141.91118443  4045.31287600
0.27600001 63646.48928432  3173.41410590
0.27700001 62188.05485836  4408.51141755
0.27800001 60763.62094744  2797.25342270
0.27900001 59374.04064248  2992.45179001
0.28000001 58018.20225939  3423.65427736
0.28100001 56695.70051031  2398.22824509
0.28200001 55406.66272869  3763.22071064
0.28300001 54150.18970923  2998.83764803
0.28400001 52925.85282654  2488.83834697
0.28500001 51733.63709583  2663.24776375
0.28600001 50571.52953327  2177.10444945
0.28700001 49440.95772329  2563.01936969
0.28800001 48339.84762960  2095.53249393
0.28900001 47270.37461419  2878.76595027
0.29000001 46228.51785612  2017.87489993
0.29100001 45217.02417759  2178.55632800
0.29200001 44233.43592762  2138.46556115
0.29300001 43277.87651100  2671.97622227
0.29400001 42349.79782460  1873.97864245
0.29500001 41449.95047646  2760.56683241
0.29600001 40575.89998543  2349.95335890
0.29700001 39727.89658565  2131.00447373
0.29800001 38906.51282920  2442.94005619
0.29900001 38110.52742176  1886.47119668
0.30000001 37339.38008505  2528.80963597
0.30100001 36593.85477959  1823.47186999
0.30200001 35871.23574092  2282.48683825
0.30300001 35172.99571107  1603.88868035
0.30400001 34498.95296814  2051.82532492
0.30500001 33846.64194329  2019.62922037
0.30600001 33217.31345868  1529.65735719
0.30700001 32610.76358047  1807.94081850
0.30800001 32025.57007137  1929.70081601
0.30900001 31461.86830736  1755.57233467
0.31000001 30919.96290540  1586.65797161
0.31100001 30397.12527515  1564.84408325
0.31200001 29895.65730091  1965.04164743
0.31300001 29413.58909584  2493.68420161
0.31400001 28952.37262566  1504.79963847
0.31500001 28509.23714024  1756.73927576
0.31600002 28085.17438453  1468.99511574
0.31700002 27678.98599274  1452.31646380
0.31800002 27291.33615192  1697.65764571
0.31900002 26921.49954017  1421.45524303
0.32000002 26568.80066850  1535.14537531
0.32100002 26233.48475854  1393.78511122
0.32200002 25914.85774426  1506.68990059
0.32300002 25611.85490891  1991.57793202
0.32400002 25325.14780997  1234.60101420
0.32500002 25053.72145219  1470.15244443
0.32600002 24798.04955230  1216.34438814
0.32700002 24557.19717225  1570.67840551
0.32800002 24331.64587534  1560.99681505
0.32900002 24119.21612352  1552.07163104
0.33000002 23922.37900722  1900.39387832
0.33100002 23736.85233792  1300.30483265
0.33200002 23567.16957086  1294.89819339
0.33300002 23409.26124665  1641.92566159
0.33400002 23264.73165766  1169.05282116
0.33500002 23132.34088417  1399.04404293
0.33600002 23011.97725305  1744.88325784
0.33700002 22902.92607852  1393.41408860
0.33800002 22806.66507598  1275.69087144
0.33900002 22720.61375002  1506.37676296
0.34000002 22646.06584097  1390.01558715
0.34100002 22582.19363951  1621.85322400
0.34200002 22529.64914726  1275.06555388
0.34300002 22485.83320822  1392.32285819
0.34400002 22452.99110887  1278.13657940
0.34500002 22429.01831140  1164.06610549
0.34600002 22415.91455531  1633.44777101
0.34700002 22409.69135884  1403.74313320
0.34800002 22414.03735402  1290.71240216
0.34900002 22426.41764974  1648.34177532
0.35000002 22447.37933957  1536.41095166
0.35100002 22476.49209128  2017.49002567
0.35200002 22512.63698308  1311.24860318
0.35300002 22556.95895915  1796.66186619
0.35400002 22609.07668294  1444.72006847
0.35500002 22667.90313564  1573.60591021
0.35600002 22733.39236135  1217.37321861
0.35700002 22805.71432494  1592.06699243
0.35800002 22885.10354335  1725.30803785
0.35900002 22970.19823181  1240.39076327
0.36000002 23062.12392393  1498.57688356
0.36100002 23159.11216834  2012.06376049
0.36200002 23262.73130355  1266.65577948
0.36300002 23370.13162524  2041.61479549
0.36400002 23483.54834816  1414.29676626
0.36500002 23601.50344945  1684.43938098
0.36600002 23724.88910582  1436.66072785
0.36700002 23852.44314133  1843.31689328
0.36800002 23985.81183824  1593.13769776
0.36900002 24122.40811414  1472.67308513
0.37000002 24262.13028052  2295.31894392
0.37100002 24406.27641001  1634.24434583
0.37200002 24554.55040730  1373.82716037
0.37300002 24705.67187521  1524.58708364
0.37400002 24861.22621572  1678.13284906
0.37500002 25018.79018897  1834.37778355
0.37600002 25180.40646572  1423.95205309
0.37700002 25343.66587388  1724.38310775
0.37800002 25510.45968795  2030.37758275
0.37900002 25679.58391867  1902.85725852
0.38000002 25851.20884225  2068.35531745
0.38100002 26024.41502830  1789.43886212
0.38200002 26200.09744621  2257.79350439
0.38300002 26377.39722040  1671.27196706
0.38400002 26556.98801727  1687.03274372
0.38500002 26737.26598036  1548.08777360
0.38600002 26920.00525579  1562.70637913
0.38700002 27103.14414940  2050.62398349
0.38800002 27287.40818426  2229.10848018
0.38900002 27472.89937328  2250.03056527
0.39000002 27660.05531351  1784.48855309
0.39100002 27847.01395646  2292.36629750
0.39200002 28035.36031375  1817.95302567
0.39300002 28223.60118584  1668.01490911
0.39400002 28413.27000355  1851.83496022
0.39500002 28602.22272406  2208.66374339
0.39600002 28791.51356085  1885.98818516
0.39700002 28980.48413846  1903.14848354
0.39800002 29170.60314756  2269.61888543
0.39900002 29359.57178880  1937.73182987
0.40000002 29548.15263449  1955.05361169
0.40100002 29736.35102756  1972.41225711
0.40200002 29925.25256569  2713.47240496
0.40300002 30112.32108762  2554.72944212
0.40400002 30298.99061121  2760.99565026
0.40500002 30484.80425501  2042.17713380
0.40600002 30670.15467028  2995.86085014
0.40700002 30854.20839771  2454.76093643
0.40800002 31037.51484186  2475.39711350
0.40900002 31218.92585659  3071.94244984
0.41000002 31400.06405642  3097.30246528
0.41100002 31579.52537488  2341.93771277
0.41200002 31756.92215729  1967.34142086
0.41300002 31933.48370140  1983.06943182
0.41400002 32108.12913088  2598.35047303
0.41500002 32281.88683064  2618.70678378
0.41600002 32452.60924068  2029.91080419
0.41700002 32622.49485240  2863.60273383
0.41800002 32791.31592792  2473.12116447
0.41900002 32956.30681453  2283.87217047
0.42000002 33120.10243146  2300.68802442
0.42100002 33282.42163925  2317.45512855
0.42200002 33442.49002984  2758.50392082
0.42300002 33599.80058647  2564.33690227
0.42400002 33755.07103796  3012.64023289
0.42500002 33908.48180149  2166.75208979
0.42600002 34058.15753053  2617.71011184
0.42700002 34206.83425309  2635.29463574
0.42800002 34352.56536171  2873.76399151
0.42900002 34496.25031394  2225.00825069
0.43000002 34637.52462872  2239.31607336
0.43100002 34774.80379232  2929.42961028
0.43200002 34910.37364562  2494.17176330
0.43300002 35042.97529649  2965.68713988
0.43400002 35173.19036776  3213.07109236
0.43500002 35300.20954364  2770.36057627
0.43600002 35425.43290869  2554.35096093
0.43700002 35546.83185788  3036.05505286
0.43800002 35664.69033956  3053.07596120
0.43900002 35780.75298499  2361.52980892
0.44000002 35893.15548240  2849.19881722
0.44100002 36003.30334093  2387.01912462
0.44200002 36110.13933850  3599.27830914
0.44300002 36214.23704323  3135.42879179
0.44400002 36314.73332870  3393.61199039
0.44500002 36411.30097948  3410.28261136
0.44600002 36505.73268623  3182.02234039
0.44700002 36597.21861016  2705.26652787
0.44800002 36684.35409059  2470.69136509
0.44900002 36769.82823578  2730.15987589
0.45000002 36851.81911262  2991.63081734
0.45100002 36929.30600913  3254.94918590
0.45200002 37004.59773744  3520.24754960
0.45300002 37075.88487078  3282.32824317
0.45400002 37144.69333464  3549.17561633
0.45500002 37210.02510390  2545.16583773
0.45600002 37271.86144295  2810.48484530
0.45700002 37330.34242465  3077.51357534
0.45800002 37384.93236798  2831.34798708
0.45900002 37436.52618253  2583.12042902
0.46000002 37485.54757830  2851.33831168
0.46100002 37529.95117683  2600.82573982
0.46200002 37571.87265781  2870.30334773
0.46300002 37610.16860412  2879.43464480
0.46400002 37644.50407984  3675.98599762
0.46500002 37676.58695160  3687.03097383
0.46600002 37704.30927768  2641.18699008
0.46700002 37728.77429330  3178.27209710
0.46800002 37750.59207414  3186.90513395
0.46900002 37768.31026657  2662.66599999
0.47000002 37782.27360333  2669.31775659
0.47100002 37793.44695428  4281.24187390
0.47200002 37801.06089258  4827.57371540
0.47300002 37805.98992584  2956.80661224
0.47400002 37805.93288663  4579.24383794
0.47500002 37803.89377055  4048.79721473
0.47600002 37798.77856102  2974.95300765
0.47700002 37789.05869864  3251.37076454
