# SAXS profile: number of points = 501, q_min = 0, q_max = 0.5, delta_q = 0.001
#    q    intensity    error
0.00000000 1664650.74656091 299.63713438
0.00100000 1664582.35637590 549.31219065
0.00200000 1664377.13015195 973.66065197
0.00300000 1664035.23868319 1098.26329665
0.00400000 1663556.54296847 1621.96769103
0.00500000 1662941.50332312 1945.64163590
0.00600000 1662189.85356980 1745.29941730
0.00700000 1661302.24453659 1993.56277630
0.00800000 1660278.10794450 2689.65064843
0.00900000 1659118.87578366 3235.28194608
0.01000000 1657823.57892358 3008.94992567
0.01100000 1656393.55716309 2981.50853271
0.01200000 1654828.22791776 3226.91518592
0.01300000 1653128.98686246 4513.04233318
0.01400000 1651295.12015348 4458.49702206
0.01500000 1649328.26939709 4354.22682510
0.01600000 1647227.44326901 4620.47318492
0.01700000 1644994.67282519 5329.78297904
0.01800000 1642629.55375810 7958.54054607
0.01900000 1640132.75553934 5904.47818637
0.02000000 1637504.98873659 6705.58323221
0.02100000 1634747.78043113 7552.53508801
0.02200000 1631859.40671692 7881.88129254
0.02300000 1628842.76695725 8209.36791914
0.02400000 1625697.64046239 7925.27635863
0.02500000 1622425.42687320 8225.69728992
0.02600000 1619026.32497402 7868.46829926
0.02700000 1615501.27508821 8820.63736598
0.02800000 1611850.21875423 7712.70365044
0.02900000 1608075.70636177 12301.77971849
0.03000000 1604178.14578080 10443.20020906
0.03100000 1600157.53245413 8448.83216012
0.03200000 1596015.11439411 8690.30269814
0.03300000 1591753.42941925 9741.53143713
0.03400000 1587370.68191649 9167.06611104
0.03500000 1582870.18066103 14530.74892947
0.03600000 1578251.63966569 11387.08610643
0.03700000 1573516.78932786 11659.75994815
0.03800000 1568666.96120035 11012.04257726
0.03900000 1563703.40798578 12196.88714713
0.04000000 1558625.18830748 13419.76349319
0.04100000 1553436.06641447 10765.31243940
0.04200000 1548136.44829430 11982.57666570
0.04300000 1542726.24360861 12218.39241653
0.04400000 1537209.34193054 15564.24530988
0.04500000 1531585.14618064 10567.93799968
0.04600000 1525854.10982698 13984.45356666
0.04700000 1520019.47858323 13132.96890575
0.04800000 1514081.24960768 12241.34747264
0.04900000 1508042.32663785 18096.50876200
0.05000000 1501902.07177857 13787.46166096
0.05100000 1495663.97803425 11666.17957212
0.05200000 1489326.22348981 18944.23044562
0.05300000 1482893.99423261 16816.01867852
0.05400000 1476366.10368157 18270.03138506
0.05500000 1469746.01584752 12345.86710905
0.05600000 1463032.42694040 13759.82061746
0.05700000 1456230.29117107 15203.04494948
0.05800000 1449338.33376263 14109.30933798
0.05900000 1442358.35913729 14279.34842239
0.06000000 1435293.17972950 21012.69313293
0.06100000 1428144.41217764 14609.91801932
0.06200000 1420912.41096350 14770.38520239
0.06300000 1413600.24215762 13570.56295921
0.06400000 1406206.14473566 15081.56160761
0.06500000 1398736.31656245 13847.49018172
0.06600000 1391188.72392562 18175.88152851
0.06700000 1383566.22030213 15523.61371828
0.06800000 1375871.74409914 21360.40982700
0.06900000 1368106.08824712 17238.13751898
0.07000000 1360268.63228559 17384.23393469
0.07100000 1352364.48004875 17526.64448234
0.07200000 1344392.27007009 23553.75367505
0.07300000 1336356.99756591 19283.63237842
0.07400000 1328257.80280788 14942.90098187
0.07500000 1320097.14248644 16554.01894271
0.07600000 1311875.05055458 16667.37329867
0.07700000 1303597.14559430 19827.71351418
0.07800000 1295261.54204849 19953.50499100
0.07900000 1286870.13976334 16986.68664162
0.08000000 1278427.45173547 15532.89426725
0.08100000 1269932.91628008 18744.21072374
0.08200000 1261387.76375897 20415.56191444
0.08300000 1252795.09852943 20520.78467699
0.08400000 1244155.41665887 23794.47346048
0.08500000 1235472.75160850 17531.35916834
0.08600000 1226745.88779612 19210.84150487
0.08700000 1217978.97358228 16077.32320624
0.08800000 1209170.29829924 19370.90908848
0.08900000 1200326.12080748 24306.60508803
0.09000000 1191444.76983011 19515.86624658
0.09100000 1182529.40750981 19582.68790838
0.09200000 1173580.60879412 22920.03036669
0.09300000 1164602.09963925 21347.15748954
0.09400000 1155592.01720815 18113.90572105
0.09500000 1146554.69573998 18161.42723416
0.09600000 1137491.29469623 23170.69876217
0.09700000 1128404.48010178 23222.56529225
0.09800000 1119295.44617282 23270.15342004
0.09900000 1110165.64548359 16652.48546529
0.10000000 1101015.14791418 21684.49435793
0.10100000 1091846.41419631 16705.25092288
0.10200000 1082662.16539360 25090.69686317
0.10300000 1073463.15100656 21769.83372648
0.10400000 1064251.61398596 21790.55282150
0.10500000 1055030.47809345 21807.48100822
0.10600001 1045796.26439369 23499.04316664
0.10700001 1036556.47502634 28546.76666557
0.10800001 1027308.35580004 26874.38785248
0.10900001 1018056.08677017 21837.30408901
0.11000001 1008799.94653803 18476.17189051
0.11100001 999541.95456291 16792.30562713
0.11200001 990284.35516194 23499.44885428
0.11300001 981026.31047750 21808.21590866
0.11400001 971772.00750942 16763.06791882
0.11500001 962522.01119043 18422.67216167
0.11600001 953276.89403239 28441.01747279
0.11700001 944040.07702173 18380.46116524
0.11800001 934809.30475778 18354.98156341
0.11900001 925589.68553886 19992.73814933
0.12000001 916380.57137202 16632.30815387
0.12100001 907185.83738059 18261.65176674
0.12200001 898003.67517100 19881.80230494
0.12300001 888837.40236755 19838.85175554
0.12400001 879687.15739794 19792.96197405
0.12500001 870555.20184717 21389.54231727
0.12600001 861444.04797837 18051.56087604
0.12700001 852353.14304180 16365.18111763
0.12800001 843282.95803172 19581.03120834
0.12900001 834236.96417589 22774.67019542
0.13000001 825215.11923050 21080.12121435
0.13100001 816218.10685763 19393.34313309
0.13200001 807248.98483000 19325.54160784
0.13300001 798308.78062654 24069.01087058
0.13400001 789396.36559268 19182.33258827
0.13500001 780515.31488656 17514.76449184
0.13600001 771664.81502714 26958.11158407
0.13700001 762847.81530615 25265.52083429
0.13800001 754063.08529976 15722.21606989
0.13900001 745315.60975247 20347.11710578
0.14000001 736602.37449493 15579.14095529
0.14100001 727926.69207442 17055.32319968
0.14200001 719287.76776029 20057.34035001
0.14300001 710690.46901047 18421.09782563
0.14400001 702128.67276275 15271.29935294
0.14500001 693611.92843444 16709.11214419
0.14600001 685134.27570177 21150.09608866
0.14700001 676702.03406673 15022.78586500
0.14800001 668311.24406402 23898.81121524
0.14900001 659964.83597644 14849.20951007
0.15000001 651664.13933061 16236.21279749
0.15100001 643409.63475191 19070.66247390
0.15200001 635202.94952559 17493.49005540
0.15300001 627043.99379372 17381.66032819
0.15400001 618931.58012521 15829.17590870
0.15500001 610870.39966638 17153.24163214
0.15600001 602857.18396860 15617.01608775
0.15700001 594898.34291581 14099.09139254
0.15800001 586986.17400099 16799.54509283
0.15900001 579129.23591681 15289.01254985
0.16000001 571322.71665799 15177.18868442
0.16100001 563572.39418265 15064.29080760
0.16200001 555874.09034227 19027.57101063
0.16300001 548231.38094196 14835.14186862
0.16400001 540643.34353655 13380.92338424
0.16500001 533111.20082339 14601.91647993
0.16600001 525635.19106371 15800.59458937
0.16700001 518215.19106621 15670.82811774
0.16800001 510851.37285576 14245.09120468
0.16900001 503547.63747954 14124.51189823
0.17000001 496300.62128275 17822.15615182
0.17100001 489112.41526318 13881.01100065
0.17200001 481983.25841642 13758.21276120
0.17300001 474913.25422689 19832.37843309
0.17400001 467903.76432218 15967.21671156
0.17500001 460953.80526123 14603.01724034
0.17600001 454062.16150944 14466.42114893
0.17700001 447233.96924388 14329.37705136
0.17800001 440465.57580794 16557.10177665
0.17900001 433758.26502156 12882.62107963
0.18000001 427113.33666924 15074.96592981
0.18100001 420530.97236810 14924.64491433
0.18200001 414007.83073291 11364.51549045
0.18300001 407549.51440148 12373.20384173
0.18400001 401152.06997387 14471.56160795
0.18500001 394818.01455964 15421.59237725
0.18600001 388546.66809016 14168.35492127
0.18700001 382337.55079753 12938.30333026
0.18800001 376191.03980787 12798.01977892
0.18900001 370109.60759946 13712.56160944
0.19000001 364087.38479924 12517.32488083
0.19100001 358133.26481086 13408.51006807
0.19200001 352238.75161605 11217.04357523
0.19300001 346410.16921872 15120.80460089
0.19400001 340643.72758304 10960.21245290
0.19500001 334941.07595984 11816.72171826
0.19600001 329300.64453316 10703.91795638
0.19700001 323724.59924961 9614.62105208
0.19800001 318211.61856015 10448.47898920
0.19900001 312762.89029940 11259.46458290
0.20000001 307375.19516365 11120.83508660
0.20100001 302052.53238880 10067.41138033
0.20200001 296791.68216537 11748.49929379
0.20300001 291594.57625022 10707.35334599
0.20400001 286460.30490269 9689.52027132
0.20500001 281387.90573397 9564.37536798
0.20600001 276378.58189821 15446.79967243
0.20700001 271431.54704007 8468.66466796
0.20800001 266546.47559605 10863.10212642
0.20900001 261725.80915988 9893.23605391
0.21000001 256964.50119979 12199.39027115
0.21100001 252265.22702980 8022.03459878
0.21200001 247627.27287192 8702.86091651
0.21300001 243050.42479455 7801.91900474
0.21400001 238535.53858618 10769.88007633
0.21500001 234081.92563002 8342.68022388
0.21600001 229687.30159601 8223.95422246
0.21700001 225353.78666335 8842.88300676
0.21800001 221080.13139329 7262.48265964
0.21900001 216865.21281161 7872.20759727
0.22000001 212709.41073297 7756.44902912
0.22100001 208615.15526425 7641.57349865
0.22200001 204578.39453163 7527.46238272
0.22300001 200600.01566425 9436.22518304
0.22400001 196678.02891692 8629.24892678
0.22500001 192817.22898433 7190.15480883
0.22600001 189011.74339152 11584.53030028
0.22700001 185264.53293895 6336.04732614
0.22800001 181573.43367619 8731.86683842
0.22900001 177938.26476570 7980.53155215
0.23000001 174359.37660736 7249.86322219
0.23100001 170837.59994047 8323.20826273
0.23200001 167369.23154226 5849.55491905
0.23300001 163956.85445839 7481.35162276
0.23400001 160599.04285573 6227.22818125
0.23500001 157293.90300373 7238.66575859
0.23600001 154043.51242268 6571.49655076
0.23700001 150846.17108322 7000.77113109
0.23800001 147701.49638032 9001.66812267
0.23900001 144609.59592959 6767.72940962
0.24000001 141569.25702262 5117.72888344
0.24100001 138581.79984819 7042.72740141
0.24200001 135644.71442836 5438.67508227
0.24300001 132758.37665874 8746.12226799
0.24400001 129921.77547574 6207.01311697
0.24500001 127135.50822010 7036.95071286
0.24600001 124398.59173795 5991.65845449
0.24700001 121711.32430928 6338.72606989
0.24800001 119071.39315313 5781.51176805
0.24900001 116479.58745035 5678.38015683
0.25000001 113935.81798645 4718.65212514
0.25100001 111438.48596505 5897.32495627
0.25200001 108988.92123559 4136.12975657
0.25300001 106585.50484598 4466.99871943
0.25400001 104227.06005915 7176.03342458
0.25500001 101913.81461634 4304.83973306
0.25600001 99645.94379599  4225.48644659
0.25700001 97422.05781428  4147.25719737
0.25800001 95241.79052562  4810.18685809
0.25900001 93105.41305650  5083.55579341
0.26000001 91012.31775015  4632.07213106
0.26100001 88959.49701055  5593.77343670
0.26200001 86951.08283550  3773.24241818
0.26300001 84982.68021686  4038.37715499
0.26400001 83055.22042695  3961.73420183
0.26500001 81169.05873735  6477.29119374
0.26600001 79321.99998483  4765.26937458
0.26700001 77515.51376849  3427.73618104
0.26800001 75747.92159110  3362.07165892
0.26900001 74018.45361599  3297.52226464
0.27000001 72327.55900517  3528.13849523
0.27100001 70674.13689612  3748.55639836
0.27200001 69058.29976153  4241.90626359
0.27300001 67478.52447541  3328.04098462
0.27400001 65934.18043819  2991.76357897
0.27500001 64427.62467082  2667.30378760
0.27600001 62954.25868514  3400.47444381
0.27700001 61517.51911492  2821.80873535
0.27800001 60113.96150981  3018.92328990
0.27900001 58744.94722882  2467.28790038
0.28000001 57408.94751033  2661.76597729
0.28100001 56105.70536864  3797.23431907
0.28200001 54835.48803626  3026.09655050
0.28300001 53597.22277259  3881.51105690
0.28400001 52390.58931723  3359.54669898
0.28500001 51215.39949556  3075.99703929
0.28600001 50069.95575841  2802.16520665
0.28700001 48955.48676937  4018.26654422
0.28800001 47869.89646936  2697.70814322
0.28900001 46815.29292986  2851.05147438
0.29000001 45788.06399907  2598.24381461
0.29100001 44790.58661424  2550.37612254
0.29200001 43820.42987618  1925.90798422
0.29300001 42877.87677120  2080.00590063
0.29400001 41962.36417778  2228.20164332
0.29500001 41074.62544956  2370.82749318
0.29600001 40212.03987570  1791.44646127
0.29700001 39375.12113129  2288.08839725
0.29800001 38564.36695201  1729.61193968
0.29900001 37778.48684243  2550.04798258
0.30000001 37017.11056947  2172.71940773
0.30100001 36280.68645354  1807.86669156
0.30200001 35566.88475206  1778.16648736
0.30300001 34877.08987128  1590.39537342
0.30400001 34210.90523009  2347.72348256
0.30500001 33566.11910171  1694.75343368
0.30600001 32943.90700914  1668.77368855
0.30700001 32343.98305909  2241.43813211
0.30800001 31765.10744073  1914.00663946
0.30900001 31207.16581334  1596.24660693
0.31000001 30670.73874325  1573.86903312
0.31100001 30153.00908451  1411.16089197
0.31200001 29656.28521534  1810.07145382
0.31300001 29178.39759096  1511.73285076
0.31400001 28721.14871863  1492.78177533
0.31500001 28281.64642167  1340.55010386
0.31600002 27860.65720920  1722.20660693
0.31700002 27457.32222861  1440.68576555
0.31800002 27072.25084428  1813.57016993
0.31900002 26704.62505163  1410.00426949
0.32000002 26353.70996622  1649.61055344
0.32100002 26019.88260034  1633.78850583
0.32200002 25702.46927606  1494.34163447
0.32300002 25400.32990975  1604.79291969
0.32400002 25114.21945172  1346.75008187
0.32500002 24843.07362977  1579.27426543
0.32600002 24587.40171788  1688.41695592
0.32700002 24346.27284889  1317.62034897
0.32800002 24120.07088512  1547.42322091
0.32900002 23906.77409800  1301.72391128
0.33000002 23708.76512987  1412.56829333
0.33100002 23521.86651821  1522.80571050
0.33200002 23350.50100885  1399.62909675
0.33300002 23190.74025146  1278.04175578
0.33400002 23044.07652405  1621.15086024
0.33500002 22909.26916267  1270.08994253
0.33600002 22786.32162824  1612.58805800
0.33700002 22674.34605882  1724.38409943
0.33800002 22575.17444201  1721.92151211
0.33900002 22485.69669655  1376.12470300
0.34000002 22407.80820392  1260.77538830
0.34100002 22340.16319418  1375.26051136
0.34200002 22283.73508161  1146.49822425
0.34300002 22235.92689070  1147.37388190
0.34400002 22198.73101021  1493.41969944
0.34500002 22170.44569010  1725.96927872
0.34600002 22152.74293453  1268.35535679
0.34700002 22141.78536924  1271.38137612
0.34800002 22141.19249607  1390.90977848
0.34900002 22148.55165297  1395.35882022
0.35000002 22164.33276332  1750.42826289
0.35100002 22188.02993580  1522.98644693
0.35200002 22218.79917899  1647.07966115
0.35300002 22257.50370765  1300.06085314
0.35400002 22303.86106702  1425.21678969
0.35500002 22356.94966843  1193.86116884
0.35600002 22416.44595947  1440.48088558
0.35700002 22482.68728464  1810.98054655
0.35800002 22555.92289197  1214.63650526
0.35900002 22634.83517532  1466.73738883
0.36000002 22720.48585987  1230.31436759
0.36100002 22810.97472710  1981.81757816
0.36200002 22908.21429335  1995.76372377
0.36300002 23008.95827857  1507.54701782
0.36400002 23115.81640224  1392.15010877
0.36500002 23227.03785532  1657.71377026
0.36600002 23343.75942203  1927.61102558
0.36700002 23464.48365614  1424.76351509
0.36800002 23591.02407847  1828.06854243
0.36900002 23720.74063493  1316.50116760
0.37000002 23853.61029426  1460.19882333
0.37100002 23990.83563580  1740.29529946
0.37200002 24132.15777045  1350.19429122
0.37300002 24276.31247570  1498.09131384
0.37400002 24424.84923149  1648.67740122
0.37500002 24575.43877779  1524.66029400
0.37600002 24730.06904983  1818.03111232
0.37700002 24886.29270225  1975.47400829
0.37800002 25046.18069055  1708.65052765
0.37900002 25208.30980816  1580.56109985
0.38000002 25372.92009299  1450.06245201
0.38100002 25539.21298013  2048.75576232
0.38200002 25707.94527852  1624.61367884
0.38300002 25878.31084542  1788.70893037
0.38400002 26051.10744855  1654.89667907
0.38500002 26224.43557670  2429.43182692
0.38600002 26400.52632536  1992.31581353
0.38700002 26576.83734378  2320.15801003
0.38800002 26754.44796782  1561.12211288
0.38900002 26933.26211581  1575.59590842
0.39000002 27113.84873742  2226.31822530
0.39100002 27294.31378275  2407.35858969
0.39200002 27476.08388823  1943.65826634
0.39300002 27657.98161002  2288.42150683
0.39400002 27841.32137496  2144.47788051
0.39500002 28024.08236554  1997.55668565
0.39600002 28207.18375469  2351.63302104
0.39700002 28390.07350788  1864.37621559
0.39800002 28574.10236881  2052.19212936
0.39900002 28757.05504551  2415.59273827
0.40000002 28939.95422406  2088.88599486
0.40100002 29122.37305750  1756.07917857
0.40200002 29305.57777623  1948.67448656
0.40300002 29487.16345964  1786.92219032
0.40400002 29668.28963277  2343.05328476
0.40500002 29848.79008199  2908.46624339
0.40600002 30028.85288864  2199.91386686
0.40700002 30207.84433556  3327.69628967
0.40800002 30386.19398189  2796.28963368
0.40900002 30562.70893566  2067.56735746
0.41000002 30739.08953966  2084.57145590
0.41100002 30913.83834414  1910.47530019
0.41200002 31086.73051956  1925.82304694
0.41300002 31258.79367845  2523.52253323
0.41400002 31429.33070534  2152.12352202
0.41500002 31598.88029348  1971.77022374
0.41600002 31765.57754696  2583.01806062
0.41700002 31931.58342603  3203.37660109
0.41800002 32096.65058772  2420.72950203
0.41900002 32258.02797667  2438.70703059
0.42000002 32418.32692742  2456.66093097
0.42100002 32577.29310616  2886.99985187
0.42200002 32734.23425631  2492.38471438
0.42300002 32888.51132938  2300.88036163
0.42400002 33040.83725248  2316.98882212
0.42500002 33191.48761114  2969.31062240
0.42600002 33338.63876775  2562.40789711
0.42700002 33484.88207357  2794.64839029
0.42800002 33628.24404566  2380.37536757
0.42900002 33769.81344495  3049.41429858
0.43000002 33909.07074430  2849.88798575
0.43100002 34044.48261881  2426.69083606
0.43200002 34178.40083439  2441.87596333
0.43300002 34309.43449260  2903.60757871
0.43400002 34438.24306248  3370.64319947
0.43500002 34564.11452843  2486.54251701
0.43600002 34688.23892477  3865.48408776
0.43700002 34808.74273981  2286.93450638
0.43800002 34925.86106712  2989.82847834
0.43900002 35041.32910181  2775.27339638
0.44000002 35153.32313843  2790.47092297
0.44100002 35263.13294460  3039.32957253
0.44200002 35369.90581107  3290.46249354
0.44300002 35474.03628045  2362.57092824
0.44400002 35574.73909453  2849.53673651
0.44500002 35671.72157571  2625.08211516
0.44600002 35766.68205480  3837.04983268
0.44700002 35858.77704583  3373.59390435
0.44800002 35946.88156562  3147.32936464
0.44900002 36033.33938201  2918.70062827
0.45000002 36116.44394821  3909.24407822
0.45100002 36195.25480067  2699.44223097
0.45200002 36272.02557987  2957.62110595
0.45300002 36345.05483130  2970.11802158
0.45400002 36415.62539868  2982.43986150
0.45500002 36482.92289470  3244.06165754
0.45600002 36546.77406530  3256.86592518
0.45700002 36607.61459072  3520.92053821
0.45800002 36664.64897222  3281.66956179
0.45900002 36718.79764289  3293.67630467
0.46000002 36770.61312908  3051.22562206
0.46100002 36817.95655194  2551.48450998
0.46200002 36862.89759796  2560.12835952
0.46300002 36904.32211068  4109.66550502
0.46400002 36942.01659336  3092.04693541
0.46500002 36977.51487783  2843.20125371
0.46600002 37008.98977085  2592.47985632
0.46700002 37037.21565490  3640.01772709
0.46800002 37062.91972591  2868.11417893
0.46900002 37084.69406526  3137.36526662
0.47000002 37102.97804974  2883.45807580
0.47100002 37118.51934262  3941.98694102
0.47200002 37130.62808933  2897.86000658
0.47300002 37140.03097824  3168.78759326
0.47400002 37144.89269661  3440.54584910
0.47500002 37147.70186386  3448.04985043
0.47600002 37147.60346662  4252.65784643
0.47700002 37143.13323872  2663.16277945
