# SAXS profile: number of points = 501, q_min = 0, q_max = 0.5, delta_q = 0.001
#    q    intensity    error
0.00000000 1664650.74656091 274.66737318
0.00100000 1664582.35056316 599.24966043
0.00200000 1664377.10565623 748.96972126
0.00300000 1664035.18308718 1198.10537450
0.00400000 1663556.44115206 1746.73432958
0.00500000 1662941.36098551 1945.64146936
0.00600000 1662189.64517084 2094.35903818
0.00700000 1661301.96540085 2392.27492960
0.00800000 1660277.74819236 3137.92507657
0.00900000 1659118.41000012 3235.28103780
0.01000000 1657823.00519196 2735.40807668
0.01100000 1656392.86074702 4770.41164665
0.01200000 1654827.40861901 3549.60494712
0.01300000 1653128.01552950 3818.72588430
0.01400000 1651293.98654493 3715.41163443
0.01500000 1649326.98263482 4750.06192150
0.01600000 1647225.98542618 4200.42645061
0.01700000 1644993.01922133 5329.77762136
0.01800000 1642627.69446539 6554.08479583
0.01900000 1640130.69454427 6396.50999735
0.02000000 1637502.67348283 6189.76038576
0.02100000 1634745.24726126 7013.05742871
0.02200000 1631856.63139066 6192.89619749
0.02300000 1628839.74013085 5863.82333138
0.02400000 1625694.36365739 8534.89579837
0.02500000 1622421.89544389 7592.93481745
0.02600000 1619022.48603395 7868.44964201
0.02700000 1615497.17945160 7463.59731091
0.02800000 1611845.79167806 10517.29427302
0.02900000 1608070.95389382 11578.11139964
0.03000000 1604173.10781086 7459.40529419
0.03100000 1600152.13192091 11521.09587995
0.03200000 1596009.37784541 11060.34549789
0.03300000 1591747.35858252 8929.70309331
0.03400000 1587364.20014161 14167.22613995
0.03500000 1582863.33352160 12821.19359358
0.03600000 1578244.41935086 13138.88539829
0.03700000 1573509.14877453 9865.90281909
0.03800000 1568658.98812304 13764.98325782
0.03900000 1563694.96365115 17826.12341115
0.04000000 1558616.30250684 10544.03977506
0.04100000 1553426.77751537 11743.90698254
0.04200000 1548126.79756627 9985.41830755
0.04300000 1542716.13017970 12218.31231817
0.04400000 1537198.81994551 12451.31101982
0.04500000 1531574.09022780 11624.64788497
0.04600000 1525842.56661386 11832.90965417
0.04700000 1520007.42031880 12038.45932881
0.04800000 1514068.76816293 14466.92775292
0.04900000 1508029.38880623 15834.30931951
0.05000000 1501888.58423747 11489.44820444
0.05100000 1495650.03223169 15165.89203332
0.05200000 1489311.70687341 11840.02862140
0.05300000 1482878.94941101 16815.84807024
0.05400000 1476350.52003492 13397.88159411
0.05500000 1469729.95663677 12345.73221167
0.05600000 1463015.77533235 16261.42110164
0.05700000 1456213.15612399 12669.05504965
0.05800000 1449320.58880750 17957.08293378
0.05900000 1442340.08469272 12981.06136853
0.06000000 1435274.31246978 14446.03662991
0.06100000 1428125.07001406 18594.18928051
0.06200000 1420892.52701220 14770.17850870
0.06300000 1413579.70255835 13570.36577905
0.06400000 1406184.95569151 16452.36475101
0.06500000 1398714.58437479 24925.09505950
0.06600000 1391166.33767989 13981.22234784
0.06700000 1383543.34934448 15523.35710612
0.06800000 1375848.22707417 15664.03279846
0.06900000 1368081.91599522 21547.29118575
0.07000000 1360243.89497907 14486.59815991
0.07100000 1352339.08797375 21907.89425129
0.07200000 1344366.25679769 20609.13568218
0.07300000 1336330.36748387 14833.26777409
0.07400000 1328230.48674918 14942.59367620
0.07500000 1320069.23590685 16553.66899418
0.07600000 1311846.48947696 18182.19319654
0.07700000 1303567.96499144 21352.44426774
0.07800000 1295231.76009207 15348.49707688
0.07900000 1286839.81480614 21618.90990275
0.08000000 1278396.54230673 18639.02246121
0.08100000 1269901.18106417 21867.69936392
0.08200000 1261355.53427662 20415.04028025
0.08300000 1252762.16633182 17363.28444025
0.08400000 1244121.83274238 19035.06493444
0.08500000 1235438.43453817 15937.15655371
0.08600000 1226711.01535174 24012.86925295
0.08700000 1217943.36089217 17684.53843058
0.08800000 1209134.08206013 20984.52297967
0.08900000 1200289.29043971 17824.29680023
0.09000000 1191407.33928129 19515.25313417
0.09100000 1182491.29715293 26109.40906779
0.09200000 1173541.90236006 22919.27442999
0.09300000 1164562.72866320 21346.43581951
0.09400000 1155552.02072508 19759.94048307
0.09500000 1146514.08203272 18160.78391300
0.09600000 1137449.96969950 19859.87740452
0.09700000 1128362.61811643 18245.62439272
0.09800000 1119252.80419485 18282.99541615
0.09900000 1110122.36816638 23312.57082771
0.10000000 1100971.31175317 21683.63100470
0.10100000 1091801.89641549 23386.39772112
0.10200000 1082617.02362594 20071.72056212
0.10300000 1073417.36936210 26792.49879962
0.10400000 1064205.24369815 21789.60338981
0.10500000 1054983.51471384 20129.08640780
0.10600001 1045748.64595429 18462.69321306
0.10700001 1036508.17820102 28545.43657094
0.10800001 1027259.56494185 20154.83361268
0.10900001 1018006.70213201 25195.66706362
0.11000001 1008749.92293941 21834.39310976
0.11100001 999491.32868931 21828.89164613
0.11200001 990233.15726738 20141.34336701
0.11300001 980974.63832998 25162.00065781
0.11400001 971719.71236106 20114.59899296
0.11500001 962469.06313301 20096.35498451
0.11600001 953223.54532482 25093.61101237
0.11700001 943986.05102551 23391.97544606
0.11800001 934754.78256102 20022.44838548
0.11900001 925534.61169399 21657.51093374
0.12000001 916324.92457406 16631.29816443
0.12100001 907129.60948764 21580.61442633
0.12200001 897946.91218856 23193.96983453
0.12300001 888780.17245933 16531.31198661
0.12400001 879629.37638515 19791.66190120
0.12500001 870497.00604045 21388.11244623
0.12600001 861385.26291613 22973.14604455
0.12700001 852293.82717412 16364.04225292
0.12800001 843223.24011756 21211.28160483
0.12900001 834176.71743382 17893.09143229
0.13000001 825154.44079864 22699.99973633
0.13100001 816156.92238633 24239.86173748
0.13200001 807187.54135827 16103.39220922
0.13300001 798246.76680019 19253.71292290
0.13400001 789333.87162286 22377.61631551
0.13500001 780452.53122865 19105.47886527
0.13600001 771601.54350086 17442.05371324
0.13700001 762784.10900035 22105.48452118
0.13800001 753999.02514862 22009.23258195
0.13900001 745251.14789942 20345.35729710
0.14000001 736537.51948270 17135.54619889
0.14100001 727861.43205640 18604.13908079
0.14200001 719222.21314429 16970.04891954
0.14300001 710624.54823953 16884.44006257
0.14400001 702062.48528730 15269.85977528
0.14500001 693545.26910463 18226.37053185
0.14600001 685067.35556761 18126.88308344
0.14700001 676634.86092799 16523.42408338
0.14800001 668243.80923312 16428.77482508
0.14900001 659896.91608510 19301.98570617
0.15000001 651596.04431490 16234.51621010
0.15100001 643341.26315693 16134.99964131
0.15200001 635134.37221174 18949.23488909
0.15300001 626975.15460100 15931.43943020
0.15400001 618862.46899434 17266.26369975
0.15500001 610801.05541713 15722.01990841
0.15600001 602787.66683316 17034.78026866
0.15700001 594828.56132136 23965.64386674
0.15800001 586916.24060018 16797.54359880
0.15900001 579059.21788576 20846.13282784
0.16000001 571252.33764707 15175.31906591
0.16100001 563502.14608005 16431.72335534
0.16200001 555803.60704726 17666.21848395
0.16300001 548160.77039824 13484.75558838
0.16400001 540572.69481726 16055.00979402
0.16500001 533040.46339305 14599.97898162
0.16600001 525564.25540114 17115.00078519
0.16700001 518144.21844127 13057.23492121
0.16800001 510780.30290837 18127.59380614
0.16900001 503476.38332156 15406.37805710
0.17000001 496229.52579629 20365.26070032
0.17100001 489041.25637638 20187.62401650
0.17200001 481912.09161290 17507.86711507
0.17300001 474842.14277141 14872.05661393
0.17400001 467832.65040842 15964.78994914
0.17500001 460882.64410200 13384.03261682
0.17600001 453991.08310855 18080.19573871
0.17700001 447162.91470997 15521.02550265
0.17800001 440394.54997573 14189.51307042
0.17900001 433687.38188730 12880.51585045
0.18000001 427042.54261995 20869.57004361
0.18100001 420460.22673670 19513.56004460
0.18200001 413937.32798398 13635.09622789
0.18300001 407479.10922215 11246.42394580
0.18400001 401081.67688020 13356.02047106
0.18500001 394747.89493330 12114.81346783
0.18600001 388476.79157021 14165.80687385
0.18700001 382267.76914348 14013.93707889
0.18800001 376121.49118840 11729.34925688
0.18900001 370040.29424994 13709.99354972
0.19000001 364018.18732394 16686.59449535
0.19100001 358064.36444440 14437.15585655
0.19200001 352170.16734951 17332.05560507
0.19300001 346341.63598236 13102.10470832
0.19400001 340575.47400132 11954.19970233
0.19500001 334873.21923634 13783.38235510
0.19600001 329233.10837831 10701.72269356
0.19700001 323657.31943653 10573.88512569
0.19800001 318144.64681014 11395.94178730
0.19900001 312696.29155928 11257.06702814
0.20000001 307308.93371854 10191.90126846
0.20100001 301986.71085330 10065.21754845
0.20200001 296726.14771503 11745.90511245
0.20300001 291529.45943307 10704.96225635
0.20400001 286395.54584857 12329.32883154
0.20500001 281323.48291606 11300.76484289
0.20600001 276314.73770517 9437.53031241
0.20700001 271368.04191039 11853.35663094
0.20800001 266483.41194109 9189.68089519
0.20900001 261663.23261616 11539.34910385
0.21000001 256902.40249430 8944.05756565
0.21100001 252203.52142205 12832.11577657
0.21200001 247566.22953841 10282.66382999
0.21300001 242989.79660031 7799.97283962
0.21400001 238475.44467995 8459.91679998
0.21500001 234022.33915310 10615.25380585
0.21600001 229628.24219671 8221.83960057
0.21700001 225295.26340804 10314.01764646
0.21800001 221022.20519946 10164.81169772
0.21900001 216807.75558586 9301.05315440
0.22000001 212652.52896505 7754.37483536
0.22100001 208558.79573025 11112.01316192
0.22200001 204522.75061118 9577.80086400
0.22300001 200544.96299028 10107.46661265
0.22400001 196623.70560402 11944.89068027
0.22500001 192763.44601863 7188.14924194
0.22600001 188958.65005240 9651.06350781
0.22700001 185212.14054646 9501.38325935
0.22800001 181521.60129909 6858.79402944
0.22900001 177887.14023292 7978.23861674
0.23000001 174308.86019665 6643.78252059
0.23100001 170787.80912780 10103.80726584
0.23200001 167320.09793828 7017.40523941
0.23300001 163908.49095543 7479.14479602
0.23400001 160551.37425575 10186.98517832
0.23500001 157246.93807110 8906.46699359
0.23600001 153997.31379038 7664.44666985
0.23700001 150800.72286602 5921.94466704
0.23800001 147656.71737609 7940.24035246
0.23900001 144565.62911021 6245.23547296
0.24000001 141526.04153481 6139.39997218
0.24100001 138539.27986279 6034.77131627
0.24200001 135603.03399368 7414.09623431
0.24300001 132717.50436208 6800.44524519
0.24400001 129881.68683613 6205.09788212
0.24500001 127096.16152223 4689.84858202
0.24600001 124360.08709238 5068.29558921
0.24700001 121673.62925575 6789.38883365
0.24800001 119034.48651337 4890.53210976
0.24900001 116443.58966321 4803.29830084
0.25000001 113900.61086563 6003.70148275
0.25100001 111404.12165187 5053.29119719
0.25200001 108955.33182046 7029.25356495
0.25300001 106552.82506079 4059.66282688
0.25400001 104195.24063054 5579.65539975
0.25500001 101882.84914613 5477.22222923
0.25600001 99615.81517515  3840.18985669
0.25700001 97392.79246726  5653.65187022
0.25800001 95213.40562113  4438.84918008
0.25900001 93077.89377460  5445.05704345
0.26000001 90985.66579126  3918.29788270
0.26100001 88933.70248684  4194.11360773
0.26200001 86926.26591789  3772.16548799
0.26300001 84958.71695787  4037.23842087
0.26400001 83032.14426278  3630.58067968
0.26500001 81146.93025745  4209.09147162
0.26600001 79300.70871373  3493.59288770
0.26700001 77495.10724447  3426.83380451
0.26800001 75728.41023248  3055.64149748
0.26900001 73999.85318472  3596.39303496
0.27000001 72309.92357109  3527.27823872
0.27100001 70657.37482348  4612.51364675
0.27200001 69042.46613320  3392.74694634
0.27300001 67463.63507247  3050.03108597
0.27400001 65920.15108053  2719.20636076
0.27500001 64414.51762216  3200.11338692
0.27600001 62942.10058651  2876.76884345
0.27700001 61506.26207597  2821.29237495
0.27800001 60103.59760324  3269.93638236
0.27900001 58735.51363601  2713.58085841
0.28000001 57400.36811775  2661.36819374
0.28100001 56098.16290472  2610.24764350
0.28200001 54828.80612699  3491.22439537
0.28300001 53591.44319676  2967.89426471
0.28400001 52385.73318818  3135.28627971
0.28500001 51211.44821784  2636.36547904
0.28600001 50066.91995065  3233.07150884
0.28700001 48953.33457974  2537.74098473
0.28800001 47868.67401551  2282.61782847
0.28900001 46814.97946432  3054.67755464
0.29000001 45788.63198352  2398.40865682
0.29100001 44792.09280588  2158.08313354
0.29200001 43822.78494637  2696.41608539
0.29300001 42881.18966789  2269.27266464
0.29400001 41966.52357987  2228.42250758
0.29500001 41079.68024739  2006.33167826
0.29600001 40217.97106746  2150.05283504
0.29700001 39381.96953016  2112.44894560
0.29800001 38572.06410770  2248.94430426
0.29900001 37787.11077507  2380.58809152
0.30000001 37026.55874754  1838.92412725
0.30100001 36291.03267184  2137.17901522
0.30200001 35578.05043611  1617.02246887
0.30300001 34889.08669770  1909.13091448
0.30400001 34223.78595477  1878.88593787
0.30500001 33579.81537462  1541.31359866
0.30600001 32958.47983762  1669.51187521
0.30700001 32359.40432548  1794.00546074
0.30800001 31781.27361417  1620.36831193
0.30900001 31224.21633652  2177.88919258
0.31000001 30688.66007853  1574.78866649
0.31100001 30171.66065165  2118.05067803
0.31200001 29675.74747328  1671.93169180
0.31300001 29198.66179146  1375.25703549
0.31400001 28742.13735406  2037.09908142
0.31500001 28303.49679533  1475.74439278
0.31600002 27883.30098827  2253.94674211
0.31700002 27480.75597091  1441.91533407
0.31800002 27096.41486379  1555.87621515
0.31900002 26729.50824113  2309.42962138
0.32000002 26379.36142266  1524.19957517
0.32100002 26046.24637703  2012.85401533
0.32200002 25729.58455709  1620.57796006
0.32300002 25428.17710186  1730.13325193
0.32400002 25142.73364805  1225.70832338
0.32500002 24872.28982144  1824.38254479
0.32600002 24617.33486792  2173.46459841
0.32700002 24376.82223759  1679.07559523
0.32800002 24151.38910417  1311.05821960
0.32900002 23938.69629816  1421.95862745
0.33000002 23741.38348086  1296.63572021
0.33100002 23555.12035227  1994.17658346
0.33200002 23384.38760014  1168.05021594
0.33300002 23225.20910346  1396.29963742
0.33400002 23079.20565668  1739.59520875
0.33500002 22945.00015080  1503.35648107
0.33600002 22822.64759312  1845.89582475
0.33700002 22711.27175055  1266.60768551
0.33800002 22612.61886987  1379.82206878
0.33900002 22523.72749382  1263.58117224
0.34000002 22446.37607440  1377.75862869
0.34100002 22379.32244073  1722.08894337
0.34200002 22323.41365091  1263.39365541
0.34300002 22276.10715750  1494.28133889
0.34400002 22239.43360813  1611.24704122
0.34500002 22211.61463435  1613.89599577
0.34600002 22194.40896788  1732.82856223
0.34700002 22183.91612497  1737.00071485
0.34800002 22183.80151316  1509.71868348
0.34900002 22191.61042952  1281.56556300
0.35000002 22207.78454494  1286.16390284
0.35100002 22231.95166150  1408.61652399
0.35200002 22263.10608580  1650.36413231
0.35300002 22302.20721390  1302.67198506
0.35400002 22348.95947000  1309.09036296
0.35500002 22402.42610042  1914.06337668
0.35600002 22462.25812769  1924.56636754
0.35700002 22528.89160947  1693.72215142
0.35800002 22602.46398158  1460.57129167
0.35900002 22681.64784920  1714.73265862
0.36000002 22767.60620353  1232.86593432
0.36100002 22858.43746055  1489.45585548
0.36200002 22955.90425302  1749.92866410
0.36300002 23056.97144663  1510.69284074
0.36400002 23164.06478609  1395.05586782
0.36500002 23275.55453031  1277.82800424
0.36600002 23392.48172975  1545.30741627
0.36700002 23513.41341373  1687.32262649
0.36800002 23640.15222566  2093.57198027
0.36900002 23770.11183625  1583.08952328
0.37000002 23903.11042995  1995.31223766
0.37100002 24040.53096000  1743.90019845
0.37200002 24181.97993871  1488.28002583
0.37300002 24326.26776376  2047.05552929
0.37400002 24474.96303880  1789.73175699
0.37500002 24625.67974433  1388.88840337
0.37600002 24780.38699057  1541.46404577
0.37700002 24936.74678853  1555.30497088
0.37800002 25096.63131793  1712.09226961
0.37900002 25258.82664581  2015.65446182
0.38000002 25423.51583865  1743.54479881
0.38100002 25589.86957644  1759.55951543
0.38200002 25758.58120836  1775.79667263
0.38300002 25929.00466906  1941.56396160
0.38400002 26101.72782152  1808.84982372
0.38500002 26275.06460420  1673.45894392
0.38600002 26451.02171345  2456.77101313
0.38700002 26627.36239688  1704.68382141
0.38800002 26804.90241186  2502.50580773
0.38900002 26983.66156605  1578.54427640
0.39000002 27164.14204785  1752.49470724
0.39100002 27344.50278300  1768.64252380
0.39200002 27526.17212986  1784.93471633
0.39300002 27707.91126219  2128.79892313
0.39400002 27891.10930690  1652.54830473
0.39500002 28073.69972291  2167.85119531
0.39600002 28256.60791406  1682.68108100
0.39700002 28439.32338207  2546.74152952
0.39800002 28623.16135884  1713.09628849
0.39900002 28805.93088535  1901.19152851
0.40000002 28988.61473290  2266.76483644
0.40100002 29170.76287791  2110.79650185
0.40200002 29353.78289576  2129.32351215
0.40300002 29535.07549660  2326.77335786
0.40400002 29715.93092056  1985.76717785
0.40500002 29896.14995592  2731.01342787
0.40600002 30075.93310733  1836.13580320
0.40700002 30254.56783115  2407.05353069
0.40800002 30432.63337741  2427.15479002
0.40900002 30608.74927645  2070.68198666
0.41000002 30784.77194174  2657.03379219
0.41100002 30959.20784219  3061.24661648
0.41200002 31131.71993560  2507.19318381
0.41300002 31303.44656561  2332.73294860
0.41400002 31473.51701845  2351.07183268
0.41500002 31642.72811556  2566.85822636
0.41600002 31808.97240396  2387.58158177
0.41700002 31974.53736561  2205.28394660
0.41800002 32139.18783658  2625.93246662
0.41900002 32300.09683895  2238.39681700
0.42000002 32459.95742160  2049.84640831
0.42100002 32618.46953312  3097.12382893
0.42200002 32774.88335712  2495.47973706
0.42300002 32928.64678722  2513.11444189
0.42400002 33080.50381329  2741.54688344
0.42500002 33230.61502580  2548.12368092
0.42600002 33377.24209854  3420.49993234
0.42700002 33522.91976984  3228.25732681
0.42800002 33665.77465195  2383.03197166
0.42900002 33806.79874978  2834.70020950
0.43000002 33945.46169680  3511.31872431
0.43100002 34080.28496236  2208.40257021
0.43200002 34213.64034914  3333.26406897
0.43300002 34344.10731353  2682.96179047
0.43400002 34472.32113426  2249.31906060
0.43500002 34597.55731817  2488.94839142
0.43600002 34721.05986575  3186.35181488
0.43700002 34840.90005844  2517.95196655
0.43800002 34957.38729473  3222.72168742
0.43900002 35072.21927215  3009.19655615
0.44000002 35183.51949443  2327.38992485
0.44100002 35292.72041461  2573.89822181
0.44200002 35398.81171764  2352.25115011
0.44300002 35502.23697862  3783.11855173
0.44400002 35602.27269965  2614.09699686
0.44500002 35698.56499652  2865.88093374
0.44600002 35792.77805873  3359.86823560
0.44700002 35884.18026028  2652.55873055
0.44800002 35971.57113589  2907.22251698
0.44900002 36057.31014874  4137.57653566
0.45000002 36139.70342938  3178.30636872
0.45100002 36217.76840602  2701.12129573
0.45200002 36293.80542290  3699.24629305
0.45300002 36366.03398469  2476.52703173
0.45400002 36435.86857108  2984.09777740
0.45500002 36502.43069230  3745.14956652
0.45600002 36565.52859900  2757.22381468
0.45700002 36625.55083641  3271.02810023
0.45800002 36681.80886972  3283.20545849
0.45900002 36735.19533231  3548.62003729
0.46000002 36786.20700071  2798.14296813
0.46100002 36832.76024763  3318.26352798
0.46200002 36876.92762255  2817.21301925
0.46300002 36917.55152254  3083.35404930
0.46400002 36954.45816239  3866.36036849
0.46500002 36989.15507943  2844.09626885
0.46600002 37019.76998093  4408.49951712
0.46700002 37047.21024940  3380.92856760
0.46800002 37072.12361555  3651.23362795
0.46900002 37093.05767326  3399.57889688
0.47000002 37110.51060885  3146.22923854
0.47100002 37125.22728135  2891.31283771
0.47200002 37136.50881700  3161.80251054
0.47300002 37145.14113423  2641.01965982
0.47400002 37149.09865634  2911.56074519
0.47500002 37151.09354685  2917.84702547
0.47600002 37150.19384173  3455.52544397
