# SAXS profile: number of points = 501, q_min = 0, q_max = 0.5, delta_q = 0.001
#    q    intensity    error
0.00000000 1664650.74656091 299.63713438
0.00100000 1664582.39966599 898.87451717
0.00200000 1664377.30738494 823.86679324
0.00300000 1664035.63150213 1297.94783881
0.00400000 1663557.24429089 1497.20157675
0.00500000 1662942.60800777 1795.97808774
0.00600000 1662191.45017236 3141.54196872
0.00700000 1661304.41405578 2392.27845566
0.00800000 1660280.94193543 2913.79317612
0.00900000 1659122.43012209 2737.55212673
0.01000000 1657827.99353774 3556.04119969
0.01100000 1656398.87917533 4472.27716849
0.01200000 1654834.56614221 4195.00580910
0.01300000 1653136.42353867 4165.90397105
0.01400000 1651303.72163103 4458.52024605
0.01500000 1649338.12692510 4750.09401706
0.01600000 1647238.64827678 5040.55048906
0.01700000 1645007.32649890 6662.27997118
0.01800000 1642643.71052036 7022.30217846
0.01900000 1640148.51294201 5412.49033693
0.02000000 1637522.38122096 5674.01530760
0.02100000 1634766.97796276 5934.20439905
0.02200000 1631880.41132962 7318.98397733
0.02300000 1628865.66889370 10555.05001488
0.02400000 1625722.53308256 7925.39771016
0.02500000 1622452.38172866 6960.32103550
0.02600000 1619055.37208560 9835.76183529
0.02700000 1615532.58603070 9499.33204094
0.02800000 1611883.79269823 9816.37274771
0.02900000 1608111.60886944 8683.80308660
0.03000000 1604216.48176976 7459.60698311
0.03100000 1600198.33884491 12289.52380781
0.03200000 1596058.49871609 8690.53892578
0.03300000 1591799.47799324 9741.81325442
0.03400000 1587419.39886612 8333.95222858
0.03500000 1582921.65525642 9402.55506642
0.03600000 1578305.89740344 10511.51776248
0.03700000 1573573.92610648 11660.18333170
0.03800000 1568727.13624915 12847.87584047
0.03900000 1563766.53534461 9382.59964658
0.04000000 1558691.36264273 10544.54755690
0.04100000 1553505.31360523 11744.50071541
0.04200000 1548208.90830747 14978.92188279
0.04300000 1542801.91961902 13237.24108478
0.04400000 1537288.24621826 15565.04421583
0.04500000 1531667.37969382 11625.35595205
0.04600000 1525939.66674263 15061.02521089
0.04700000 1520108.44164127 13133.73754660
0.04800000 1514173.68240183 15580.84791686
0.04900000 1508138.23780932 12442.14104108
0.05000000 1502001.55560089 14937.40616603
0.05100000 1495767.04334599 18667.17357055
0.05200000 1489432.82194429 16577.38808077
0.05300000 1483004.32213629 13213.56912622
0.05400000 1476479.98924739 13399.05652727
0.05500000 1469863.72426787 16050.91261777
0.05600000 1463153.82634402 13760.96237891
0.05700000 1456355.39302880 16471.38026402
0.05800000 1449467.21356597 14110.56398292
0.05900000 1442490.95857303 12982.41923351
0.06000000 1435429.76128967 13134.18292941
0.06100000 1428284.89959239 14611.35520564
0.06200000 1421056.77621847 14771.88587928
0.06300000 1413748.42041909 16286.38256470
0.06400000 1406358.21991375 17825.59127105
0.06500000 1398892.36722350 16618.84210001
0.06600000 1391348.66608470 16779.66569808
0.06700000 1383730.01152169 15525.45145585
0.06800000 1376039.43256919 14242.00879375
0.06900000 1368277.63377240 17240.29899270
0.07000000 1360444.24027990 15937.60502121
0.07100000 1352543.90240892 16068.22231322
0.07200000 1344575.54093763 14723.10286300
0.07300000 1336544.28374514 14835.64224470
0.07400000 1328448.88197141 19428.56580934
0.07500000 1320292.19255206 16556.46487065
0.07600000 1312073.98333531 22731.68282696
0.07700000 1303799.95965860 16779.90626759
0.07800000 1295468.20403100 18421.55872522
0.07900000 1287080.84974099 24711.95347411
0.08000000 1278641.85223638 23303.24885019
0.08100000 1270151.10279957 17185.14522717
0.08200000 1261609.75689306 17277.74643141
0.08300000 1253020.76019503 15788.06231942
0.08400000 1244384.79812788 19039.08830503
0.08500000 1235705.83554463 22316.84843760
0.08600000 1226982.78966887 17613.33877267
0.08700000 1218219.31706721 24120.74361059
0.08800000 1209414.37312411 19374.81916736
0.08900000 1200573.71560866 17828.52051419
0.09000000 1191695.90911684 17893.31491594
0.09100000 1182783.96009597 17954.66135779
0.09200000 1173838.63256953 16375.04969375
0.09300000 1164863.48360242 19709.49106874
0.09400000 1155856.84231000 16470.96077701
0.09500000 1146822.69064659 26422.79603444
0.09600000 1137762.47026839 18209.88919265
0.09700000 1128679.02357596 18250.74066924
0.09800000 1119572.93573666 24938.48831608
0.09900000 1110446.35285562 19988.03529129
0.10000000 1101298.88918141 18353.14685130
0.10100000 1092133.13855846 21722.52914758
0.10200000 1082951.74682079 18404.76580291
0.10300000 1073755.50491693 18425.64533113
0.10400000 1064546.75448506 21796.59582350
0.10500000 1055328.38060067 23491.61085744
0.10600001 1046096.75110552 20147.82437432
0.10700001 1036859.53153483 16797.12520130
0.10800001 1027614.07178265 20161.78903722
0.10900001 1018364.28954062 20163.61388192
0.11000001 1009110.32909921 18481.85654738
0.11100001 999854.58306404 21836.82512205
0.11200001 990599.19695318 16790.65717881
0.11300001 981343.35461156 18459.06936931
0.11400001 972091.08001174 21799.14349566
0.11500001 962843.04895804 18428.81682483
0.11600001 953600.05774716 25103.52270236
0.11700001 944364.86963394 23401.36257161
0.11800001 935136.09110792 16692.18001245
0.11900001 925917.97370706 18333.17674292
0.12000001 916710.49978653 21629.78526133
0.12100001 907517.02168642 23250.58719090
0.12200001 898336.18769903 23204.02482144
0.12300001 889171.25285125 16538.58608224
0.12400001 880022.34524862 26400.67160139
0.12500001 870891.52711973 16459.85063816
0.12600001 861781.24669994 27908.78698954
0.12700001 852691.46151674 18008.84451593
0.12800001 843622.10345051 17956.49731822
0.12900001 834576.79547100 17901.67310660
0.13000001 825555.55868242 17844.38424201
0.13100001 816559.13910287 19401.44605962
0.13200001 807590.50601085 24167.14703162
0.13300001 798650.84652785 22474.03588079
0.13400001 789738.60112863 17591.42816950
0.13500001 780857.79548042 19115.39973462
0.13600001 772007.32173367 19037.70145159
0.13700001 763190.21180308 17377.84194218
0.13800001 754405.39635113 20448.15923235
0.13900001 745657.74956892 15658.81347939
0.14000001 736944.19184579 18703.64447112
0.14100001 728268.13452411 23268.16799544
0.14200001 719628.78307780 15436.03812506
0.14300001 711030.84361806 19965.74703053
0.14400001 702468.45180519 16806.55850220
0.14500001 693950.69666651 19756.77726606
0.14600001 685472.07089459 22671.98981437
0.14700001 677039.03081487 25551.45422838
0.14800001 668647.25098188 20921.97347029
0.14900001 660299.41086645 14856.73744545
0.15000001 651997.49296106 14767.74391235
0.15100001 643741.53355749 22015.96148649
0.15200001 635533.36981680 16044.04067810
0.15300001 627372.84812566 20289.23886581
0.15400001 619258.76890149 15837.54376205
0.15500001 611195.84743671 20022.77690696
0.15600001 603180.69859342 15625.39673450
0.15700001 595219.88781950 16928.05440854
0.15800001 587305.56196907 18209.40980831
0.15900001 579446.60495596 19469.40684549
0.16000001 571637.62975484 15185.55435123
0.16100001 563885.22393133 19183.37622368
0.16200001 556184.41007508 19038.19325559
0.16300001 548539.09253331 18891.68723868
0.16400001 540948.40206806 14727.32094157
0.16500001 533413.61130352 19922.99932278
0.16600001 525934.58040753 15809.59423347
0.16700001 518511.81467460 18293.09768542
0.16800001 511144.94716553 14253.27752470
0.16900001 503838.03494359 17987.01869680
0.17000001 496587.95298279 16558.72607411
0.17100001 489396.48200470 13889.07281515
0.17200001 482264.02187852 13766.22715460
0.17300001 475190.69778375 14882.97335743
0.17400001 468177.66634196 12289.66432187
0.17500001 461224.01760331 17046.84049570
0.17600001 454328.81994771 12062.43073931
0.17700001 447496.77641233 14337.79739343
0.17800001 440724.56532197 11833.45513781
0.17900001 434013.45733083 14062.03668172
0.18000001 427364.43976145 12763.23959635
0.18100001 420778.01946078 13784.68856868
0.18200001 414250.89216546 12508.30627980
0.18300001 407788.45037189 11254.96176194
0.18400001 401386.61338598 14480.02276195
0.18500001 395048.36952063 19839.33005458
0.18600001 388772.54927477 11995.57757459
0.18700001 382558.98567409 12945.79668683
0.18800001 376407.85250356 16006.74468397
0.18900001 370321.99635030 14775.84835250
0.19000001 364295.05680448 12524.46464470
0.19100001 358336.35884483 13416.11390906
0.19200001 352437.08988852 12243.66508126
0.19300001 346603.56509198 14120.62990908
0.19400001 340832.19336740 12960.14476521
0.19500001 335124.83973329 10837.93782912
0.19600001 329479.54425779 10709.73309220
0.19700001 323898.31297293 11543.73641988
0.19800001 318380.48525432 11404.38952077
0.19900001 312926.58488166 12204.13738715
0.20000001 307533.72006248 12053.78472752
0.20100001 302205.90826555 13735.25917983
0.20200001 296939.86609684 9041.81935000
0.20300001 291737.65088988 9819.88979309
0.20400001 286598.00531973 10575.46689616
0.20500001 281520.23571114 10438.77083358
0.20600001 276505.69415340 12019.70309300
0.20700001 271553.18050359 12708.68944830
0.20800001 266662.91351394 10867.84755399
0.20900001 261836.81145105 11547.00393083
0.21000001 257070.03520283 8949.89369867
0.21100001 252365.14024907 11235.29657502
0.21200001 247721.76943420 8706.18199834
0.21300001 243139.56422822 10926.69253298
0.21400001 238619.20912588 10004.11081556
0.21500001 234160.07917239 9104.14430864
0.21600001 229759.81976969 10470.15548192
0.21700001 225420.76307824 8108.38523129
0.21800001 221141.57688012 7990.95125838
0.21900001 216921.11586666 11453.43545930
0.22000001 212759.79595523 7758.28632634
0.22100001 208659.96186120 11117.40329363
0.22200001 204617.71075773 7528.90902333
0.22300001 200633.75005940 9437.81204906
0.22400001 196706.35587018 9958.25973682
0.22500001 192839.92134666 9152.18309989
0.22600001 189028.88421273 7723.72057417
0.22700001 185276.38017449 8237.38825210
0.22800001 181579.69681097 7484.71545650
0.22900001 177939.15191476 6752.79113451
0.23000001 174354.64544018 8457.94425030
0.23100001 170827.61359801 8917.20185153
0.23200001 167353.69749973 8188.61680593
0.23300001 163936.03349068 6329.57055243
0.23400001 160572.73480749 8490.28375450
0.23500001 157262.26863588 6680.50148761
0.23600001 154006.59538475 6022.42819736
0.23700001 150804.11459895 6460.44857498
0.23800001 147654.17048357 6881.42294087
0.23900001 144557.13105939 7806.08544643
0.24000001 141511.52810587 6138.77037960
0.24100001 138518.87369238 7542.35302931
0.24200001 135576.69109536 5930.12474902
0.24300001 132685.44870870 5341.91641770
0.24400001 129843.78659065 6680.46313610
0.24500001 127052.53478982 5625.88650662
0.24600001 124310.73103395 5526.85536322
0.24700001 121618.57257803 4976.63222532
0.24800001 118973.82171687 4443.67245134
0.24900001 116377.36098839 4800.56636787
0.25000001 113828.83588737 5999.91822347
0.25100001 111326.90975339 5049.78886531
0.25200001 108872.70907439 4131.71950484
0.25300001 106464.79671886 4867.57073627
0.25400001 104101.89966102 4380.08763546
0.25500001 101784.35063761 4299.37117434
0.25600001 99512.10225785  5754.28758531
0.25700001 97283.95457476  6023.82275228
0.25800001 95099.49540205  4064.07712829
0.25900001 92958.92450266  4350.47787257
0.26000001 90861.68409199  4980.12914072
0.26100001 88804.93024322  3839.03731606
0.26200001 86792.67006761  4451.16229503
0.26300001 84820.43750055  4030.66738075
0.26400001 82889.03533084  4283.29110340
0.26500001 80999.34990848  4847.81132142
0.26600001 79148.56630090  3486.89025338
0.26700001 77338.57875471  4041.71431698
0.26800001 75567.44381882  3354.06115262
0.26900001 73834.58324923  2990.30076310
0.27000001 72140.41291165  4692.01267781
0.27100001 70483.75799406  3163.31120847
0.27200001 68864.79238291  3384.01605784
0.27300001 67282.06132200  3594.88070656
0.27400001 65734.64970351  4067.33164289
0.27500001 64225.22764285  3722.49437035
0.27600001 62749.02140062  3128.66635510
0.27700001 61309.61475601  3579.25547885
0.27800001 59903.38499313  3008.34813673
0.27900001 58531.88242341  2950.00701376
0.28000001 57193.36284248  3374.98050107
0.28100001 55887.84803713  2364.05608386
0.28200001 54615.33136168  3013.94720384
0.28300001 53374.82002134  2955.89767268
0.28400001 52166.16296125  3345.15535822
0.28500001 50988.95067557  2406.16869627
0.28600001 49841.70134049  3862.23361968
0.28700001 48725.30915538  2315.42680066
0.28800001 47638.04889174  2684.64237237
0.28900001 46581.84012444  2634.20318372
0.29000001 45553.07465244  1988.39180270
0.29100001 44554.21204942  1951.47458014
0.29200001 43582.69046673  2107.00527035
0.29300001 42638.89509213  2444.48797134
0.29400001 41722.18723300  2584.68962143
0.29500001 40833.38844290  2175.60303922
0.29600001 39969.83375394  1780.65617803
0.29700001 39132.11394024  1924.12613353
0.29800001 38320.46689400  1890.54032371
0.29900001 37533.99481566  1689.02984666
0.30000001 36771.99904507  1826.28141903
0.30100001 36035.14258701  2122.10964741
0.30200001 35320.86793625  1605.33352370
0.30300001 34630.75187731  1737.07859640
0.30400001 33964.39431395  1553.87111343
0.30500001 33319.51462272  1835.23895230
0.30600001 32697.17669549  1505.70505811
0.30700001 32097.36016543  2372.63697576
0.30800001 31518.56537689  1460.88557438
0.30900001 30960.99713254  1439.68643482
0.31000001 30424.90017273  1419.32166026
0.31100001 29907.51542342  1959.54050332
0.31200001 29411.33510904  1657.03469850
0.31300001 28934.07365673  2180.47189401
0.31400001 28477.47772899  2152.89741824
0.31500001 28038.85477166  1993.56266865
0.31600002 27618.74403253  1969.90701139
0.31700002 27216.28751037  1557.86037086
0.31800002 26832.25545948  1669.10052989
0.31900002 26465.72186559  1905.53206455
0.32000002 26115.99166259  1383.23356390
0.32100002 25783.46284815  1369.87544599
0.32200002 25467.46271139  1604.06821483
0.32300002 25166.78753237  1467.72711839
0.32400002 24882.20713984  1455.60918661
0.32500002 24612.67873071  1444.27205631
0.32600002 24358.72285312  1314.27495377
0.32700002 24119.33117061  1542.67249472
0.32800002 23895.00198593  1179.21840385
0.32900002 23683.62963323  1289.57369460
0.33000002 23487.60052563  1516.00724772
0.33100002 23302.81861602  1160.48042203
0.33200002 23133.59146621  1271.07524330
0.33300002 22976.02096822  1151.09870502
0.33400002 22831.58278781  1262.01579836
0.33500002 22699.16957687  1487.24966111
0.33600002 22578.67951378  1597.89322486
0.33700002 22469.15572380  1936.61662355
0.33800002 22372.48695257  1478.93332004
0.33900002 22285.69445270  1250.22751800
0.34000002 22210.33041369  1817.69352714
0.34100002 22145.60062714  1476.89017577
0.34200002 22091.89565352  1477.61651076
0.34300002 22046.92284796  1592.66978196
0.34400002 22012.61148550  1822.64431732
0.34500002 21987.33949624  1255.25727129
0.34600002 21972.60195423  1601.14358024
0.34700002 21964.69670479  1605.18011121
0.34800002 21967.18977280  1264.98068298
0.34900002 21977.75024690  1499.98152539
0.35000002 21996.66874453  1968.81192923
0.35100002 22023.69304507  1744.27657178
0.35200002 22057.72459828  1518.34354464
0.35300002 22099.77768379  1290.84807565
0.35400002 22149.52002460  1651.24679604
0.35500002 22206.02725921  1304.38210299
0.35600002 22268.93929801  1311.75193148
0.35700002 22338.75243811  1799.38659412
0.35800002 22415.48612466  1448.48878198
0.35900002 22497.92130197  1822.33171178
0.36000002 22587.16264076  1834.64237240
0.36100002 22681.29279540  1231.59425713
0.36200002 22782.10028404  1364.53396115
0.36300002 22886.60295027  1499.53029633
0.36400002 22997.11344407  1636.81962691
0.36500002 23112.06757047  1268.85256972
0.36600002 23232.49391880  1534.73862097
0.36700002 23356.97550401  1289.30510889
0.36800002 23487.29032414  1560.02589723
0.36900002 23620.83279019  1704.24316654
0.37000002 23757.48497969  1586.52492210
0.37100002 23898.49933458  1333.53632604
0.37200002 24043.67204348  1883.34092038
0.37300002 24191.67176378  1628.58342028
0.37400002 24344.04823756  1506.28805605
0.37500002 24498.51210690  2348.91745208
0.37600002 24657.03455215  2091.53305496
0.37700002 24817.13827333  1969.98452946
0.37800002 24980.83261379  1704.19248164
0.37900002 25146.85815516  1433.37098275
0.38000002 25315.32810086  2025.47949730
0.38100002 25485.50538027  2336.51124395
0.38200002 25658.04633341  1621.46031485
0.38300002 25832.36049253  1785.53284183
0.38400002 26008.93760305  1952.62108305
0.38500002 26186.09147901  1971.02719900
0.38600002 26365.92010246  1683.59590790
0.38700002 26546.08707341  1853.97880904
0.38800002 26727.53690100  1715.50703726
0.38900002 26910.13133675  2203.93986089
0.39000002 27094.43774911  2224.72438898
0.39100002 27278.60184545  1924.77823740
0.39200002 27464.06000807  1780.90705560
0.39300002 27649.70916280  2451.14683341
0.39400002 27836.73003968  1814.25896629
0.39500002 28023.14530681  1997.48989211
0.39600002 28209.83167576  2015.87466706
0.39700002 28396.36570776  2712.42098091
0.39800002 28583.93890727  2052.89858958
0.39900002 28770.48444057  1898.85206304
0.40000002 28956.85799219  1915.93059983
0.40100002 29142.68938575  2460.22595451
0.40200002 29329.40096842  2127.55484705
0.40300002 29514.40931062  2146.28794676
0.40400002 29698.88888629  1984.62834386
0.40500002 29882.71071583  2001.84288570
0.40600002 30066.08708450  1835.53470348
0.40700002 30248.32264326  2221.43692017
0.40800002 30429.90293629  2240.24956032
0.40900002 30609.54133842  3200.22769856
0.41000002 30789.07405908  2467.59045738
0.41100002 30966.96373720  1913.75844964
0.41200002 31142.88192779  2701.02227758
0.41300002 31317.95690747  1944.84521611
0.41400002 31491.36758625  3528.60790523
0.41500002 31663.80875003  1975.82175962
0.41600002 31833.37183897  2787.64850403
0.41700002 32002.14025949  2207.18771828
0.41800002 32169.95996667  2628.44670362
0.41900002 32334.02642269  2648.15688950
0.42000002 32496.99591627  2462.62246723
0.42100002 32658.53412293  2480.74236953
0.42200002 32818.01248058  2706.99388773
0.42300002 32974.67777321  3145.78440863
0.42400002 33129.45441177  2323.20310071
0.42500002 33282.48186513  2764.77589955
0.42600002 33431.91329206  3211.97122174
0.42700002 33580.37298850  2802.61806243
0.42800002 33725.93492540  3255.39602294
0.42900002 33869.68220464  2403.05406629
0.43000002 34010.97377664  2638.57147063
0.43100002 34148.38086236  2434.09670322
0.43200002 34284.28695605  3117.47036064
0.43300002 34417.18537443  2912.72653627
0.43400002 34547.84318299  2930.52093687
0.43500002 34675.45725549  3401.66251796
0.43600002 34801.27937636  2281.22397122
0.43700002 34923.34202916  2982.80278406
0.43800002 35042.10049586  3692.03588321
0.43900002 35158.99158697  2320.49355471
0.44000002 35272.40092884  2799.92331842
0.44100002 35383.69489527  2815.12689928
0.44200002 35491.73731866  2358.42605659
0.44300002 35597.12176383  3556.15263273
0.44400002 35698.99194603  4050.94330305
0.44500002 35797.06921252  2394.82404381
0.44600002 35893.02555643  3369.27846866
0.44700002 35986.16658666  3143.75166200
0.44800002 36075.15364645  3401.52639853
0.44900002 36162.48690865  5126.03276223
0.45000002 36246.37883294  2942.48117311
0.45100002 36325.92487827  2462.89782347
0.45200002 36403.33117911  2720.96711794
0.45300002 36476.90759611  3229.30078253
0.45400002 36548.01719939  2993.28275049
0.45500002 36615.78387380  3506.32762993
0.45600002 36680.07112163  3268.74469292
0.45700002 36741.19179781  2524.11999614
0.45800002 36798.47565048  3547.00523606
0.45900002 36852.83683810  3814.26879352
0.46000002 36904.76854947  3317.55432599
0.46100002 36952.15331886  3072.94121564
0.46200002 36997.11800557  3083.33996072
0.46300002 37038.52650679  2577.88156705
0.46400002 37076.11573233  3879.08879235
0.46500002 37111.40055334  3112.90442595
0.46600002 37142.61577263  3382.39246565
0.46700002 37170.51198350  3653.11809088
0.46800002 37195.92421768  3663.42674983
0.46900002 37217.21668467  3410.95807082
0.47000002 37234.99068293  3945.97832465
0.47100002 37249.98934245  3955.94905567
0.47200002 37261.51212901  2908.07485194
0.47300002 37270.31947761  3709.88777664
0.47400002 37274.39066818  3452.54059928
0.47500002 37276.40510733  2927.68899590
0.47600002 37275.47158419  2933.76613009
0.47700002 37270.08231841  3473.94453756
