# SAXS profile: number of points = 501, q_min = 0, q_max = 0.5, delta_q = 0.001
#    q    intensity    error
0.00000000 1646666.22097351 296.39991978
0.00100000 1646598.44486360 592.77545423
0.00200000 1646395.06085579 889.05336101
0.00300000 1646056.24171333 1185.16053625
0.00400000 1645581.84214781 1604.44235706
0.00500000 1644972.33302586 1628.52267415
0.00600000 1644227.44755026 2244.37055728
0.00700000 1643347.82516919 1972.01747216
0.00800000 1642332.89688723 2217.14950441
0.00900000 1641184.05616304 2954.13142738
0.01000000 1639900.43048637 3517.58657528
0.01100000 1638483.26575225 3539.12400812
0.01200000 1636932.02418141 3511.21934581
0.01300000 1635248.08583364 4807.62958439
0.01400000 1633430.71646902 4410.26312998
0.01500000 1631481.56728051 4698.66712299
0.01600000 1629399.65929181 4570.46624863
0.01700000 1627187.00705289 4832.74562774
0.01800000 1624843.21032556 6020.04436514
0.01900000 1622368.95627201 7300.66063265
0.02000000 1619764.84104850 6632.93732414
0.02100000 1617032.55505672 6403.44920835
0.02200000 1614170.19359387 8910.21987345
0.02300000 1611180.80280215 6960.30138493
0.02400000 1608064.13989373 9045.36119935
0.02500000 1604821.48030591 8136.44527675
0.02600000 1601453.08193442 8431.65086203
0.02700000 1597959.96948488 7382.57539715
0.02800000 1594341.89796140 10403.08136128
0.02900000 1590601.57136864 7157.70739980
0.03000000 1586739.36796277 8116.17224019
0.03100000 1582755.19746650 10636.11541638
0.03200000 1578650.36966150 9377.18362768
0.03300000 1574427.42346503 12847.32836774
0.03400000 1570084.38839514 12364.41512911
0.03500000 1565624.82656681 8454.37445387
0.03600000 1561048.26519350 12129.34558110
0.03700000 1556356.53473902 12419.72572160
0.03800000 1551551.00532839 12707.20332172
0.03900000 1546632.60371565 14847.67368327
0.04000000 1541600.69695037 12325.09814325
0.04100000 1536458.91099620 16455.47569975
0.04200000 1531207.78084854 10863.91970913
0.04300000 1525847.08920874 10070.59125623
0.04400000 1520380.72834095 10262.57039292
0.04500000 1514808.01465262 14633.04610147
0.04600000 1509129.48340294 11703.29968784
0.04700000 1503348.38541873 14071.34154195
0.04800000 1497464.69940114 11006.36605270
0.04900000 1491481.34832263 16779.16594966
0.05000000 1485397.50094909 13635.94969369
0.05100000 1479216.95278721 14999.26059999
0.05200000 1472937.50866112 12880.83911350
0.05300000 1466564.75426329 11879.17506331
0.05400000 1460097.04784773 18068.70180973
0.05500000 1453538.29314975 15872.63890164
0.05600000 1446886.82024093 14845.05946840
0.05700000 1440147.74843440 15035.14319547
0.05800000 1433319.71710254 15221.85610637
0.05900000 1426404.59210365 17972.69869994
0.06000000 1419405.14261021 18182.58072631
0.06100000 1412323.01209593 13134.60462629
0.06200000 1405158.40590893 18590.24657915
0.06300000 1397914.37705027 20129.96797071
0.06400000 1390589.32508406 16269.89586437
0.06500000 1383189.55187278 16432.29264491
0.06600000 1375712.51630168 19356.27601002
0.06700000 1368161.55038364 16746.29816041
0.06800000 1360539.20392500 14081.58141977
0.06900000 1352846.50071281 21307.33338381
0.07000000 1345082.93235506 20055.18746057
0.07100000 1337253.16828054 21663.50234081
0.07200000 1329356.23988564 14556.45150867
0.07300000 1321396.92502152 17601.00786599
0.07400000 1313374.28957984 26595.83061038
0.07500000 1305291.04477738 14880.31860794
0.07600000 1297146.99356737 14982.04847807
0.07700000 1288947.73643334 21112.96491273
0.07800000 1280691.52861253 18211.43439092
0.07900000 1272380.36899452 16795.42165850
0.08000000 1264018.12362906 16893.60301480
0.08100000 1255604.63682314 23165.90663629
0.08200000 1247141.50189917 23290.36864087
0.08300000 1238630.99556853 15606.75127662
0.08400000 1230074.34118775 18820.13830356
0.08500000 1221475.20806651 20484.14020091
0.08600000 1212832.47952073 18992.95752104
0.08700000 1204150.14543674 20663.21746599
0.08800000 1195426.55593293 19150.73432544
0.08900000 1186667.99935716 22428.02624129
0.09000000 1177872.86205633 17685.76185457
0.09100000 1169044.10125084 25812.49496832
0.09200000 1160182.35908841 16184.54466974
0.09300000 1151291.35980907 16233.20893614
0.09400000 1142369.22076046 16278.76216090
0.09500000 1133420.23077803 19585.50250842
0.09600000 1124445.62547687 17996.75308174
0.09700000 1115448.10004920 16397.08784160
0.09800000 1106428.26208779 21359.59860388
0.09900000 1097388.62452350 16460.83014188
0.10000000 1088328.41196136 18136.99383827
0.10100000 1079250.29351247 18163.78329409
0.10200000 1070156.92483714 18187.31779307
0.10300000 1061049.00538622 19862.83831519
0.10400000 1051929.08344961 18224.67222815
0.10500000 1042799.84364129 23212.72561160
0.10600001 1033657.54283925 16590.20434320
0.10700001 1024510.27676389 29874.72107627
0.10800001 1015354.81020649 28221.78827785
0.10900001 1006195.41652024 24903.33773097
0.11000001 997032.15147237 18260.64471374
0.11100001 987867.28498122 19915.40540271
0.11200001 978703.14468152 21565.72480831
0.11300001 969538.91308545 19894.93943318
0.11400001 960378.33937952 21536.48527462
0.11500001 951222.09918041 23171.77142715
0.11600001 942071.20616981 16533.35044686
0.11700001 932928.37819743 19815.39968612
0.11800001 923792.03895666 18138.65753921
0.11900001 914666.64639090 23049.60057472
0.12000001 905552.05925788 19722.92477968
0.12100001 896451.46782484 22967.08768761
0.12200001 887363.91873308 18009.05157912
0.12300001 878292.25947960 19603.48415519
0.12400001 869236.65178988 19557.82558679
0.12500001 860199.45426334 22760.87863231
0.12600001 851182.76331460 19458.03888630
0.12700001 842186.57871464 19403.97968802
0.12800001 833211.07106920 17734.89848354
0.12900001 824259.59023039 19287.67532046
0.13000001 815332.02452373 16021.27503705
0.13100001 806429.54390350 19160.76686634
0.13200001 797554.81359679 30231.31663450
0.13300001 788709.01681408 17438.35718386
0.13400001 779890.64433712 15792.78629239
0.13500001 771103.81356356 17303.57039220
0.13600001 762347.11483502 17232.85734339
0.13700001 753623.86576164 18720.01770823
0.13800001 744932.81500058 18638.21991021
0.13900001 736278.81607374 18554.22704004
0.14000001 727658.99082358 18467.98605806
0.14100001 719076.32889723 16847.95918066
0.14200001 710530.41053157 16764.96582722
0.14300001 702025.71982755 16680.13188986
0.14400001 693556.62114555 28661.22872079
0.14500001 685131.92160547 16504.82877004
0.14600001 676746.26551552 17906.70703028
0.14700001 668406.14210099 17806.34046561
0.14800001 660106.84715117 17704.06647585
0.14900001 651851.43701962 20533.32123490
0.15000001 643641.80257586 17494.18501944
0.15100001 635478.03641541 18835.56988811
0.15200001 627361.64690977 15837.74552357
0.15300001 619292.71748804 21458.49367357
0.15400001 611270.15434337 15633.23493508
0.15500001 603298.40287699 16940.61995226
0.15600001 595374.03840086 18227.37704588
0.15700001 587504.02899487 19493.38460208
0.15800001 579680.20532413 19355.52296933
0.15900001 571911.44069806 17843.63779201
0.16000001 564192.25640801 13625.24363540
0.16100001 556529.37047500 17580.76364319
0.16200001 548917.80011635 21473.66535424
0.16300001 541361.43819420 15980.99040992
0.16400001 533859.48823868 15855.62754923
0.16500001 526412.85237742 18350.75290024
0.16600001 519021.95934845 13001.50069552
0.16700001 511686.67217961 19341.75712160
0.16800001 504407.09966005 12786.72058013
0.16900001 497186.91367000 15213.92027667
0.17000001 490023.36753524 17596.73995910
0.17100001 482917.97631348 12459.28437723
0.17200001 475871.22384043 14818.63061017
0.17300001 468883.21762700 15909.20832539
0.17400001 461955.06135968 15764.21721338
0.17500001 455085.88667982 25229.96274908
0.17600001 448274.67117747 15472.20100643
0.17700001 441526.32785691 15325.37956374
0.17800001 434837.11099057 18680.60317048
0.17900001 428208.73428331 11561.63637175
0.18000001 421641.97472180 11447.58015442
0.18100001 415137.37781851 15866.55132970
0.18200001 408691.56486791 15706.01757979
0.18300001 402309.87684651 18876.38031335
0.18400001 395988.44434322 12087.54783460
0.18500001 389729.94750563 13048.15925891
0.18600001 383533.57995497 11833.92916859
0.18700001 377398.70784369 11706.90847040
0.18800001 371326.17207181 11579.80722316
0.18900001 365318.03265926 11452.72086498
0.19000001 359368.24828291 15443.85119966
0.19100001 353486.39721619 12216.49046502
0.19200001 347663.09302884 13084.30112439
0.19300001 341905.17882008 10944.38529118
0.19400001 336209.03546114 10817.52622713
0.19500001 330576.22743913 14578.41231897
0.19600001 325004.74666997 17287.00329230
0.19700001 319497.09790334 10437.97068178
0.19800001 314051.91020151 10311.89495879
0.19900001 308670.33869701 10186.12165840
0.20000001 303349.23433365 9145.97984741
0.20100001 298092.52643307 10838.64477337
0.20200001 292896.84824820 12486.19323096
0.20300001 287764.49938909 12327.83173650
0.20400001 282694.08240390 8692.84344479
0.20500001 277684.97563206 10296.55938312
0.20600001 272738.55844414 12702.79895997
0.20700001 267853.45487401 9192.73100581
0.20800001 263030.02521788 8245.99168037
0.20900001 258270.10509302 8949.05956451
0.21000001 253568.91182501 8025.45643864
0.21100001 248929.00202333 8707.53690241
0.21200001 244349.97197330 8587.68017098
0.21300001 239831.34084391 10778.02096706
0.21400001 235373.97353811 9868.05430711
0.21500001 230977.26804700 11225.49575780
0.21600001 226638.89104232 9590.22512787
0.21700001 222360.92625978 9452.56342222
0.21800001 218142.26009999 7882.57094141
0.21900001 213981.55632817 9179.80920051
0.22000001 209879.36493495 8349.00153187
0.22100001 205837.91327579 9596.16397066
0.22200001 201853.60880304 9452.80494722
0.22300001 197926.66909231 9975.50459395
0.22400001 194055.91509080 7204.32618841
0.22500001 190245.41815259 6449.31998034
0.22600001 186489.44969618 7619.95927492
0.22700001 182791.46327555 7501.76200758
0.22800001 179148.63086670 10461.38479418
0.22900001 175561.30911296 8479.61163116
0.23000001 172029.33290917 8345.14333408
0.23100001 168554.07373963 9385.09126967
0.23200001 165131.39257870 6348.47668793
0.23300001 161764.15350195 6813.50646774
0.23400001 158450.75316302 6702.46717579
0.23500001 155189.53476479 6592.45174861
0.23600001 151982.31617417 6483.56591464
0.23700001 148827.62915647 6907.09059584
0.23800001 145724.70359398 6269.07704513
0.23900001 142674.16208000 5649.89708561
0.24000001 139674.34961053 5554.15077498
0.24100001 136726.89953206 6948.46136289
0.24200001 133829.25125097 5365.88408272
0.24300001 130981.70402746 6232.10977242
0.24400001 128183.17426118 5181.80506463
0.24500001 125434.34920441 5091.38047505
0.24600001 122734.51978101 5911.50842490
0.24700001 120083.39598383 7147.36406707
0.24800001 117479.11599390 4826.62970894
0.24900001 114922.44068430 4740.55090249
0.25000001 112413.07429589 5502.05818171
0.25100001 109949.58586448 4987.31345076
0.25200001 107533.20267500 5713.23932841
0.25300001 105162.55137105 4808.03207615
0.25400001 102836.06612974 3933.47971556
0.25500001 100554.46377704 4633.54991007
0.25600001 98317.33028263  5306.18656640
0.25700001 96123.74054963  4091.98782880
0.25800001 93973.23486820  4015.94638210
0.25900001 91865.97854011  5732.43733213
0.26000001 89801.45832925  4218.87271193
0.26100001 87776.72929274  4484.51331176
0.26200001 85795.80668572  4400.03815407
0.26300001 83854.22189225  3652.69007846
0.26400001 81953.10912556  3909.16349026
0.26500001 80092.89847652  5432.70156073
0.26600001 78270.93508881  3761.70131837
0.26700001 76489.28735067  3689.84339640
0.26800001 74745.77252455  3317.59127049
0.26900001 73039.94525146  3845.55329947
0.27000001 71372.30748813  2901.28443669
0.27100001 69741.39075444  3414.53865292
0.27200001 68147.73586678  4744.10485687
0.27300001 66589.60329685  3557.88267252
0.27400001 65066.23280088  2683.98223006
0.27500001 63580.27052838  3948.33498667
0.27600001 62126.98085269  3097.65141191
0.27700001 60709.96329219  3797.40838365
0.27800001 59325.37562820  2731.04379630
0.27900001 57975.11878538  2921.94612507
0.28000001 56657.13191503  2626.90804557
0.28100001 55371.65823757  2342.22125430
0.28200001 54118.63748927  3216.27077821
0.28300001 52897.09120223  2478.75781106
0.28400001 51706.87366818  2431.51584933
0.28500001 50547.45529350  2819.03171515
0.28600001 49417.52761705  2340.16713107
0.28700001 48317.94560954  2087.33534913
0.28800001 47246.92107662  2457.78495074
0.28900001 46206.30580978  2411.96927744
0.29000001 45192.84797084  2169.93469803
0.29100001 44208.70160710  1936.34122205
0.29200001 43251.28402337  2471.16222965
0.29300001 42321.24688989  2053.00378381
0.29400001 41417.75554796  2016.00934673
0.29500001 40541.78190248  2160.06624202
0.29600001 39690.33190947  1768.20437027
0.29700001 38864.42439553  2432.13579380
0.29800001 38064.08268855  1877.89160834
0.29900001 37288.45309003  2013.57656218
0.30000001 36536.76372991  1814.59845655
0.30100001 35809.71423611  2757.70622387
0.30200001 35104.92900453  1914.62291855
0.30300001 34423.85156003  2668.53709927
0.30400001 33765.99481633  1699.27376958
0.30500001 33129.23303157  2128.88461539
0.30600001 32514.69268025  1796.76200257
0.30700001 31922.11733151  1622.28207959
0.30800001 31350.17201490  1598.38859585
0.30900001 30799.03509560  1718.58623970
0.31000001 30269.08871756  1553.25836108
0.31100001 29757.28195395  1810.43311979
0.31200001 29266.44972656  2061.08981958
0.31300001 28793.96515362  2441.15248130
0.31400001 28341.78066658  1874.80887986
0.31500001 27907.43621789  1719.65630117
0.31600002 27490.97551687  1830.07432681
0.31700002 27092.00312798  1809.20405455
0.31800002 26710.98877766  1533.74504823
0.31900002 26347.14937838  1264.66323004
0.32000002 25999.74002833  1377.07629580
0.32100002 25669.21777814  1363.80560513
0.32200002 25354.94556465  1842.67075616
0.32300002 25055.65235252  1339.47523819
0.32400002 24772.09590833  1811.45959907
0.32500002 24503.31954769  1318.03362088
0.32600002 24249.80005429  1665.23384858
0.32700002 24010.50671412  1535.71208216
0.32800002 23786.07026130  1643.37967217
0.32900002 23574.21094191  2333.84699376
0.33000002 23377.44088869  1741.03499263
0.33100002 23191.72704745  1732.42209248
0.33200002 23021.14647460  1149.90632086
0.33300002 22862.08238341  1947.16364880
0.33400002 22715.94021201  1369.77125965
0.33500002 22581.46454055  1365.72704009
0.33600002 22458.71356694  1248.81682703
0.33700002 22346.71656299  1132.97858340
0.33800002 22247.27285447  1357.52865387
0.33900002 22157.43150752  1469.03777852
0.34000002 22079.07159640  1242.27902220
0.34100002 22010.84840362  1242.07223424
0.34200002 21953.55507689  1581.31464708
0.34300002 21904.82325678  1130.28893358
0.34400002 21866.48559796  1471.06788827
0.34500002 21836.99807789  1813.34440627
0.34600002 21817.92847708  1135.62323102
0.34700002 21805.52335762  1707.37255976
0.34800002 21803.32050701  1255.54427086
0.34900002 21809.04839384  1259.47260439
0.35000002 21822.91050458  1378.77155098
0.35100002 21844.73400854  1153.40201028
0.35200002 21873.52151027  1274.02332071
0.35300002 21910.06318640  1628.79417442
0.35400002 21954.21293919  1519.78046270
0.35500002 22005.04104868  1645.09694672
0.35600002 22062.09268905  1417.71014335
0.35700002 22125.88838108  1188.16026234
0.35800002 22196.58264270  1673.40044469
0.35900002 22272.83797952  1924.37329258
0.36000002 22355.82133374  1936.90845210
0.36100002 22443.55595343  1340.55366060
0.36200002 22537.94439472  2454.38226084
0.36300002 22635.81858547  1483.09890397
0.36400002 22739.72526754  1494.00002084
0.36500002 22848.00268173  1756.09756930
0.36600002 22961.64648841  1769.65417869
0.36700002 23079.25302375  1656.16727543
0.36800002 23202.64686191  1669.54653403
0.36900002 23329.30822854  1553.73200162
0.37000002 23458.92837530  1697.13625370
0.37100002 23592.98882929  1579.78660684
0.37200002 23731.05761615  1593.30328382
0.37300002 23871.92550419  2142.74413476
0.37400002 24017.18346997  2026.44995127
0.37500002 24164.53178147  1635.45558844
0.37600002 24315.79764002  1375.05842168
0.37700002 24468.76600837  1942.33073776
0.37800002 24625.29976155  1539.94319354
0.37900002 24784.05710988  1553.96045440
0.38000002 24945.36155657  2281.00396879
0.38100002 25108.37198034  1870.32271742
0.38200002 25273.67444378  2177.95899837
0.38300002 25440.80461649  1465.39041533
0.38400002 25610.22265492  1626.88947123
0.38500002 25780.17906169  1791.20692606
0.38600002 25952.94298681  1657.22525293
0.38700002 26126.07869308  1672.59163717
0.38800002 26300.45324600  1841.55782353
0.38900002 26476.04106611  1548.84847574
0.39000002 26653.38106482  2344.83131027
0.39100002 26830.66043626  1735.40719923
0.39200002 27009.22096750  2069.85174691
0.39300002 27188.07404803  1767.49677760
0.39400002 27368.31489562  2108.04455471
0.39500002 27548.02986878  1963.62366208
0.39600002 27728.09391204  1651.20807069
0.39700002 27908.04095849  1832.72113657
0.39800002 28089.04419052  2521.69406168
0.39900002 28269.16023237  2035.37963316
0.40000002 28449.30427537  1711.22573324
0.40100002 28628.80213229  1898.94853541
0.40200002 28809.33121113  3483.04830845
0.40300002 28988.27379718  2810.70316055
0.40400002 29166.67734761  1771.87573282
0.40500002 29344.66594601  3038.05340933
0.40600002 29522.15003729  1982.56007969
0.40700002 29698.66732268  2726.33778940
0.40800002 29874.69941877  2382.65676504
0.40900002 30048.76963887  2217.59930442
0.41000002 30222.83264781  2049.56149312
0.41100002 30395.40283071  2066.27958234
0.41200002 30566.20965216  2840.36516651
0.41300002 30736.17620857  3053.94661279
0.41400002 30904.63361561  2693.33894722
0.41500002 31072.29198901  2326.69333438
0.41600002 31237.06219719  3516.98099943
0.41700002 31401.25615985  2362.63062542
0.41800002 31564.61081681  1983.83588384
0.41900002 31724.30432883  2798.08377439
0.42000002 31882.99177411  2617.43433372
0.42100002 32040.47113171  2839.42668624
0.42200002 32195.95687717  2655.68362885
0.42300002 32348.83964914  2880.34081885
0.42400002 32499.91568839  2486.24366797
0.42500002 32649.36235033  3129.44152957
0.42600002 32795.41864076  2100.54666348
0.42700002 32940.58142456  2537.74251320
0.42800002 33082.96527605  2128.88891640
0.42900002 33223.74740584  3428.69089476
0.43000002 33362.17773134  2803.92436030
0.43100002 33496.80325249  2821.77083971
0.43200002 33630.19778148  2839.56588424
0.43300002 33760.66170725  2417.60109942
0.43400002 33889.03166132  2211.25942069
0.43500002 34014.58534314  2447.00938555
0.43600002 34138.38858570  3132.88006897
0.43700002 34258.63398011  3826.34701057
0.43800002 34375.68504188  2716.36676074
0.43900002 34491.10845519  2504.05459251
0.44000002 34603.10566462  3204.59376747
0.44100002 34713.14964735  2761.77831682
0.44200002 34820.15011582  3239.31871879
0.44300002 34924.58719528  3023.77090267
0.44400002 35025.70727074  2337.96607112
0.44500002 35123.22104385  2819.69231903
0.44600002 35218.65078179  2597.55171151
0.44700002 35311.44234580  2372.92903809
0.44800002 35400.37636319  2384.21546105
0.44900002 35487.67356465  3832.66892662
0.45000002 35571.70259936  2647.06837438
0.45100002 35651.52750273  2658.89104717
0.45200002 35729.35940580  2913.37210402
0.45300002 35803.62333229  3169.69492383
0.45400002 35875.47284777  2448.50113790
0.45500002 35944.19422222  3687.87450198
0.45600002 36009.44542851  3455.82664156
0.45700002 36071.81066893  3965.01361665
0.45800002 36130.47090811  3731.37455988
0.45900002 36186.35270116  2746.54430019
0.46000002 36239.97694580  3508.39233440
0.46100002 36289.25716440  3520.78389696
0.46200002 36336.19266748  2523.54870036
0.46300002 36379.58123371  3038.42276865
0.46400002 36419.46255724  3048.30916052
0.46500002 36457.12534122  3312.85913677
0.46600002 36490.92415480  3067.42722984
0.46700002 36521.53844480  3845.71818051
0.46800002 36549.73464810  3599.78353611
0.46900002 36573.99176177  3609.85315798
0.47000002 36594.96004036  3361.06426421
0.47100002 36613.20437502  2851.43649188
0.47200002 36628.10728123  2858.64076825
0.47300002 36640.35700370  2865.64245708
0.47400002 36648.15545166  3133.41743963
0.47500002 36653.95677407  3925.63895657
0.47600002 36656.93309671  4458.76626855
0.47700002 36655.67978097  2891.03360135
