# SAXS profile: number of points = 501, q_min = 0, q_max = 0.5, delta_q = 0.001
#    q    intensity    error
0.00000000 1664650.74656090 274.66737318
0.00100000 1664582.46367152 499.37475096
0.00200000 1664377.56647926 823.86692149
0.00300000 1664036.20685592 1098.26393565
0.00400000 1663558.27350880 2370.57062983
0.00500000 1662944.21897064 1646.31484194
0.00600000 1662193.77331586 2094.36423964
0.00700000 1661307.56830022 2790.99683074
0.00800000 1660285.08614090 3362.07744138
0.00900000 1659127.64532278 2488.69157437
0.01000000 1657834.43921900 4103.14041424
0.01100000 1656406.69848782 3279.68540580
0.01200000 1654843.81539460 3226.94558150
0.01300000 1653147.28091201 4513.09227594
0.01400000 1651316.30552679 5944.73896343
0.01500000 1649352.59100377 4354.29103414
0.01600000 1647255.07761924 7140.85108070
0.01700000 1645025.83572637 6662.35493356
0.01800000 1642664.45315398 6554.23146301
0.01900000 1640171.59867311 5412.56651985
0.02000000 1637547.94914423 5158.27627314
0.02100000 1634795.05700385 7013.27111252
0.02200000 1631911.21467986 6756.11273572
0.02300000 1628899.29725300 6450.44151074
0.02400000 1625759.13209785 6706.25672569
0.02500000 1622492.02570054 6327.71918922
0.02600000 1619098.17473741 7868.81748913
0.02700000 1615578.65447516 9499.60292341
0.02800000 1611933.26902294 10517.86506272
0.02900000 1608164.61709681 8684.08933105
0.03000000 1604273.05046685 8951.84403308
0.03100000 1600258.72311595 8449.36644683
0.03200000 1596122.60924166 8690.88800761
0.03300000 1591867.61945707 8118.52523350
0.03400000 1587491.54533215 12501.49649631
0.03500000 1582997.94530943 8548.18929941
0.03600000 1578386.38458696 10512.05380715
0.03700000 1573658.75641807 10763.82639170
0.03800000 1568816.47560054 9177.57680700
0.03900000 1563860.34883492 16889.69254958
0.04000000 1558789.84902354 13421.18122202
0.04100000 1553608.55759565 10766.50780334
0.04200000 1548316.96201201 13981.30281560
0.04300000 1542914.98991714 11201.56334675
0.04400000 1537406.20728272 16603.98780977
0.04500000 1531790.39334645 14797.09588727
0.04600000 1526067.91953495 10758.77933286
0.04700000 1520241.90235237 17513.18752960
0.04800000 1514312.54158044 14469.25700803
0.04900000 1508282.46314504 11312.11900014
0.05000000 1502151.26158485 21833.76960385
0.05100000 1495922.36371549 12835.01447859
0.05200000 1489593.75744853 14210.72510830
0.05300000 1483170.99172805 15617.79127096
0.05400000 1476652.46222839 18273.57507224
0.05500000 1470041.96992303 20992.20030977
0.05600000 1463337.94653731 15013.84803208
0.05700000 1456545.59894758 15206.33676282
0.05800000 1449663.41398593 21810.18708179
0.05900000 1442693.24795096 16879.51178940
0.06000000 1435638.24969678 17076.91777796
0.06100000 1428499.45706296 15942.05468582
0.06200000 1421277.48145579 14774.18011033
0.06300000 1413975.56414688 20361.24907571
0.06400000 1406591.65391035 15085.69619370
0.06500000 1399132.14038692 20777.11325665
0.06600000 1391594.96363888 13985.53003893
0.06700000 1383982.84246061 14116.62565374
0.06800000 1376298.77915406 17093.63163723
0.06900000 1368543.48572532 17243.64872747
0.07000000 1360716.71913824 21737.45060616
0.07100000 1352823.03342074 16071.53838979
0.07200000 1344861.36117448 22089.34889211
0.07300000 1336836.54017477 17806.66354947
0.07400000 1328747.99450459 23917.46502195
0.07500000 1320597.91460036 18065.78031852
0.07600000 1312386.43759651 16673.87047134
0.07700000 1304119.06007635 24413.10994932
0.07800000 1295794.16675980 19961.71007506
0.07900000 1287413.54004677 16993.85952569
0.08000000 1278981.38441918 15539.62454967
0.08100000 1270497.42053383 17189.83090634
0.08200000 1261962.82054593 17282.58163836
0.08300000 1253380.60977836 22109.63499414
0.08400000 1244751.45805545 20631.75638570
0.08500000 1236079.34761261 20729.05163259
0.08600000 1227362.89488807 22423.92114244
0.08700000 1218606.25430805 22519.84463709
0.08800000 1209808.01127342 19381.12525081
0.08900000 1200974.02164762 24319.72508065
0.09000000 1192102.99143866 16272.20659753
0.09100000 1183197.75466675 17960.94275967
0.09200000 1174259.17728737 18019.00792213
0.09300000 1165290.60224673 18073.65809017
0.09400000 1156290.48852805 16477.14023591
0.09500000 1147263.09691283 23128.82512088
0.09600000 1138209.37809981 21529.23139880
0.09700000 1129132.37255439 16598.24665688
0.09800000 1120032.88906002 26611.98269530
0.09900000 1110912.64956892 28328.27389607
0.10000000 1101771.52849305 21699.39127413
0.10100000 1092612.21636888 21732.05800567
0.10200000 1083437.33678975 18413.01840482
0.10300000 1074247.19159741 21785.73407041
0.10400000 1065044.72942241 28516.57397185
0.10500000 1055832.44458067 26860.37865390
0.10600001 1046607.04520783 18477.84825259
0.10700001 1037375.85904433 20166.58764881
0.10800001 1028136.26434019 16810.02871307
0.10900001 1018892.26237780 25217.58468073
0.11000001 1009644.36167656 23534.81117845
0.11100001 1000394.37001961 28571.26455271
0.11200001 991144.97722344 18479.89897031
0.11300001 981894.51696010 18469.43673358
0.11400001 972647.90438467 18455.99485469
0.11500001 963405.28183822 30173.85484800
0.11600001 954167.74566609 18420.20919752
0.11700001 944937.74341118 16725.39884606
0.11800001 935714.39271016 20043.00323584
0.11900001 926501.34126748 18344.72742116
0.12000001 917298.88752267 18313.87315206
0.12100001 908110.40579770 16618.42120896
0.12200001 898934.52458049 24878.01413980
0.12300001 889774.69729607 18204.79116439
0.12400001 880630.39750846 18163.00280441
0.12500001 871504.13796389 21412.85767876
0.12600001 862398.54075088 19714.43157058
0.12700001 853313.13716461 16383.61300566
0.12800001 844248.33399247 19603.44723920
0.12900001 835207.06706501 16286.53857539
0.13000001 826190.06667575 17858.09913294
0.13100001 817197.57531034 19416.61530463
0.13200001 808232.77930843 24186.36706096
0.13300001 799296.84930474 17672.45417126
0.13400001 790388.44117425 19206.44002603
0.13500001 781511.08675291 19131.39230572
0.13600001 772664.19569838 15878.24997027
0.13700001 763850.49442354 22136.38837220
0.13800001 755068.85442731 15743.18635719
0.13900001 746324.34720023 18807.37443637
0.14000001 737613.89941588 20280.69512089
0.14100001 728940.47871526 17079.07622180
0.14200001 720304.03578153 16995.57452587
0.14300001 711708.62185365 18447.48834857
0.14400001 703148.81857893 15293.48752548
0.14500001 694633.40424647 18254.96672472
0.14600001 686157.13851063 24207.62498863
0.14700001 677726.19789181 16550.07453329
0.14800001 669336.32872044 17951.60118321
0.14900001 660990.36468086 23795.65425121
0.15000001 652690.09263597 14783.43129573
0.15100001 644435.81716682 17631.76478964
0.15200001 636229.21990369 14601.46128579
0.15300001 628070.01681853 17410.10168778
0.15400001 619957.03461708 15855.40190856
0.15500001 611895.24985440 17182.01942678
0.15600001 603881.04712531 22754.23892957
0.15700001 595920.91557286 21184.98954848
0.15800001 588007.47154831 22438.36617335
0.15900001 580148.89210240 15315.93147442
0.16000001 572340.33319252 15204.22166894
0.16100001 564588.14681250 17835.34039971
0.16200001 556887.44129072 28593.38702285
0.16300001 549242.19054667 14862.49437782
0.16400001 541651.30128057 16087.04440750
0.16500001 534116.17789800 18619.29084057
0.16600001 526636.76015564 18469.15205064
0.16700001 519213.15309774 14392.58928341
0.16800001 511845.88938584 15570.35269029
0.16900001 504537.86824280 24444.86087060
0.17000001 497286.94766131 17857.57513375
0.17100001 490094.41205179 16437.76735643
0.17200001 482960.55754495 15039.39247215
0.17300001 475885.50953193 14904.73486241
0.17400001 468871.10078762 16000.22707000
0.17500001 461915.76887469 13414.03456163
0.17600001 455018.71733794 15704.97177065
0.17700001 448184.69511709 15556.49150226
0.17800001 441410.26763538 15407.42611954
0.17900001 434696.98782673 14084.18307083
0.18000001 428045.56663896 13945.72521982
0.18100001 421456.66023797 14957.49757838
0.18200001 414926.76739554 19362.55851516
0.18300001 408461.32725895 13528.23979788
0.18400001 402056.66206960 16735.60934925
0.18500001 395715.41894236 13248.55285208
0.18600001 389436.27322052 10923.68797991
0.18700001 383219.46558364 15129.50521603
0.18800001 377064.77032340 14965.70144121
0.18900001 370975.29596400 12687.35572141
0.19000001 364944.54543274 11501.22789273
0.19100001 358981.87492404 12406.41418358
0.19200001 353078.49900783 10221.62302926
0.19300001 347240.83490003 14146.59228229
0.19400001 341465.24358913 14981.78827042
0.19500001 335753.37283951 11845.37955353
0.19600001 330103.57584302 11705.47335255
0.19700001 324517.70490637 11565.81154944
0.19800001 318994.91338748 11426.39833754
0.19900001 313536.09451786 9406.08328007
0.20000001 308138.44471485 12077.48691139
0.20100001 302805.43878163 9175.00522872
0.20200001 297533.93328712 12683.87217551
0.20300001 292326.22898689 10734.21963575
0.20400001 287181.10189238 9713.90123064
0.20500001 282097.81917915 10460.18762958
0.20600001 277077.58656457 12044.56325728
0.20700001 272119.24117830 9339.13279869
0.20800001 267222.85331938 10890.66790184
0.20900001 262390.64988395 13224.48937929
0.21000001 257617.67484376 11415.03971194
0.21100001 252906.48090545 11259.39706218
0.21200001 248256.76189632 9518.16470107
0.21300001 243667.89343405 11732.60962351
0.21400001 239140.91636976 8483.52440929
0.21500001 234675.06111212 9124.16680741
0.21600001 230268.14115777 10493.31968867
0.21700001 225922.05265116 10342.71205937
0.21800001 221635.89439087 8736.88736997
0.21900001 217408.21474776 8609.36571108
0.22000001 213239.82949348 9189.57088653
0.22100001 209132.57981605 9749.76133203
0.22200001 205082.89722264 9604.03253106
0.22300001 201091.44902317 7432.34030734
0.22400001 197156.57086852 9315.64841404
0.22500001 193282.42434797 10483.63919238
0.22600001 189463.77310273 10321.98684674
0.22700001 185703.47785617 7621.27109162
0.22800001 181998.87660714 8752.32638994
0.22900001 178350.33067210 6768.39536909
0.23000001 174757.97284378 6660.90044995
0.23100001 171222.63620270 8937.82203247
0.23200001 167740.64702060 9966.31101407
0.23300001 164314.66951404 8074.42324180
0.23400001 160943.25996275 6240.57520021
0.23500001 157624.39245476 7811.86525953
0.23600001 154360.27536479 5487.50804876
0.23700001 151149.15570764 8094.03767097
0.23800001 147990.78847277 5836.01701946
0.23900001 144884.98363955 6259.03158928
0.24000001 141830.89992565 6152.62472980
0.24100001 138829.52339848 6047.41432529
0.24200001 135878.66089953 6438.61065128
0.24300001 132978.52930792 4867.01440289
0.24400001 130128.07087557 6695.08956325
0.24500001 127327.98313123 5168.24307978
0.24600001 124577.28288308 5538.70625899
0.24700001 121876.16399851 4987.17286674
0.24800001 119222.53273407 6679.44271241
0.24900001 116616.85050445 7434.32457136
0.25000001 114059.25563522 6870.92988452
0.25100001 111548.35289090 5903.13911426
0.25200001 109085.09348259 4553.75744287
0.25300001 106668.01990194 5689.67245075
0.25400001 104295.96684946 5585.04928902
0.25500001 101969.24330819 3915.61912829
0.25600001 99687.72802789  4227.25830703
0.25700001 97450.44240684  3771.33229958
0.25800001 95256.82032401  3700.72764468
0.25900001 93107.00207441  4720.52522852
0.26000001 91000.63230457  4275.20990795
0.26100001 88934.68740849  3844.64671858
0.26200001 86913.08102099  3428.72120851
0.26300001 84931.60737467  4372.27935453
0.26400001 82991.08469496  6267.90196817
0.26500001 81092.01417349  5500.47158166
0.26600001 79232.07901325  4759.86737196
0.26700001 77412.84716073  3734.39592375
0.26800001 75632.51833859  3051.77225937
0.26900001 73890.42072881  3291.81839924
0.27000001 72187.16679934  3521.29016311
0.27100001 70521.34494613  3740.45231295
0.27200001 68893.22216942  4796.00188829
0.27300001 67301.33820694  3042.69364433
0.27400001 65744.79162388  3254.36733939
0.27500001 64226.32395376  3456.66091878
0.27600001 62741.15086142  3388.96342417
0.27700001 61292.65538327  2811.49423549
0.27800001 59877.50399307  3257.63575892
0.27900001 58496.98589572  2948.24822868
0.28000001 57149.67777314  3131.51674179
0.28100001 55835.17458799  3070.37639591
0.28200001 54553.78474002  3010.55075337
0.28300001 53304.58318187  2724.93042123
0.28400001 52087.11263947  3117.41383902
0.28500001 50901.12055686  2620.38981029
0.28600001 49745.35315193  2141.53755455
0.28700001 48620.30920454  3990.75516840
0.28800001 47524.52348889  2884.26346706
0.28900001 46459.75826762  3435.69928652
0.29000001 45422.62023049  2775.77645367
0.29100001 44415.35358738  1945.39257921
0.29200001 43435.47251507  2099.88801814
0.29300001 42483.37945973  2060.86883514
0.29400001 41558.48236764  2574.54810455
0.29500001 40661.51604285  1985.90853754
0.29600001 39789.91998513  1949.90512117
0.29700001 38944.08114716  2785.28081549
0.29800001 38124.71150781  1709.89339207
0.29900001 37330.21994592  2351.80396793
0.30000001 36560.41053575  1815.77287522
0.30100001 35815.79817243  1622.45573402
0.30200001 35093.98798768  2392.53274432
0.30300001 34396.30576238  1568.47161702
0.30400001 33722.42420158  1697.08107829
0.30500001 33070.12249003  1973.29430240
0.30600001 32440.45086206  1792.65939951
0.30700001 31833.25865828  1764.83594357
0.30800001 31247.51671111  1737.98696175
0.30900001 30682.74735815  1426.74781970
0.31000001 30139.69471194  1687.22018986
0.31100001 29615.44305029  1663.20336045
0.31200001 29112.40658825  1640.19306484
0.31300001 28628.41072303  1618.07785068
0.31400001 28165.27299181  1463.89013306
0.31500001 27720.00623867  1708.10686530
0.31600002 27293.51256662  1946.70987599
0.31700002 26884.73196328  1923.60266305
0.31800002 26494.41563204  1648.08520243
0.31900002 26121.75698111  1253.84439446
0.32000002 25766.08661849  1860.95569414
0.32100002 25427.58299253  1719.41324337
0.32200002 25105.74570436  1581.28546806
0.32300002 24799.26078007  1566.81737027
0.32400002 24509.14179066  1314.30279076
0.32500002 24234.04937821  1777.56760606
0.32600002 23974.61046367  1293.55016882
0.32700002 23729.90252118  1284.26238526
0.32800002 23500.36639724  1391.69176395
0.32900002 23283.81751245  1152.54902144
0.33000002 23082.87458565  1604.49068843
0.33100002 22893.15892035  1254.08730504
0.33200002 22719.13479395  1361.78500404
0.33300002 22556.92842563  1356.12260117
0.33400002 22408.07115186  1238.60619157
0.33500002 22271.06807287  1346.95426083
0.33600002 22146.32168982  1343.39593732
0.33700002 22032.53417456  1228.75448911
0.33800002 21931.75997193  1226.75305213
0.33900002 21840.91963857  1113.88695432
0.34000002 21761.83724183  1224.42983040
0.34100002 21693.13084429  1558.00073102
0.34200002 21635.88640795  1669.74961261
0.34300002 21587.30653332  1448.07659084
0.34400002 21549.64775495  1115.19432413
0.34500002 21521.09491635  1228.63936696
0.34600002 21503.17374032  1343.08829543
0.34700002 21492.20013838  1234.08219039
0.34800002 21491.78194636  1125.09483818
0.34900002 21499.46609405  1354.46642808
0.35000002 21515.69217866  1472.64162092
0.35100002 21540.00732186  1478.50617260
0.35200002 21571.60286641  1484.88135364
0.35300002 21611.29411610  1491.82770349
0.35400002 21658.75470465  1614.66023971
0.35500002 21713.21881287  1507.33172138
0.35600002 21774.09189162  1515.80347883
0.35700002 21841.95811773  1172.91320648
0.35800002 21916.98232906  1534.29842062
0.35900002 21997.81380442  1544.24660221
0.36000002 22085.50289780  1793.89505784
0.36100002 22178.06390958  1565.54960553
0.36200002 22277.72234777  1334.32424322
0.36300002 22380.90808679  1344.19740336
0.36400002 22490.45240258  1600.75802558
0.36500002 22604.39087104  1613.27545288
0.36600002 22723.98225420  1751.33739529
0.36700002 22847.72168932  1513.43315639
0.36800002 22977.44976236  1526.16228551
0.36900002 23110.35138088  1923.93684359
0.37000002 23246.74589346  1293.68147025
0.37100002 23387.50338752  1566.02730101
0.37200002 23532.51590253  2106.63092339
0.37300002 23680.46676686  1727.01652312
0.37400002 23832.88087180  1876.83945756
0.37500002 23987.49762982  1758.76340953
0.37600002 24146.32819023  1638.56990861
0.37700002 24306.71657149  1516.00998438
0.37800002 24471.00988645  1669.41237354
0.37900002 24637.69237619  1685.21823836
0.38000002 24806.81697596  1559.48062307
0.38100002 24977.80529809  1431.22831138
0.38200002 25151.34399330  1444.94478087
0.38300002 25326.56312591  2042.33414723
0.38400002 25504.39457849  1767.45462802
0.38500002 25682.81511861  1635.73857240
0.38600002 25864.12013876  1651.55346970
0.38700002 26045.64515699  1819.02794394
0.38800002 26228.64736050  2295.66246899
0.38900002 26412.98770164  1854.19182450
0.39000002 26598.98645870  1716.03369268
0.39100002 26785.06414578  2047.45040030
0.39200002 26972.52763836  1908.03669553
0.39300002 27160.24418880  2086.72165989
0.39400002 27349.35393192  1620.44929724
0.39500002 27538.05836488  2290.06504212
0.39600002 27727.11298591  1816.26462219
0.39700002 27916.09060265  2666.54510070
0.39800002 28106.16732961  1682.15419438
0.39900002 28295.37111138  1867.49458183
0.40000002 28484.49258159  3084.01615793
0.40100002 28673.18706194  2766.38921881
0.40200002 28862.71922107  2268.17689745
0.40300002 29050.75807357  1760.47602267
0.40400002 29238.25834046  2664.33641751
0.40500002 29425.34888977  1971.20421552
0.40600002 29611.87179103  1988.58534435
0.40700002 29797.48061787  2370.68767028
0.40800002 29982.44120186  2023.36514038
0.40900002 30165.69445459  2782.78544529
0.41000002 30348.71112938  2806.49719467
0.41100002 30530.22559713  2264.12163756
0.41200002 30709.93665589  2663.47293237
0.41300002 30888.83225939  2301.83588904
0.41400002 31066.14818728  2127.25459792
0.41500002 31242.49702899  2144.48509768
0.41600002 31416.15169614  2161.58841988
0.41700002 31588.97452971  3763.19471404
0.41800002 31760.99823270  2994.26825027
0.41900002 31929.27915593  2816.16255499
0.42000002 32096.62258273  3040.35271822
0.42100002 32262.52223210  2654.88308028
0.42200002 32426.38095408  3291.92635045
0.42300002 32587.71567344  2901.61034106
0.42400002 32747.01214365  2505.14654770
0.42500002 32904.67742168  2523.13078426
0.42600002 33058.78479943  2752.63984676
0.42700002 33212.01100385  2558.65344898
0.42800002 33362.38176425  2146.86936826
0.42900002 33510.98723535  2377.60465702
0.43000002 33657.19596302  2393.53160433
0.43100002 33799.62453835  3066.30208342
0.43200002 33940.53949817  2645.32577384
0.43300002 34078.46447398  3105.91139934
0.43400002 34214.25019121  2455.72792385
0.43500002 34347.05692704  2470.92739242
0.43600002 34478.14580143  2712.05107726
0.43700002 34605.53366702  2728.30040360
0.43800002 34729.51736388  2515.63270947
0.43900002 34851.85129529  2300.22229450
0.44000002 34970.68998267  3007.30462758
0.44100002 35087.32417926  3256.80558466
0.44200002 35200.81980884  3274.73242201
0.44300002 35311.79270942  2586.94205649
0.44400002 35419.15766747  3309.92044088
0.44500002 35522.85762854  2851.77514557
0.44600002 35624.47368222  2866.34528831
0.44700002 35723.27242282  3120.78522676
0.44800002 35817.98340328  2653.57542619
0.44900002 35910.97692649  3393.58748038
0.45000002 36000.59524959  3166.07249927
0.45100002 36085.93594600  3914.60251694
0.45200002 36169.08830491  2949.22760015
0.45300002 36248.55559275  2962.23210343
0.45400002 36325.49444946  2727.13662504
0.45500002 36399.14186868  3236.61184836
0.45600002 36469.21474453  3999.94366275
0.45700002 36536.25577192  2761.04497954
0.45800002 36599.49250333  3023.85021394
0.45900002 36659.83437912  3035.43443045
0.46000002 36717.68641458  3046.83376309
0.46100002 36771.03814933  3312.70298388
0.46200002 36822.05146612  2813.02075508
0.46300002 36869.30073059  3335.93448821
0.46400002 36912.95885424  2574.67900211
0.46500002 36954.22660280  4649.58101153
0.46600002 36991.45653178  3627.75231401
0.46700002 37025.41215455  3119.02086773
0.46800002 37056.79448456  2867.64017710
0.46900002 37084.11970165  3398.75973175
0.47000002 37107.87572354  3408.17300736
0.47100002 37128.92260926  2891.60062986
0.47200002 37146.43306385  3162.64746096
0.47300002 37161.23617251  2906.38041881
0.47400002 37171.43710447  2913.31152115
0.47500002 37179.46708974  2654.61407603
0.47600002 37184.45678758  3192.65761111
0.47700002 37185.12362324  3732.64288622
