# SAXS profile: number of points = 501, q_min = 0, q_max = 0.5, delta_q = 0.001
#    q    intensity    error
0.00000000 1646666.22097351 419.89988635
0.00100000 1646598.51610905 543.37752322
0.00200000 1646395.35324974 889.05351891
0.00300000 1646056.89043334 1283.92442028
0.00400000 1645583.00415722 1234.18730001
0.00500000 1644974.13130865 1628.52445445
0.00600000 1644230.04939360 1899.08578437
0.00700000 1643351.34764704 2366.42603896
0.00800000 1642337.51481909 3104.01803406
0.00900000 1641189.89014947 2954.14192855
0.01000000 1639907.63509633 3517.60202917
0.01100000 1638491.99251136 3539.14285792
0.01200000 1636942.35917687 5107.26038455
0.01300000 1635260.22046489 3777.45127588
0.01400000 1633444.78495677 4777.82620780
0.01500000 1631497.72471842 6656.51101326
0.01600000 1629418.01151193 4155.01611510
0.01700000 1627207.70597110 4832.80710353
0.01800000 1624866.40107970 7872.47806747
0.01900000 1622394.77258520 5353.90299111
0.02000000 1619793.42261233 5612.58446324
0.02100000 1617063.97139052 8004.46702129
0.02200000 1614204.64169819 5569.00626687
0.02300000 1611218.42276732 6380.42524459
0.02400000 1608105.06379865 6030.39426422
0.02500000 1604865.77178255 6258.97679580
0.02600000 1601500.92661344 7134.68695439
0.02700000 1598011.45888569 8725.14296514
0.02800000 1594397.19177772 7629.19091253
0.02900000 1590660.84919756 7873.77156505
0.03000000 1586802.60346061 8854.35893430
0.03100000 1582822.72418378 8357.30436824
0.03200000 1578722.05536922 7814.67453401
0.03300000 1574503.57905376 17665.93097139
0.03400000 1570165.08317637 9067.70377373
0.03500000 1565710.18101966 11836.76951511
0.03600000 1561138.32197413 9530.74989610
0.03700000 1556451.44193833 11533.30571815
0.03800000 1551650.90512303 14523.45314409
0.03900000 1546737.58614550 10208.46854131
0.04000000 1541710.95262344 13274.13191720
0.04100000 1536574.45957546 11616.50345301
0.04200000 1531328.64421199 10864.77723473
0.04300000 1525973.51604860 12085.71080810
0.04400000 1520512.61746817 12316.15277348
0.04500000 1514945.70518195 11498.43843660
0.04600000 1509273.02698254 14896.52546881
0.04700000 1503497.83094282 14072.74035212
0.04800000 1497620.12408869 12108.25926663
0.04900000 1491642.76840618 11187.32128379
0.05000000 1485565.16945987 14773.94629824
0.05100000 1479390.82373210 16154.94854772
0.05200000 1473117.72675531 15224.67241551
0.05300000 1466751.42398503 16632.96192338
0.05400000 1460290.21948453 16866.35282159
0.05500000 1453737.89285573 15874.81853053
0.05600000 1447093.08762570 12372.64647656
0.05700000 1440360.78103587 16290.48119393
0.05800000 1433539.52192565 15224.19043370
0.05900000 1426631.24413774 19259.52269539
0.06000000 1419638.76840223 16886.60393907
0.06100000 1412563.38411841 17077.89211206
0.06200000 1405405.68324502 13281.08432747
0.06300000 1398168.97987528 21475.87653500
0.06400000 1390851.00174220 14916.87769130
0.06500000 1383458.37853838 20544.35788231
0.06600000 1375988.76500967 15211.55650891
0.06700000 1368445.02690070 15353.95392037
0.06800000 1360830.04217326 14084.59159578
0.06900000 1353144.71302823 14208.02015200
0.07000000 1345388.54774517 21492.58305669
0.07100000 1337566.33259108 15890.28877545
0.07200000 1329676.96487206 17471.95613692
0.07300000 1321724.98534231 20539.60723461
0.07400000 1313710.03274911 17735.08627325
0.07500000 1305634.28888683 16372.65475007
0.07600000 1297497.82102494 16484.71058893
0.07700000 1289306.08558175 19610.34648120
0.07800000 1281057.56761203 18216.63946573
0.07900000 1272753.96913337 21382.26768435
0.08000000 1264399.44330677 24579.92633095
0.08100000 1255993.83732420 18538.46990870
0.08200000 1247538.09885968 20191.40507753
0.08300000 1239035.37565592 20295.40040575
0.08400000 1230486.43263407 25101.92440399
0.08500000 1221895.06579095 20491.18121528
0.08600000 1213259.96558699 26916.17360030
0.08700000 1204585.25124097 22260.73648825
0.08800000 1195869.27359533 15964.85555227
0.08900000 1187118.26433196 19231.31678547
0.09000000 1178330.81321098 16084.21635589
0.09100000 1169509.67877923 17753.15775793
0.09200000 1160655.68173247 19429.37702512
0.09300000 1151772.17590671 17863.98728778
0.09400000 1142857.41047533 17914.29075113
0.09500000 1133916.06993010 17961.23139192
0.09600000 1124948.89327946 21278.40931663
0.09700000 1115958.69436492 21325.97165191
0.09800000 1106946.52357321 16438.15664795
0.09900000 1097914.13767376 23056.19797531
0.10000000 1088861.05095359 21445.11940703
0.10100000 1079790.36554534 23129.11071778
0.10200000 1070704.45830820 24813.57698843
0.10300000 1061603.65125493 19873.22128634
0.10400000 1052490.80552472 19892.07716024
0.10500000 1043368.57642308 19907.47337479
0.10600001 1034233.39970893 18259.39153103
0.10700001 1025093.15745584 19927.81191870
0.10800001 1015944.38359878 26577.10632571
0.10900001 1006791.67214438 19934.47604669
0.11000001 997635.34965775 28238.06990122
0.11100001 988477.15554923 19927.70039394
0.11200001 979319.89429121 18259.42028866
0.11300001 970161.80154594 24884.65138124
0.11400001 961007.84433738 23208.34053350
0.11500001 951857.95621079 23187.26090514
0.11600001 942713.20546794 23162.46454910
0.11700001 933576.58609932 18176.73698739
0.11800001 924446.50824455 16501.37094935
0.11900001 915326.92539619 23066.23960644
0.12000001 906218.36219889 16447.86404868
0.12100001 897123.62664782 24626.04471157
0.12200001 888041.86506113 19661.24781872
0.12300001 878976.04240034 31063.01480194
0.12400001 869925.96451177 19573.33512376
0.12500001 860893.92970545 17897.98564194
0.12600001 851882.84736798 19474.04280852
0.12700001 842891.91673156 17801.87812031
0.12800001 833921.66849832 20977.30055972
0.12900001 824975.04084038 19304.41686552
0.13000001 816052.49057649 30467.32117175
0.13100001 807154.72099033 20776.16349763
0.13200001 798284.36898314 15925.77391196
0.13300001 789443.22544646 20628.15245339
0.13400001 780629.53667632 18969.29863555
0.13500001 771846.78354140 23618.51268994
0.13600001 763094.44467306 21954.22820840
0.13700001 754375.30865237 21861.79747560
0.13800001 745688.21390076 21766.63999019
0.13900001 737038.04058639 17025.57954044
0.14000001 728421.90626657 20027.96125733
0.14100001 719842.62445654 18399.17834887
0.14200001 711300.15433267 18308.86683607
0.14300001 702798.78464288 16698.49991074
0.14400001 694332.86615690 16611.91460639
0.14500001 685911.32144681 21030.04210759
0.14600001 677528.47690275 17927.40434456
0.14700001 669191.05118209 17827.25044452
0.14800001 660894.28728289 19202.28442294
0.14900001 652641.49922544 16152.87786794
0.15000001 644433.98396959 20435.00259586
0.15100001 636272.60794518 18859.12098936
0.15200001 628158.13634801 20182.72187322
0.15300001 620091.20049899 20053.75037045
0.15400001 612070.27586750 17076.76150257
0.15500001 604100.25889083 22617.51476026
0.15600001 596177.27193943 15443.97295847
0.15700001 588308.51456164 15337.20369849
0.15800001 580486.02674549 16613.51086959
0.15900001 572718.02463934 16494.27988815
0.16000001 564999.86393314 15009.22209386
0.16100001 557337.48133204 23023.61244064
0.16200001 549726.44050954 17473.05573643
0.16300001 542170.65261951 17338.61828929
0.16400001 534668.78645423 14556.35839842
0.16500001 527222.19663848 14440.61664769
0.16600001 519831.37145851 13021.77646983
0.16700001 512495.60440517 14206.37882486
0.16800001 505215.98939944 14087.94852959
0.16900001 497995.24094121 12698.87924362
0.17000001 490830.99085703 13848.79706097
0.17100001 483724.79212358 12480.10022611
0.17200001 476676.91901306 13606.74329578
0.17300001 469687.43427097 12258.84261339
0.17400001 462758.25145659 17006.36654417
0.17500001 455887.63860525 16849.60791862
0.17600001 449074.86603302 11922.93825629
0.17700001 442324.74414716 15353.09259448
0.17800001 435633.58459647 15205.79098854
0.17900001 429003.12714712 15058.01047411
0.18000001 422434.16802782 16056.72348518
0.18100001 415927.26809141 15896.74093736
0.18200001 409478.77913401 17984.30882911
0.18300001 403094.27747265 13350.48310056
0.18400001 396770.05694066 14313.48048031
0.18500001 390508.63943774 11984.71071053
0.18600001 384308.96693767 10779.86703188
0.18700001 378170.95143580 10664.42133433
0.18800001 372094.94748960 13713.55993764
0.18900001 366083.12928888 12520.04361322
0.19000001 360129.73394023 10317.71736489
0.19100001 354243.82201894 13262.88932306
0.19200001 348416.35997517 13112.65032726
0.19300001 342654.52297711 11965.49650776
0.19400001 336954.06521926 12812.67893541
0.19500001 331316.73610517 12662.92625233
0.19600001 325740.58799420 9625.63483010
0.19700001 320228.16268166 9510.77688110
0.19800001 314778.01858004 13154.57401813
0.19900001 309391.46123720 15778.96526881
0.20000001 304065.31885401 11917.84073573
0.20100001 298803.30018435 11769.86255053
0.20200001 293602.14141458 12516.25988007
0.20300001 288464.03183166 8826.99979125
0.20400001 283387.96799935 12199.85259901
0.20500001 278373.12963100 10322.07613461
0.20600001 273420.80404870 9338.68800370
0.20700001 268529.60446978 10891.56127213
0.20800001 263699.80703339 9093.68827541
0.20900001 258933.62647828 8972.05058159
0.21000001 254225.84646263 12069.37263136
0.21100001 249579.47167525 7936.62757446
0.21200001 244993.65010893 9393.05698923
0.21300001 240468.16156950 8490.93118643
0.21400001 236003.75936026 11416.68239879
0.21500001 231599.91423987 9004.60509136
0.21600001 227254.57669836 7397.13682126
0.21700001 222969.19030375 9478.42072795
0.21800001 218743.19064467 10059.99981339
0.21900001 214574.95964021 9205.26620380
0.22000001 210465.24386928 7674.61548057
0.22100001 206416.05478411 8935.75143412
0.22200001 202423.71754530 7448.18103926
0.22300001 198488.93902226 6669.22866651
0.22400001 194610.12266037 7224.90114541
0.22500001 190791.53564742 7114.61670072
0.22600001 187027.35549108 8278.76628230
0.22700001 183320.99735803 6896.53624674
0.22800001 179669.81264837 8023.15586323
0.22900001 176073.89183869 7896.91442242
0.23000001 172533.52510463 6576.11562036
0.23100001 169049.51749503 8824.38523057
0.23200001 165618.11161910 8103.69458478
0.23300001 162242.05575824 8542.04463966
0.23400001 158919.79312045 8402.88445866
0.23500001 155649.49431276 8815.98777484
0.23600001 152433.30962185 5960.90485470
0.23700001 149269.44498980 5861.81138200
0.23800001 146157.44032276 7859.61672511
0.23900001 143097.51981240 7212.11533967
0.24000001 140088.48950195 7089.87878905
0.24100001 137131.65066866 5475.66707021
0.24200001 134224.53259353 5870.98133335
0.24300001 131367.52223629 4808.05154128
0.24400001 128559.47766830 5669.47323336
0.24500001 125801.10288393 6034.67919081
0.24600001 123091.50493026 6840.81071011
0.24700001 120430.75445286 5376.02913309
0.24800001 117816.73175744 5280.54616717
0.24900001 115250.18351243 4754.07029479
0.25000001 112731.04444925 4668.75642674
0.25100001 110257.67133716 4167.74017372
0.25200001 107831.52658556 4910.64795303
0.25300001 105450.83514595 5624.74781279
0.25400001 103114.40963305 5127.36426158
0.25500001 100822.75017552 4258.75316890
0.25600001 98575.69647065  5320.13059023
0.25700001 96371.97936785  4475.51493359
0.25800001 94211.51651506  6954.22342059
0.25900001 92094.14565753  4310.00622070
0.26000001 90019.63718213  4229.12275492
0.26100001 87984.82334639  4149.36446535
0.26200001 85993.62011337  5427.91755839
0.26300001 84041.97636725  3328.06242162
0.26400001 82130.81614518  4244.11012513
0.26500001 80260.30231637  3842.86345675
0.26600001 78428.30376947  4397.47520044
0.26700001 76636.50687607  4929.26035552
0.26800001 74882.95585640  3625.83289414
0.26900001 73166.92950789  3259.58686383
0.27000001 71489.19840326  3487.24326313
0.27100001 69848.22524427  2849.80772483
0.27200001 68244.38842776  2794.60783837
0.27300001 66676.20453432  3288.47056326
0.27400001 65142.85642032  2687.14295451
0.27500001 63646.82201588  3688.96997862
0.27600001 62183.51877692  2842.09786020
0.27700001 60756.45486210  3546.96200272
0.27800001 59361.99342227  3478.01935922
0.27900001 58001.72888796  3166.89454716
0.28000001 56673.94090161  2866.56806647
0.28100001 55378.57639855  2342.51389253
0.28200001 54115.74581944  2756.65622251
0.28300001 52884.41623048  3604.60198088
0.28400001 51684.42419883  2651.41108689
0.28500001 50515.28809905  2600.52715443
0.28600001 49375.69791928  2338.18628564
0.28700001 48266.59418386  2293.62866418
0.28800001 47185.96309673  2045.51159706
0.28900001 46135.85767201  2408.29188447
0.29000001 45112.94425339  2559.93414283
0.29100001 44119.40296614  2512.15892380
0.29200001 43152.62663482  2275.86963645
0.29300001 42213.20608016  2047.76272388
0.29400001 41300.57146600  2010.30541127
0.29500001 40415.37503002  1973.88700990
0.29600001 39554.88135931  1762.17004797
0.29700001 38719.87190630  2769.24536983
0.29800001 37910.64703773  1700.29260013
0.29900001 37126.00381590  2004.80430096
0.30000001 36365.63252261  2134.48090196
0.30100001 35629.80446747  1936.83626254
0.30200001 34916.38276971  2221.72954082
0.30300001 34226.69909006  1716.81130763
0.30400001 33560.31733896  1688.92305004
0.30500001 32915.18588362  1661.88781394
0.30600001 32292.29155289  1784.47211569
0.30700001 31691.42900722  2196.21613418
0.30800001 31111.41056898  1874.61813259
0.30900001 30552.07614156  1846.87309020
0.31000001 30014.13458816  1680.19133379
0.31100001 29494.53916654  1656.41339802
0.31200001 28995.82534603  1497.48947090
0.31300001 28515.62912166  1611.70343426
0.31400001 28055.93973261  1590.77185816
0.31500001 27613.96234163  1701.57244006
0.31600002 27190.05126066  1292.88699866
0.31700002 26783.74007794  1405.34290843
0.31800002 26395.56904581  1515.63364637
0.31900002 26024.64355529  1748.85612972
0.32000002 25670.25680904  1359.62521627
0.32100002 25332.84065765  1835.36439255
0.32200002 25011.71784999  1575.36312338
0.32300002 24705.68833775  1200.69651007
0.32400002 24415.59712112  1309.28645762
0.32500002 24140.33735878  1416.55506329
0.32600002 23880.47160311  1874.13950016
0.32700002 23634.91246444  1860.54039730
0.32800002 23404.27183214  1732.50130441
0.32900002 23186.40317256  1147.72701139
0.33000002 22983.72296732  1483.48446917
0.33100002 22792.17034138  1702.57520513
0.33200002 22615.99524521  1581.53662239
0.33300002 22451.35839113  1462.25704126
0.33400002 22299.83719099  1680.85030787
0.33500002 22159.97778708  1228.54922669
0.33600002 22032.07501202  1670.58216690
0.33700002 21914.90913575  1333.30313496
0.33800002 21810.54537718  1330.87954194
0.33900002 21715.85750611  1218.25966379
0.34000002 21632.80662641  1217.16992248
0.34100002 21559.88089291  1106.02194219
0.34200002 21498.16038526  1659.12060631
0.34300002 21445.05610865  1327.87793713
0.34400002 21402.50831557  1107.57985779
0.34500002 21368.99537918  1330.86109525
0.34600002 21345.91648514  1444.37150737
0.34700002 21329.63533594  1224.74771900
0.34800002 21323.71936387  1451.18579004
0.34900002 21325.80096239  1791.36736568
0.35000002 21336.22138779  1460.35774205
0.35100002 21354.68111640  1353.03265962
0.35200002 21380.27215012  1811.33674235
0.35300002 21413.64675564  1819.30351453
0.35400002 21454.88461502  1256.71992585
0.35500002 21502.91454961  1263.08126047
0.35600002 21557.21046865  1500.70527785
0.35700002 21618.45245449  1393.09314215
0.35800002 21686.65590627  1518.17441863
0.35900002 21760.62212834  1527.59574576
0.36000002 21841.39121143  1655.79594617
0.36100002 21926.98125395  1785.95270773
0.36200002 22019.52682792  1198.96329257
0.36300002 22115.50325216  1569.75849519
0.36400002 22217.76057631  1702.99142884
0.36500002 22324.46628618  1348.17458288
0.36600002 22436.64992681  1235.13763698
0.36700002 22552.98036064  1493.90948985
0.36800002 22675.21719264  1255.07333106
0.36900002 22800.75547442  1898.16298316
0.37000002 22929.49304909  1531.23161835
0.37100002 23062.69279933  1415.58815108
0.37200002 23200.07581248  1427.84873352
0.37300002 23340.43895365  1440.33855606
0.37400002 23485.17529601  1981.56175947
0.37500002 23632.18579544  1599.42641040
0.37600002 23783.31980098  2824.38827676
0.37700002 23936.08635143  1764.32900854
0.37800002 24092.78664726  1506.64248436
0.37900002 24251.76337756  1658.82069361
0.38000002 24413.26805131  2511.39300341
0.38100002 24576.64387439  1549.06593679
0.38200002 24742.57737380  2132.19170620
0.38300002 24910.18835619  1865.27499248
0.38400002 25080.47578031  2027.75656290
0.38500002 25251.30652548  1754.46086051
0.38600002 25425.19951758  1475.93290192
0.38700002 25599.36332685  1936.84792107
0.38800002 25774.92262978  2105.55352938
0.38900002 25951.88197559  1518.18516750
0.39000002 26130.65619275  2452.10089330
0.39100002 26309.54480216  1547.00130766
0.39200002 26489.71094460  1717.72538758
0.39300002 26670.43842204  2206.71217959
0.39400002 26852.48918668  3022.91911341
0.39500002 27034.30668483  1927.00547179
0.39600002 27216.45673160  2106.96209770
0.39700002 27398.61940629  1799.26742166
0.39800002 27581.92218823  1815.85593329
0.39900002 27764.46922613  2332.21552549
0.40000002 27947.15190554  2521.53190014
0.40100002 28129.32359617  1865.81812253
0.40200002 28312.54799026  2224.94168923
0.40300002 28494.31936288  1899.43141872
0.40400002 28675.67422525  2264.66147924
0.40500002 28856.65860453  2284.58176997
0.40600002 29037.25273175  2127.26923592
0.40700002 29217.02144614  1966.88997695
0.40800002 29396.37470952  2164.16120866
0.40900002 29573.92732561  2364.43560171
0.41000002 29751.45700290  2017.59515225
0.41100002 29927.57270157  1849.52408059
0.41200002 30102.08253920  2610.75374233
0.41300002 30275.82773995  2068.14189091
0.41400002 30448.20348657  2274.48090822
0.41500002 30619.75606712  2292.80744295
0.41600002 30788.56728866  2310.98997019
0.41700002 30956.87315363  3299.69326580
0.41800002 31124.39739920  2347.40216308
0.41900002 31288.33366950  2759.63116041
0.42000002 31451.41144381  2582.00374483
0.42100002 31613.32677542  2601.46078362
0.42200002 31773.27467933  2620.81868611
0.42300002 31930.82519908  2640.04075256
0.42400002 32086.57197320  2659.17477829
0.42500002 32240.70286417  2678.23531384
0.42600002 32391.55028000  2697.08256187
0.42700002 32541.63563276  2924.84234927
0.42800002 32688.91104136  2313.88467771
0.42900002 32834.72452486  3176.75974832
0.43000002 32978.20179541  3411.26535537
0.43100002 33117.99629038  2146.04626131
0.43200002 33256.54690631  3024.01795349
0.43300002 33392.24797230  2825.98607981
0.43400002 33525.92098772  2625.07973774
0.43500002 33656.84480400  2861.50508084
0.43600002 33786.10702712  2214.67942058
0.43700002 33911.86038614  3342.01399943
0.43800002 34034.43048506  3137.63429511
0.43900002 34155.48857298  2930.54105844
0.44000002 34273.14427686  2720.60232163
0.44100002 34388.81754072  3191.97019540
0.44200002 34501.50558292  2521.88767010
0.44300002 34611.80529981  2996.69024487
0.44400002 34718.72199088  3012.71724353
0.44500002 34822.09699553  2795.51807928
0.44600002 34923.50791519  2575.78344835
0.44700002 35022.25138778  2588.84494527
0.44800002 35117.21413090  3074.68782895
0.44900002 35210.49727538  3327.39215021
0.45000002 35300.57512225  4298.55123635
0.45100002 35386.47511790  3598.80469005
0.45200002 35470.47861597  2651.24104980
0.45300002 35550.97246309  2905.22560737
0.45400002 35628.99781832  3404.35090288
0.45500002 35703.93774415  3419.00924042
0.45600002 35775.36657401  2452.40149488
0.45700002 35844.04736128  2954.98340451
0.45800002 35909.06443176  3461.27488462
0.45900002 35971.25439861  3474.82333959
0.46000002 36031.25479508  3239.02980332
0.46100002 36086.84824245  2750.90057190
0.46200002 36140.22626004  3262.92048253
0.46300002 36189.94893177  2770.70262153
0.46400002 36236.25282407  2527.47875427
0.46500002 36280.33966240  3550.39420764
0.46600002 36320.58408211  2544.25703554
0.46700002 36357.68878814  2807.54086129
0.46800002 36392.29915503  2816.21820359
0.46900002 36423.08024035  4108.52364584
0.47000002 36450.47844022  2832.74906624
0.47100002 36475.21437428  3615.42342014
0.47200002 36496.60693199  2589.43438456
0.47300002 36515.25161504  2596.23451288
0.47400002 36529.64229455  3904.10570527
0.47500002 36541.92691605  3391.82181711
0.47600002 36551.33124634  2876.77266210
0.47700002 36556.61440789  4717.99687911
