# SAXS profile: number of points = 501, q_min = 0, q_max = 0.5, delta_q = 0.001
#    q    intensity    error
0.00000000 1664650.74656090 274.66737318
0.00100000 1664582.40333529 599.24967943
0.00200000 1664377.32286643 1123.45472851
0.00300000 1664035.66374154 1198.10572057
0.00400000 1663557.30663643 1372.43483012
0.00500000 1662942.69324193 1945.64302810
0.00600000 1662191.57289781 1745.30122260
0.00700000 1661304.58586603 2392.27870307
0.00800000 1660281.17391528 2689.65561530
0.00900000 1659122.72905495 3484.15787996
0.01000000 1657828.35347898 3008.95859149
0.01100000 1656399.32362177 4472.27836850
0.01200000 1654835.07707292 4840.39281266
0.01300000 1653137.01354097 4165.90545786
0.01400000 1651304.41242679 4458.52211120
0.01500000 1649338.94623026 5145.93774138
0.01600000 1647239.58328383 5460.59946269
0.01700000 1645008.35551546 4441.52275913
0.01800000 1642644.88247981 5149.69193830
0.01900000 1640149.84875117 6396.58469876
0.02000000 1637523.87739207 5674.02049183
0.02100000 1634768.58351411 6473.68388422
0.02200000 1631882.18887460 6192.99318814
0.02300000 1628867.61545693 5863.92368256
0.02400000 1625724.69634955 8535.05504501
0.02500000 1622454.72313794 10756.87530568
0.02600000 1619057.91947361 6557.18487378
0.02700000 1615535.32389504 8820.82327247
0.02800000 1611886.77645418 8414.04935896
0.02900000 1608114.86900085 9407.47241559
0.03000000 1604219.96151317 11189.43474588
0.03100000 1600202.14207077 9985.26182597
0.03200000 1596062.48176568 10270.66254321
0.03300000 1591803.79593476 12177.29960028
0.03400000 1587424.01434737 9167.37410584
0.03500000 1582926.57510604 9402.58429032
0.03600000 1578311.10539627 10511.55244772
0.03700000 1573579.50142575 8969.40357294
0.03800000 1568733.00868876 11930.21508320
0.03900000 1563772.75486244 9382.63696368
0.04000000 1558697.99851898 9585.99313510
0.04100000 1553512.34237819 18595.54360048
0.04200000 1548216.26031109 13980.39347920
0.04300000 1542809.83185831 11200.79989921
0.04400000 1537296.51985747 11414.42719005
0.04500000 1531676.03712305 13739.13469138
0.04600000 1525948.90651953 11833.73432017
0.04700000 1520118.15332786 12039.33633428
0.04800000 1514183.89834537 12242.17738773
0.04900000 1508148.92531132 11311.11746634
0.05000000 1502012.78029101 13788.47796515
0.05100000 1495778.78979114 19834.02767658
0.05200000 1489445.17609220 14209.30764209
0.05300000 1483017.22407022 13213.68408246
0.05400000 1476493.56974631 15835.39427399
0.05500000 1469877.74308704 13581.67097970
0.05600000 1463168.56667449 13761.10101172
0.05700000 1456370.88982309 15204.51279948
0.05800000 1449483.32859027 14110.72086269
0.05900000 1442507.86806935 12982.57141899
0.06000000 1435447.24958068 19701.51442093
0.06100000 1428303.01048369 14611.54048007
0.06200000 1421075.57542318 16114.99777857
0.06300000 1413768.08440636 14929.39166936
0.06400000 1406378.67434736 19197.06980263
0.06500000 1398913.60319872 18004.01891536
0.06600000 1391370.78280119 18178.26012783
0.06700000 1383753.12592070 19759.99556289
0.06800000 1376063.44337431 17090.70876671
0.06900000 1368302.58219083 15803.89556423
0.07000000 1360469.99470678 27529.11163204
0.07100000 1352570.71016596 17529.31722478
0.07200000 1344603.53770437 16195.75037037
0.07300000 1336573.07411451 16319.55799960
0.07400000 1328478.78617223 14945.38704484
0.07500000 1320323.11808751 15051.68425171
0.07600000 1312105.91857020 15154.82406995
0.07700000 1303832.94780347 19831.30006595
0.07800000 1295502.35339135 21492.38505067
0.07900000 1287116.13797687 15445.39438017
0.08000000 1278678.40942123 20196.72642426
0.08100000 1270188.88420993 17185.65640968
0.08200000 1261648.65673842 25132.04242156
0.08300000 1253061.03172744 15788.56974075
0.08400000 1244426.40901759 15866.43745972
0.08500000 1235748.77524724 15941.15994905
0.08600000 1227026.91356162 17613.97217118
0.08700000 1218264.92409088 19297.31730376
0.08800000 1209461.17613492 16146.30745969
0.08900000 1200621.89946043 19450.07568482
0.09000000 1191745.61972183 16267.32847337
0.09100000 1182835.18281368 26117.00206353
0.09200000 1173891.42865820 16375.78619923
0.09300000 1164917.76301652 22995.47772255
0.09400000 1155912.57183884 21413.28139968
0.09500000 1146880.15134272 21469.59744226
0.09600000 1137821.44178238 18210.83303178
0.09700000 1128739.53014051 28207.20218431
0.09800000 1119635.26733390 19951.90140198
0.09900000 1110510.23474418 21654.95059578
0.10000000 1101364.29112469 18354.23677474
0.10100000 1092200.50325517 16710.66848574
0.10200000 1083020.96868948 26772.27960527
0.10300000 1073826.55832757 20102.03411751
0.10400000 1064619.49937876 23474.86106568
0.10500000 1055402.96305259 26849.45264331
0.10600001 1046173.24882623 16791.08143374
0.10700001 1036937.97080042 16798.39591746
0.10800001 1027694.16957239 23523.92064859
0.10900001 1018446.28908113 16804.36456075
0.11000001 1009194.52080952 23524.32538735
0.11100001 999940.82333301 21838.70860961
0.11200001 990687.44847194 25188.22956319
0.11300001 981433.49548479 18460.76491922
0.11400001 972183.41371406 23478.23054665
0.11500001 962937.33038367 21781.64343893
0.11600001 953696.20339691 23432.31682092
0.11700001 944463.24121548 18388.70017248
0.11800001 935236.56409708 18363.37080093
0.11900001 926020.53655446 31669.90384187
0.12000001 916815.31783729 16640.19880258
0.12100001 907624.08835755 19931.42591926
0.12200001 898445.62823784 23206.85167069
0.12300001 889283.09068630 18194.73289268
0.12400001 880136.24089824 19803.06635328
0.12500001 871007.60472145 23046.86230691
0.12600001 861899.86883229 16419.19327498
0.12700001 852812.25125830 27835.79319287
0.12800001 843745.51168452 26122.36227288
0.12900001 834702.41279393 19532.03737996
0.13000001 825683.59917840 19469.62018632
0.13100001 816689.54536312 19404.54451251
0.13200001 807723.14449977 17725.48524163
0.13300001 798785.81496410 17661.15520146
0.13400001 789876.11259650 17594.49123759
0.13500001 780997.64430479 15932.35269500
0.13600001 772149.70457451 19041.21261261
0.13700001 763335.21211749 17381.14359949
0.13800001 754552.86966973 20452.15649683
0.13900001 745807.72561474 17228.15927415
0.14000001 737096.70907234 23384.39419814
0.14100001 728422.97905334 21721.57425982
0.14200001 719786.03305020 16983.35225084
0.14300001 711190.79178566 21506.41055800
0.14400001 702630.83121331 25979.77620958
0.14500001 694115.78119697 15201.13632528
0.14600001 685639.72141171 22677.53485549
0.14700001 677209.12585578 21047.66062455
0.14800001 668819.75219461 14948.12216678
0.14900001 660474.64286151 19318.88421518
0.15000001 652175.14420154 26589.18188365
0.15100001 643921.88497351 14681.41967014
0.15200001 635716.26269473 17507.62670075
0.15300001 627558.28229336 20295.23580708
0.15400001 619446.62751823 25923.84258501
0.15500001 611386.27597810 17167.72743966
0.15600001 603373.77517834 18472.28899888
0.15700001 595415.38619698 23989.28704209
0.15800001 587503.83558035 14011.96713994
0.15900001 579647.09164712 15302.68394178
0.16000001 571840.83455219 16571.94816756
0.16100001 564090.69749527 16448.88551542
0.16200001 556392.33935627 13603.79333944
0.16300001 548749.66283422 16199.09081159
0.16400001 541161.36746321 20090.61671554
0.16500001 533629.02790825 22588.51781779
0.16600001 526152.55716362 14498.13439714
0.16700001 518732.10254778 18300.86944196
0.16800001 511367.88099573 12963.17639532
0.16900001 504063.16505906 14138.97244752
0.17000001 496815.70857427 16566.32058467
0.17100001 489626.48444542 16422.07306377
0.17200001 482496.10550950 15024.92943509
0.17300001 475425.03702291 18612.89107843
0.17400001 468414.45200528 12295.87994582
0.17500001 461463.17344466 13400.89118972
0.17600001 454570.12414579 13275.72110268
0.17700001 447740.37904958 11954.66868525
0.17800001 440970.31543822 16576.07494025
0.17900001 434261.31284138 12897.56160059
0.18000001 427614.57440059 12770.70986770
0.18100001 421030.26896369 12643.53957422
0.18200001 414505.02911406 11378.16358666
0.18300001 408044.47841987 13514.43376368
0.18400001 401644.77259056 14489.33585569
0.18500001 395308.49418778 13234.92901065
0.18600001 389034.57389669 13094.90437601
0.18700001 382822.97855538 12954.73020636
0.18800001 376673.87656461 13882.31637667
0.18900001 370589.60223061 11617.98457885
0.19000001 364564.63337931 11489.25496380
0.19100001 358607.48196902 12393.47516244
0.19200001 352709.83383160 13274.23522348
0.19300001 346878.06491141 22207.13476497
0.19400001 341108.49744419 10975.16642389
0.19500001 335402.50403124 10846.91749294
0.19600001 329758.64022887 12667.67876302
0.19700001 324178.96972937 10590.92744156
0.19800001 318662.36202224 11414.48634707
0.19900001 313210.00311008 9396.30053737
0.20000001 307818.57611120 11136.87661004
0.20100001 302492.13693222 13748.26827334
0.20200001 297227.20178540 13575.85308319
0.20300001 292025.97222807 12510.39324155
0.20400001 286887.47100715 9703.96916548
0.20500001 281810.85220344 8707.95574468
0.20600001 276797.27400216 10313.46691682
0.20700001 271845.85335051 9329.75012800
0.20800001 266956.20051074 11716.70819427
0.20900001 262131.01392512 9908.55279476
0.21000001 257365.01952526 10589.28422895
0.21100001 252660.95294988 8034.61868363
0.21200001 248018.21973547 9509.01899419
0.21300001 243436.43668352 8595.74098566
0.21400001 238916.63874300 9246.07435648
0.21500001 234457.94607993 9875.36915577
0.21600001 230058.31891388 9734.91822509
0.21700001 225719.38042972 7381.02408902
0.21800001 221440.65498874 11638.92137650
0.21900001 217220.30517905 8601.92449180
0.22000001 213059.12902707 8475.49255344
0.22100001 208959.37491804 9045.85176792
0.22200001 204916.91757456 7539.91833868
0.22300001 200932.97551430 9451.88761513
0.22400001 197005.45366039 7313.82781299
0.22500001 193138.90133396 8511.63178428
0.22600001 189327.62859457 7091.26666434
0.22700001 185574.54931890 9519.97483025
0.22800001 181877.50488555 8746.48962357
0.22900001 178236.37619411 6764.07079645
0.23000001 174651.55449748 8472.34730935
0.23100001 171123.65954484 7146.12436055
0.23200001 167649.22581273 7031.20886312
0.23300001 164230.69626906 7493.84702517
0.23400001 160866.58958342 7371.71181631
0.23500001 157555.23994065 6135.20133346
0.23600001 154298.59081902 7130.90971197
0.23700001 151094.83371129 5933.49440048
0.23800001 147943.85127775 5834.16605109
0.23900001 144845.38520119 5214.43411388
0.24000001 141798.58353879 6663.82474861
0.24100001 138804.57158497 6550.18804293
0.24200001 135860.99774090 5942.56032228
0.24300001 132968.03921824 5353.29351215
0.24400001 130124.82287363 4782.08746682
0.24500001 127331.96921247 5168.40487482
0.24600001 124588.43931957 5539.20227418
0.24700001 121894.42992432 6348.26221077
0.24800001 119247.81192703 4899.29658479
0.24900001 116649.17241123 4811.77858960
0.25000001 114098.58939282 4725.39330325
0.25100001 111594.45551597 5061.92474168
0.25200001 109138.12137327 4141.79190206
0.25300001 106727.87327213 4472.96538045
0.25400001 104362.56997514 5588.61588657
0.25500001 102042.51510607 4310.27604201
0.25600001 99767.74487309  5384.46544555
0.25700001 97536.96907919  4907.08514654
0.25800001 95349.90410361  4074.77834466
0.25900001 93206.60679397  4725.57518804
0.26000001 91106.58664358  4636.86994662
0.26100001 89046.93783361  5249.31723367
0.26200001 87031.56784224  4120.07461660
0.26300001 85056.29666595  3368.22950735
0.26400001 83121.87452612  3964.91360251
0.26500001 81228.73611189  3565.12939665
0.26600001 79374.83488700  5086.33966024
0.26700001 77561.52693609  3429.77088341
0.26800001 75787.04026269  3363.80794124
0.26900001 74050.56467309  5698.19122124
0.27000001 72352.86153137  3235.25835647
0.27100001 70692.68876634  4037.96657342
0.27200001 69069.97741404  4808.30670522
0.27300001 67483.37055996  3882.99332578
0.27400001 65932.14605361  2991.67126876
0.27500001 64418.88057487  2666.94178201
0.27600001 62938.87363472  3138.13238794
0.27700001 61495.31932828  3590.09691229
0.27800001 60085.00190333  3520.38042813
0.27900001 58709.21528405  2958.94459036
0.28000001 57366.61295694  2418.00285058
0.28100001 56056.66885138  2608.31692510
0.28200001 54779.90271743  2790.48837650
0.28300001 53535.09369004  2280.59509914
0.28400001 52321.90307139  2907.78990082
0.28500001 51140.18983466  2413.30567252
0.28600001 49988.31408099  2582.39642765
0.28700001 48867.37964463  2322.17799063
0.28800001 47775.44714890  2485.27887832
0.28900001 46714.48349885  2032.08012839
0.29000001 45680.90797535  2592.16324576
0.29100001 44677.11538402  1956.85774645
0.29200001 43700.71223269  2304.77567225
0.29300001 42751.96642420  2450.97035112
0.29400001 41830.37131869  2221.19282217
0.29500001 40936.49783200  2181.09670774
0.29600001 40067.91719090  2499.03611349
0.29700001 39224.97408711  2630.03463704
0.29800001 38408.31750658  2067.13574606
0.29900001 37616.49119616  1692.74218396
0.30000001 36849.26373226  2162.86763715
0.30100001 36107.07957763  1635.65078230
0.30200001 35387.57467986  1608.36534534
0.30300001 34692.15686251  1581.96242782
0.30400001 34020.33766995  2490.28883533
0.30500001 33369.99616745  2910.19750354
0.30600001 32742.29203597  2110.89566749
0.30700001 32136.86060945  1484.72303045
0.30800001 31552.72967636  1901.20981666
0.30900001 30989.42835591  1441.00848677
0.31000001 30447.76876557  1988.54387223
0.31100001 29924.91527381  1540.53471123
0.31200001 29423.05302066  1795.83612614
0.31300001 28940.10318783  1499.38681715
0.31400001 28477.93149384  1614.69879215
0.31500001 28033.47295179  2524.69469357
0.31600002 27607.65823038  1444.01863211
0.31700002 27199.54003808  1556.90174550
0.31800002 26809.79792546  2180.84311551
0.31900002 26437.59775122  1522.80570257
0.32000002 26082.15823728  1381.44157645
0.32100002 25743.84894393  1243.42796287
0.32200002 25422.06595106  1847.54873048
0.32300002 25115.56688747  1708.86325194
0.32400002 24825.26695073  1452.27818539
0.32500002 24549.87846637  1680.68475939
0.32600002 24290.12995233  1787.14639587
0.32700002 24044.93785188  1301.31209816
0.32800002 23814.83724319  1645.36718305
0.32900002 23597.62527538  1401.69900773
0.33000002 23395.94218594  1393.93030145
0.33100002 23205.29564862  1155.62377802
0.33200002 23030.26473718  1265.39795591
0.33300002 22867.09973746  1374.77010132
0.33400002 22717.02963913  1255.68387277
0.33500002 22578.72928541  1365.56161185
0.33600002 22452.57851080  1361.97347696
0.33700002 22337.31819904  1472.25271222
0.33800002 22234.99110285  1582.90909157
0.33900002 22142.52194453  1580.97614171
0.34000002 22061.70048517  1466.99284324
0.34100002 21991.09828583  1240.95773504
0.34200002 21931.96400142  1354.07952158
0.34300002 21881.38624655  1467.80345893
0.34400002 21841.55085357  1130.30031020
0.34500002 21810.83925683  1131.98261104
0.34600002 21790.58829228  1701.30026149
0.34700002 21777.33606812  1364.13239591
0.34800002 21774.38571901  1481.85589029
0.34900002 21779.61133283  1600.80150878
0.35000002 21793.29311180  1147.41693668
0.35100002 21814.91132027  1382.19284672
0.35200002 21843.74058213  1156.62611861
0.35300002 21880.52963187  1510.41303203
0.35400002 21925.13362583  1868.02147340
0.35500002 21976.59053116  1290.90498894
0.35600002 22034.49360272  1297.94190714
0.35700002 22099.15293507  1305.39702570
0.35800002 22171.02524097  1313.30074235
0.35900002 22248.60036574  1802.13671498
0.36000002 22332.95776363  1693.06160825
0.36100002 22422.21831158  1704.53711678
0.36200002 22518.47054985  1716.58309132
0.36300002 22618.15184934  1605.43649431
0.36400002 22724.13401250  1492.97567534
0.36500002 22834.49328899  1504.33648914
0.36600002 22950.43122720  1895.13194836
0.36700002 23070.52907313  1655.54124471
0.36800002 23196.42319905  1797.49091884
0.36900002 23325.58176630  1941.85477403
0.37000002 23458.08486913  1566.53098177
0.37100002 23594.91205631  1448.25577062
0.37200002 23736.06483835  1460.83617968
0.37300002 23879.98336501  1607.60055629
0.37400002 24028.42729120  1757.07882890
0.37500002 24178.94366508  1500.06173604
0.37600002 24333.66444217  2064.10318409
0.37700002 24489.95843258  1805.15492158
0.37800002 24650.07204878  1541.49232859
0.37900002 24812.56440139  1555.74786167
0.38000002 24977.48237800  1427.46318553
0.38100002 25144.23310985  1440.76462545
0.38200002 25313.46168430  1599.68428692
0.38300002 25484.37920743  1467.90031189
0.38400002 25657.97247217  1926.27237460
0.38500002 25832.01594838  1944.37593255
0.38600002 26008.99678848  1811.78680212
0.38700002 26186.10425756  1828.83760799
0.38800002 26364.70929235  1692.21894610
0.38900002 26544.63324100  1863.43334180
0.39000002 26726.30586309  1880.99749576
0.39100002 26907.97956857  2215.06498303
0.39200002 27090.99479422  2235.81990629
0.39300002 27274.26872473  2256.67310120
0.39400002 27458.93814656  2115.02481094
0.39500002 27643.23250499  2298.81132403
0.39600002 27827.77388849  2154.28721764
0.39700002 28012.34489560  2006.80448340
0.39800002 28198.00534665  1687.65069996
0.39900002 28382.65021597  2043.55091237
0.40000002 28567.31337430  1890.15637896
0.40100002 28751.70209610  2253.84603410
0.40200002 28936.76537888  2448.91857004
0.40300002 29120.40739057  2647.04515722
0.40400002 29303.48053296  1958.20517940
0.40500002 29486.19882720  2693.56439049
0.40600002 29668.30069536  1992.37482760
0.40700002 29849.58560643  1826.79472567
0.40800002 30030.19942271  2763.52923281
0.40900002 30209.20560092  2415.22610223
0.41000002 30387.84251346  2435.43375364
0.41100002 30565.07532881  2266.70609379
0.41200002 30740.48147606  2285.24750121
0.41300002 30915.10031716  2687.75894893
0.41400002 31088.32357870  2128.77305792
0.41500002 31260.52921459  3121.05138467
0.41600002 31429.94323176  2359.13165076
0.41700002 31598.69072958  2179.36180289
0.41800002 31766.56651897  3394.09896055
0.41900002 31930.79472225  2212.80417910
0.42000002 32094.07236882  2432.08891935
0.42100002 32255.96583879  2245.98300778
0.42200002 32415.89584548  2673.82529551
0.42300002 32573.32485261  3314.66169407
0.42400002 32728.71591131  2712.39245968
0.42500002 32882.50748458  2731.55002618
0.42600002 33032.82146775  2327.32754679
0.42700002 33182.31966648  2982.42703295
0.42800002 33328.94574204  3646.02019222
0.42900002 33473.85293193  3886.31450956
0.43000002 33616.44976576  2390.63393838
0.43100002 33755.25303802  2843.54265067
0.43200002 33892.57757542  3301.98452676
0.43300002 34027.06926432  2436.67854549
0.43400002 34159.38515030  3120.45998135
0.43500002 34288.74650880  3363.72619192
0.43600002 34416.43389172  2707.19681821
0.43700002 34540.63744654  2950.11598411
0.43800002 34661.26166941  2282.44418909
0.43900002 34780.45725646  2754.61234525
0.44000002 34896.10933814  2770.05329053
0.44100002 35009.61896792  3017.47920184
0.44200002 35120.08583307  2567.10279562
0.44300002 35228.01314955  2815.42294434
0.44400002 35332.39156947  3537.65587355
0.44500002 35433.30339692  2370.48810959
0.44600002 35532.06568115  3573.63767524
0.44700002 35628.08640724  2873.04902404
0.44800002 35720.09320065  2405.74839108
0.44900002 35810.41502737  3625.80469335
0.45000002 35897.37648192  3642.68645114
0.45100002 35980.16547198  2927.34640153
0.45200002 36060.88966642  3430.47259655
0.45300002 36137.98082379  3691.49491610
0.45400002 36212.48477216  2965.80264340
0.45500002 36283.82802139  2729.99534971
0.45600002 36351.57271334  3488.66059864
0.45700002 36416.47048225  2751.99280477
0.45800002 36477.59726175  3767.22403575
0.45900002 36535.87336390  3781.46307238
0.46000002 36591.71971378  2783.34929194
0.46100002 36643.07439211  3047.23821087
0.46200002 36692.22651050  3057.93030232
0.46300002 36737.61792203  4602.48899141
0.46400002 36779.47515516  2821.90536503
0.46500002 36819.06271428  3345.74838742
0.46600002 36854.59393517  3356.16375577
0.46700002 36887.00930313  2848.41499339
0.46800002 36916.76739756  2856.80418046
0.46900002 36942.69157577  3385.79784339
0.47000002 36965.08316466  2872.74157430
0.47100002 36984.75266657  3404.07679677
0.47200002 37000.97800917  2625.21951418
0.47300002 37014.53061872  2631.73325173
0.47400002 37023.55378633  3165.51399877
0.47500002 37030.51223665  2908.37656892
0.47600002 37034.46896345  2914.79801792
0.47700002 37034.10713321  3451.94928950
