# SAXS profile: number of points = 501, q_min = 0, q_max = 0.5, delta_q = 0.001
#    q    intensity    error
0.00000000 1682732.95097188 353.37391970
0.00100000 1682664.03002709 656.23898730
0.00200000 1682457.21649739 908.52692568
0.00300000 1682112.66438567 1412.97468842
0.00400000 1681630.26532253 1261.22274692
0.00500000 1681010.47402599 2118.07328111
0.00600000 1680252.99308190 2293.54542893
0.00700000 1679358.51059353 2418.27635576
0.00800000 1678326.45525671 2945.46305333
0.00900000 1677158.20113804 2767.31115017
0.01000000 1675852.88456267 3594.70459260
0.01100000 1674411.76557330 3315.33544018
0.01200000 1672834.28418356 3262.02699718
0.01300000 1671121.83928421 3860.29161900
0.01400000 1669273.70508392 4882.62580382
0.01500000 1667291.59901311 4001.50001581
0.01600000 1665174.45642974 6793.91208594
0.01700000 1662924.30825574 4938.88541707
0.01800000 1660540.77006941 8045.32039301
0.01900000 1658024.53188146 7958.51811214
0.02000000 1655376.26744675 5735.87902617
0.02100000 1652597.56383310 5453.57220791
0.02200000 1649686.67430396 6260.56121342
0.02300000 1646646.41622342 7113.51284188
0.02400000 1643476.72233953 6779.34178877
0.02500000 1640178.95878204 7676.03787767
0.02600000 1636753.16453759 7291.73568153
0.02700000 1633200.55091316 8231.33115361
0.02800000 1629520.91093397 7797.25791640
0.02900000 1625716.72711734 9510.44329030
0.03000000 1621788.52261851 11311.97546522
0.03100000 1617736.29734600 10094.67495993
0.03200000 1613561.19711099 10383.26678164
0.03300000 1609266.02146533 10669.43421418
0.03400000 1604848.70333356 12638.18412188
0.03500000 1600312.61010823 11234.19504173
0.03600000 1595657.47943388 8855.89942012
0.03700000 1590885.11935664 9974.85015968
0.03800000 1585996.95553563 10205.89088120
0.03900000 1580993.93242016 14228.94605072
0.04000000 1575875.34247547 13568.28732745
0.04100000 1570644.94042800 12863.58265855
0.04200000 1565303.11121904 11105.82608933
0.04300000 1559849.82381040 11324.51024652
0.04400000 1554288.69364364 15737.17375401
0.04500000 1548619.39245497 11754.02173488
0.04600000 1542842.48291633 19578.67201836
0.04700000 1536960.97623061 12172.73149787
0.04800000 1530975.08991016 14628.46766473
0.04900000 1524887.42025227 12580.32180266
0.05000000 1518697.73338515 18588.86112225
0.05100000 1512409.22837081 11796.79253083
0.05200000 1506020.17692130 14367.43315737
0.05300000 1499535.78562353 12146.24042978
0.05400000 1492954.83376625 12316.87795296
0.05500000 1486280.89326548 18727.14012875
0.05600000 1479512.54204284 13914.81610724
0.05700000 1472654.87829408 15374.51764705
0.05800000 1465706.45510632 16862.95355337
0.05900000 1458669.16191708 13128.02307041
0.06000000 1451546.06627150 17266.14126495
0.06100000 1444338.46090783 17462.05280840
0.06200000 1437046.79813773 14938.10216490
0.06300000 1429674.13891272 15097.35961280
0.06400000 1422218.86078431 15253.29799526
0.06500000 1414686.99338031 16806.48226753
0.06600000 1407076.64696268 21211.68144543
0.06700000 1399390.64668862 18555.92084349
0.06800000 1391631.92978412 15843.73026222
0.06900000 1383801.16613568 24700.85197199
0.07000000 1375898.03234647 19049.30914989
0.07100000 1367927.35107179 16250.97769189
0.07200000 1359887.89924963 25314.31443043
0.07300000 1351784.69782000 27008.65952795
0.07400000 1343616.86240483 18138.82849253
0.07500000 1335386.88338871 15223.41118419
0.07600000 1327094.78059372 18393.53452133
0.07700000 1318746.24512961 20058.13132892
0.07800000 1310339.27496761 21738.52959117
0.07900000 1301876.11444835 18747.01692736
0.08000000 1293360.83238924 22000.06879099
0.08100000 1284793.03238517 18963.54604774
0.08200000 1276173.96522018 19066.03993507
0.08300000 1267506.92454005 22358.82319823
0.08400000 1258792.17624919 24074.40150079
0.08500000 1250033.78451999 17737.98023505
0.08600000 1241230.74056706 22677.28669489
0.08700000 1232386.80757855 19521.00794871
0.08800000 1223500.89740850 17967.11152225
0.08900000 1214578.70130894 22955.53853295
0.09000000 1205618.91262248 18102.36882339
0.09100000 1196624.45947932 19816.10197996
0.09200000 1187596.18905019 19880.36113881
0.09300000 1178537.55204949 16617.38026478
0.09400000 1169446.99804517 21664.00665694
0.09500000 1160328.65898431 26733.97355957
0.09600000 1151183.40217935 20099.66314689
0.09700000 1142014.78388346 18466.37992355
0.09800000 1132823.25638577 20186.91137794
0.09900000 1123610.44209620 25281.23613595
0.10000000 1114376.47285529 20259.36522925
0.10100000 1105124.14701211 20290.08029342
0.10200000 1095855.71926045 20317.16599073
0.10300000 1086572.07518997 28815.89278956
0.10400000 1077275.42947871 20360.50657501
0.10500000 1067968.90689701 25471.05962789
0.10600001 1058649.03917558 23787.84502958
0.10700001 1049322.87945524 16999.03144711
0.10800001 1039988.37937171 22104.95404384
0.10900001 1030649.25315341 18706.28482516
0.11000001 1021305.95684065 18705.21947998
0.11100001 1011960.48906640 23801.31182325
0.11200001 1002615.09328454 20393.19195746
0.11300001 993268.86096580 20381.87798661
0.11400001 983926.18935447 20367.27307862
0.11500001 974587.41708977 23740.95059822
0.11600001 965253.55045442 18634.22066904
0.11700001 955927.31499882 25379.87140848
0.11800001 946607.44306857 20276.33238551
0.11900001 937297.99043055 18558.50108466
0.12000001 927998.92803539 23580.45387213
0.12100001 918714.06950168 26899.94922222
0.12200001 909441.49840159 23490.87501040
0.12300001 900185.00094816 20092.13016779
0.12400001 890944.00588958 23387.28125655
0.12500001 881721.19812628 19997.43771579
0.12600001 872519.06595880 24932.23348467
0.12700001 863337.02107402 18233.67874437
0.12800001 854175.71470594 18181.13094438
0.12900001 845038.06840226 23069.54035470
0.13000001 835924.87135525 21353.70184527
0.13100001 826836.10914153 19645.62687925
0.13200001 817775.38849420 17946.08174649
0.13300001 808743.31888267 24383.61221383
0.13400001 799738.95330800 24292.07185200
0.13500001 790765.94907003 17744.78873377
0.13600001 781823.50500323 16066.47378536
0.13700001 772914.46796253 27198.86141012
0.13800001 764037.67970588 22302.26092229
0.13900001 755198.24831403 20616.91315123
0.14000001 746392.91104115 18943.45297561
0.14100001 737625.13770784 21995.98264384
0.14200001 728894.31990730 21888.69745920
0.14300001 720205.05336776 17112.07287515
0.14400001 711551.28309227 29404.85816081
0.14500001 702942.35171864 18473.32587459
0.14600001 694372.90388554 15310.92325296
0.14700001 685848.91890001 15225.84671788
0.14800001 677366.55350862 16653.05750368
0.14900001 668928.27803004 18061.06435895
0.15000001 660536.00515812 19449.48358956
0.15100001 652189.95158490 16356.92475755
0.15200001 643892.17814053 19210.52404131
0.15300001 635642.00013415 16151.66398559
0.15400001 627438.38188676 17505.53168074
0.15500001 619286.27118720 15940.42937263
0.15600001 611182.61080309 17272.02139645
0.15700001 603132.89773163 20011.95049124
0.15800001 595130.37065259 15613.24601100
0.15900001 587183.10388353 14092.39515837
0.16000001 579286.53851124 15388.74762194
0.16100001 571446.61308856 20829.23003031
0.16200001 563658.64172833 20672.18166124
0.16300001 555926.49242422 16410.95083109
0.16400001 548249.24976251 16283.00348666
0.16500001 540628.35862032 18846.30547126
0.16600001 533063.38093334 17359.20981968
0.16700001 525555.11646555 15892.78747229
0.16800001 518103.16474872 14447.30743117
0.16900001 510711.30267277 16930.08048301
0.17000001 503377.14989075 16785.11185569
0.17100001 496101.61207331 19199.13329385
0.17200001 488885.32822591 20298.51978649
0.17300001 481728.72496384 27660.86469369
0.17400001 474632.93391963 12459.11510378
0.17500001 467596.91602440 19751.29466568
0.17600001 460619.64067879 15898.28764889
0.17700001 453705.99808770 13325.34579320
0.17800001 446852.74066337 11997.99665350
0.17900001 440060.87190335 20198.79497442
0.18000001 433331.69736625 14117.94736705
0.18100001 426665.39528310 12812.76242558
0.18200001 420058.75316201 13836.73598277
0.18300001 413517.35590875 13695.69547467
0.18400001 407037.16186673 14683.86630802
0.18500001 400621.02226204 13412.79245898
0.18600001 394267.66183399 11059.20843692
0.18700001 387977.25997468 16411.43887228
0.18800001 381749.48765492 10822.59848634
0.18900001 375587.55887588 13915.51971382
0.19000001 369485.20541978 12702.90196253
0.19100001 363451.30778148 12560.87779043
0.19200001 357477.80676215 14488.57619267
0.19300001 351570.12681327 11253.76029106
0.19400001 345725.46704360 15168.70558332
0.19500001 339945.01479542 11993.26068873
0.19600001 334227.46848844 13826.99102478
0.19700001 328574.32348966 12686.25522946
0.19800001 322984.99999637 9641.10270552
0.19900001 317460.34990089 14285.71642068
0.20000001 311997.41585387 13169.41154559
0.20100001 306599.98778276 11147.97608266
0.20200001 301264.71437021 11008.21318337
0.20300001 295993.79352418 14491.85681590
0.20400001 290786.23168544 10730.01245635
0.20500001 285641.16287419 15004.73099501
0.20600001 280559.65978608 13938.20455700
0.20700001 275541.07170719 9456.57002799
0.20800001 270584.80583011 12724.25109564
0.20900001 265693.63342527 8369.34984853
0.21000001 260862.32449793 9081.92225672
0.21100001 256093.44192202 13030.03494097
0.21200001 251386.76052869 13654.07254360
0.21300001 246741.56465083 11088.56643963
0.21400001 242159.07025104 10152.51950025
0.21500001 237638.32430662 9239.37848586
0.21600001 233177.09643980 9866.88930234
0.21700001 228777.52473682 9725.33303637
0.21800001 224438.49853953 10321.92703586
0.21900001 220158.63612233 8718.28240266
0.22000001 215938.76137473 8590.04433365
0.22100001 211780.91760474 7052.30488970
0.22200001 207681.04988421 11115.09031537
0.22300001 203640.43431266 10263.47837467
0.22400001 199656.75528355 8086.09897135
0.22500001 195734.60315874 10616.64537736
0.22600001 191868.81251683 8493.07338768
0.22700001 188061.69924021 9004.39458543
0.22800001 184311.20456003 6964.19919364
0.22900001 180617.32062731 8100.68721322
0.23000001 176980.42829090 9198.55819544
0.23100001 173401.13513115 7241.23174553
0.23200001 169876.05200680 7718.31878796
0.23300001 166407.52759920 8761.35674246
0.23400001 162994.16830506 6320.09917494
0.23500001 159634.20043359 7346.36625141
0.23600001 156329.47644691 7224.76709570
0.23700001 153078.47607714 6011.39203988
0.23800001 149881.02017323 6985.20527556
0.23900001 146736.61942484 6867.27411390
0.24000001 143644.70083542 5712.03179890
0.24100001 140605.97733329 6635.19638421
0.24200001 137618.60600216 6521.05795387
0.24300001 134682.53015488 5422.31892053
0.24400001 131796.75434255 6296.59023657
0.24500001 128962.00632737 4758.69825859
0.24600001 126177.15772939 5142.35030652
0.24700001 123442.82514053 5051.28064371
0.24800001 120756.40650574 5412.30239563
0.24900001 118118.56421471 6201.22491464
0.25000001 115529.49316197 4349.68562332
0.25100001 112987.67747381 5979.30817479
0.25200001 110494.12953204 4612.57765553
0.25300001 108047.35607311 6174.90669172
0.25400001 105646.28875519 5253.26195689
0.25500001 103291.01120096 4759.65002133
0.25600001 100981.76727313 3892.84731256
0.25700001 98717.25802052  4202.39387276
0.25800001 96496.83825311  4873.57304656
0.25900001 94320.99726274  3678.51906730
0.26000001 92189.02356939  5413.80066527
0.26100001 90098.00839016  4603.10746645
0.26200001 88052.11467244  5210.48413229
0.26300001 86046.87122506  3748.20188792
0.26400001 84083.04450366  3342.30117717
0.26500001 82161.16378413  3933.87670813
0.26600001 80279.11676310  3536.69665635
0.26700001 78438.27480905  4099.18443550
0.26800001 76636.90290288  3401.52909631
0.26900001 74874.22311403  3638.88741554
0.27000001 73150.86751304  3865.65777666
0.27100001 71465.61049784  2915.79704630
0.27200001 69818.46957935  2859.06646458
0.27300001 68208.01851650  3364.01963243
0.27400001 66633.50697396  3298.35875131
0.27500001 65097.54899434  3234.04638709
0.27600001 63595.50133604  2906.63252612
0.27700001 62130.30114482  3886.25052053
0.27800001 60699.26975593  3048.31747141
0.27900001 59302.99546168  2739.79852000
0.28000001 57940.61714089  2686.41684088
0.28100001 56611.47643991  2873.59868009
0.28200001 55315.92410140  3052.60941601
0.28300001 54053.02794613  2763.19091939
0.28400001 52822.18994215  3387.22309036
0.28500001 51623.50621198  2436.11337345
0.28600001 50455.16469743  2389.30443734
0.28700001 49318.18490635  2556.65482656
0.28800001 48210.84718219  2298.93435670
0.28900001 47135.04933800  3690.67453786
0.29000001 46086.98145804  2212.86651945
0.29100001 45069.33432244  2368.84432412
0.29200001 44079.60542632  2131.02862521
0.29300001 43117.98897889  2091.65374438
0.29400001 42183.90802795  2053.30182046
0.29500001 41278.06177287  2016.02063242
0.29600001 40398.10173820  2339.65617292
0.29700001 39544.19245983  2297.91313262
0.29800001 38717.11655989  2257.40158789
0.29900001 37915.25457425  1876.80519027
0.30000001 37138.41236397  1844.47933737
0.30100001 36387.24907222  2142.84519931
0.30200001 35659.08504473  1782.77604121
0.30300001 34955.39235218  1753.36256339
0.30400001 34275.88396123  1881.74611856
0.30500001 33618.17260915  2314.61129372
0.30600001 32983.42609209  1974.55289648
0.30700001 32371.51992501  1944.23357874
0.30800001 31781.29842810  1767.67590226
0.30900001 31212.39714731  1451.37653606
0.31000001 30665.40591260  1716.64950426
0.31100001 30137.60193912  1551.48382128
0.31200001 29631.19472460  1808.54005564
0.31300001 29144.24066348  2196.31008039
0.31400001 28678.25381095  1761.56182374
0.31500001 28230.38075304  1605.74413326
0.31600002 27801.68058422  1718.56096668
0.31700002 27390.90042847  2743.74662583
0.31800002 26998.76007191  1550.26887673
0.31900002 26624.49005439  1661.36825806
0.32000002 26267.48645150  1391.25748578
0.32100002 25927.86943377  1878.47422942
0.32200002 25605.09264907  1240.56679759
0.32300002 25297.92221294  1475.37489332
0.32400002 25007.25417921  1462.92443875
0.32500002 24731.84096673  1572.20320470
0.32600002 24472.25072298  1680.50953672
0.32700002 24227.58928875  1311.19719440
0.32800002 23998.34510263  1421.18206427
0.32900002 23782.21502843  1412.66363958
0.33000002 23581.90153327  1405.00975988
0.33100002 23392.84712107  1863.94214687
0.33200002 23219.74911714  1391.79182799
0.33300002 23058.60764894  1155.23629792
0.33400002 22910.94101228  1611.78477654
0.33500002 22775.28753351  1836.59927368
0.33600002 22651.93799323  1603.07772770
0.33700002 22539.84505131  1257.04721804
0.33800002 22440.73154658  1597.55575446
0.33900002 22351.84162811  1367.93277242
0.34000002 22274.69072455  1595.09067833
0.34100002 22208.06256399  1481.05576253
0.34200002 22153.02035204  1595.68213153
0.34300002 22106.73222657  1482.91966799
0.34400002 22071.50160491  1827.52041944
0.34500002 22045.34680109  1601.81497443
0.34600002 22029.97875524  1719.99067277
0.34700002 22021.70240200  1264.48621181
0.34800002 22024.00002358  1498.84339259
0.34900002 22034.47131035  1503.85273816
0.35000002 22053.59618764  1509.45846255
0.35100002 22080.89199871  1165.87115275
0.35200002 22115.37111838  1873.61432989
0.35300002 22158.13157228  1411.91621066
0.35400002 22208.70156607  1182.61341441
0.35500002 22266.21403359  1545.72065142
0.35600002 22330.31251986  1793.68243811
0.35700002 22401.35433263  1323.24806310
0.35800002 22479.66906273  2057.90140182
0.35900002 22563.75476023  1827.66422215
0.36000002 22654.68559435  1962.80205286
0.36100002 22750.67694307  2100.11508809
0.36200002 22853.62196590  1368.81775248
0.36300002 22960.23854257  2131.16944247
0.36400002 23073.10197983  1515.90287188
0.36500002 23190.43612975  1527.78600460
0.36600002 23313.36844441  1411.74109302
0.36700002 23440.55612558  1811.48626319
0.36800002 23573.64155827  1565.76134647
0.36900002 23709.91921042  1315.90057851
0.37000002 23849.61209943  1592.67717144
0.37100002 23993.67842610  2008.27097940
0.37200002 24142.04024552  2161.19554516
0.37300002 24293.24679635  2180.56193573
0.37400002 24449.00388537  1787.83349381
0.37500002 24606.85281994  1665.39187774
0.37600002 24768.85873451  1680.81483335
0.37700002 24932.50825831  2544.61191339
0.37800002 25099.82970330  1712.31046347
0.37900002 25269.61350878  1584.40484206
0.38000002 25441.85615979  1454.00214841
0.38100002 25615.85767824  1614.56758595
0.38200002 25792.37670910  1629.94932335
0.38300002 25970.51186675  1495.90155439
0.38400002 26151.21520687  2265.34912461
0.38500002 26332.51981736  1677.11826662
0.38600002 26516.50160899  2001.06788872
0.38700002 26700.72747372  2175.57537763
0.38800002 26886.37481646  2353.23006730
0.38900002 27073.25071809  1742.16376625
0.39000002 27261.80766689  1918.68611450
0.39100002 27450.28714325  1775.48465654
0.39200002 27640.21970425  1629.39102876
0.39300002 27830.14573236  1809.23785978
0.39400002 28021.52498112  1826.30297717
0.39500002 28212.29787541  2178.55374515
0.39600002 28403.39916345  2029.70700038
0.39700002 28594.35338736  1877.79127591
0.39800002 28786.43302075  2067.44171750
0.39900002 28977.45995919  2434.10675190
0.40000002 29168.16166269  2456.25100999
0.40100002 29358.62417379  2478.45517018
0.40200002 29549.69196818  2322.16265334
0.40300002 29739.13579759  1802.19171472
0.40400002 29928.09837111  2363.57168084
0.40500002 30116.45763043  2200.91082791
0.40600002 30304.19866358  2775.10712410
0.40700002 30490.87452127  2612.45825276
0.40800002 30676.76801555  2070.22178762
0.40900002 30860.99835545  2277.54178655
0.41000002 31044.76780288  2870.86503860
0.41100002 31227.01731447  2122.81273762
0.41200002 31407.25052830  2140.24718866
0.41300002 31586.73141506  2942.30417073
0.41400002 31764.37583514  2965.99873414
0.41500002 31941.10051383  2391.74971980
0.41600002 32114.93215469  3013.18365219
0.41700002 32287.84769047  2631.78258995
0.41800002 32459.84397879  2448.12154888
0.41900002 32628.01888655  2877.79140216
0.42000002 32795.08842084  2278.11092510
0.42100002 32960.68458256  2295.05257623
0.42200002 33124.10379553  2101.72448542
0.42300002 33284.88774719  2328.61085714
0.42400002 33443.51671376  2771.63157899
0.42500002 33600.41221095  2791.18637463
0.42600002 33753.60754396  2594.30239876
0.42700002 33905.84264187  2394.43072083
0.42800002 34055.16374420  2629.73986894
0.42900002 34202.53280963  2867.88251199
0.43000002 34347.45718522  3330.84481838
0.43100002 34488.47060445  2458.33830118
0.43200002 34627.77498630  2473.98150113
0.43300002 34764.14401457  2489.46047085
0.43400002 34898.17323763  2732.52709400
0.43500002 35029.05080696  2978.17004074
0.43600002 35158.13456735  2304.61583010
0.43700002 35283.54516172  3477.19354047
0.43800002 35405.25957454  2331.43645347
0.43900002 35525.37206602  3517.01200121
0.44000002 35641.76557131  3065.01377556
0.44100002 35755.87220762  3555.92165956
0.44200002 35866.76402135  3098.35055682
0.44300002 35974.96504932  2875.11934300
0.44400002 36079.48088205  2649.13600931
0.44500002 36180.26922010  3146.59816319
0.44600002 36278.82070713  4135.24157428
0.44700002 36374.52436560  2688.80496853
0.44800002 36465.86688741  3929.56200202
0.44900002 36555.53460016  3207.74831319
0.45000002 36641.71321508  2726.69321812
0.45100002 36723.48469387  2987.82285629
0.45200002 36802.98598713  2500.76301634
0.45300002 36878.61690002  3013.72071590
0.45400002 36951.71191489  3782.93168657
0.45500002 37021.38198729  4558.07276630
0.45600002 37087.41962865  2796.57700964
0.45700002 37150.26392191  3573.11255335
0.45800002 37209.21903028  3586.59679231
0.45900002 37265.22597658  2828.43078567
0.46000002 37318.55310640  2838.63587657
0.46100002 37367.33222371  2589.55624583
0.46200002 37413.70778621  3377.89676757
0.46300002 37456.25850296  3649.73800151
0.46400002 37495.05542194  3922.92035945
0.46500002 37531.48798586  2885.79624801
0.46600002 37563.60155391  3683.86257899
0.46700002 37592.51220449  3958.49172275
0.46800002 37618.67004370  3175.76827561
0.46900002 37640.79595296  3184.41148855
0.47000002 37659.15123954  2926.68107730
0.47100002 37674.73017981  2934.10812547
0.47200002 37686.71288931  3476.03412810
0.47300002 37696.03023157  3484.24423945
0.47400002 37700.46183172  2686.15803283
0.47500002 37702.77565994  2961.17614068
0.47600002 37701.99244498  2697.57768730
0.47700002 37696.68638480  2973.13779609
