# SAXS profile: number of points = 501, q_min = 0, q_max = 0.5, delta_q = 0.001
#    q    intensity    error
0.00000000 1646666.22097351 345.79990640
0.00100000 1646598.49370182 691.57138378
0.00200000 1646395.25725214 889.05346707
0.00300000 1646056.68052440 1086.39744785
0.00400000 1645582.62978237 1234.18701923
0.00500000 1644973.56005352 1480.47626265
0.00600000 1644229.21298788 1899.08481832
0.00700000 1643350.23594801 2563.62647462
0.00800000 1642336.05102870 2438.86913875
0.00900000 1641188.01635963 2954.13855573
0.01000000 1639905.34475685 2705.84393569
0.01100000 1638489.20156292 3539.13682947
0.01200000 1636939.07987602 4149.64074942
0.01300000 1635256.35497642 5837.86544474
0.01400000 1633440.28449715 4410.28896365
0.01500000 1631492.54906174 6656.48989658
0.01600000 1629412.16324360 4986.00144242
0.01700000 1627201.09726810 4832.78747568
0.01800000 1624858.97355116 5557.01793960
0.01900000 1622386.56624328 6327.30789385
0.02000000 1619784.27367241 6122.78483145
0.02100000 1617053.94723722 6937.16174817
0.02200000 1614193.66375385 6125.86523226
0.02300000 1611206.39248988 6960.41193238
0.02400000 1608091.97051065 6030.34516438
0.02500000 1604851.65227125 10014.27476753
0.02600000 1601485.60278023 7134.61868671
0.02700000 1597995.01878601 8053.89526356
0.02800000 1594379.55882769 10403.32709844
0.02900000 1590641.91618522 7157.88895148
0.03000000 1586782.44813732 10329.95421219
0.03100000 1582801.13766457 9876.67955348
0.03200000 1578699.16564783 8596.01735287
0.03300000 1574479.27470644 8832.82913830
0.03400000 1570139.31940976 9067.55498797
0.03500000 1565682.93231780 9300.15704743
0.03600000 1561109.55021620 10396.99008492
0.03700000 1556421.11504966 11533.08099589
0.03800000 1551619.02777651 9076.97173257
0.03900000 1546704.03229287 11136.26954823
0.04000000 1541675.71402375 9481.30608060
0.04100000 1536537.49733095 9680.18668202
0.04200000 1531290.03882945 11852.18545040
0.04300000 1525933.17746034 10071.15943872
0.04400000 1520470.52856785 11289.49419892
0.04500000 1514901.63130485 10452.82174169
0.04600000 1509227.15449242 11704.05712717
0.04700000 1503450.04259438 11907.32489113
0.04800000 1497570.47599859 14309.28656395
0.04900000 1491591.20964814 15661.70843032
0.05000000 1485511.57220738 15909.82967920
0.05100000 1479335.27305585 17308.22350104
0.05200000 1473060.16729765 14052.99465091
0.05300000 1466691.80300396 15444.26540561
0.05400000 1460228.40463478 16865.63886004
0.05500000 1453674.09862498 14653.03559769
0.05600000 1447027.15897636 16083.70762255
0.05700000 1440292.74243562 18795.82116615
0.05800000 1433469.21697394 16492.06411134
0.05900000 1426558.79413217 15406.83569622
0.06000000 1419564.01456046 15586.81360807
0.06100000 1412486.58303302 14449.73841968
0.06200000 1405326.64521998 15936.40490172
0.06300000 1398087.50912559 14763.80478665
0.06400000 1390767.30018255 18983.97453531
0.06500000 1383372.47281666 23282.15980659
0.06600000 1375900.38422656 16593.35941015
0.06700000 1368354.32617527 15352.93625819
0.06800000 1360736.97182281 14083.62831761
0.06900000 1353049.22640901 15627.71929670
0.07000000 1345290.74347166 17192.81650668
0.07100000 1337466.04674424 18778.02417581
0.07200000 1329574.26534591 18926.49055384
0.07300000 1321619.94542977 20537.97491430
0.07400000 1313602.44667575 28078.25361356
0.07500000 1305524.29928373 20836.16879321
0.07600000 1297385.34286585 16483.28155386
0.07700000 1289191.25672147 19608.59993415
0.07800000 1280940.18207273 16697.05605635
0.07900000 1272634.33392394 24434.58035741
0.08000000 1264277.25972879 16897.06636893
0.08100000 1255869.00888037 23170.78430097
0.08200000 1247411.03613502 17083.29494151
0.08300000 1238905.72461330 18732.25543530
0.08400000 1230354.33194112 17255.72031543
0.08500000 1221760.38795787 17336.78071900
0.08600000 1213122.75910821 15831.25274966
0.08700000 1204445.66230206 17488.55183785
0.08800000 1195727.23234165 20751.84709187
0.08900000 1186973.79342475 17626.56166027
0.09000000 1178183.90231383 17690.43212426
0.09100000 1169360.28782864 27433.19364130
0.09200000 1160503.65756104 17807.92946201
0.09300000 1151617.79727589 21109.15521603
0.09400000 1142700.70027262 17911.83431858
0.09500000 1133756.88364855 22856.53984867
0.09600000 1124787.24245652 22911.91720588
0.09700000 1115794.69447828 22963.05589192
0.09800000 1106779.93001439 16435.68273348
0.09900000 1097745.24907922 18112.79746152
0.10000000 1088689.78584983 18143.01613440
0.10100000 1079616.81965212 18169.95192931
0.10200000 1070528.36715970 19847.59686070
0.10300000 1061425.15394836 19869.87981661
0.10400000 1052310.04243712 18231.27234292
0.10500000 1043185.63611437 23221.31335245
0.10600001 1034047.98973495 21575.41232102
0.10700001 1024905.44769346 19924.16284075
0.10800001 1015754.59008661 19929.10599540
0.10900001 1006599.75470214 23252.45542801
0.11000001 997441.12327261 19928.87458103
0.11100001 988280.69662689 18263.42813339
0.11200001 979121.12400256 18255.71421645
0.11300001 969961.14028288 18244.96990771
0.11400001 960804.96098566 18231.27499311
0.11500001 951652.91734506 16558.76154152
0.11600001 942506.23518965 18195.08372717
0.11700001 933367.39712731 18172.66407791
0.11800001 924235.39315736 19797.12305384
0.11900001 915113.87668535 24708.07583430
0.12000001 906003.24283173 19732.75155838
0.12100001 896906.55474845 16413.39072510
0.12200001 887822.79562055 21294.43075617
0.12300001 878755.19846573 16344.84746154
0.12400001 869703.19365467 22829.70990911
0.12500001 860669.59815002 21146.65302299
0.12600001 851656.41377724 22713.67762579
0.12700001 842663.83089617 17797.06094724
0.12800001 833691.76894788 24197.90473414
0.12900001 824743.54895428 20907.24995139
0.13000001 815819.19792792 22443.18719285
0.13100001 806919.94491990 19172.41879504
0.13200001 798048.19598121 22289.48716449
0.13300001 789205.46208743 20621.93969652
0.13400001 780390.07584814 22124.05969335
0.13500001 771606.03374819 17314.84021367
0.13600001 762852.12125547 17244.27301406
0.13700001 754131.52618027 18732.62799362
0.13800001 745443.06264653 18650.98630692
0.13900001 736791.53910156 26303.45918635
0.14000001 728174.24043358 21561.24027608
0.14100001 719593.83612009 19925.55426191
0.14200001 711050.17049654 16777.22956417
0.14300001 702547.57350388 16692.53113380
0.14400001 694080.61266809 19625.13024891
0.14500001 685657.70283624 21022.26616062
0.14600001 677274.00931327 17920.67113182
0.14700001 668935.74364125 17820.44905131
0.14800001 660637.98395105 14765.25963791
0.14900001 652384.11083255 19082.23614217
0.15000001 644175.90398199 21885.87737043
0.15100001 636013.52379880 17401.33083222
0.15200001 627898.48365388 21615.40631975
0.15300001 619830.70083701 20045.32581099
0.15400001 611809.15472400 19914.38892605
0.15500001 603838.43598783 14129.82006894
0.15600001 595914.98739738 15437.17847709
0.15700001 588045.61961380 16724.01821114
0.15800001 580222.60728913 15222.14082070
0.15900001 572454.28122898 15112.79373778
0.16000001 564735.60238324 17729.87507372
0.16100001 557072.99476032 14890.56185284
0.16200001 549461.69464115 16121.20688179
0.16300001 541905.51534901 13330.87630691
0.16400001 534403.47721470 14549.13535403
0.16500001 526956.80219483 14433.34749353
0.16600001 519565.74659260 18221.17159328
0.16700001 512230.03608906 14199.01727079
0.16800001 504950.27665942 12800.49011771
0.16900001 497729.49565309 21576.57465537
0.17000001 490565.49044211 12583.00542401
0.17100001 483459.45501151 13720.57998113
0.17200001 476411.71944919 22253.19246633
0.17300001 469422.72999583 13477.12721463
0.17400001 462493.64334053 12140.45871103
0.17500001 455623.41473139 13231.30458868
0.17600001 448810.91140474 11915.93026057
0.17700001 442061.25302731 14163.64321595
0.17800001 435370.56678354 16365.58037837
0.17900001 428740.58163434 15048.79512617
0.18000001 422172.18154771 19485.35795973
0.18100001 415665.88332203 14751.98289593
0.18200001 409218.06307634 13479.64363448
0.18300001 402834.37465360 11118.22926566
0.18400001 396510.97375253 18705.40607043
0.18500001 390250.34963415 11976.78379608
0.18600001 384051.56272434 17236.23494937
0.18700001 377914.45304438 12788.62569522
0.18800001 371839.38169606 11595.81166605
0.18900001 365828.65014706 12511.34042616
0.19000001 359876.23806029 12372.54564910
0.19100001 353991.50183320 12233.94688141
0.19200001 348165.25778608 11087.32315809
0.19300001 342404.36132012 14945.95107786
0.19400001 336705.25578982 10833.49211696
0.19500001 331069.23710967 12653.46684027
0.19600001 325494.47031747 10580.19825765
0.19700001 319983.41160806 13304.91088342
0.19800001 314534.73490448 10327.74850867
0.19900001 309149.54236065 11129.38405096
0.20000001 303824.93968982 10076.35460103
0.20100001 298564.52527158 10855.80665195
0.20200001 293364.96149716 8932.96349979
0.20300001 288228.62451591 10583.75559246
0.20400001 283154.19921438 9577.69124112
0.20500001 278140.99014518 9454.01270190
0.20600001 273190.46861095 10179.07734159
0.20700001 268301.04529180 12556.48951319
0.20800001 263473.20376936 11563.83946006
0.20900001 258708.90747679 10594.13026197
0.21000001 254003.12469369 8039.19927659
0.21100001 249358.60035542 8722.56425278
0.21200001 244774.88337900 10948.78105114
0.21300001 240251.49382422 10025.69531125
0.21400001 235789.19182403 10645.88251416
0.21500001 231387.58677423 8996.34979911
0.21600001 227044.35259733 7390.29402645
0.21700001 222761.20168123 7284.29163937
0.21800001 218537.39027124 8614.74433180
0.21900001 214371.45136596 12733.66481321
0.22000001 210263.99627238 8364.30216720
0.22100001 206217.19204224 7553.73610167
0.22200001 202227.33128417 16234.81092315
0.22300001 198295.02316158 6662.71309328
0.22400001 194418.65450751 6561.62989990
0.22500001 190602.53240682 7107.56876955
0.22600001 186840.88075119 6998.12551946
0.22700001 183137.13374587 7515.94832435
0.22800001 179488.47943463 8631.60138420
0.22900001 175895.30578883 6675.22717036
0.23000001 172357.49770852 7763.84385145
0.23100001 168876.14090015 7639.95697564
0.23200001 165447.51796972 8095.34743712
0.23300001 162074.17700207 6826.56465819
0.23400001 158754.68050608 6155.71302776
0.23500001 155487.27060998 11558.92424384
0.23600001 152273.80135997 8120.00084157
0.23700001 149112.78041950 6387.99181531
0.23800001 146003.68470539 6281.07881311
0.23900001 142946.66159528 5146.08006084
0.24000001 139940.48366940 6576.50334111
0.24100001 136986.59340433 4972.61357579
0.24200001 134082.45992876 5864.76707470
0.24300001 131228.42633265 8165.03307265
0.24400001 128423.31786466 6135.42430121
0.24500001 125667.97621623 4637.14854174
0.24600001 122961.53321514 8200.30503803
0.24700001 120303.78852270 4922.83125923
0.24800001 117692.91042002 5714.57953578
0.24900001 115129.39922967 4749.08794289
0.25000001 112613.29604369 4663.87987629
0.25100001 110143.12400622 4163.41028440
0.25200001 107720.03820087 4496.77320744
0.25300001 105342.54151886 4414.90612393
0.25400001 103009.26003654 3940.10438281
0.25500001 100720.86643997 4254.44959971
0.25600001 98476.90528212  6074.05580518
0.25700001 96276.50732582  5216.26141371
0.25800001 94119.19155034  5484.79614710
0.25900001 92005.07535093  3947.01791931
0.26000001 89933.68972912  4225.08494339
0.26100001 87902.14268370  4145.46524511
0.26200001 85914.28645362  4067.18251316
0.26300001 83965.87475171  4322.56343675
0.26400001 82057.89673766  4892.70232450
0.26500001 80190.74431096  3839.53301929
0.26600001 78361.92303927  4079.91371610
0.26700001 76573.44808357  5540.85496552
0.26800001 74823.12292556  3321.02446820
0.26900001 73110.38796471  2960.97085269
0.27000001 71435.92311052  4355.80561779
0.27100001 69798.20672097  3132.54366588
0.27200001 68197.69028396  3909.77376900
0.27300001 66632.74713200  3012.46664040
0.27400001 65102.61254456  3491.12776292
0.27500001 63609.83345098  3160.13667540
0.27600001 62149.84459193  2840.55878151
0.27700001 60726.04046641  3291.95880948
0.27800001 59334.85941596  3228.11317930
0.27900001 57977.81345843  2435.06828050
0.28000001 56653.28492621  3104.31689445
0.28100001 55361.10860222  2810.13000565
0.28200001 54101.50331349  2755.93070923
0.28300001 52873.37802888  2477.64661170
0.28400001 51676.60094483  2430.09227445
0.28500001 50510.66942594  2816.98016722
0.28600001 49374.36178064  3188.34956290
0.28700001 48268.28605366  2919.26607870
0.28800001 47190.86662575  2454.86899807
0.28900001 46143.90156439  2408.71177567
0.29000001 45124.15801442  2166.63654962
0.29100001 44133.69034797  2512.97244736
0.29200001 43170.07416886  2466.52230439
0.29300001 42233.75531573  2421.26130686
0.29400001 41324.15791642  1828.59407436
0.29500001 40442.04183142  2154.75209078
0.29600001 39584.58455505  1939.84265795
0.29700001 38752.59325645  1905.46510062
0.29800001 37946.41701489  1872.08657205
0.29900001 37164.76086178  2006.89718154
0.30000001 36407.24579644  2136.92339318
0.30100001 35674.38673616  1777.65477522
0.30200001 34963.93163358  1589.11076798
0.30300001 34277.14058762  1719.34145327
0.30400001 33613.63449469  1845.38862112
0.30500001 32971.36781713  2118.74019623
0.30600001 32351.23114895  1787.72911793
0.30700001 31753.12050918  1613.69366067
0.30800001 31175.93719103  2167.50713582
0.30900001 30619.40994184  1566.18289267
0.31000001 30084.19742391  1403.42787627
0.31100001 29567.23255010  1798.87051352
0.31200001 29071.24605080  1774.36358672
0.31300001 28593.67893661  2020.14351252
0.31400001 28136.52092119  1329.45067647
0.31500001 27697.17225699  1575.41523257
0.31600002 27275.91806847  1686.06095523
0.31700002 26872.14936507  1794.52221957
0.31800002 26486.37879443  1520.84794239
0.31900002 26117.90478290  1629.75733562
0.32000002 25765.95725578  1736.88326085
0.32100002 25430.95717323  1473.97834755
0.32200002 25112.22523699  1460.02484441
0.32300002 24808.53931381  1687.97309484
0.32400002 24520.77089672  1314.92640160
0.32500002 24247.77059060  2371.43207605
0.32600002 23990.07416203  1529.72715138
0.32700002 23746.72378389  1402.00663859
0.32800002 23518.28724884  1973.06680217
0.32900002 23302.52155910  1730.21230769
0.33000002 23101.99408577  1491.11827888
0.33100002 22912.52321040  1369.25245189
0.33200002 22738.26578916  1476.50935894
0.33300002 22575.62898806  1470.35078562
0.33400002 22426.10723437  1126.91194189
0.33500002 22288.10624735  1347.98472968
0.33600002 22162.08740491  2016.52842847
0.33700002 22046.75497034  1788.43284789
0.33800002 21944.16676912  1339.03311966
0.33900002 21851.23660331  1671.61967932
0.34000002 21769.98297566  1113.53468194
0.34100002 21698.71738839  1447.08753116
0.34200002 21638.62617438  1558.63031716
0.34300002 21587.08748997  1448.06189741
0.34400002 21546.10013446  1115.01073477
0.34500002 21514.08784405  1563.21369678
0.34600002 21492.51953822  1678.02854242
0.34700002 21477.73467462  1121.13780311
0.34800002 21473.15477659  1573.76758811
0.34900002 21476.63695357  1240.27584281
0.35000002 21488.37371195  1583.90810133
0.35100002 21508.06242271  1362.75089965
0.35200002 21534.90268523  1254.30046631
0.35300002 21569.53942302  1488.94537689
0.35400002 21611.84552975  2071.49549214
0.35500002 21660.94848268  1388.03364451
0.35600002 21716.33874006  1162.90999461
0.35700002 21778.53723074  1637.31050656
0.35800002 21847.77481580  1411.80327547
0.35900002 21922.69879650  1183.82579108
0.36000002 22004.33976890  1906.45608788
0.36100002 22090.76361892  1559.38707772
0.36200002 22184.13437484  1449.51140871
0.36300002 22280.89511699  1459.84431721
0.36400002 22383.88408051  1715.72479604
0.36500002 22491.21590016  1358.24459255
0.36600002 22604.09227727  1368.79087269
0.36700002 22720.98082397  1379.61802098
0.36800002 22843.70072292  1264.39889491
0.36900002 22969.73857869  1784.74877211
0.37000002 23098.98091297  1671.09585331
0.37100002 23232.62492763  1555.65663885
0.37200002 23370.37201310  1307.57237607
0.37300002 23511.02225048  1318.96841073
0.37400002 23656.08943645  1463.72060322
0.37500002 23803.39674666  2013.76746016
0.37600002 23954.65001200  1625.56262682
0.37700002 24107.68774676  1640.28715199
0.37800002 24264.41271732  1655.31831399
0.37900002 24423.42788107  1531.34900069
0.38000002 24585.04704043  1545.53905541
0.38100002 24748.43885479  1701.70273627
0.38200002 24914.26634485  1717.58960318
0.38300002 25081.84691977  1444.71445102
0.38400002 25251.99431693  1604.13301498
0.38500002 25422.62033331  1913.56072314
0.38600002 25596.23539037  1485.86153480
0.38700002 25770.15074047  1649.80512856
0.38800002 25945.43654087  1665.30792327
0.38900002 26122.10866237  2292.21514372
0.39000002 26300.47396268  2005.27973229
0.39100002 26478.89277257  2024.04665943
0.39200002 26658.72857053  1571.53212369
0.39300002 26838.89433614  1903.41447650
0.39400002 27020.45721779  2401.44324900
0.39500002 27201.59285299  2585.23950723
0.39600002 27383.14185649  1793.73279229
0.39700002 27564.67812001  1974.73363408
0.39800002 27747.27825489  2657.07949158
0.39900002 27929.07031139  2681.19087692
0.40000002 28110.97943102  2029.05059147
0.40100002 28292.37099136  2047.23606193
0.40200002 28474.72501583  2754.07553402
0.40300002 28655.62198138  1910.18385178
0.40400002 28836.00964610  2627.68150350
0.40500002 29016.16038581  2297.20952659
0.40600002 29195.69442086  1960.63695173
0.40700002 29374.45677074  2696.57525932
0.40800002 29552.67534117  2538.27940532
0.40900002 29729.17841159  1828.34455894
0.41000002 29905.50349222  2765.51156648
0.41100002 30080.50104290  1858.97505253
0.41200002 30253.83794097  1874.22534925
0.41300002 30426.32073126  2456.31698902
0.41400002 30597.41748493  2476.09612729
0.41500002 30767.65228076  2303.88191195
0.41600002 30935.16282375  2321.99343157
0.41700002 31102.08091019  2340.12067857
0.41800002 31268.22967834  2947.81249261
0.41900002 31430.73735635  1980.13654728
0.42000002 31592.32904758  2992.58351083
0.42100002 31752.77978340  3014.92658330
0.42200002 31911.16978994  2429.71658294
0.42300002 32067.21767916  3875.00276797
0.42400002 32221.30136454  2464.92967119
0.42500002 32373.92430601  2896.17140565
0.42600002 32523.07971165  3332.96536679
0.42700002 32671.49735801  3146.26534467
0.42800002 32817.10632657  2322.95898140
0.42900002 32961.18392495  2763.79540307
0.43000002 33102.94265842  2568.12641314
0.43100002 33240.94853338  2369.41492374
0.43200002 33377.72073701  2818.24798398
0.43300002 33511.56113563  2181.60273331
0.43400002 33643.40462785  2853.80193279
0.43500002 33772.47648979  3092.20809394
0.43600002 33899.84169546  2888.77514697
0.43700002 34023.70246869  2235.35735812
0.43800002 34144.29848269  2473.24237780
0.43900002 34263.44195162  2487.52600357
0.44000002 34379.08826977  2956.42983586
0.44100002 34492.74250905  2286.86893672
0.44200002 34603.47473065  2529.34110530
0.44300002 34711.72541383  2542.98112433
0.44400002 34816.54047354  3253.60586144
0.44500002 34917.91455896  3504.01289205
0.44600002 35017.17134336  2582.69159483
0.44700002 35113.82953568  3067.54429361
0.44800002 35206.62562215  3319.63288724
0.44900002 35297.78961395  3812.16145897
0.45000002 35385.69415731  2393.84232319
0.45100002 35469.45691598  2885.79515145
0.45200002 35551.22247803  2657.27625006
0.45300002 35629.52372758  2911.64481701
0.45400002 35705.33263888  3167.95578852
0.45500002 35778.04511592  3181.38392248
0.45600002 35847.23866628  2703.06115974
0.45700002 35913.65722180  2960.72204169
0.45800002 35976.33667299  3220.06216653
0.45900002 36036.30004761  2983.80578536
0.46000002 36093.97087091  3494.25748562
0.46100002 36147.29885144  4008.01268661
0.46200002 36198.36895568  2765.37452743
0.46300002 36245.75909574  2522.70495263
0.46400002 36289.76856692  2784.33262526
0.46500002 36331.52610162  2793.53117435
0.46600002 36369.42849636  3057.21430430
0.46700002 36404.17662515  3322.24531627
0.46800002 36436.44510853  2819.63443836
0.46900002 36464.83269488  2827.84790952
0.47000002 36489.88402946  2835.81147176
0.47100002 36512.25399186  2843.57447566
0.47200002 36531.25610338  3887.83911507
0.47300002 36547.60950595  2858.38867494
0.47400002 36559.60643411  2865.35929008
0.47500002 36569.52649774  3133.27717884
0.47600002 36576.51851088  3402.16503054
0.47700002 36579.41899174  2885.01891262
