# SAXS profile: number of points = 501, q_min = 0, q_max = 0.5, delta_q = 0.001
#    q    intensity    error
0.00000000 1646666.22097351 246.99993315
0.00100000 1646598.61299301 592.77551476
0.00200000 1646395.73717150 1111.31715778
0.00300000 1646057.76649081 1481.45204262
0.00400000 1645584.55239220 1481.02615343
0.00500000 1644976.56561943 1480.47896766
0.00600000 1644233.52076330 2244.37884722
0.00700000 1643356.09042941 2366.43286857
0.00800000 1642343.71069603 3104.02974427
0.00900000 1641197.72183912 2461.79668799
0.01000000 1639917.28648697 2705.86363954
0.01100000 1638503.67809799 4129.02944858
0.01200000 1636956.25093366 3192.06482927
0.01300000 1635276.50722921 3434.08081664
0.01400000 1633463.64800068 3675.29337093
0.01500000 1631519.33318541 3915.64657400
0.01600000 1629442.58239415 4986.09452502
0.01700000 1627235.40476372 6590.30368493
0.01800000 1624897.34175057 6483.34068532
0.01900000 1622429.21616613 4867.28786812
0.02000000 1619831.50010640 6122.96334738
0.02100000 1617105.92025626 8004.67466819
0.02200000 1614250.61765812 8353.74732591
0.02300000 1611268.50594914 6380.62357399
0.02400000 1608159.47690369 7839.77780738
0.02500000 1604924.74710014 8136.96883942
0.02600000 1601564.51773430 9080.87123090
0.02700000 1598079.86931590 7383.12933439
0.02800000 1594470.64818393 8323.13716522
0.02900000 1590739.39308939 8589.99311709
0.03000000 1586886.38213815 8116.92421773
0.03100000 1582911.94094956 9877.37096601
0.03200000 1578816.88038581 9378.17270143
0.03300000 1574604.07281009 10439.62548400
0.03400000 1570271.47008234 8243.92559831
0.03500000 1565822.52797261 10146.53044981
0.03600000 1561256.80673714 13863.96108453
0.03700000 1556576.13002715 10646.98122178
0.03800000 1551781.99036631 12709.09508927
0.03900000 1546875.18155274 12993.75212678
0.04000000 1541855.09550873 9482.40927678
0.04100000 1536725.36427365 16458.32941449
0.04200000 1531486.42244184 10865.89667132
0.04300000 1526138.17663032 12087.01491997
0.04400000 1520684.39545743 10264.62014605
0.04500000 1515124.59107362 14636.10422984
0.04600000 1509459.09591906 11705.85583302
0.04700000 1503691.23041954 11909.23509880
0.04800000 1497820.99702695 16513.47726056
0.04900000 1491851.23434427 12307.77325624
0.05000000 1485781.09779810 13639.47111292
0.05100000 1479614.44881556 18465.58918142
0.05200000 1473349.12658833 18741.00176356
0.05300000 1466990.60566971 14259.14935184
0.05400000 1460537.09697008 21688.97690145
0.05500000 1453992.81959747 20763.01843243
0.05600000 1447355.96968927 16087.36235380
0.05700000 1440631.60171214 13786.84507193
0.05800000 1433818.40774200 15227.15220121
0.05900000 1426918.27599078 16694.94460884
0.06000000 1419933.86872085 12992.39550578
0.06100000 1412866.79029524 19709.49264567
0.06200000 1405717.20241443 13284.02818376
0.06300000 1398488.70501173 16110.59063499
0.06400000 1391179.01086066 14920.39558926
0.06500000 1383794.66734483 19179.39498657
0.06600000 1376333.24383495 17981.79467205
0.06700000 1368797.63334280 18150.25746754
0.06800000 1361190.90764442 15497.15920894
0.06900000 1353513.81561399 18475.46444813
0.07000000 1345765.85587702 21498.61055438
0.07100000 1337951.86708169 17339.85700954
0.07200000 1330070.58085089 21846.41031391
0.07300000 1322127.02468115 19078.29386007
0.07400000 1314120.02554158 16262.23607819
0.07500000 1306052.43858422 28289.09714571
0.07600000 1297924.03964663 16490.12569678
0.07700000 1289740.35225606 18107.95539473
0.07800000 1281499.73714921 24297.23615580
0.07900000 1273204.11081078 16806.29505098
0.08000000 1264857.45452150 19978.42443138
0.08100000 1256459.58122047 16999.89893152
0.08200000 1248011.70809626 20199.07044338
0.08300000 1239516.64023631 24988.65663993
0.08400000 1230975.25218062 17264.42872220
0.08500000 1222391.23622512 15768.84768758
0.08600000 1213763.72805572 19007.54087379
0.08700000 1205096.35501386 27042.36347636
0.08800000 1196387.53740067 20763.30668671
0.08900000 1187643.82483782 22446.46934374
0.09000000 1178863.31852117 20918.93056984
0.09100000 1170049.25206366 25834.68869931
0.09200000 1161201.92507509 17818.64437752
0.09300000 1152325.22865391 22746.90108255
0.09400000 1143417.21441448 17923.06567829
0.09500000 1134482.20874254 22871.16240326
0.09600000 1125521.56244451 18013.97345372
0.09700000 1116537.49388594 16413.10193175
0.09800000 1107531.48571922 19736.21200347
0.09900000 1098505.07448731 28011.88071661
0.10000000 1089457.89772225 26408.46068270
0.10100000 1080392.81677465 21489.01413631
0.10200000 1071312.42674975 26482.84443491
0.10300000 1062216.92349908 23198.81870051
0.10400000 1053109.54567302 18245.12373713
0.10500000 1043992.44357697 18259.42869726
0.10600001 1034862.04782153 21592.39764380
0.10700001 1025726.48280825 19940.12376413
0.10800001 1016582.65181890 26593.80342313
0.10900001 1007434.44163530 24934.00360401
0.11000001 998282.37518125 23269.96326078
0.11100001 989128.18325812 24926.03139146
0.11200001 979974.70240740 24915.85798167
0.11300001 970820.54967779 24901.54827162
0.11400001 961670.14499900 18247.69186054
0.11500001 952523.62294432 24860.86772949
0.11600001 943382.24100419 18211.99502022
0.11700001 934248.70675562 18189.82317718
0.11800001 925121.32507759 21467.44135951
0.11900001 916004.46204255 16488.08109338
0.12000001 906898.24819087 26336.32636803
0.12100001 897805.99388352 18072.83550825
0.12200001 888726.09796848 22955.79619200
0.12300001 879662.16388075 16361.71701905
0.12400001 870613.78244155 17956.41010892
0.12500001 861583.37556879 22797.49719178
0.12600001 852573.36333653 17865.67567061
0.12700001 843583.50877433 19436.16495812
0.12800001 834613.96910171 22609.69348854
0.12900001 825668.11443178 17710.58188930
0.13000001 816746.14565296 19258.87502226
0.13100001 807848.57466846 19194.48303890
0.13200001 798978.33684387 17533.58042858
0.13300001 790136.97237032 17469.92928269
0.13400001 781322.93528840 17403.96920407
0.13500001 772539.70402544 20487.75391672
0.13600001 763786.51689170 21974.13912707
0.13700001 755066.23643799 18755.84619752
0.13800001 746377.83865146 17118.17653669
0.13900001 737726.45315333 18590.70749617
0.14000001 729108.65083667 16962.71356169
0.14100001 720527.55984935 18416.68529833
0.14200001 711983.06637341 15272.03749402
0.14300001 703479.45880030 18234.18843217
0.14400001 695011.25171229 22674.74315668
0.14500001 686586.81710102 16539.87720418
0.14600001 678201.13128092 20936.06991029
0.14700001 669860.66033173 22306.36104138
0.14800001 661560.64417829 16264.46920446
0.14900001 653304.14694295 14699.34399974
0.15000001 645093.03560116 16072.49374035
0.15100001 636927.74028722 15974.14848014
0.15200001 628809.25711662 14431.17313179
0.15300001 620738.05221095 20074.66955581
0.15400001 612712.73716765 19943.80053598
0.15500001 604737.87136172 14150.86685769
0.15600001 596809.98088228 18271.33842703
0.15700001 588936.20302042 18145.12527145
0.15800001 581108.40669289 13859.43615377
0.15900001 573334.91198435 20640.05780566
0.16000001 565611.12297031 17757.36204384
0.16100001 557943.07937824 18981.22445644
0.16200001 550325.95295637 16146.56422196
0.16300001 542763.88423545 16022.39061901
0.16400001 535255.68075610 15897.09446895
0.16500001 527802.58333574 21027.65591284
0.16600001 520404.91967426 13036.14385332
0.16700001 513062.42365180 15515.00842377
0.16800001 505775.59218874 20514.25898778
0.16900001 498547.70649074 13984.26382737
0.17000001 491376.11047140 12603.79782874
0.17100001 484262.42327333 24987.94222087
0.17200001 477206.95044171 14860.22513850
0.17300001 470209.63348868 14726.96641634
0.17400001 463272.33916410 17025.25926832
0.17500001 456393.70502177 13253.67381977
0.17600001 449572.49962684 13129.76547171
0.17700001 442813.94629956 20099.32597184
0.17800001 436114.27675029 12880.63577220
0.17900001 429475.11982203 11595.82878291
0.18000001 422897.23662556 14926.15867174
0.18100001 416381.50209946 12503.93709869
0.18200001 409923.94583380 12377.65412915
0.18300001 403530.26084580 11137.43572547
0.18400001 397196.81311960 12124.43329324
0.18500001 390925.89140870 11997.51617412
0.18600001 384716.60610355 15107.82183543
0.18700001 378569.04924577 13878.34200103
0.18800001 372483.19970595 11615.88913164
0.18900001 366461.75055933 11488.57642284
0.19000001 360498.34151920 14459.58916153
0.19100001 354602.29957189 13276.31072328
0.19200001 348764.91220279 11106.41915389
0.19300001 342992.86534390 11977.31142377
0.19400001 337282.00045220 16771.34826500
0.19500001 331634.55187232 11700.06754294
0.19600001 326048.02898270 10598.19168291
0.19700001 320525.09465874 11423.51491348
0.19800001 315064.47980238 15047.48026649
0.19900001 309667.20394787 11148.01986898
0.20000001 304330.47366596 10093.12063614
0.20100001 299057.75761266 9967.59553232
0.20200001 293845.92972897 9842.36988146
0.20300001 288697.17352806 11484.37410575
0.20400001 283610.34594885 10465.22226016
0.20500001 278584.57559297 12051.56930979
0.20600001 273621.33983492 10195.13160415
0.20700001 268719.25451710 13414.46581958
0.20800001 263878.58777108 9099.85352944
0.20900001 259101.58644170 10610.21046635
0.21000001 254382.91029497 8856.34144058
0.21100001 249725.61345664 7941.27488333
0.21200001 245128.83577774 10181.42667535
0.21300001 240592.52554378 10812.22860909
0.21400001 236117.18467600 9137.73547896
0.21500001 231702.50861034 10510.02628745
0.21600001 227346.10647664 8880.13933882
0.21700001 223050.08838436 11669.98117602
0.21800001 218813.08944355 10063.21445930
0.21900001 214634.05963232 9207.80159359
0.22000001 210513.49250792 11863.48843122
0.22100001 206453.56863026 8937.37540859
0.22200001 202450.75115561 12189.56030346
0.22300001 198505.38423927 8003.73747099
0.22400001 194615.88324145 7225.11500699
0.22500001 190786.67790210 7114.43555539
0.22600001 187012.05112996 6367.76064210
0.22700001 183295.27571454 6895.56859847
0.22800001 179633.66056427 7404.49983862
0.22900001 176027.53251345 6072.95015891
0.23000001 172476.86312761 6573.95594900
0.23100001 168982.70912026 5880.59855549
0.23200001 165541.13646386 5785.66299304
0.23300001 162155.15553162 7968.30471968
0.23400001 158822.94481895 7278.06179055
0.23500001 155542.89687910 6607.46257193
0.23600001 152316.90312949 8122.29924354
0.23700001 149143.42963210 5856.86275867
0.23800001 146021.92681781 6805.35222123
0.23900001 142952.65010845 5146.29564732
0.24000001 139934.33269042 8599.66482226
0.24100001 136968.24855577 6960.72672085
0.24200001 134051.87685788 6352.04848538
0.24300001 131185.96410107 4801.40651322
0.24400001 128369.11198038 4717.56508844
0.24500001 125601.93883219 6488.59646701
0.24600001 122883.72417264 7284.54751355
0.24700001 120214.51249149 7602.36612960
0.24800001 117592.05244262 4392.06336651
0.24900001 115017.27600833 6038.40727610
0.25000001 112490.11876300 4658.77848897
0.25100001 110008.79233952 7484.99858489
0.25200001 107574.71681070 5307.19890494
0.25300001 105186.43524663 4408.36370975
0.25400001 102842.47175718 3933.72473082
0.25500001 100543.41672255 5019.12760025
0.25600001 98289.09351439  6062.47157480
0.25700001 96078.33863527  5949.17100977
0.25800001 93910.86844924  5107.81237663
0.25900001 91786.72115015  4295.61875307
0.26000001 89705.55395269  5267.95890513
0.26100001 87664.15385032  4823.28197306
0.26200001 85666.84306487  4393.42425446
0.26300001 83708.98011288  3977.85092319
0.26400001 81791.91189995  3901.47438224
0.26500001 79915.63879529  3188.63413881
0.26600001 78077.86581222  4377.82614325
0.26700001 76280.63748406  4293.07448075
0.26800001 74521.71683528  3307.64655825
0.26900001 72800.54452818  2948.42219292
0.27000001 71117.88523069  3469.13060572
0.27100001 69472.08490613  3117.90731814
0.27200001 67863.66868681  3056.91910066
0.27300001 66290.97724236  4631.75079912
0.27400001 64753.32348031  3739.50460796
0.27500001 63253.20915997  3142.41957978
0.27600001 61785.92064880  2567.20512445
0.27700001 60355.16033554  3775.21545766
0.27800001 58957.04953409  3454.29369568
0.27900001 57593.43630686  3386.49421512
0.28000001 56262.32561825  3082.89427816
0.28100001 54964.04939661  2789.97527942
0.28200001 53698.27102795  3191.28839823
0.28300001 52464.16184814  3128.96276072
0.28400001 51261.74588831  2410.58371449
0.28500001 50090.24927755  2363.75897529
0.28600001 48948.50944410  3160.85014696
0.28700001 47837.31723338  2066.57220230
0.28800001 46754.90886604  2432.19047433
0.28900001 45703.13679993  2186.89519939
0.29000001 44678.77796503  2730.32025068
0.29100001 43683.95159289  2104.69288737
0.29200001 42716.04911325  2440.58158161
0.29300001 41775.77531657  2026.54295653
0.29400001 40862.25221237  2712.23211898
0.29500001 39976.48686543  1952.45171093
0.29600001 39115.56488263  1916.85834781
0.29700001 38280.32122845  1711.13043991
0.29800001 37470.94268436  1680.57185895
0.29900001 36686.40405835  2146.15473901
0.30000001 35926.25650055  1946.48466935
0.30100001 35190.90556343  2072.39252674
0.30200001 34477.99143558  1723.72726342
0.30300001 33788.97354409  2465.24362648
0.30400001 33123.60378147  1818.48593369
0.30500001 32479.45380785  1788.96840043
0.30600001 31857.75528158  1613.75467019
0.30700001 31258.19693878  1732.95452033
0.30800001 30679.73825492  1706.40712253
0.30900001 30122.16910417  1540.74902262
0.31000001 29585.97418826  1656.22291347
0.31100001 29068.27365891  1904.55338030
0.31200001 28571.74895601  1475.58804470
0.31300001 28093.80330141  1455.54001796
0.31400001 27636.44516518  1436.40430547
0.31500001 27197.12813327  1418.05832801
0.31600002 26775.81081384  1655.14682382
0.31700002 26372.45722058  1635.35614968
0.31800002 25987.15666491  1740.87970741
0.31900002 25619.23107730  1721.61240991
0.32000002 25268.06088168  1459.98862687
0.32100002 24933.98831164  1204.31169248
0.32200002 24616.34975041  1550.46086244
0.32300002 24313.90597713  1654.31824102
0.32400002 24027.51922677  1405.60994132
0.32500002 23756.07462084  1161.67210397
0.32600002 23500.17245362  1613.75691881
0.32700002 23258.57473057  1487.61851021
0.32800002 23032.15885751  1477.62822147
0.32900002 22818.59233274  1129.52037396
0.33000002 22620.29106109  1572.33650611
0.33100002 22433.15361655  2010.90798541
0.33200002 22261.61702566  1556.75495232
0.33300002 22101.57332285  1771.66220146
0.33400002 21954.80540773  1103.22902398
0.33500002 21819.79395077  1209.68943392
0.33600002 21696.81749647  1096.77417639
0.33700002 21584.71777488  1532.08334022
0.33800002 21485.48144747  1529.55149668
0.33900002 21395.93189430  1200.31183611
0.34000002 21318.19416135  1417.55338789
0.34100002 21250.68233427  1308.19206645
0.34200002 21194.27409837  1308.53454480
0.34300002 21146.68606299  1309.40286303
0.34400002 21109.70462814  1201.66999287
0.34500002 21081.70776601  1203.55475336
0.34600002 21064.38096761  1425.32140568
0.34700002 21053.77504621  1318.80853135
0.34800002 21053.68052646  1212.37625054
0.34900002 21061.54817603  1658.59699742
0.35000002 21077.89400731  1220.72628925
0.35100002 21102.27744806  1337.04036243
0.35200002 21133.87370723  1342.84639896
0.35300002 21173.27321555  1236.73094710
0.35400002 21220.55034660  1242.99379542
0.35500002 21274.58854925  1363.27569881
0.35600002 21334.96213924  1370.98473200
0.35700002 21402.39366107  1149.30859404
0.35800002 21476.74277049  1619.13171416
0.35900002 21556.91720589  1396.88830111
0.36000002 21643.88605925  1289.21813418
0.36100002 21735.71749627  1180.24951595
0.36200002 21834.45044370  1307.77447127
0.36300002 21936.71992422  1197.74496460
0.36400002 22045.22467730  1448.37132990
0.36500002 22158.22651962  1338.13536290
0.36600002 22276.65697649  1226.33002464
0.36700002 22399.27177020  1360.08384631
0.36800002 22527.79549276  1371.60489355
0.36900002 22659.60168553  1509.12954374
0.37000002 22794.53242464  1395.36736847
0.37100002 22934.05747603  1663.63660812
0.37200002 23077.62913720  1678.55143481
0.37300002 23224.17793817  1954.31466607
0.37400002 23375.14314588  1314.85186424
0.37500002 23528.46511581  2388.60989171
0.37600002 23685.70591132  2009.14009910
0.37700002 23844.70311091  2298.39104174
0.37800002 24007.47325551  1501.30741115
0.37900002 24172.48919964  1653.39833958
0.38000002 24340.13566267  2086.55822853
0.38100002 24509.53890264  1544.83631022
0.38200002 24681.52374911  1843.33968853
0.38300002 24855.03728220  2290.64034444
0.38400002 25031.20616282  1734.66266926
0.38500002 25207.91128287  1751.44575891
0.38600002 25387.59589654  1915.87501510
0.38700002 25567.59456039  2232.05111087
0.38800002 25748.89965515  2103.42771248
0.38900002 25931.58725893  1668.69771917
0.39000002 26115.97626982  2910.23395350
0.39100002 26300.41579684  1701.11097433
0.39200002 26486.18908438  2029.76919664
0.39300002 26672.37268383  2364.50595044
0.39400002 26859.88412416  2068.88267268
0.39500002 27046.95971567  2088.56632819
0.39600002 27234.48184755  2108.35751212
0.39700002 27421.83042407  1800.79168927
0.39800002 27610.37323627  1982.97709978
0.39900002 27798.01445443  1834.66904092
0.40000002 27985.70033189  2020.00794566
0.40100002 28172.82848372  2887.99678470
0.40200002 28361.02279044  1885.86629980
0.40300002 28547.55112805  2421.97435246
0.40400002 28733.72312339  1920.13113870
0.40500002 28919.40623460  2465.66869239
0.40600002 29104.62124054  1776.83721092
0.40700002 29288.91978205  1971.73017315
0.40800002 29472.76346024  2169.78494875
0.40900002 29654.60583228  2370.88584863
0.41000002 29836.47718216  2391.24457707
0.41100002 30016.81978627  2411.55141589
0.41200002 30195.40681383  2057.66609483
0.41300002 30373.26689051  2074.79795960
0.41400002 30549.60492077  3042.74079428
0.41500002 30725.07401901  2492.41812252
0.41600002 30897.74243809  2319.18465729
0.41700002 31069.71316813  2532.49244033
0.41800002 31240.88233180  2552.53641187
0.41900002 31408.38354060  2968.09238523
0.42000002 31574.90280735  2193.35072744
0.42100002 31740.25982128  3013.73781284
0.42200002 31903.46486633  2024.27494169
0.42300002 32064.20407894  2243.21182366
0.42400002 32223.06471581  2670.48661487
0.42500002 32380.22919343  2069.09674351
0.42600002 32534.01370700  2083.80367668
0.42700002 32686.94158416  3357.60279863
0.42800002 32837.03327394  2324.36951044
0.42900002 32985.53359361  2765.83712289
0.43000002 33131.56907354  2141.95604211
0.43100002 33273.87797258  2587.37687376
0.43200002 33414.81479589  2604.35078861
0.43300002 33552.88567634  2621.15155325
0.43400002 33688.77625654  3297.28913236
0.43500002 33821.87525421  2433.14582109
0.43600002 33953.15349660  3561.00690748
0.43700002 34080.87840387  2463.02519897
0.43800002 34205.31549635  2702.90415861
0.43900002 34328.22268085  3171.92792603
0.44000002 34447.57341529  3418.06063411
0.44100002 34564.82480448  2520.81279245
0.44200002 34679.11107855  2995.75515249
0.44300002 34790.79295692  2317.06692074
0.44400002 34899.12998868  2562.46874086
0.44500002 35003.79350031  2810.10467538
0.44600002 35106.40483437  4001.60374469
0.44700002 35206.19442199  3075.61329046
0.44800002 35302.15429028  2615.36022454
0.44900002 35396.42226697  2867.11033950
0.45000002 35487.40470955  3120.93995509
0.45100002 35574.10904346  2894.30964894
0.45200002 35658.76275150  2423.01304380
0.45300002 35739.79113520  2677.26788082
0.45400002 35818.44890760  3422.45295532
0.45500002 35893.82040299  2700.65117511
0.45600002 35965.71813768  4191.26516181
0.45700002 36034.64745985  2723.13843760
0.45800002 36099.84748277  2485.47461699
0.45900002 36162.18357189  2994.22894166
0.46000002 36222.20171731  4007.62458794
0.46100002 36277.89486723  3519.68152683
0.46200002 36331.18496603  3784.80137322
0.46300002 36380.81522477  3038.52583158
0.46400002 36426.88718787  2540.77550178
0.46500002 36470.69553636  2804.23191270
0.46600002 36510.60078598  3580.59478879
0.46700002 36547.27963041  3335.30489715
0.46800002 36581.43337679  3088.20475204
0.46900002 36611.66213696  3613.57122419
0.47000002 36638.45840412  3365.05937162
0.47100002 36662.50637489  3114.84668924
0.47200002 36683.11672517  3643.73415701
0.47300002 36701.02902873  3653.22060267
0.47400002 36714.51326514  3400.68195237
0.47500002 36725.87983941  2884.45073930
0.47600002 36734.37633925  2628.34475165
0.47700002 36738.61570603  3687.82241937
