# SAXS profile: number of points = 501, q_min = 0, q_max = 0.5, delta_q = 0.001
#    q    intensity    error
0.00000000 1628779.37420969 342.04366858
0.00100000 1628712.33253192 635.19782477
0.00200000 1628511.15523314 806.11304737
0.00300000 1628176.01553207 1367.66790177
0.00400000 1627706.76461140 1587.01415580
0.00500000 1627103.85009986 1464.39352305
0.00600000 1626367.04133317 2049.22255551
0.00700000 1625496.95653182 2340.71571469
0.00800000 1624493.04025123 3508.90511509
0.00900000 1623356.65535415 3409.04912197
0.01000000 1622086.95134348 4014.66537793
0.01100000 1620685.18056328 4084.12683284
0.01200000 1619150.72173369 5051.75047330
0.01300000 1617485.07834673 4076.06257721
0.01400000 1615687.42841354 3635.29687509
0.01500000 1613759.41464075 4647.62732112
0.01600000 1611700.09875030 4520.81897909
0.01700000 1609511.44125131 5214.81730358
0.01800000 1607193.06905699 6412.70063409
0.01900000 1604745.67693831 5295.66097285
0.02000000 1602169.84210235 6056.20227710
0.02100000 1599467.17979531 6333.89031916
0.02200000 1596635.87270669 6059.23341221
0.02300000 1593678.91785366 7458.41767505
0.02400000 1590596.15291282 6561.20942994
0.02500000 1587388.63137214 6809.89753960
0.02600000 1584056.81613497 10264.68863804
0.02700000 1580601.57900264 6638.52693586
0.02800000 1577022.82853021 6860.04961871
0.02900000 1573323.15327384 9203.94086924
0.03000000 1569502.78920322 8028.00713578
0.03100000 1565562.05329018 12023.51712251
0.03200000 1561501.68395110 8502.37706072
0.03300000 1557324.66408879 9530.82738360
0.03400000 1553028.83499593 8968.74193592
0.03500000 1548617.73189392 10871.29697991
0.03600000 1544090.90269745 11140.61637781
0.03700000 1539450.13588601 9652.35279840
0.03800000 1534696.87523727 9875.77484920
0.03900000 1529831.94966477 12850.58897229
0.04000000 1524854.79540868 13129.00039685
0.04100000 1519768.93047856 11489.45364714
0.04200000 1514574.78008421 10745.90856323
0.04300000 1509272.42703688 14941.79772123
0.04400000 1503865.51607498 16241.74832791
0.04500000 1498353.58068235 13440.23224322
0.04600000 1492736.80606088 15785.69245792
0.04700000 1487018.71351525 13918.49580582
0.04800000 1481199.02877113 10886.81336801
0.04900000 1475280.80632143 15490.44918742
0.05000000 1469263.19503581 16859.79594813
0.05100000 1463149.94411237 12553.82710529
0.05200000 1456938.89783828 13899.19773310
0.05300000 1450635.71520488 14100.17980911
0.05400000 1444238.34425884 21446.94041240
0.05500000 1437750.99550475 12077.10892563
0.05600000 1431172.04434916 12236.52155019
0.05700000 1424506.45499455 17350.48943173
0.05800000 1417752.92528172 13801.82537206
0.05900000 1410913.30832901 13968.04240485
0.06000000 1403990.21478503 17985.11549164
0.06100000 1396985.13503341 15590.35483553
0.06200000 1389898.57559055 15761.45058394
0.06300000 1382733.81338155 14601.66975201
0.06400000 1375488.67657866 16093.21826860
0.06500000 1368169.73057455 17608.34525617
0.06600000 1360774.48772259 16410.94108978
0.06700000 1353305.80876985 19325.20785363
0.06800000 1345766.72965918 16714.42356475
0.06900000 1338158.05610285 15455.72627161
0.07000000 1330479.26560714 19837.44677916
0.07100000 1322735.21623892 21428.31150672
0.07200000 1314924.65754222 15838.26824207
0.07300000 1307052.35586618 14508.28182991
0.07400000 1299117.47755310 17538.08676887
0.07500000 1291122.61173983 16190.67831011
0.07600000 1283067.66520457 22229.14834178
0.07700000 1274958.04165656 20883.81370155
0.07800000 1266792.21309431 19514.93495789
0.07900000 1258571.93788861 21144.00954826
0.08000000 1250301.24380255 16710.27690732
0.08100000 1241979.99453372 32080.34476396
0.08200000 1233609.37663706 15358.43745983
0.08300000 1225192.06604341 16981.16283232
0.08400000 1216729.18283992 17064.62759032
0.08500000 1208224.30324673 17144.70366793
0.08600000 1199676.26971834 23483.66408233
0.08700000 1191089.19779172 22011.32940879
0.08800000 1182460.97655711 18943.02573408
0.08900000 1173798.43199350 17430.90753383
0.09000000 1165099.67608357 17493.97245818
0.09100000 1156367.92359110 20745.24152386
0.09200000 1147603.36140976 16009.06764388
0.09300000 1138809.95666892 25691.55382975
0.09400000 1129985.49130112 17712.52340859
0.09500000 1121134.75507909 17758.77535516
0.09600000 1112258.77971203 24275.04900833
0.09700000 1103359.73919530 21085.20560730
0.09800000 1094439.19401495 21128.14963386
0.09900000 1085498.80121169 19538.97934058
0.10000000 1076537.92330545 16309.55030507
0.10100000 1067559.47873566 17967.02687214
0.10200000 1058566.16816238 17990.33287412
0.10300000 1049558.20284693 18010.41960808
0.10400000 1040538.46025698 24582.72228007
0.10500000 1031509.51540962 18041.10227334
0.10600001 1022467.57369125 19692.72639591
0.10700001 1013420.99095217 26267.87332158
0.10800001 1004366.05213080 16421.38572516
0.10900001 995307.21798931 22991.59781767
0.11000001 986244.69753410 22989.36498162
0.11100001 977180.45582167 21341.62215977
0.11200001 968117.28251916 18050.54758234
0.11300001 959053.56272390 18039.79836416
0.11400001 949993.82211569 18026.13362340
0.11500001 940938.16773659 19646.78986747
0.11600001 931887.75444484 21261.02011887
0.11700001 922845.53146760 17967.80334387
0.11800001 913809.55967198 17942.65154923
0.11900001 904784.29040418 16286.11799438
0.12000001 895770.04437664 16258.22707128
0.12100001 886769.50986847 25964.61247209
0.12200001 877781.79053679 22673.10471772
0.12300001 868809.87130721 22623.81011475
0.12400001 859853.82419748 25795.61594135
0.12500001 850915.77486110 22515.23246375
0.12600001 841998.36361543 20852.09045756
0.12700001 833101.09516441 22393.75849336
0.12800001 824224.12734830 20733.35890059
0.12900001 815371.08600755 20669.65800450
0.13000001 806541.61536606 20603.10653565
0.13100001 797736.83459644 17374.70907651
0.13200001 788959.25602585 17313.71168966
0.13300001 780210.77300512 21955.13218739
0.13400001 771489.38442106 18747.19292528
0.13500001 762798.96250097 21785.53939618
0.13600001 754138.48458707 18597.05590678
0.13700001 745510.82565152 16975.28230053
0.13800001 736915.13252418 16901.14936143
0.13900001 728356.15115138 22943.21984323
0.14000001 719830.87487541 25881.52032673
0.14100001 711342.11221987 16666.74647536
0.14200001 702889.89256638 22615.48335999
0.14300001 694478.30726027 15000.73214437
0.14400001 686102.18419609 16414.99553118
0.14500001 677769.78112577 16327.47479752
0.14600001 669475.71074102 17714.32814187
0.14700001 661227.00516811 16147.16422797
0.14800001 653018.35531825 18973.44920891
0.14900001 644853.36732451 14509.20144936
0.15000001 636733.19558893 21633.01134084
0.15100001 628658.91122015 15766.76623736
0.15200001 620630.97600878 19940.87420011
0.15300001 612650.32529173 16982.66781848
0.15400001 604715.33264950 16871.55857711
0.15500001 596830.54920727 15362.41906159
0.15600001 588992.24574160 16644.92165021
0.15700001 581208.16832950 17907.02451139
0.15800001 573469.63252811 15044.97651948
0.15900001 565785.20795113 14936.73019493
0.16000001 558150.14823893 13479.32671623
0.16100001 550570.31949327 21406.17503236
0.16200001 543041.40719518 17260.57194250
0.16300001 535567.17566348 14492.44845761
0.16400001 528146.47786468 14378.78853868
0.16500001 520780.40867174 18154.40590339
0.16600001 513469.89560204 15434.90579053
0.16700001 506213.69275479 15307.90279166
0.16800001 499013.03838338 16444.97545640
0.16900001 491870.93556883 13796.98039417
0.17000001 484784.49566938 17408.61206152
0.17100001 477755.81646478 17256.54090558
0.17200001 470785.04473201 14660.24698525
0.17300001 463871.98765961 16949.88322953
0.17400001 457018.46840417 13196.40889838
0.17500001 450223.18257342 16640.24961379
0.17600001 443484.98916139 11774.52701834
0.17700001 436809.06722411 16327.92370402
0.17800001 430191.41467354 12705.70403250
0.17900001 423633.94613900 16013.36392042
0.18000001 417137.27800176 12457.80539597
0.18100001 410702.35421546 14575.82723962
0.18200001 404325.11951225 24417.19512076
0.18300001 398011.19204526 16477.66412907
0.18400001 391757.15471084 11958.38771247
0.18500001 385565.01543444 13984.44377046
0.18600001 379434.12857516 12771.75337122
0.18700001 373364.34860168 12634.65015360
0.18800001 367356.11881185 13538.91039847
0.18900001 361411.41485806 12360.27097214
0.19000001 355524.40582274 12222.92964970
0.19100001 349704.29833838 12085.78112163
0.19200001 343941.92427627 12944.25493177
0.19300001 338244.74371618 11811.50700869
0.19400001 332608.22207558 9728.79095543
0.19500001 327034.37539322 9614.81109091
0.19600001 321520.86976000 12351.22479550
0.19700001 316070.71478952 12203.49087473
0.19800001 310681.97582447 12983.40038328
0.19900001 305356.18607776 14657.09762443
0.20000001 300090.37449699 11762.04278430
0.20100001 294887.94434288 8935.10513588
0.20200001 289745.90312851 12351.86843416
0.20300001 284666.20697716 9581.86497973
0.20400001 279647.89780812 12898.75989607
0.20500001 274690.16182191 9336.71904164
0.20600001 269794.27942501 12565.66915817
0.20700001 264958.95713707 11573.40779481
0.20800001 260184.61607911 8972.46690962
0.20900001 255473.13471758 9656.88494882
0.21000001 250819.33859367 14289.17839516
0.21100001 246226.47973211 10179.00315332
0.21200001 241693.30774925 7722.10154765
0.21300001 237220.11502669 8376.24265758
0.21400001 232807.26748702 7508.03473141
0.21500001 228454.41232578 8142.11564023
0.21600001 224159.43308610 8755.66787030
0.21700001 219924.00596905 7191.51533520
0.21800001 215747.03402468 8504.74848336
0.21900001 211627.36457050 10475.55504154
0.22000001 207565.60651130 7568.88019931
0.22100001 203563.71864171 6778.67215129
0.22200001 199618.27697948 9348.12435297
0.22300001 195729.58113093 8549.46850806
0.22400001 191896.31175625 8419.45107643
0.22500001 188122.81951347 7015.10027138
0.22600001 184402.87952658 7534.70201376
0.22700001 180740.40598749 8035.71883021
0.22800001 177132.46129704 6692.95036662
0.22900001 173579.17822437 7186.17831833
0.23000001 170080.84389330 8839.95227941
0.23100001 166638.40175221 6958.81998627
0.23200001 163247.84996153 6846.61515119
0.23300001 159912.12200794 6735.49889753
0.23400001 156629.65197868 8281.79324006
0.23500001 153398.66275315 7059.40679378
0.23600001 150221.08346822 6942.46770084
0.23700001 147095.46372155 6301.56996388
0.23800001 144020.92329497 5679.46537877
0.23900001 140998.15295501 6091.12049576
0.24000001 138025.58963395 5987.55036153
0.24100001 135104.74992823 5394.73291981
0.24200001 132232.92629983 5301.87943078
0.24300001 129410.90802209 5683.72734919
0.24400001 126637.26302316 6515.48749075
0.24500001 123912.67845312 6858.56707682
0.24600001 121236.52466789 4940.99479657
0.24700001 118608.50316324 6618.35478960
0.24800001 116026.70158113 4333.59750906
0.24900001 113491.98916158 5107.13975388
0.25000001 111004.30162600 4179.31215393
0.25100001 108561.62232177 4103.62951790
0.25200001 106165.71777788 6043.48377042
0.25300001 103814.95912501 4350.88514277
0.25400001 101507.76309253 4659.20654638
0.25500001 99245.00510171  4192.10921383
0.25600001 97026.28997548  4488.43638663
0.25700001 94850.49621419  4037.78581488
0.25800001 92717.38515747  4322.48470056
0.25900001 90627.02907703  3887.89973136
0.26000001 88579.05491142  4508.23121303
0.26100001 86570.28515422  4082.65484105
0.26200001 84604.72956296  4338.95376094
0.26300001 82678.14412272  3928.86559462
0.26400001 80791.87567073  3532.62493086
0.26500001 78945.69624907  3779.92011527
0.26600001 77137.41702828  3707.22443780
0.26700001 75369.18707985  3332.82561038
0.26800001 73638.59573713  3268.44922646
0.26900001 71945.17397569  2913.77968390
0.27000001 70289.70681139  4857.37041906
0.27100001 68670.42468982  3081.92880592
0.27200001 67088.07162551  3021.98232938
0.27300001 65540.83191524  2693.72831919
0.27400001 64028.12611059  3169.39239247
0.27500001 62552.20937380  3884.49238595
0.27600001 61108.67894260  2539.06573023
0.27700001 59701.18491532  3983.26324606
0.27800001 58325.71481201  2929.11753649
0.27900001 56984.25200024  2632.67256701
0.28000001 55674.65049117  3520.02994390
0.28100001 54397.34845828  3681.61271790
0.28200001 53152.12445783  4061.35402205
0.28300001 51937.95677004  2433.81276944
0.28400001 50755.01454039  2169.77697430
0.28500001 49602.41355027  2340.73800623
0.28600001 48479.06360048  2921.83330150
0.28700001 47385.81680131  3275.30781233
0.28800001 46320.73215756  2008.00383408
0.28900001 45285.78715775  1969.93183461
0.29000001 44277.86808125  1932.72903323
0.29100001 43298.95663214  2275.79326831
0.29200001 42346.41157914  2233.34985240
0.29300001 41421.02700878  2557.33432858
0.29400001 40522.01400823  2331.02896617
0.29500001 39650.30422362  2640.71038630
0.29600001 38802.81650983  2420.13178028
0.29700001 37980.67032406  2207.05685701
0.29800001 37183.84265539  2168.00404865
0.29900001 36411.51642417  1802.37014832
0.30000001 35663.06567690  1932.22498985
0.30100001 34938.89109623  1741.00502574
0.30200001 34236.82866954  1867.27672403
0.30300001 33558.26919001  2295.38572126
0.30400001 32902.80885767  1505.30357650
0.30500001 32268.22043067  1925.44480425
0.30600001 31655.73455377  1749.29597426
0.30700001 31064.97952257  1578.72233408
0.30800001 30494.83579683  1554.77927671
0.30900001 29945.12982020  1810.18318333
0.31000001 29416.56520366  1509.51111489
0.31100001 28906.02649775  2164.48336663
0.31200001 28416.35213531  1334.14779592
0.31300001 27944.78861244  1447.81956656
0.31400001 27493.45727063  1818.69228456
0.31500001 27059.91523782  1795.69606020
0.31600002 26643.83572004  1266.91444847
0.31700002 26245.45913914  1377.09930623
0.31800002 25864.88357080  1732.68863245
0.31900002 25501.29185855  1468.87448060
0.32000002 25154.02384959  1211.16630571
0.32100002 24823.60435483  1558.67419124
0.32200002 24509.31746667  1781.21473123
0.32300002 24209.92417615  1176.60237067
0.32400002 23926.21343265  1283.04325608
0.32500002 23657.22467994  1388.20600995
0.32600002 23403.46245676  1721.90983179
0.32700002 23163.66046376  1367.58257854
0.32800002 22938.75667137  1358.43323440
0.32900002 22726.44365631  1574.94261996
0.33000002 22529.04569987  1454.13732356
0.33100002 22342.73323417  1557.73543485
0.33200002 22171.61228149  1107.47208590
0.33300002 22011.81185996  1323.35019169
0.33400002 21864.94486995  1538.19894444
0.33500002 21729.67136017  1423.72813494
0.33600002 21606.17122182  1310.63040838
0.33700002 21493.29383601  1307.65205891
0.33800002 21393.04534359  1305.40368869
0.33900002 21302.25259675  1195.05642727
0.34000002 21223.13592724  1194.11979950
0.34100002 21153.92484542  1302.23567516
0.34200002 21095.63604945  1736.59284183
0.34300002 21046.05597224  1737.56246336
0.34400002 21006.74886680  1195.80923588
0.34500002 20976.35550595  1197.54019255
0.34600002 20956.37968304  1308.93553699
0.34700002 20943.00315901  1202.54729834
0.34800002 20939.90385839  1644.30602836
0.34900002 20944.68985377  1319.51552328
0.35000002 20957.69268686  1544.79160111
0.35100002 20978.62910001  1439.97316963
0.35200002 21006.67309816  1445.99441120
0.35300002 21042.24925738  1229.07783734
0.35400002 21085.67654816  1347.37479524
0.35500002 21135.72873470  1354.37756147
0.35600002 21191.95195450  1134.82908091
0.35700002 21255.09861325  1483.81850447
0.35800002 21325.03124973  1607.69418207
0.35900002 21400.72762306  1502.33115030
0.36000002 21483.10566147  1279.64124934
0.36100002 21570.15293130  1639.76310351
0.36200002 21664.11831794  1415.53355794
0.36300002 21761.40597138  1663.44195124
0.36400002 21864.89210617  1556.23376937
0.36500002 21972.86498575  1447.57241383
0.36600002 22086.10405468  1702.17612012
0.36700002 22203.46053473  1593.32040345
0.36800002 22326.66031380  1853.67106036
0.36900002 22453.15607314  1869.22533163
0.37000002 22582.59430025  1382.39357557
0.37100002 22716.69168769  1774.62803871
0.37200002 22854.69773234  1278.72039870
0.37300002 22995.68037841  1290.05773034
0.37400002 23140.98793864  1562.01675985
0.37500002 23288.62646367  1444.82645425
0.37600002 23440.15139928  1723.20281175
0.37700002 23593.40364745  2407.94289033
0.37800002 23750.52903909  1755.28293179
0.37900002 23909.71391880  1635.42450952
0.38000002 24071.56149665  1513.25878517
0.38100002 24235.12749510  1666.40744551
0.38200002 24401.30810623  1542.04073883
0.38300002 24568.99344443  1556.69149839
0.38400002 24739.33706199  1857.30581792
0.38500002 24910.13972240  1442.29715825
0.38600002 25084.12483924  1892.97357067
0.38700002 25258.30442248  2058.04674184
0.38800002 25433.80229363  1484.06243414
0.38900002 25610.69166898  1947.69319370
0.39000002 25789.34769864  1815.05437702
0.39100002 25968.10135432  1679.61687517
0.39200002 26148.08781151  2158.00178932
0.39300002 26328.67077053  1556.02451626
0.39400002 26510.51081917  2356.12176068
0.39500002 26692.05534858  2061.16061167
0.39600002 26874.03775220  1920.41882876
0.39700002 27055.86727000  2099.80595831
0.39800002 27238.87279913  2119.32059855
0.39900002 27421.12255523  1809.79417439
0.40000002 27603.55430545  1992.42464417
0.40100002 27785.31305184  1842.99990205
0.40200002 27968.23727231  1859.74802554
0.40300002 28149.62430184  2388.21423892
0.40400002 28330.64538999  1893.19546789
0.40500002 28511.29126758  1909.97149251
0.40600002 28691.50608706  2802.58644737
0.40700002 28870.93215024  3003.73192323
0.40800002 29049.97118277  2851.54530641
0.40900002 29227.03101737  2156.95499128
0.41000002 29404.22511778  1812.77056440
0.41100002 29579.94480818  2193.64881091
0.41200002 29754.10652954  3317.88057632
0.41300002 29927.48375429  2230.19619504
0.41400002 30099.54480807  2248.43610370
0.41500002 30270.77267529  2455.56519577
0.41600002 30439.22211524  2665.56280694
0.41700002 30607.22128189  2494.79472490
0.41800002 30774.38656882  2127.58731625
0.41900002 30938.02228459  2338.91459554
0.42000002 31100.74637645  2749.61711743
0.42100002 31262.46078442  2374.69663371
0.42200002 31422.11659053  2392.48007057
0.42300002 31579.38904415  2410.13908606
0.42400002 31734.93690968  2832.34325340
0.42500002 31888.86862511  2649.00844221
0.42600002 32039.56306985  2257.34752305
0.42700002 32189.48298008  3099.84735787
0.42800002 32336.58882193  3121.28938394
0.42900002 32482.34142108  2304.62223304
0.43000002 32625.68079962  2531.10043638
0.43100002 32765.40387508  2335.51809889
0.43200002 32903.92843150  2564.53230348
0.43300002 33039.63153374  2150.88011477
0.43400002 33173.31464595  3030.38243651
0.43500002 33304.39714761  2613.72921201
0.43600002 33433.67102947  2410.73496382
0.43700002 33559.50921558  3086.80380393
0.43800002 33682.24861750  2439.77379423
0.43900002 33803.53310066  3569.65326459
0.44000002 33921.37773957  2468.28916819
0.44100002 34037.30490408  2482.34076429
0.44200002 34150.34005768  2496.21922481
0.44300002 34260.93096830  2281.77811062
0.44400002 34368.26795658  2752.89839378
0.44500002 34472.06301353  2536.79923739
0.44600002 34573.90104338  2781.81620978
0.44700002 34673.02721677  2563.03029333
0.44800002 34768.60991799  2341.66598895
0.44900002 34862.45469304  3059.18054429
0.45000002 34953.17652212  2601.04075416
0.45100002 35039.72860072  2613.26308289
0.45200002 35124.38218979  2625.37207120
0.45300002 35205.65549347  3596.25787909
0.45400002 35284.52208074  3371.43624460
0.45500002 35360.27963205  2418.64324146
0.45600002 35432.59119711  3157.57551418
0.45700002 35502.21987944  2926.80314557
0.45800002 35568.18557240  3428.41756981
0.45900002 35631.35509792  2704.41998011
0.46000002 35692.46274961  2961.76069933
0.46100002 35749.31833841  2725.17066610
0.46200002 35803.81947157  2983.89045618
0.46300002 35854.75618928  3493.68760867
0.46400002 35902.29235291  3005.02201236
0.46500002 35947.69943489  2764.01874055
0.46600002 35989.36802773  2521.05534983
0.46700002 36027.90617052  2782.07504635
0.46800002 36063.99426865  3044.52254046
0.46900002 36096.29299850  3562.70428781
0.47000002 36125.34575171  3317.93253782
0.47100002 36151.71240955  2815.49549590
0.47200002 36174.76687032  3849.89974665
0.47300002 36195.07951602  3345.51135823
0.47400002 36211.31989218  4128.09066337
0.47500002 36225.41111868  2586.49447647
0.47600002 36236.72665406  3370.55928948
0.47700002 36244.05249330  3378.30829303
