# SAXS profile: number of points = 501, q_min = 0, q_max = 0.5, delta_q = 0.001
#    q    intensity    error
0.00000000 1646666.22097351 271.69992646
0.00100000 1646598.53904450 543.37753079
0.00200000 1646395.43900058 1037.22915941
0.00300000 1646057.09070668 1185.16114753
0.00400000 1645583.35071751 1727.86258391
0.00500000 1644974.68328096 1776.57272826
0.00600000 1644230.82867854 2071.73092848
0.00700000 1643352.43227437 2366.42760082
0.00800000 1642338.90998884 2438.87338430
0.00900000 1641191.66690854 3938.86016896
0.01000000 1639909.82606444 2976.43646283
0.01100000 1638494.60985285 3834.07755399
0.01200000 1636945.51424364 3830.45267127
0.01300000 1635263.89595834 3777.45976627
0.01400000 1633449.02851542 4042.78652480
0.01500000 1631502.56060845 3915.60631982
0.01600000 1629423.55164240 6232.54536365
0.01700000 1627213.90614084 5272.17329240
0.01800000 1624873.31752424 6020.15591232
0.01900000 1622402.44992880 5840.64908329
0.02000000 1619801.88491364 6633.08901877
0.02100000 1617073.30694627 8004.51323230
0.02200000 1614214.89269094 5569.04163280
0.02300000 1611229.51452870 6380.46916796
0.02400000 1608117.11609986 9045.65919052
0.02500000 1604878.82025985 7510.83322184
0.02600000 1601514.98074309 7134.74956554
0.02700000 1598026.51922488 7382.88285696
0.02800000 1594413.37035401 9016.40802284
0.02900000 1590678.06003387 7158.05159881
0.03000000 1586820.99257980 8116.58975013
0.03100000 1582842.17162866 11396.46416011
0.03200000 1578742.71787855 7814.77681343
0.03300000 1574525.38054741 8030.07981098
0.03400000 1570188.10899776 12365.23192889
0.03500000 1565734.39595696 8454.96612860
0.03600000 1561163.85506228 10397.35175522
0.03700000 1556478.17582169 12420.69641748
0.03800000 1551678.94135259 14523.71556321
0.03900000 1546766.95853889 13920.90327153
0.04000000 1541741.52462026 9481.71081579
0.04100000 1536606.43842910 9680.62101096
0.04200000 1531361.95512163 13828.19909628
0.04300000 1526008.11764986 11078.81944839
0.04400000 1520548.69338067 13342.81540408
0.04500000 1514983.01674717 13589.39829165
0.04600000 1509311.66322539 11704.71249243
0.04700000 1503537.84326902 12990.56757001
0.04800000 1497661.55556343 13209.37553468
0.04900000 1491685.58623651 14543.93514279
0.05000000 1485609.26571732 18183.85825913
0.05100000 1479436.30809009 13847.52448880
0.05200000 1473164.49239348 11711.65826031
0.05300000 1466799.53571927 13069.18447252
0.05400000 1460339.67002253 13252.58312347
0.05500000 1453788.68138097 12211.82549327
0.05600000 1447145.17172957 18559.63769350
0.05700000 1440414.12843535 16291.08455305
0.05800000 1433594.05822468 13956.03880846
0.05900000 1426687.17027044 12840.18513215
0.06000000 1419695.82555666 15588.26089288
0.06100000 1412621.82388154 13137.38357603
0.06200000 1405465.44959448 14609.81403145
0.06300000 1398229.69516125 13423.00570114
0.06400000 1390912.86766658 13561.40109397
0.06500000 1383521.43691093 15066.54915274
0.06600000 1376052.78398996 19361.06357661
0.06700000 1368510.18321593 13958.80452206
0.06800000 1360896.20899974 19719.38699145
0.06900000 1353211.78298144 15629.59682520
0.07000000 1345456.58789774 18627.84733176
0.07100000 1337635.27059087 21669.69239853
0.07200000 1329746.75597452 17472.87319205
0.07300000 1321795.79102372 16139.12736461
0.07400000 1313781.49087620 16258.04671151
0.07500000 1305706.54809754 17862.06641521
0.07600000 1297570.80636733 19483.02657098
0.07700000 1289379.86782016 19611.46870910
0.07800000 1281131.81320117 16699.55396822
0.07900000 1272828.84227143 16801.34150603
0.08000000 1264474.84738513 19972.38115137
0.08100000 1256069.44040216 23174.48226273
0.08200000 1247614.42067826 18639.36031959
0.08300000 1239112.00322706 18735.37436808
0.08400000 1230563.38623915 17258.65230210
0.08500000 1221972.05505878 15763.44025028
0.08600000 1213337.24799480 23751.07774465
0.08700000 1204662.65368698 17491.70255291
0.08800000 1195946.67970947 15965.88892394
0.08900000 1187195.76029117 20835.28657174
0.09000000 1178408.26630170 19302.32830876
0.09100000 1169586.98459473 24210.45171855
0.09200000 1160732.67828141 19430.66594741
0.09300000 1151848.99358040 17865.17872996
0.09400000 1142933.98342699 22801.53404098
0.09500000 1133992.19038008 16329.48830900
0.09600000 1125024.55805727 16369.10808921
0.09700000 1116033.88964845 22967.97852875
0.09800000 1107021.03990846 16439.26321558
0.09900000 1097987.93494787 23057.74771814
0.10000000 1088934.31714750 18147.09124867
0.10100000 1079862.65775703 19826.27932888
0.10200000 1070775.60370823 18197.83224098
0.10300000 1061674.00682651 21530.74987126
0.10400000 1052560.09072361 21551.16887144
0.10500000 1043436.85250264 16590.64673537
0.10600001 1034300.38432818 18260.57414454
0.10700001 1025158.67894550 18268.32851847
0.10800001 1016008.82579645 23256.44311697
0.10900001 1006854.77196204 21597.03587506
0.11000001 997696.75293418 23256.31240556
0.11100001 988537.00645801 18268.16473929
0.11200001 979377.88226475 21580.59265166
0.11300001 970218.37761354 16590.73503830
0.11400001 961062.51535083 18236.16208742
0.11500001 951910.65455510 26501.19387070
0.11600001 942764.10011767 26472.81717795
0.11700001 933625.47220270 23135.24029074
0.11800001 924493.08704698 21452.86309532
0.11900001 915371.38597255 16476.68572358
0.12000001 906260.52761496 18093.49228612
0.12100001 897163.45244023 18059.90114839
0.12200001 888079.12822010 22939.08496261
0.12300001 879010.73113207 24524.40055404
0.12400001 869957.98315676 24467.56942913
0.12500001 860923.45397483 16271.45404684
0.12600001 851909.45502484 19474.65105958
0.12700001 842915.63234323 19420.77708442
0.12800001 833942.37979498 22591.50013337
0.12900001 824992.91759671 19304.83518164
0.13000001 816067.33517611 17639.29628126
0.13100001 807166.39199258 17580.08484628
0.13200001 798293.24164481 17518.54601373
0.13300001 789448.62118091 17454.70983718
0.13400001 780631.36050517 17388.56437505
0.13500001 771845.49068986 17320.21362770
0.13600001 763089.60917408 18817.79064951
0.13700001 754366.68066414 20300.00833388
0.13800001 745676.09768279 17102.08210682
0.13900001 737022.29928681 18572.96281789
0.14000001 728402.28127707 18486.85077066
0.14100001 719819.38293702 15332.15357967
0.14200001 711273.07903857 21359.53157096
0.14300001 702767.72203299 25805.63197024
0.14400001 694297.82579335 21141.36979264
0.14500001 685872.13460397 16522.66050202
0.14600001 677485.17274160 16432.40364004
0.14700001 669143.60116562 20796.98410536
0.14800001 660842.80486543 16246.82112412
0.14900001 652585.62740505 20556.44823313
0.15000001 644373.85401843 16054.57533037
0.15100001 636207.98505856 18857.20556691
0.15200001 628089.28150912 20180.50956715
0.15300001 620017.91316763 21483.62170505
0.15400001 611992.41622071 19920.35408805
0.15500001 604017.70446183 18374.21943686
0.15600001 596090.30542675 15441.72009085
0.15700001 588216.90674940 18122.96375230
0.15800001 580389.69074782 15226.52425544
0.15900001 572617.07497289 15117.09149282
0.16000001 564894.18648873 19099.07334671
0.16100001 557227.21709569 14894.68421606
0.16200001 549611.42476294 20156.99995471
0.16300001 542050.61643086 16001.33495243
0.16400001 534544.05392591 19844.94893887
0.16500001 527092.69083947 13124.60862153
0.16600001 519696.98585229 15622.09213229
0.16700001 512356.51588800 15493.66177198
0.16800001 505071.68493433 15364.28138115
0.16900001 497846.00003739 15234.08832047
0.17000001 490677.00292958 17620.21200722
0.17100001 483565.84686465 13723.59938206
0.17200001 476513.03649126 16075.16804515
0.17300001 469519.00187895 14705.33583330
0.17400001 462584.60889193 13357.13121256
0.17500001 455709.04696365 15639.93523043
0.17600001 448891.25797230 14301.67615445
0.17700001 442136.29723516 17707.55954061
0.17800001 435440.26784720 14029.88609270
0.17900001 428804.91486292 11577.73324816
0.18000001 422231.10125853 12609.93243472
0.18100001 415719.20573102 17023.70227882
0.18200001 409265.94040458 15728.09083271
0.18300001 402876.63302674 11119.39559681
0.18400001 396547.48202356 14305.45108980
0.18500001 390281.22254165 16333.26993499
0.18600001 384076.94032749 14005.36629070
0.18700001 377934.05105681 11723.51481766
0.18800001 371853.43755017 15813.06817893
0.18900001 365836.84708643 12511.62076150
0.19000001 359878.87370038 12372.63626241
0.19100001 353988.39791054 12233.83960984
0.19200001 348156.57250567 12094.95990035
0.19300001 342389.90530919 10959.90138683
0.19400001 336685.01265310 10832.84079401
0.19500001 331043.38862444 12652.47891112
0.19600001 325462.96220120 9617.43098753
0.19700001 319946.14304868 12353.12116689
0.19800001 314491.72964841 10326.33643102
0.19900001 309100.91296664 10200.33060997
0.20000001 303770.49775667 10074.54903423
0.20100001 298504.46822853 10853.62297776
0.20200001 293299.35107913 8930.96566247
0.20300001 288157.34033187 10581.13803710
0.20400001 283077.37006027 13056.94431118
0.20500001 278058.63702100 8592.01229007
0.20600001 273102.43358346 11871.76334903
0.20700001 268207.59420049 10041.69280153
0.20800001 263374.27198692 10733.81896222
0.20900001 258604.58304211 13033.67160144
0.21000001 253893.40206286 8839.29921067
0.21100001 249243.56036359 7925.94559425
0.21200001 244654.49746630 10943.39618901
0.21300001 240125.78174550 10791.25314180
0.21400001 235658.38647449 9879.97832003
0.21500001 231251.50262108 11238.82355873
0.21600001 226903.07320642 8124.26492026
0.21700001 222614.96852026 9463.36275922
0.21800001 218386.18983379 10760.98001285
0.21900001 214215.19319210 7776.01188054
0.22000001 210102.89616601 6964.91133722
0.22100001 206051.25163929 10292.26050604
0.22200001 202056.67328753 7434.67564516
0.22300001 198119.69294560 6656.82199774
0.22400001 194238.71079790 7866.66815930
0.22500001 190418.06634725 7100.69002986
0.22600001 186652.03456616 6991.05228527
0.22700001 182943.78496076 6882.34551568
0.22800001 179290.79554945 6774.50303020
0.22900001 175693.31318656 6061.41959159
0.23000001 172151.23939505 6561.54479985
0.23100001 168665.99465333 6456.53458068
0.23200001 165233.32556330 6929.88600186
0.23300001 161856.14330567 7953.61125820
0.23400001 158532.74266598 6147.10738760
0.23500001 155261.55408260 6595.51112937
0.23600001 152044.48196162 7026.73606620
0.23700001 148879.98674486 5846.51735600
0.23800001 145767.33604192 5748.33516870
0.23900001 142707.07180506 8219.92772477
0.24000001 139697.66692176 5555.07798790
0.24100001 136740.59992812 5460.05241340
0.24200001 133833.30936281 5853.86922843
0.24300001 130976.40469226 5273.11030234
0.24400001 128168.49239714 5181.21155024
0.24500001 125410.33003530 6941.46209582
0.24600001 122701.16001077 4546.07819345
0.24700001 120040.91535179 5805.17894103
0.24800001 117427.47153981 4824.50789644
0.24900001 114861.75617583 4738.04766640
0.25000001 112343.54787700 4229.73477767
0.25100001 109871.10004231 4568.44055589
0.25200001 107445.98404378 4077.57528737
0.25300001 105066.60389579 5203.94913716
0.25400001 102731.56270249 4715.37895113
0.25500001 100441.36690777 5014.03327326
0.25600001 98195.99238947  5678.18352857
0.25700001 95994.05719055  3714.97018904
0.25800001 93835.33839952  5832.80491089
0.25900001 91719.97524793  4292.49504470
0.26000001 89647.52403384  3860.67080519
0.26100001 87614.85622256  3787.59041372
0.26200001 85626.15235782  5066.92780553
0.26300001 83676.93783032  3976.32827385
0.26400001 81768.31022349  4225.37763074
0.26500001 79900.62725205  3188.03517821
0.26600001 78071.33133692  4064.78405840
0.26700001 76282.49300211  5213.14581845
0.26800001 74531.93348740  3308.10002438
0.26900001 72819.09912378  5308.51257733
0.27000001 71144.66017392  3181.23363022
0.27100001 69507.03312045  3119.47579407
0.27200001 67906.75686283  4449.25092021
0.27300001 66342.12477708  2999.32760311
0.27400001 64812.54294269  2940.86927520
0.27500001 63320.29675490  2883.60645069
0.27600001 61860.93634424  3084.38643210
0.27700001 60437.87326481  3528.36320819
0.27800001 59047.57343258  2718.25517162
0.27900001 57691.53322093  2907.65341195
0.28000001 56367.99156300  2613.50205251
0.28100001 55077.15698200  3028.69300579
0.28200001 53818.84464994  3655.37610163
0.28300001 52592.14541747  2688.51060099
0.28400001 51396.83340406  3076.10062483
0.28500001 50232.59872693  2585.97430486
0.28600001 49097.85691126  2325.02912408
0.28700001 47993.74974373  2902.66212189
0.28800001 46918.23804702  2237.29628717
0.28900001 45873.29965275  2195.03749228
0.29000001 44855.57418805  2545.32967778
0.29100001 43867.40691655  2305.67101667
0.29200001 42906.04407550  2074.29279902
0.29300001 41972.17313363  2036.07021509
0.29400001 41065.06307538  1998.84203981
0.29500001 40185.52698897  1962.66123105
0.29600001 39330.74266743  1927.40313566
0.29700001 38501.51090267  2753.62819011
0.29800001 37698.07655682  1690.75881361
0.29900001 36919.45362350  1661.37549171
0.30000001 36165.01975213  1959.42086293
0.30100001 35435.26050874  1765.73911474
0.30200001 34727.83549020  1736.21821753
0.30300001 34044.37103981  2018.15041078
0.30400001 33384.26308260  1680.06311917
0.30500001 32745.32624637  1803.61265504
0.30600001 32128.69624289  2219.28979804
0.30700001 31534.29166056  1456.88434369
0.30800001 30960.58321585  1865.53002999
0.30900001 30407.72512272  2120.93892772
0.31000001 29876.28477604  1811.84737602
0.31100001 29363.16575747  2610.97282277
0.31200001 28871.02199997  1626.59345649
0.31300001 28397.45165774  1471.27204005
0.31400001 27944.28089208  1584.44080160
0.31500001 27509.00957252  1955.89067321
0.31600002 27091.81112079  1545.85881574
0.31700002 26692.22849114  1273.21935931
0.31800002 26310.74842418  1636.66018322
0.31900002 25946.53878278  1743.60748876
0.32000002 25598.81510615  1355.84130630
0.32100002 25268.16443897  1464.54288023
0.32200002 24953.86072872  1329.91607051
0.32300002 24654.64541301  1318.03740619
0.32400002 24371.27937162  1188.09992562
0.32500002 24102.77721151  1532.21361989
0.32600002 23849.75526546  1286.81360628
0.32700002 23610.92726009  1277.82344382
0.32800002 23387.13356819  1615.81713474
0.32900002 23176.04297913  1261.93559997
0.33000002 22980.14224323  1255.06052805
0.33100002 22795.32999331  1475.76973365
0.33200002 22625.89154481  1582.22867065
0.33300002 22467.97961303  1575.90416469
0.33400002 22323.08778695  1682.60282162
0.33500002 22189.96493287  1230.21171414
0.33600002 22068.62996942  1115.56929778
0.33700002 21958.14576923  1335.93365187
0.33800002 21860.36602318  1333.91959791
0.33900002 21772.32183245  1110.38846604
0.34000002 21695.73609650  1331.68434467
0.34100002 21629.37722230  1442.46323527
0.34200002 21574.10413366  1220.98648127
0.34300002 21527.47544404  1110.81778552
0.34400002 21491.22377196  1334.60505945
0.34500002 21464.05997137  1670.97714791
0.34600002 21447.26517099  1339.59624602
0.34700002 21437.27657230  1119.02589007
0.34800002 21437.51094543  1122.25375114
0.34900002 21445.78822028  1801.44629582
0.35000002 21462.25842130  1129.98795940
0.35100002 21486.78936875  1815.20405184
0.35200002 21518.30306198  1253.33362121
0.35300002 21557.63172632  1602.59441844
0.35400002 21604.69176131  1265.49487986
0.35500002 21658.46928797  1503.53100918
0.35600002 21718.48778715  1279.32758370
0.35700002 21785.38905957  1286.86299270
0.35800002 21859.15837275  1294.82730754
0.35900002 21938.59696407  1303.15272139
0.36000002 22024.79114788  1311.90674686
0.36100002 22115.78706165  1681.24221206
0.36200002 22213.52696353  1814.28990068
0.36300002 22314.80223857  1462.06591192
0.36400002 22422.11738547  1473.13318200
0.36500002 22533.88676736  1237.11044213
0.36600002 22651.00982375  1246.93814986
0.36700002 22772.22273453  1885.54013173
0.36800002 22899.19690291  1267.47060861
0.36900002 23029.47602069  1917.20396954
0.37000002 23162.74809589  1933.51048889
0.37100002 23300.51578030  1430.18572634
0.37200002 23442.28545023  1573.91511969
0.37300002 23586.93396154  1455.54976372
0.37400002 23735.98733738  1602.17922117
0.37500002 23887.15740208  1751.40646369
0.37600002 24042.28963509  1359.59154327
0.37700002 24199.12234103  1646.50836208
0.37800002 24359.53427800  2354.22730182
0.37900002 24522.25640800  1817.09928591
0.38000002 24687.47002582  1551.97787669
0.38100002 24854.44131829  1566.57551051
0.38200002 25023.75800684  2012.66095184
0.38300002 25194.85111082  1596.34584201
0.38400002 25368.30198567  1611.52145998
0.38500002 25542.26429489  1478.89717274
0.38600002 25719.04467194  2090.18685951
0.38700002 25896.20952072  2110.02325171
0.38800002 26074.63326587  1825.74590777
0.38900002 26254.25828067  2610.98610971
0.39000002 26435.68559537  2015.58894371
0.39100002 26617.04949835  1878.09910158
0.39200002 26799.68645112  2369.76238671
0.39300002 26982.59502036  2710.94145013
0.39400002 27166.90549429  1931.56707216
0.39500002 27350.76108507  1624.63528542
0.39600002 27534.83032218  1803.66914571
0.39700002 27718.84513453  2978.66723928
0.39800002 27903.93094153  2338.07048437
0.39900002 28088.12369116  1685.28750132
0.40000002 28272.31032147  2890.98522889
0.40100002 28455.89315318  2573.83565765
0.40200002 28640.47100501  2250.71152057
0.40300002 28823.37592586  1921.36633025
0.40400002 29005.84947874  1938.31598325
0.40500002 29187.80157937  3199.56696073
0.40600002 29369.31683530  1972.29656552
0.40700002 29549.83874505  1808.45021688
0.40800002 29729.86405647  2188.71269554
0.40900002 29907.88058373  2023.26821736
0.41000002 30085.87847419  1854.79449582
0.41100002 30262.39282280  1870.21596506
0.41200002 30437.06281145  2451.24896967
0.41300002 30610.96208283  2471.22308604
0.41400002 30783.34674454  2107.88976821
0.41500002 30954.83644357  3670.00558265
0.41600002 31123.45352841  1946.77211045
0.41700002 31291.44405459  2942.96045278
0.41800002 31458.59012093  2372.60697934
0.41900002 31622.03788194  2589.84502525
0.42000002 31784.50561323  2810.06827442
0.42100002 31945.72828022  2224.38116555
0.42200002 32104.92726644  2648.17505106
0.42300002 32261.46668918  2462.19525439
0.42400002 32416.26819041  2066.53719506
0.42500002 32569.31653677  2289.29736785
0.42600002 32719.01552335  3353.04486972
0.42700002 32867.77377783  2110.11117653
0.42800002 33013.70567383  2974.20488509
0.42900002 33158.06478044  2352.56480765
0.43000002 33299.97706978  3659.83415328
0.43100002 33438.13456692  2383.47034488
0.43200002 33574.91962470  3271.03669944
0.43300002 33708.86878826  2413.89220832
0.43400002 33840.62022844  2649.72068945
0.43500002 33969.53876184  2665.92952836
0.43600002 34096.68639889  2458.54168930
0.43700002 34220.26620939  2922.75307545
0.43800002 34340.60005011  2939.72720660
0.43900002 34459.30918808  2274.31451419
0.44000002 34574.50113787  2515.81369452
0.44100002 34687.80132873  2529.78147079
0.44200002 34797.95810203  3468.48663819
0.44300002 34905.53994576  2789.65088467
0.44400002 35009.78351511  2570.59347642
0.44500002 35110.38123828  3288.43846262
0.44600002 35208.89448417  2596.83213575
0.44700002 35304.71303428  2609.72451117
0.44800002 35396.67478885  3099.15600801
0.44900002 35486.89539045  3113.97521809
0.45000002 35573.88675696  3369.20297442
0.45100002 35656.60010994  3384.52464284
0.45200002 35737.36948421  2428.35437154
0.45300002 35814.45846497  3658.44710558
0.45400002 35889.14384130  3674.15127488
0.45500002 35960.65023808  2951.65031143
0.45600002 36028.66092556  3951.62371760
0.45700002 36093.76179221  2727.60570791
0.45800002 36155.15026666  2987.13865660
0.45900002 36213.69598171  2998.49416940
0.46000002 36269.99808715  2758.87753525
0.46100002 36321.90297033  3272.24039368
0.46200002 36371.42636489  3536.39395307
0.46300002 36417.36558826  2788.11364158
0.46400002 36459.77810618  2797.37660778
0.46500002 36499.97760769  3061.61826684
0.46600002 36536.20668301  2559.36139945
0.46700002 36569.31175440  2823.88238752
0.46800002 36599.93205045  2574.80534179
0.46900002 36626.57584214  3356.82583503
0.47000002 36649.90361540  2848.24739447
0.47100002 36670.49521080  2596.27118398
0.47200002 36687.70497436  2863.29207044
0.47300002 36702.23256306  2870.48174481
0.47400002 36712.30020731  3662.05211925
0.47500002 36720.33435949  3146.19839704
0.47600002 36725.51480418  3416.02392142
0.47700002 36726.46276096  3423.27375621
