# SAXS profile: number of points = 501, q_min = 0, q_max = 0.5, delta_q = 0.001
#    q    intensity    error
0.00000000 1646666.22097351 321.09991309
0.00100000 1646598.54457805 493.97957510
0.00200000 1646395.46309017 889.05357822
0.00300000 1646057.14402851 1086.39775376
0.00400000 1645583.44731220 1481.02515886
0.00500000 1644974.82370728 1480.47739994
0.00600000 1644231.02968480 2244.37544689
0.00700000 1643352.70433550 2366.42799259
0.00800000 1642339.26728096 3547.45296710
0.00900000 1641192.12357240 2707.96711965
0.01000000 1639910.37857015 3247.02268977
0.01100000 1638495.28956389 2949.29164963
0.01200000 1636946.31323969 4149.65908600
0.01300000 1635264.83425684 5151.08445510
0.01400000 1633450.13142441 5145.36814209
0.01500000 1631503.81651319 4698.73120079
0.01600000 1629424.97209322 5401.54402396
0.01700000 1627215.51793244 4393.48209550
0.01800000 1624875.12843715 5093.98375687
0.01900000 1622404.45976159 5840.65631869
0.02000000 1619804.14088505 5612.62160206
0.02100000 1617075.78803564 9071.79558218
0.02200000 1614217.58507867 6682.86110584
0.02300000 1611232.46168660 6960.52455132
0.02400000 1608120.31348657 6030.45145055
0.02500000 1604882.26853598 7510.84935977
0.02600000 1601518.72127048 9729.22667672
0.02700000 1598030.52271805 6711.72850282
0.02800000 1594417.68677575 9710.00415776
0.02900000 1590682.68662996 10021.30138589
0.03000000 1586825.89211991 10330.23703253
0.03100000 1582847.43014934 9876.96841860
0.03200000 1578748.29029183 8596.28483657
0.03300000 1574531.31830093 9636.13211223
0.03400000 1570194.43297909 10716.57749955
0.03500000 1565741.05554627 8455.00209039
0.03600000 1561170.88838651 10397.39859716
0.03700000 1556485.63962102 9759.16541176
0.03800000 1551686.72943545 9985.10456602
0.03900000 1546775.17221333 11136.78175568
0.04000000 1541750.17987436 11378.11685472
0.04100000 1536615.45965096 14521.01676699
0.04200000 1531371.34274212 17779.22211406
0.04300000 1526017.95642017 15107.57846982
0.04400000 1520558.96461922 13342.90553420
0.04500000 1514993.79015761 17770.87798427
0.04600000 1509322.88594775 20217.38099711
0.04700000 1503549.58845805 10825.55754037
0.04800000 1497673.68457548 13209.48251257
0.04900000 1491698.18175967 17900.37901433
0.05000000 1485622.38843886 19320.52006133
0.05100000 1479449.87591422 13847.65148364
0.05200000 1473178.60797120 15225.30162290
0.05300000 1466814.18428353 13069.31499123
0.05400000 1460354.81485683 18071.89167662
0.05500000 1453804.33413654 14654.34837171
0.05600000 1447161.36970637 14847.87634605
0.05700000 1440430.80610546 15038.09831770
0.05800000 1433611.35657631 12687.46109811
0.05900000 1426704.97104207 16692.44894083
0.06000000 1419714.18014945 16887.50096184
0.06100000 1412640.62377985 19706.33762263
0.06200000 1405484.83256034 13281.83228853
0.06300000 1398249.68149972 21477.11611200
0.06400000 1390933.45987597 20342.40280203
0.06500000 1383542.55761904 17806.19354949
0.06600000 1376074.55493582 16595.45990900
0.06700000 1368532.40829231 18146.74058320
0.06800000 1360919.09621877 18311.16729675
0.06900000 1353235.30948337 14208.97141482
0.07000000 1345480.62669839 15762.30627990
0.07100000 1337659.93724337 20225.41919843
0.07200000 1329772.05680659 18929.30611542
0.07300000 1321821.69154156 17606.66575630
0.07400000 1313808.01805501 17736.40907494
0.07500000 1305733.63669218 16373.90057161
0.07600000 1297598.53746614 17984.71657241
0.07700000 1289408.20069439 16594.68432104
0.07800000 1281160.74668283 18218.10667219
0.07900000 1272858.34285910 18329.16099688
0.08000000 1264504.95420097 18436.48309713
0.08100000 1256100.28156511 24720.05470102
0.08200000 1247645.74246696 17086.50924487
0.08300000 1239144.00217595 18735.85819221
0.08400000 1230595.98539987 21966.13937045
0.08500000 1222005.36497607 23645.80492234
0.08600000 1213371.14315188 22168.29182622
0.08700000 1204697.24933120 20672.60576926
0.08800000 1195981.83291666 19159.62986313
0.08900000 1187231.50646544 20835.91391713
0.09000000 1178444.55920599 16085.76898880
0.09100000 1169623.99058707 17754.89301126
0.09200000 1160770.26465108 17812.02054800
0.09300000 1151887.21069551 19489.93252084
0.09400000 1142972.83012358 17916.09995420
0.09500000 1134031.61662366 24495.08407041
0.09600000 1125064.63411510 19643.62943505
0.09700000 1116074.49868550 16406.29590198
0.09800000 1107062.42822648 19727.85339855
0.09900000 1098029.92765799 19764.53962722
0.10000000 1088976.80885723 21447.39925905
0.10100000 1079905.79656846 18174.81541104
0.10200000 1070819.39748189 19852.99256313
0.10300000 1061718.41805673 23187.93134114
0.10400000 1052605.08421525 19894.23702759
0.10500000 1043482.37920719 18250.50767101
0.10600001 1034346.50816671 26562.01957956
0.10700001 1025205.45010560 19929.99488791
0.10800001 1016056.07290206 19935.02108851
0.10900001 1006902.63001742 21598.06243040
0.11000001 997745.18108409 24918.68707049
0.11100001 988586.05208384 18269.07110250
0.11200001 979427.43588843 24901.94372978
0.11300001 970268.38922107 23228.22633156
0.11400001 961113.10693221 21552.96243776
0.11500001 951961.89483785 19876.96530018
0.11600001 942815.77429815 28128.90995082
0.11700001 933677.69789138 19831.31523717
0.11800001 924545.78157811 19803.77157413
0.11900001 915424.63930109 26364.23085367
0.12000001 906314.33834470 21384.48782056
0.12100001 897217.82900211 21344.81315747
0.12200001 888134.03210664 21301.89576364
0.12300001 879066.01960982 19620.75448211
0.12400001 870013.82830475 22837.86406906
0.12500001 860979.68571831 17899.76850953
0.12600001 851966.26329839 19475.94969678
0.12700001 842972.91553394 19422.09688920
0.12800001 834000.08309651 22593.06331588
0.12900001 825051.09382319 16088.49708784
0.13000001 816125.97094180 19244.25130188
0.13100001 807225.48873465 20777.98505945
0.13200001 798352.48833061 20705.27276091
0.13300001 789508.43179603 19042.94427266
0.13400001 780691.65705205 20551.70884082
0.13500001 771906.05123446 25195.01470019
0.13600001 763150.60754439 15682.74572449
0.13700001 754428.14327833 20301.66229291
0.13800001 745737.84600670 17103.49830469
0.13900001 737084.46333483 17026.65190598
0.14000001 728464.81445775 26191.95363906
0.14100001 719882.24116811 18400.19095206
0.14200001 711336.18487756 16783.97807381
0.14300001 702831.22755543 18217.38627751
0.14400001 694361.61539144 15102.36584714
0.14500001 685936.30259562 16524.20630901
0.14600001 677549.59939555 14939.96937146
0.14700001 669208.26180114 19313.35134672
0.14800001 660907.67066487 19202.67327712
0.14900001 652650.90201213 22026.96898216
0.15000001 644439.29464133 21894.82606850
0.15100001 636273.68713645 15957.74482635
0.15200001 628155.19998904 20182.62752801
0.15300001 620084.03413554 18621.12442380
0.15400001 612058.81566618 21345.55220368
0.15500001 604084.29799633 21203.35986032
0.15600001 596157.01110244 14039.49827406
0.15700001 588283.81051804 18125.02505750
0.15800001 580456.75345751 16612.67306805
0.15900001 572684.20329355 16493.30583335
0.16000001 564961.56302761 19101.35134759
0.16100001 557294.54099272 17604.93538099
0.16200001 549678.90731452 18815.50988558
0.16300001 542118.25303159 13336.10965415
0.16400001 534611.69705550 22493.78821553
0.16500001 527160.39644828 18376.81228778
0.16600001 519764.78443925 13020.10846492
0.16700001 512424.38213634 14204.40454348
0.16800001 505139.61910550 17927.40592852
0.16900001 497914.05493369 12696.80900033
0.17000001 490744.90728200 22657.69343910
0.17100001 483633.77048640 13725.52705454
0.17200001 476580.97361198 13604.00453417
0.17300001 469586.81503466 18384.32467680
0.17400001 462652.44327942 12144.62720963
0.17500001 455776.88348625 15642.26337999
0.17600001 448959.02632965 14303.83525442
0.17700001 442203.94150215 12987.53037533
0.17800001 435507.83290419 14032.06303894
0.17900001 428872.37537001 13895.46561832
0.18000001 422298.38934153 13758.48217463
0.18100001 415786.45291507 13621.16484091
0.18200001 409333.00578206 11236.19153949
0.18300001 402943.48723216 13345.48892756
0.18400001 396614.34142478 12106.65334392
0.18500001 390347.80768138 13068.84521857
0.18600001 384143.22467919 12930.26155357
0.18700001 378000.21349787 11725.56717668
0.18800001 371919.34608505 10543.91395967
0.18900001 365902.52909641 15642.33385793
0.19000001 359944.40600636 11343.64849126
0.19100001 354053.56735907 12236.09186609
0.19200001 348221.41877159 12097.21265973
0.19300001 342454.66977647 14948.14704208
0.19400001 336749.45663900 9849.92207214
0.19500001 331107.40481487 12654.92561003
0.19600001 325526.61527822 11543.17432325
0.19700001 320009.53170833 12355.56860315
0.19800001 314554.78294647 9389.46071469
0.19900001 309163.62124662 9274.90907573
0.20000001 303832.87717520 12824.78635168
0.20100001 298566.35423562 15379.15363353
0.20200001 293360.88656226 16079.11095243
0.20300001 288218.45189142 14111.17607156
0.20400001 283138.05664952 9577.14521884
0.20500001 278118.96039380 13750.20205180
0.20600001 273162.17231940 12722.52877714
0.20700001 268266.95229963 8369.92930739
0.20800001 263433.17070878 9910.35635053
0.20900001 258662.95327109 9777.46009584
0.21000001 253951.30921642 9645.07117998
0.21100001 249301.02183247 8720.55015595
0.21200001 244711.31414059 7818.52685641
0.21300001 240182.13719658 10022.80105905
0.21400001 235714.26058369 9882.32084217
0.21500001 231306.82776616 15738.11730527
0.21600001 226957.81961574 10342.46832887
0.21700001 222669.14516213 8009.40953016
0.21800001 218439.74372235 7175.74592055
0.21900001 214268.25346447 8485.02323838
0.22000001 210155.37758578 7663.31620601
0.22100001 206103.18723214 8235.88375122
0.22200001 202107.88646410 8788.66185846
0.22300001 198170.20987748 9321.92711343
0.22400001 194288.55373321 8524.41069813
0.22500001 190467.30598010 6456.84197805
0.22600001 186700.58591684 7628.58630130
0.22700001 182991.72996276 6258.31746068
0.22800001 179338.11617522 6160.26458194
0.22900001 175739.86936059 8488.23609153
0.23000001 172197.20790682 8949.95030422
0.23100001 168711.21172840 8219.61062414
0.23200001 165277.79874081 5776.45933918
0.23300001 161899.83910594 7387.49000779
0.23400001 158575.73918953 6148.77457788
0.23500001 155303.84242298 6047.53190998
0.23600001 152086.00173483 7028.65490261
0.23700001 148920.75479764 5848.11831751
0.23800001 145807.39678330 5227.19542192
0.23900001 142746.32080824 5138.86779216
0.24000001 139736.09259862 8082.33597820
0.24100001 136778.25908826 7447.57655963
0.24200001 133870.16931248 6831.39506315
0.24300001 131012.42695496 5754.06606405
0.24400001 128203.73369818 7067.23115442
0.24500001 125444.79579000 5554.69582034
0.24600001 122734.82609853 4547.32552206
0.24700001 120073.69849000 4466.74179513
0.24800001 117459.43044923 4387.10993482
0.24900001 114892.88795501 5601.02855278
0.25000001 112373.78903539 4653.96069307
0.25100001 109900.53461897 4154.24040513
0.25200001 107474.56300769 6117.98978865
0.25300001 105094.31965955 4404.50314531
0.25400001 102758.41304726 4323.56043352
0.25500001 100467.35198002 5401.12509798
0.25600001 98221.05378719  4922.34834343
0.25700001 96018.24737075  5573.85952359
0.25800001 93858.66858478  4011.05039175
0.25900001 91742.41897183  4651.34086195
0.26000001 89669.04498513  3861.59760500
0.26100001 87635.55667344  5510.52406436
0.26200001 85645.89023868  3378.73052979
0.26300001 83695.78904626  3645.78874336
0.26400001 81786.24646760  3576.10379601
0.26500001 79917.58634643  3826.45421533
0.26600001 78087.46570333  3127.40314941
0.26700001 76297.72532006  3680.60244361
0.26800001 74546.23194495  3308.73466145
0.26900001 72832.47391556  3244.68686648
0.27000001 71157.07230546  2892.53512610
0.27100001 69518.55451104  3687.26430576
0.27200001 67917.37071648  2781.21646246
0.27300001 66351.81620011  2999.76575237
0.27400001 64821.29260181  2941.26629100
0.27500001 63328.13478365  2883.96339453
0.27600001 61867.83259852  2570.60856613
0.27700001 60443.88248696  3276.66302469
0.27800001 59052.60525674  2718.48681165
0.27900001 57695.67074733  2665.54011468
0.28000001 56371.25421245  3801.67756402
0.28100001 55079.40713810  3494.78854832
0.28200001 53820.19771386  2970.06775141
0.28300001 52592.56774898  2912.57653979
0.28400001 51396.35199767  2636.63298227
0.28500001 50231.18863103  3878.85256968
0.28600001 49095.55632433  2747.63293974
0.28700001 47990.51239957  3109.78535069
0.28800001 46914.05891901  2643.84191552
0.28900001 45868.24044963  2593.84912020
0.29000001 44849.64690793  2740.76205228
0.29100001 43860.47377908  2497.41549520
0.29200001 42898.27827352  2073.91736130
0.29300001 41963.47381928  2220.70713964
0.29400001 41055.48938254  1998.37604029
0.29500001 40175.07069170  2140.52786778
0.29600001 39319.40424700  2452.35135897
0.29700001 38489.26293054  2408.65818821
0.29800001 37684.95883654  2535.25572574
0.29900001 36905.41715041  2325.04139054
0.30000001 36150.11470143  1795.39553164
0.30100001 35419.48995825  3048.55564503
0.30200001 34711.22964539  2208.67564690
0.30300001 34026.91702819  2327.44123491
0.30400001 33365.93258052  1831.78978539
0.30500001 32726.12905439  1652.34233418
0.30600001 32108.68396104  1774.32595969
0.30700001 31513.39009425  2038.28616780
0.30800001 30938.93909292  2151.02984227
0.30900001 30385.22335554  1695.49554351
0.31000001 29852.91035119  1671.16600058
0.31100001 29339.03583214  1784.98702454
0.31200001 28846.08452792  1625.18847925
0.31300001 28371.71450017  1336.30781623
0.31400001 27917.81912665  1451.02871781
0.31500001 27481.69453121  1563.15885895
0.31600002 27063.67303050  2187.69211300
0.31700002 26663.31694269  1271.84027839
0.31800002 26281.11916868  2012.08257882
0.31900002 25916.18259094  1368.37450559
0.32000002 25567.71740262  1231.08565123
0.32100002 25236.36307438  1706.48295189
0.32200002 24921.28293528  1207.43621539
0.32300002 24621.33871638  1316.25683010
0.32400002 24337.30107960  1186.44348381
0.32500002 24068.09990781  1294.62315534
0.32600002 23814.37500574  2102.57126882
0.32700002 23574.89610257  1391.86193180
0.32800002 23350.36241316  1728.51065948
0.32900002 23138.64736676  1259.89940878
0.33000002 22942.08415843  1252.98198565
0.33100002 22756.64051266  1246.60882632
0.33200002 22586.56193395  1579.47835084
0.33300002 22428.07199305  1910.19898211
0.33400002 22282.51795286  1343.63589619
0.33500002 22148.79572102  1227.92929292
0.33600002 22026.88507551  1113.45909330
0.33700002 21915.86827044  1666.70186090
0.33800002 21817.51927356  1442.24717988
0.33900002 21728.89450077  1329.80840642
0.34000002 21651.78779207  1218.23789781
0.34100002 21584.83160543  1439.49248794
0.34200002 21529.05480507  1218.43691440
0.34300002 21481.91541317  1884.39370929
0.34400002 21445.17811691  1553.70322815
0.34500002 21417.52720682  1556.19760055
0.34600002 21400.24708513  1559.43607895
0.34700002 21389.78298549  1228.20139720
0.34800002 21389.57930568  1903.56570046
0.34900002 21397.39958011  1460.37259051
0.35000002 21413.49155079  1240.16242190
0.35100002 21437.54917337  1584.66370995
0.35200002 21468.68466055  1136.76690662
0.35300002 21507.60349583  1370.46455966
0.35400002 21554.30178101  1262.54328662
0.35500002 21607.71315855  1500.00751851
0.35600002 21667.41335092  1972.49306783
0.35700002 21733.94458587  1400.53545545
0.35800002 21807.40209119  1291.76152406
0.35900002 21886.57121344  1300.06239166
0.36000002 21972.46150080  1308.78973129
0.36100002 22063.12064283  1797.04126148
0.36200002 22160.65391255  1206.64766269
0.36300002 22261.59873593  1580.12835312
0.36400002 22368.70998907  1959.49908786
0.36500002 22480.23829172  1480.99816881
0.36600002 22597.13149055  1492.76657698
0.36700002 22718.16995607  1504.85164917
0.36800002 22844.94948957  1390.91481556
0.36900002 22975.01827696  1912.67036216
0.37000002 23108.14134305  1800.35537732
0.37100002 23245.75925807  1556.53611365
0.37200002 23387.43132742  1701.08489818
0.37300002 23531.94319989  1848.19890647
0.37400002 23680.86339685  1731.66321792
0.37500002 23831.92009691  2150.59257142
0.37600002 23986.98971555  1763.40363247
0.37700002 24143.69376387  1505.84225139
0.37800002 24304.12748811  1381.68971315
0.37900002 24466.81340860  1812.99095946
0.38000002 24631.96832921  2111.57558505
0.38100002 24798.88393040  2984.04984471
0.38200002 24968.25598799  1577.86901191
0.38300002 25139.28480903  1737.62744832
0.38400002 25312.81570667  1607.99669394
0.38500002 25486.81865392  1623.25555697
0.38600002 25663.74949137  2085.69301997
0.38700002 25840.91624772  1654.33553655
0.38800002 26019.40695583  1670.05571458
0.38900002 26199.14392100  2145.70998878
0.39000002 26380.67140238  1856.67174126
0.39100002 26562.19001005  1718.04253124
0.39200002 26744.92119727  2049.59713306
0.39300002 26928.01704054  2228.02423549
0.39400002 27112.46656441  1927.69646406
0.39500002 27296.51211525  2269.97805505
0.39600002 27480.81350948  2454.72378303
0.39700002 27665.01028017  1651.60119198
0.39800002 27850.31178478  2500.26185894
0.39900002 28034.72992922  1850.29226299
0.40000002 28219.14107212  2036.85769909
0.40100002 28403.00040373  2569.05150824
0.40200002 28587.80292397  2246.57259922
0.40300002 28771.03525583  1743.52481911
0.40400002 28953.81453613  1934.83874805
0.40500002 29136.09014863  2306.70436636
0.40600002 29317.87833928  2505.79918038
0.40700002 29498.78600879  2166.39094713
0.40800002 29679.11048959  2002.89486629
0.40900002 29857.56949167  1836.24061074
0.41000002 30035.92986057  2777.57274546
0.41100002 30212.78178871  2240.58000361
0.41200002 30387.88088662  1882.52931013
0.41300002 30562.12572437  2467.28052663
0.41400002 30735.00192444  2678.55554463
0.41500002 30906.87105687  2700.02438346
0.41600002 31075.94329297  1943.80034508
0.41700002 31244.42949089  3330.34389724
0.41800002 31412.00922329  2961.36730985
0.41900002 31575.96209739  1989.28570640
0.42000002 31738.92503066  2605.60717386
0.42100002 31900.61829800  2221.24015734
0.42200002 32060.34186394  2237.65166642
0.42300002 32217.44232523  2253.93237188
0.42400002 32372.75722595  2270.13970804
0.42500002 32526.37989304  2286.27935102
0.42600002 32676.61998760  2302.23137032
0.42700002 32825.97872606  2528.91352089
0.42800002 32972.44681779  2333.95475860
0.42900002 33117.36027125  3204.10475808
0.43000002 33259.90490826  3225.37943132
0.43100002 33398.68018376  2380.65803631
0.43200002 33536.08188265  3920.70351869
0.43300002 33670.61869412  2411.15311895
0.43400002 33803.01099444  3087.90520067
0.43500002 33932.60340139  2441.11160438
0.43600002 34060.40966448  2455.92595524
0.43700002 34184.68751864  2470.52748405
0.43800002 34305.67464726  2259.02878258
0.43900002 34425.04300607  2953.66882989
0.44000002 34540.98441588  3198.84071835
0.44100002 34654.91891582  3216.66972620
0.44200002 34765.78468900  2541.20515227
0.44300002 34874.11994344  2554.87814813
0.44400002 34979.06225803  2568.33776801
0.44500002 35080.38092560  2581.56535466
0.44600002 35179.68903111  3066.43773972
0.44700002 35276.21441854  2844.67406552
0.44800002 35368.93880899  3096.72758418
0.44900002 35459.93475494  2632.90028033
0.45000002 35547.66460093  2645.27958664
0.45100002 35631.16769786  2898.95194129
0.45200002 35712.71876120  3154.68316128
0.45300002 35790.63219394  2681.07638471
0.45400002 35866.09284398  4161.36361944
0.45500002 35938.38610278  3441.46001630
0.45600002 36007.17381293  2468.29188186
0.45700002 36073.12390283  2478.22372958
0.45800002 36135.33859560  2736.70999824
0.45900002 36194.69498549  2747.17747960
0.46000002 36251.83661904  3008.17754522
0.46100002 36304.55473841  3270.67749140
0.46200002 36354.91511413  2524.84897434
0.46300002 36401.70029882  3040.27015305
0.46400002 36444.92265080  3050.44017045
0.46500002 36485.96881745  3060.44320946
0.46600002 36523.10293860  2814.28783032
0.46700002 36557.03525139  2566.30399628
0.46800002 36588.48844618  3088.80034102
0.46900002 36616.00359126  3355.85688819
0.47000002 36640.20464564  2847.49363900
0.47100002 36661.66997643  2855.21099309
0.47200002 36679.76049734  3122.91495676
0.47300002 36695.11281268  3130.82717357
0.47400002 36706.10794195  3661.43444075
0.47500002 36715.00596959  3932.17732572
0.47600002 36721.03701854  3415.60742017
0.47700002 36722.87952333  3159.63670395
