# SAXS profile: number of points = 501, q_min = 0, q_max = 0.5, delta_q = 0.001
#    q    intensity    error
0.00000000 1664650.74656090 374.54641798
0.00100000 1664582.52166713 699.12467570
0.00200000 1664377.79145042 898.76403584
0.00300000 1664036.72969565 1497.63311008
0.00400000 1663559.19116055 1247.66944078
0.00500000 1662945.65132600 2244.97671815
0.00600000 1662195.81635830 2792.48908517
0.00700000 1661310.36887831 2392.28703061
0.00800000 1660288.73132447 2913.80684650
0.00900000 1659132.25956103 3235.30804445
0.01000000 1657840.11856815 3556.06720788
0.01100000 1656413.55711273 3279.69898588
0.01200000 1654852.00909933 5163.13849476
0.01300000 1653156.88643735 5207.44442195
0.01400000 1651327.41958817 4087.03554466
0.01500000 1649365.29311947 4750.17225570
0.01600000 1647269.53680799 4620.59125730
0.01700000 1645042.16383449 5329.93684992
0.01800000 1642682.66926464 7022.46872710
0.01900000 1640191.89843685 7380.86387601
0.02000000 1637570.38293419 6705.85102146
0.02100000 1634819.80637874 8092.35840847
0.02200000 1631938.31943126 5630.18745783
0.02300000 1628928.81072701 6450.55838410
0.02400000 1625791.20479820 7925.73248479
0.02500000 1622526.76635862 6960.64014558
0.02600000 1619135.63643439 9180.49947848
0.02700000 1615618.95987426 10856.95990762
0.02800000 1611976.54608541 10518.14744557
0.02900000 1608210.89960972 7960.64431857
0.03000000 1604322.48439674 11190.14984303
0.03100000 1600311.31590305 9217.79360374
0.03200000 1596178.53922571 8691.19254638
0.03300000 1591926.85500231 8118.82733479
0.03400000 1587554.27160988 8334.66031052
0.03500000 1583064.19919930 11113.11119156
0.03600000 1578456.31771899 10512.51956183
0.03700000 1573732.35358986 9867.30231335
0.03800000 1568893.84055629 9178.02939201
0.03900000 1563941.57953235 14075.47486763
0.04000000 1558874.94414371 16298.03829626
0.04100000 1553697.62890656 12724.78417075
0.04200000 1548410.06388541 9987.24537540
0.04300000 1543012.17466796 12220.65699063
0.04400000 1537507.64850409 10378.17710939
0.04500000 1531896.06043827 10570.08330816
0.04600000 1526177.83772098 11835.50968172
0.04700000 1520356.23790931 14230.53504866
0.04800000 1514431.27848859 12244.17745628
0.04900000 1508405.72484377 11313.04346292
0.05000000 1502278.98911158 11492.43480186
0.05100000 1496054.63862720 15169.99474236
0.05200000 1489730.64952198 14212.03105874
0.05300000 1483312.56027878 14417.79875804
0.05400000 1476798.56000052 15838.66529462
0.05500000 1470192.83277185 14819.54444566
0.05600000 1463493.59009460 15015.44493505
0.05700000 1456705.97685660 15208.01110827
0.05800000 1449828.59581141 14114.08203924
0.05900000 1442863.32765802 18180.07877761
0.06000000 1435813.10141852 18392.76668846
0.06100000 1428679.31597778 15944.06191140
0.06200000 1421462.20681496 18805.94587522
0.06300000 1414165.16000527 14933.58478788
0.06400000 1406786.23014639 15087.78302393
0.06500000 1399331.73425492 20780.07722573
0.06600000 1391799.43372461 16785.10195607
0.06700000 1384192.20434091 14118.76114502
0.06800000 1376513.10430599 17096.29355574
0.06900000 1368762.70737964 17246.41092044
0.07000000 1360940.85503873 20291.62909885
0.07100000 1353052.09496293 16074.25964104
0.07200000 1345095.44241546 17674.55494134
0.07300000 1337075.76705742 14841.54170975
0.07400000 1328991.98821044 20931.62479526
0.07500000 1320846.88915477 24092.24838745
0.07600000 1312640.28443707 19709.29479481
0.07700000 1304377.87536394 16787.34404307
0.07800000 1296057.66989119 21501.59775184
0.07900000 1287681.87740179 20087.83822966
0.08000000 1279254.60087221 21760.12178163
0.08100000 1270775.28701641 17193.59044002
0.08200000 1262245.57535389 17286.45396564
0.08300000 1253668.13747719 15796.21927356
0.08400000 1245043.48989302 25398.88838601
0.08500000 1236375.87712881 22328.94938918
0.08600000 1227664.29888339 19225.22382317
0.08700000 1218912.09793856 17698.60449315
0.08800000 1210118.20086943 16155.07874031
0.08900000 1201288.76103934 21082.61874648
0.09000000 1192422.16478106 17904.21964525
0.09100000 1183521.28730671 16332.59453216
0.09200000 1174586.95533735 18024.03767654
0.09300000 1165622.69638761 21365.86502881
0.09400000 1156626.76140177 23074.70497442
0.09500000 1147603.45155454 23135.68667078
0.09600000 1138553.76904412 19879.14974199
0.09700000 1129480.61145659 29886.05838417
0.09800000 1120385.15753870 21629.03648323
0.09900000 1111268.79845337 20002.83931274
0.10000000 1102131.46759701 23376.20952705
0.10100000 1092975.79438275 23411.54261677
0.10200000 1083804.50330796 28466.12661833
0.10300000 1074617.91335767 20116.84828437
0.10400000 1065418.86691783 21814.45232641
0.10500000 1056210.13195123 21831.86445461
0.10600001 1046987.83368009 16804.15552126
0.10700001 1037759.75573949 20174.05060092
0.10800001 1028523.58880700 16816.36146840
0.10900001 1019282.68227821 18499.98155406
0.11000001 1010037.70451595 21862.26714329
0.11100001 1000790.54303360 20175.93829731
0.11200001 991543.77735037 16806.66781730
0.11300001 982296.01895677 21836.44152949
0.11400001 973052.12822420 18463.66500241
0.11500001 963811.79322191 21801.42378926
0.11600001 954576.75645229 18428.10515112
0.11700001 945349.25168432 23425.75555997
0.11800001 936127.89618944 20051.86048079
0.11900001 926916.90706705 20021.40613569
0.12000001 917716.57793920 19987.86800904
0.12100001 908530.07585507 23276.54163992
0.12200001 899355.74183040 23230.35990589
0.12300001 890197.62367176 19869.21189648
0.12400001 881054.94447554 18171.75908602
0.12500001 871930.26458496 23071.27588805
0.12600001 862825.94201105 19724.20196385
0.12700001 853741.78334327 18031.02731395
0.12800001 844677.92159796 19613.42226387
0.12900001 835637.85582419 16294.93895659
0.13000001 826621.84020322 21116.05590329
0.13100001 817630.12695686 22664.70818760
0.13200001 808666.06011210 19359.46639170
0.13300001 799730.77367175 28934.26075549
0.13400001 790822.86005442 17615.58003821
0.13500001 781946.02832603 22332.37962192
0.13600001 773099.35934324 17475.91184196
0.13700001 764285.67641038 20566.92852200
0.13800001 755504.09953795 20477.93958363
0.13900001 746759.70322127 21954.73631005
0.14000001 738048.98642220 20292.65783869
0.14100001 729375.43376727 17089.26721915
0.14200001 720738.45637536 21643.77686579
0.14300001 712142.71217415 23073.42496276
0.14400001 703582.28689732 15302.91546185
0.14500001 695066.02945297 21310.72546830
0.14600001 686588.94940110 21195.00186787
0.14700001 678157.16758685 21077.12576294
0.14800001 669766.29769845 16466.20520577
0.14900001 661419.11158937 16370.12378419
0.15000001 653117.61132603 14793.11459452
0.15100001 644862.09291907 16173.14205354
0.15200001 636653.95954217 18994.57177924
0.15300001 628493.27228212 15970.01480230
0.15400001 620378.61631260 15866.18386094
0.15500001 612315.00332529 18626.62328020
0.15600001 604298.93349864 18500.61272220
0.15700001 596336.94879548 14133.18635349
0.15800001 588421.47432829 16840.62339013
0.15900001 580560.67978489 16720.14836701
0.16000001 572749.82980555 17981.48175552
0.16100001 564995.47250502 16475.26875595
0.16200001 557292.16943594 14988.37360452
0.16300001 549644.25586884 18929.74906576
0.16400001 542050.69301756 18782.05739975
0.16500001 534512.91259360 14640.30936713
0.16600001 527030.58929729 13202.11688521
0.16700001 519604.26285869 17022.23645495
0.16800001 512233.89952856 14283.64296278
0.16900001 504922.83573454 20600.85267070
0.17000001 497668.82731960 14041.72662587
0.17100001 490472.99711099 16450.46509992
0.17200001 483335.70339955 12542.56209551
0.17300001 476257.47155585 16159.41677301
0.17400001 469239.58341033 16012.80154010
0.17500001 462280.66017283 13424.63100543
0.17600001 455379.93914474 13299.37175084
0.17700001 448542.17166269 11976.07654903
0.17800001 441764.11005793 15419.77698988
0.17900001 435046.77442385 14095.51615711
0.18000001 428391.55299718 13956.99745591
0.18100001 421798.70659155 13818.12628066
0.18200001 415264.71486421 14818.72204993
0.18300001 408795.25470144 13539.29947530
0.18400001 402386.36674945 15632.71108672
0.18500001 396040.87086710 11049.54081920
0.18600001 389757.39621149 17492.31276837
0.18700001 383536.22176558 14060.43855421
0.18800001 377377.26108151 10698.64585713
0.18900001 371283.31734204 10581.57504420
0.19000001 365248.16742901 12557.23258952
0.19100001 359280.86229665 11382.01825536
0.19200001 353372.97248810 12276.17764430
0.19300001 347530.68282267 11124.45768281
0.19400001 341750.48514431 11995.44259540
0.19500001 336034.10839452 10867.34357902
0.19600001 330379.46109233 20501.69842692
0.19700001 324788.79657747 11575.47325705
0.19800001 319261.27976497 11435.93958163
0.19900001 313797.61141528 10355.32166610
0.20000001 308395.04116975 13017.35530299
0.20100001 303057.17604447 11937.42272858
0.20200001 297780.85834355 10880.91307814
0.20300001 292568.24898773 8952.58884217
0.20400001 287418.16459066 11489.54167257
0.20500001 282329.76968076 9596.38932504
0.20600001 277304.54731750 11193.39858156
0.20700001 272341.15630444 10196.45337402
0.20800001 267439.85517059 11737.93579829
0.20900001 262602.69378105 11580.77934318
0.21000001 257824.76902844 8976.16975805
0.21100001 253108.55111864 10463.50799789
0.21200001 248453.73355003 8731.90687841
0.21300001 243859.90180711 8610.69353988
0.21400001 239327.93118785 10033.82398942
0.21500001 234856.99159251 12174.98701976
0.21600001 230445.00332384 8251.08373411
0.21700001 226094.01994940 11089.91220284
0.21800001 221802.91877792 8014.84884899
0.21900001 217570.17083656 10769.72396562
0.22000001 213396.72544683 9196.33231796
0.22100001 209284.65647440 8363.01526815
0.22200001 205230.03804587 8237.93411669
0.22300001 201233.69920909 7437.59787446
0.22400001 197293.75000326 7990.39725297
0.22500001 193414.89427708 6556.76522604
0.22600001 189591.31267986 9037.81830283
0.22700001 185826.06097708 6990.77674455
0.22800001 182116.75231685 7506.85288550
0.22900001 178463.39730317 7388.38499775
0.23000001 174866.17825477 7270.93603569
0.23100001 171326.34980023 6558.37298052
0.23200001 167839.55822080 8212.38997214
0.23300001 164409.00332681 7501.98317660
0.23400001 161032.80749399 6811.68807916
0.23500001 157709.45479830 6141.20646030
0.23600001 154440.82500503 7137.48306519
0.23700001 151225.23647344 5938.61531720
0.23800001 148062.46396417 8492.86333469
0.23900001 144952.29622213 6261.93949298
0.24000001 141893.82776460 6155.35453958
0.24100001 138888.06778697 6049.96451897
0.24200001 135932.82942583 6441.17742702
0.24300001 133028.62101501 6329.50208730
0.24400001 130174.03240258 5740.67510051
0.24500001 127369.79443557 4699.94563700
0.24600001 124615.04082765 5540.38497729
0.24700001 121909.92626435 5442.05936588
0.24800001 119252.26004307 6235.70097264
0.24900001 116642.67946909 5248.92082442
0.25000001 114081.37504415 6442.74596041
0.25100001 111566.60665679 4638.93972425
0.25200001 109099.54428934 4968.39348199
0.25300001 106678.84292974 6909.58898346
0.25400001 104303.22045829 6782.31723118
0.25500001 101972.94500254 4698.91352803
0.25600001 99688.04612381  5380.16410385
0.25700001 97447.24147631  4902.57095063
0.25800001 95250.34201372  4810.61875101
0.25900001 93097.15445279  4356.94703454
0.26000001 90987.49641351  5699.45704501
0.26100001 88918.28215276  4193.38638474
0.26200001 86893.73756572  4456.34554192
0.26300001 84909.26374965  4707.36980502
0.26400001 82965.78997798  3957.46836921
0.26500001 81063.82481558  4851.67014479
0.26600001 79201.05033904  3806.40265941
0.26700001 77379.11003922  3421.70440785
0.26800001 75596.11877166  3660.36424414
0.26900001 73851.34495429  4486.46941828
0.27000001 72145.50678876  3812.52948667
0.27100001 70477.24234241  4025.66027310
0.27200001 68846.71849028  4228.90988339
0.27300001 67252.45876756  2764.07618615
0.27400001 65693.66166127  2709.86367177
0.27500001 64172.95415533  3188.11251332
0.27600001 62685.67895751  3646.42611753
0.27700001 61235.10228820  3830.25582940
0.27800001 59817.91433025  3004.05579984
0.27900001 58435.46469026  2945.14755978
0.28000001 57086.16893558  3128.03677487
0.28100001 55769.96505967  2830.88356041
0.28200001 54486.94924952  2544.26821563
0.28300001 53235.96127753  2267.85205776
0.28400001 52017.01374052  2668.47293119
0.28500001 50829.50039872  3270.87850547
0.28600001 49672.23174257  2779.90658105
0.28700001 48545.77685142  3355.48425479
0.28800001 47448.70985568  2056.90166960
0.28900001 46382.74607096  2219.41450455
0.29000001 45344.28898060  1979.27830769
0.29100001 44335.89439039  2330.29471946
0.29200001 43354.96836230  2477.08623463
0.29300001 42401.89768314  2056.91615398
0.29400001 41476.08953400  2202.38045851
0.29500001 40578.22051235  1981.84038364
0.29600001 39705.83726361  1945.78464721
0.29700001 38859.26490872  2779.21475783
0.29800001 38039.01323477  2388.46975408
0.29900001 37244.00836326  1843.57850125
0.30000001 36473.71973724  3293.57704819
0.30100001 35728.68217826  2265.91313101
0.30200001 35006.27229454  1750.13866622
0.30300001 34308.13180227  1877.34106110
0.30400001 33634.04606976  1538.75768054
0.30500001 32981.39566205  2573.53842535
0.30600001 32351.48032274  1638.76431333
0.30700001 31744.15211724  2199.86984587
0.30800001 31158.22516617  1444.18380483
0.30900001 30593.41051372  2133.89048436
0.31000001 30050.22357985  1962.58019492
0.31100001 29526.06726793  1658.18401627
0.31200001 29023.14508895  1498.90039909
0.31300001 28539.26475655  1881.87920715
0.31400001 28076.19517563  1724.58037032
0.31500001 27631.19993841  1309.71893909
0.31600002 27204.88677362  1940.38864100
0.31700002 26796.44917442  2300.74323505
0.31800002 26406.49966674  1768.97149643
0.31900002 26034.21620114  1999.42789892
0.32000002 25678.83110430  2225.58439719
0.32100002 25340.87625815  1958.34300996
0.32200002 25019.50630289  1333.41465155
0.32300002 24713.58779798  1441.29650863
0.32400002 24423.94665738  1547.86769271
0.32500002 24149.41794186  1771.35988991
0.32600002 23890.74730659  1171.84121088
0.32700002 23646.54511799  1396.09208987
0.32800002 23417.71618180  1502.36365279
0.32900002 23201.94077058  1722.74418379
0.33000002 23001.75355292  1484.64825338
0.33100002 22812.76777753  1249.68347803
0.33200002 22639.63643055  1357.01987191
0.33300002 22478.17932614  1238.77252133
0.33400002 22330.15064639  1122.09012312
0.33500002 22194.01962868  1566.01009916
0.33600002 22070.11400061  1338.77317868
0.33700002 21957.28403382  1224.55778856
0.33800002 21857.40607433  1667.17372727
0.33900002 21767.61832315  1332.17830447
0.34000002 21689.38619255  1553.17701880
0.34100002 21621.73319234  1331.03395836
0.34200002 21565.42625541  1109.54123339
0.34300002 21517.90091362  1665.48560959
0.34400002 21481.17827185  1111.65102822
0.34500002 21453.66720666  1447.47899499
0.34600002 21436.76357501  1562.09703569
0.34700002 21426.87736134  1342.17966148
0.34800002 21427.38172115  1794.75757797
0.34900002 21436.16303951  1463.01819674
0.35000002 21453.50585005  1242.47985015
0.35100002 21478.96116585  1247.49812360
0.35200002 21511.63080827  1252.94499577
0.35300002 21552.33792939  1373.31503791
0.35400002 21600.93375158  1495.32470978
0.35500002 21656.36235841  1272.09478518
0.35600002 21718.31062902  1279.31714820
0.35700002 21787.30606697  1286.97623033
0.35800002 21863.33309709  1530.54270596
0.35900002 21945.24132822  1303.54739664
0.36000002 22033.93001487  2028.33352359
0.36100002 22127.60929227  1922.44678637
0.36200002 22228.28877162  1694.46253332
0.36300002 22332.57886930  1219.35886402
0.36400002 22443.09444956  1474.51137518
0.36500002 22558.11547928  1486.12871817
0.36600002 22678.66776809  1498.15286372
0.36700002 22803.49755732  1762.25437470
0.36800002 22934.15966343  1777.16811650
0.36900002 23068.15671740  1664.36758600
0.37000002 23205.38676967  1420.51781839
0.37100002 23347.08990593  1433.04444631
0.37200002 23493.09148714  1314.43853097
0.37300002 23641.94792116  1326.31334120
0.37400002 23795.29592077  1606.18255074
0.37500002 23950.83822615  1620.99280793
0.37600002 24110.52345672  1636.14019928
0.37700002 24271.85406521  2339.56412418
0.37800002 24436.98263263  1528.16678132
0.37900002 24604.44354612  1402.45334857
0.38000002 24774.46987425  1557.44712243
0.38100002 24946.21291144  2001.18529456
0.38200002 25120.56656589  1443.17661758
0.38300002 25296.56038780  1894.20653157
0.38400002 25475.14306435  1471.18958166
0.38500002 25654.22237382  1633.91750039
0.38600002 25836.17985789  2099.70643652
0.38700002 26018.47485866  2271.41296277
0.38800002 26202.08586630  1681.78096100
0.38900002 26387.06256231  1698.00755633
0.39000002 26573.73604856  2026.11460101
0.39100002 26760.34750196  1573.50850766
0.39200002 26948.37054569  2065.18847461
0.39300002 27136.68170324  1764.15576111
0.39400002 27326.34660601  1780.99472443
0.39500002 27515.53048083  2124.74936440
0.39600002 27705.03608198  1814.81847453
0.39700002 27894.44288585  2331.41764686
0.39800002 28085.01775508  1848.97723151
0.39900002 28274.58326288  2714.36012184
0.40000002 28464.01089479  1883.32137008
0.40100002 28653.14277944  2764.45534634
0.40200002 28843.03572640  2092.27391072
0.40300002 29031.33488063  2287.08867026
0.40400002 29219.21833155  1775.06759774
0.40500002 29406.54497324  3044.45974533
0.40600002 29593.31776880  1806.67213539
0.40700002 29779.17686151  2004.73428130
0.40800002 29964.39061620  2022.14699655
0.40900002 30147.75751873  2966.53948040
0.41000002 30330.91881369  2430.87160350
0.41100002 30512.60017848  2074.24665842
0.41200002 30692.35264692  2661.94787120
0.41300002 30871.34394225  2108.82160462
0.41400002 31048.80081322  2512.62432487
0.41500002 31225.20059157  2532.98839201
0.41600002 31398.83428405  2749.59604854
0.41700002 31571.70080838  1979.54573448
0.41800002 31743.68174160  2793.12668879
0.41900002 31911.90413102  3417.76509438
0.42000002 32079.16945089  2228.37961150
0.42100002 32245.03927562  2245.22219115
0.42200002 32408.76676340  2261.96998344
0.42300002 32569.96282268  2485.73968042
0.42400002 32729.18762505  2921.08013395
0.42500002 32886.67265633  2521.75017878
0.42600002 33040.59469582  2116.25019055
0.42700002 33193.65583562  3196.54920844
0.42800002 33343.78326563  2145.67255482
0.42900002 33492.21651466  2592.29768108
0.43000002 33638.21847659  3044.59529859
0.43100002 33780.37159304  2626.76181955
0.43200002 33920.96239141  3525.06657876
0.43300002 34058.66800119  3104.10714873
0.43400002 34194.16659862  3792.98810970
0.43500002 34326.64555638  3142.94781608
0.43600002 34457.36322366  2936.28434625
0.43700002 34584.44727928  3408.29744089
0.43800002 34708.04275066  3199.73461282
0.43900002 34830.04602684  2528.66146138
0.44000002 34948.49544849  2543.02739182
0.44100002 35064.79767162  2557.27581538
0.44200002 35177.91927905  3272.60198562
0.44300002 35288.42636318  3290.29303003
0.44400002 35395.35555425  3071.43212378
0.44500002 35498.70566160  3324.80892983
0.44600002 35599.84776533  2864.36388694
0.44700002 35698.20238583  2638.81124542
0.44800002 35792.45967225  2892.74672780
0.44900002 35885.01291175  2422.23848634
0.45000002 35974.19810168  3163.75100199
0.45100002 36059.04791292  2444.80356436
0.45200002 36141.76532512  3192.58299130
0.45300002 36220.74379691  3453.28587726
0.45400002 36297.23816857  2725.01528465
0.45500002 36370.37689411  2736.50728720
0.45600002 36440.01705462  3746.94493122
0.45700002 36506.55231532  3009.60031551
0.45800002 36569.30492145  3273.13579212
0.45900002 36629.13650496  2780.15159249
0.46000002 36686.50144769  3044.24603441
0.46100002 36739.38641214  3309.85147874
0.46200002 36789.92487744  2810.56644422
0.46300002 36836.70506146  2820.21827317
0.46400002 36879.83457714  2829.60544204
0.46500002 36920.65382093  2838.82920684
0.46600002 36957.40026342  2847.75261227
0.46700002 36990.88790980  3375.78859065
0.46800002 37021.81779402  4427.62450893
0.46900002 37048.65945419  2873.12367685
0.47000002 37072.01584665  2619.13804370
0.47100002 37092.60220377  3676.61890470
0.47200002 37109.62623558  2896.22091683
0.47300002 37124.01619122  2639.51767630
0.47400002 37133.73930257  3439.51276592
0.47500002 37141.34439277  2651.89211534
0.47600002 37145.92524226  2657.79107706
0.47700002 37146.22491802  3196.06134343
