# SAXS profile: number of points = 501, q_min = 0, q_max = 0.5, delta_q = 0.001
#    q    intensity    error
0.00000000 1664650.74656091 324.60689558
0.00100000 1664582.53032668 798.99963353
0.00200000 1664377.82299879 898.76405288
0.00300000 1664036.80973894 1297.94875783
0.00400000 1663559.32703958 1372.43649696
0.00500000 1662945.86539556 1646.31647190
0.00600000 1662196.11215553 1919.83658770
0.00700000 1661310.78286484 2791.00223121
0.00800000 1660289.27511968 2465.52967765
0.00900000 1659132.94738857 2737.56948022
0.01000000 1657840.95665026 3556.06900556
0.01100000 1656414.59390886 2981.54639885
0.01200000 1654853.22447820 4840.44589382
0.01300000 1653158.30958241 4860.28564453
0.01400000 1651329.07912812 5201.68682985
0.01500000 1649367.19863174 5541.87403418
0.01600000 1647271.69453145 4200.54300883
0.01700000 1645044.60354712 4885.78269170
0.01800000 1642685.38703141 5617.98427644
0.01900000 1640194.93877620 6396.76054987
0.02000000 1637573.73899398 6190.02901341
0.02100000 1634823.51878309 7013.39321356
0.02200000 1631942.38740529 6193.22164158
0.02300000 1628933.25811895 8209.82399462
0.02400000 1625796.02780881 7316.08245874
0.02500000 1622532.03653369 6960.66275463
0.02600000 1619141.29935511 7213.27481855
0.02700000 1615625.07780863 8142.75076510
0.02800000 1611983.11107828 11219.40296762
0.02900000 1608217.96808210 9408.07554524
0.03000000 1604330.00895548 8206.14837301
0.03100000 1600319.38451226 10754.14675875
0.03200000 1596187.11324522 11061.57720426
0.03300000 1591935.92956037 12178.31042256
0.03400000 1587563.91137438 8334.71091928
0.03500000 1583074.43830703 10258.32283394
0.03600000 1578467.09685069 12264.68990933
0.03700000 1573743.73587694 14352.54353497
0.03800000 1568905.81182868 16520.57896312
0.03900000 1563954.20670328 9383.72567478
0.04000000 1558888.21456277 12463.31185297
0.04100000 1553711.55957696 11746.05993503
0.04200000 1548424.66863390 9987.33957603
0.04300000 1543027.44993392 10183.98164228
0.04400000 1537523.64660946 11416.11360626
0.04500000 1531912.75593103 13741.25805919
0.04600000 1526195.29479602 10759.67732850
0.04700000 1520374.42239348 13136.03562041
0.04800000 1514450.19908589 18923.05611803
0.04900000 1508425.48581155 13575.83000422
0.05000000 1502299.40791465 11492.59100571
0.05100000 1496075.92388059 12836.33202486
0.05200000 1489752.83162473 14212.24267601
0.05300000 1483335.47534111 14418.02149245
0.05400000 1476822.32506221 17057.29864992
0.05500000 1470217.47862537 14819.79287588
0.05600000 1463519.13802745 13764.39813545
0.05700000 1456732.38217061 17743.00124306
0.05800000 1449855.89964718 16680.59290430
0.05900000 1442891.57440778 15583.22973143
0.06000000 1435842.18503880 18393.13924965
0.06100000 1428709.35738079 13286.99764456
0.06200000 1421493.08229968 17463.04333234
0.06300000 1414197.04919973 17649.17999921
0.06400000 1406819.14399815 13716.48729546
0.06500000 1399365.65947387 19395.20894757
0.06600000 1391834.28764675 16785.52229439
0.06700000 1384228.01635350 21178.68964135
0.06800000 1376549.95630848 17096.75125763
0.06900000 1368800.65894981 20121.37062862
0.07000000 1360979.77157309 21741.65286901
0.07100000 1353092.07393992 16074.73459131
0.07200000 1345136.48482757 16202.16971877
0.07300000 1337117.89833356 19294.61217701
0.07400000 1329035.16790078 25417.79877729
0.07500000 1320891.16533345 28610.50398217
0.07600000 1312685.66777389 22742.28026035
0.07700000 1304424.31867066 19840.29481726
0.07800000 1296105.18150559 19966.50125745
0.07900000 1287730.58001207 15452.76768494
0.08000000 1279304.35949828 18652.25843648
0.08100000 1270826.30256311 25009.86280786
0.08200000 1262297.72371174 20430.28961697
0.08300000 1253721.47217162 23695.33693611
0.08400000 1245097.97235350 28574.99980678
0.08500000 1236431.49181058 20734.95709107
0.08600000 1227721.07181502 17623.93681337
0.08700000 1218970.15442208 24135.61019091
0.08800000 1210177.32178274 27464.97560772
0.08900000 1201349.18239892 19461.85766898
0.09000000 1192483.74053053 21160.62496975
0.09100000 1183584.14078954 22866.84667437
0.09200000 1174650.91346247 19663.65721529
0.09300000 1165687.95151419 23010.68124421
0.09400000 1156693.22924639 19779.45514970
0.09500000 1147671.12173732 16526.46492981
0.09600000 1138622.82515994 23193.74803879
0.09700000 1129550.78927897 23246.15633623
0.09800000 1120456.62234832 19966.53794903
0.09900000 1111341.52938792 21671.16084210
0.10000000 1102205.36163610 18368.25321547
0.10100000 1093050.99325272 25085.52147497
0.10200000 1083880.98479147 20095.15440324
0.10300000 1074695.53591156 25147.87672331
0.10400000 1065497.96051416 30206.86860166
0.10500000 1056290.45980797 31910.53629217
0.10600001 1047069.40267088 20166.55764435
0.10700001 1037842.62413259 20175.66156256
0.10800001 1028607.78721501 18499.51192368
0.10900001 1019368.17010919 18501.53315827
0.11000001 1010124.50453458 21864.14592979
0.11100001 1000878.55145087 26903.61672944
0.11200001 991632.99220745 21850.63401196
0.11300001 982386.62395988 18478.69326668
0.11400001 973143.96242232 20144.08097061
0.11500001 963904.99826377 21803.53208741
0.11600001 954671.11859765 25131.71838057
0.11700001 945444.96151099 26775.00257096
0.11800001 936224.82603252 16711.61393177
0.11900001 927015.15853416 21692.15573144
0.12000001 917815.97099782 23321.70492162
0.12100001 908630.87482828 23279.12410974
0.12200001 899457.81700173 26551.99600879
0.12300001 890301.02779982 18215.55988700
0.12400001 881159.58747616 24782.61456546
0.12500001 872036.13711182 18129.63214483
0.12600001 862933.07312995 27946.08889023
0.12700001 853850.12923734 16393.92325394
0.12800001 844787.54453959 16346.63975725
0.12900001 835748.67219284 17926.80986346
0.13000001 826733.92193796 22743.45126452
0.13100001 817743.45682812 17810.45332926
0.13200001 808780.65895473 19362.20988812
0.13300001 799846.53861570 20899.99103932
0.13400001 790939.91290600 20821.49418889
0.13500001 782064.28711551 17549.52343030
0.13600001 773218.73877233 15889.64583098
0.13700001 764406.33211969 17405.53300309
0.13800001 755625.89714339 20481.24090788
0.13900001 746882.72261582 23526.80687188
0.14000001 738173.08988485 18734.83390482
0.14100001 729500.76182581 24861.38713556
0.14200001 720864.91931663 23193.82987296
0.14300001 712270.33663390 18462.04799636
0.14400001 703711.12052397 16836.28935270
0.14500001 695195.94266493 24359.66698008
0.14600001 686720.08275249 16656.39639292
0.14700001 678289.34065461 16563.82648021
0.14800001 669899.59806808 14972.25672319
0.14900001 661553.36531091 20838.93199049
0.15000001 653252.98362702 19235.03501046
0.15100001 644998.57774087 16176.56509303
0.15200001 636791.49243146 16075.80198500
0.15300001 628631.77556597 15973.53417091
0.15400001 620518.19012524 17312.45832149
0.15500001 612455.56731274 17197.75314176
0.15600001 604440.45114995 19928.40261493
0.15700001 596479.45794847 21204.84573087
0.15800001 588564.88125259 15441.00038846
0.15900001 580705.01904642 16724.30533793
0.16000001 572895.25024378 19369.58932503
0.16100001 565141.64880419 16479.53125703
0.16200001 557439.33411136 20444.08854362
0.16300001 549792.31433225 20287.33735658
0.16400001 542199.67177435 16103.33101193
0.16500001 534662.61757126 22632.26967029
0.16600001 527181.20917851 14526.47890475
0.16700001 519755.68753371 14407.62833869
0.16800001 512386.10768875 20782.38150912
0.16900001 505075.91635310 14167.38012266
0.17000001 497822.61486836 15322.98080919
0.17100001 490627.60499737 15189.83136800
0.17200001 483490.97017894 13801.25039549
0.17300001 476413.35803479 17408.14492468
0.17400001 469396.19463574 13553.81576020
0.17500001 462438.06433956 18312.54821270
0.17600001 455537.90525845 15722.89154257
0.17700001 448700.78480378 11980.31152010
0.17800001 441923.31030989 15425.33387494
0.17900001 435206.55851842 16450.80868903
0.18000001 428551.88159814 17452.77620247
0.18100001 421959.62088969 13823.39783331
0.18200001 415426.07234842 12543.79084710
0.18300001 408957.16110335 11287.21817965
0.18400001 402548.82311232 17873.16859053
0.18500001 396203.69431442 11054.08359359
0.18600001 389920.67343010 14218.45802836
0.18700001 383700.00374054 10820.34061669
0.18800001 377541.30183405 18195.60390156
0.18900001 371447.79183646 11644.88882426
0.19000001 365412.95080532 12562.89784227
0.19100001 359445.89938515 13457.65510885
0.19200001 353538.27693598 13305.41368118
0.19300001 347696.39779874 13153.35535026
0.19400001 341916.35385479 13001.36996969
0.19500001 336200.27907872 10872.71753920
0.19600001 330545.74019586 14651.44062656
0.19700001 324955.24868075 19302.34268382
0.19800001 319427.78120946 9534.91971971
0.19900001 313964.33861019 14128.39590517
0.20000001 308561.82404833 14885.02309557
0.20100001 303224.04112192 11025.22665627
0.20200001 297947.70225909 10887.00955511
0.20300001 292735.07138947 15228.07913343
0.20400001 287584.99380250 9727.56287515
0.20500001 282496.64276231 9602.06134135
0.20600001 277471.28613970 11200.12899444
0.20700001 272507.85403610 14453.81726129
0.20800001 267606.24734154 13423.13000117
0.20900001 262768.96199537 8277.22269413
0.21000001 257990.90254691 10615.03618709
0.21100001 253274.56073062 8859.54455318
0.21200001 248619.46746793 9532.07083334
0.21300001 244025.31242679 10183.17676898
0.21400001 239493.00516590 11585.47467262
0.21500001 235021.79251464 9137.64772497
0.21600001 230609.39972717 11259.50447401
0.21700001 226258.20661147 8138.50807660
0.21800001 221966.51649776 9479.08053521
0.21900001 217733.39208413 9340.76296205
0.22000001 213559.40989601 11327.19163646
0.22100001 209446.81088127 11159.32661141
0.22200001 205391.76207332 9618.49667270
0.22300001 201394.95635500 10150.30628025
0.22400001 197454.37692045 8663.31119704
0.22500001 193574.87560149 6562.18859320
0.22600001 189750.64781660 7753.21183642
0.22700001 185984.74244321 7632.81419082
0.22800001 182274.66085562 8765.58885507
0.22900001 178620.65681886 6162.41295168
0.23000001 175022.73323131 7277.44559192
0.23100001 171481.92370878 6564.32835002
0.23200001 167994.34055107 7045.68297593
0.23300001 164562.95681305 5776.16005732
0.23400001 161185.95941068 7386.34693933
0.23500001 157861.72004609 7264.79670012
0.23600001 154592.06653473 6045.32304777
0.23700001 151375.51989473 6484.92757901
0.23800001 148211.77325888 6376.07078718
0.23900001 145100.63058943 5223.62294829
0.24000001 142041.13589350 6161.74476651
0.24100001 139034.36178675 6561.03184306
0.24200001 136077.95810394 5952.05016901
0.24300001 133172.58396005 6336.35184455
0.24400001 130316.84761328 5268.05881396
0.24500001 127511.37010362 5175.68675734
0.24600001 124755.32067547 6933.27727452
0.24700001 122049.11096255 5448.27257110
0.24800001 119390.07137001 4459.21937662
0.24900001 116779.21554420 5692.98702710
0.25000001 114216.63156960 5160.30765844
0.25100001 111700.49518407 5066.73470125
0.25200001 109232.06411294 4145.35702920
0.25300001 106809.95314145 5290.29722938
0.25400001 104432.85747260 4793.46838478
0.25500001 102101.07921366 4312.74979003
0.25600001 99814.70311675  4617.42838464
0.25700001 97572.42508710  4908.86893839
0.25800001 95373.89894292  4075.80376417
0.25900001 93219.14374524  6180.42952274
0.26000001 91107.96738638  4280.25251033
0.26100001 89037.08932958  3849.07355384
0.26200001 87010.84422671  3775.83576388
0.26300001 85024.67570628  3366.97731729
0.26400001 83079.58982247  3632.65523688
0.26500001 81175.91318681  3238.91908942
0.26600001 79311.29712687  3811.70112029
0.26700001 77487.69557457  3426.50606045
0.26800001 75702.84017284  3360.07072007
0.26900001 73956.28888333  4792.36774642
0.27000001 72248.64845146  3817.98000809
0.27100001 70578.47382742  3743.48242896
0.27200001 68946.08489591  4517.34769616
0.27300001 67349.89680920  3875.31324580
0.27400001 65789.22119269  3256.56660315
0.27500001 64266.56697541  2660.63599870
0.27600001 62777.20106528  4434.26780710
0.27700001 61324.68611874  2812.96348539
0.27800001 59905.58431757  2757.75370458
0.27900001 58521.07329354  2949.46223359
0.28000001 57169.72893247  4578.43795825
0.28100001 55851.50378353  2598.77059404
0.28200001 54566.33754545  3011.24347997
0.28300001 53313.25304313  2498.25915584
0.28400001 52092.13632697  2449.63282672
0.28500001 50902.55187918  3057.20741057
0.28600001 49743.08680723  2998.01598377
0.28700001 48614.54546285  2520.17815608
0.28800001 47515.21833598  3295.65569978
0.28900001 46446.98740323  4040.88809535
0.29000001 45406.38355551  2180.18760962
0.29100001 44395.78523751  2333.44258254
0.29200001 43412.56402685  1907.98227930
0.29300001 42457.26650743  2059.60209577
0.29400001 41529.16881600  2021.43238781
0.29500001 40629.06023756  2705.89553991
0.29600001 39754.25469308  2656.57819562
0.29700001 38905.42248036  2086.88696064
0.29800001 38082.92108446  2049.62290979
0.29900001 37285.49550340  2516.77106562
0.30000001 36512.91318339  1813.41391910
0.30100001 35765.46005618  1782.19295897
0.30200001 35040.69436605  2388.89945150
0.30300001 34340.24084818  2348.87258521
0.30400001 33663.73407504  2156.16226958
0.30500001 33008.73973034  1515.10122535
0.30600001 32376.38495893  1789.11911753
0.30700001 31766.68536945  1614.38302691
0.30800001 31178.35158952  1878.65166397
0.30900001 30611.12377919  1565.75905544
0.31000001 30065.55647424  1542.81410352
0.31100001 29538.93788214  1658.90683000
0.31200001 29033.58678274  1908.37774958
0.31300001 28547.26291457  1479.03376163
0.31400001 28081.76043141  1592.23589185
0.31500001 27634.35340636  1440.85525483
0.31600002 27205.57071565  2069.79991805
0.31700002 26794.76863148  1661.54368151
0.31800002 26402.36256798  1389.68841957
0.31900002 26027.58325564  1374.25646097
0.32000002 25669.78748235  1359.60035838
0.32100002 25329.37432105  1345.74972140
0.32200002 25005.57564223  1211.52019723
0.32300002 24697.21989867  1320.31343830
0.32400002 24405.15627182  1665.65199442
0.32500002 24128.26816133  1533.83407965
0.32600002 23867.09706538  1404.81739979
0.32700002 23620.55112589  1394.55740451
0.32800002 23389.24924039  1500.53735607
0.32900002 23171.14876243  1376.36630166
0.33000002 22968.49686163  1140.38592318
0.33100002 22777.13371202  1247.73144383
0.33200002 22601.62302489  1241.84623591
0.33300002 22437.70922708  1573.78099971
0.33400002 22287.33665336  1567.91420781
0.33500002 22148.90383878  1227.93528697
0.33600002 22022.57674738  1335.88956876
0.33700002 21907.44391955  1443.91969712
0.33800002 21805.29825288  1330.55936240
0.33900002 21713.07671381  1328.84035782
0.34000002 21632.67463166  1217.16249579
0.34100002 21562.66316026  1106.16467251
0.34200002 21504.04057027  1438.29782166
0.34300002 21454.29572659  1549.85839669
0.34400002 21415.34606617  1551.54189597
0.34500002 21385.53012970  1331.89087956
0.34600002 21366.45149115  1556.97339390
0.34700002 21354.33526145  1337.63562413
0.34800002 21352.76951265  1788.50805909
0.34900002 21359.29377596  1233.49927398
0.35000002 21374.47505336  1350.43939783
0.35100002 21397.81323296  1355.76551065
0.35200002 21428.38532253  1701.94958485
0.35300002 21467.02820329  1253.88917674
0.35400002 21513.52471923  1489.27381923
0.35500002 21566.89173318  1497.17369503
0.35600002 21626.74539150  1505.54595174
0.35700002 21693.74011428  1630.93545904
0.35800002 21767.78768987  1172.19542262
0.35900002 21847.72292755  1533.71022216
0.36000002 21934.50025018  1306.52856929
0.36100002 22026.29195992  1196.02771007
0.36200002 22125.06021132  1566.12246124
0.36300002 22227.45351588  1577.70472529
0.36400002 22336.15645051  1712.06647303
0.36500002 22449.33120217  1971.94934620
0.36600002 22568.11447400  1490.84971277
0.36700002 22691.12410714  1377.80512105
0.36800002 22820.09860504  1263.09251762
0.36900002 22952.36916739  1528.62785896
0.37000002 23087.93295442  1541.81223573
0.37100002 23227.99423780  1684.95878183
0.37200002 23372.29111741  1569.21569996
0.37300002 23519.57639175  1847.22761731
0.37400002 23671.32530094  1464.66332238
0.37500002 23825.44188672  1881.25698049
0.37600002 23983.53467976  1356.26895039
0.37700002 24143.44977809  1779.61376745
0.37800002 24307.09894536  1658.23036861
0.37900002 24473.13067304  1534.46536589
0.38000002 24641.79173542  1830.76200371
0.38100002 24812.21198634  1990.43573984
0.38200002 24985.27430559  1578.94448454
0.38300002 25159.94308658  1449.21279044
0.38400002 25337.21948367  1755.86939340
0.38500002 25515.10551569  1477.32467935
0.38600002 25695.87054479  1640.80989137
0.38700002 25877.06435261  1807.25426000
0.38800002 26059.56436457  2280.86347907
0.38900002 26243.41966905  1535.24012337
0.39000002 26429.07253887  1860.07821341
0.39100002 26614.67933794  1877.93186305
0.39200002 26801.75669409  2211.94908476
0.39300002 26989.12613098  2073.57465888
0.39400002 27177.92681015  1771.32146377
0.39500002 27366.20413139  2113.21838314
0.39600002 27554.95670996  1640.89774982
0.39700002 27743.51806798  2318.80334998
0.39800002 27933.34543021  2006.17296385
0.39900002 28122.25192847  2193.53575435
0.40000002 28311.03755233  1702.90898945
0.40100002 28499.48027957  2062.22249074
0.40200002 28688.83589898  2254.51227594
0.40300002 28876.50218753  2099.89933857
0.40400002 29063.95216029  2471.88924835
0.40500002 29250.77252851  2672.05819708
0.40600002 29437.13946801  2336.27868457
0.40700002 29622.55265174  1812.90030818
0.40800002 29807.43690761  2194.42360911
0.40900002 29990.42540411  2213.29349969
0.41000002 30173.37516455  2604.26413385
0.41100002 30354.75123700  2063.51608687
0.41200002 30534.32430337  2459.08192429
0.41300002 30713.19761826  2860.93449370
0.41400002 30890.48613804  3461.27913577
0.41500002 31066.83276391  2713.99863885
0.41600002 31240.45243904  2149.49943192
0.41700002 31413.29860500  2560.49809062
0.41800002 31585.35319297  2183.65349647
0.41900002 31753.67264496  2200.52961857
0.42000002 31920.95444058  2620.55087897
0.42100002 32087.06211559  2234.22224098
0.42200002 32250.99013157  2455.59050498
0.42300002 32412.43771255  2679.86047706
0.42400002 32571.93401417  2076.46089180
0.42500002 32729.71677709  2928.00060162
0.42600002 32884.03604582  2316.84486939
0.42700002 33037.48414912  3181.50987432
0.42800002 33188.05210939  2135.65125444
0.42900002 33336.95177465  2580.28018963
0.43000002 33483.47580529  2814.11885741
0.43100002 33626.15515887  2614.76994906
0.43200002 33767.37456890  2851.14840683
0.43300002 33905.70264302  2648.71361599
0.43400002 34041.85970358  2887.60088619
0.43500002 34175.08203454  2458.55551807
0.43600002 34306.55132575  2698.55345516
0.43700002 34434.40299689  2488.57442252
0.43800002 34558.87812065  2958.41290172
0.43900002 34681.75628680  2746.79522808
0.44000002 34801.09425856  2762.51099316
0.44100002 34918.23742887  3241.11095174
0.44200002 35032.40487267  2793.48409693
0.44300002 35143.89851607  2808.70050251
0.44400002 35251.98562763  3294.29821302
0.44500002 35356.35439656  4257.61239821
0.44600002 35458.67531568  2377.50429259
0.44700002 35558.11582096  2628.45604605
0.44800002 35653.55490162  3601.90055464
0.44900002 35747.39400253  3378.12889334
0.45000002 35837.87204457  2666.87537459
0.45100002 35923.95552544  2922.77316007
0.45200002 36008.00942374  2936.09322756
0.45300002 36088.30639530  3686.42067299
0.45400002 36166.26577077  2715.18253142
0.45500002 36240.85220598  2478.87440837
0.45600002 36311.96220519  2489.18512714
0.45700002 36379.98268323  2499.30492879
0.45800002 36444.24296283  3763.77937037
0.45900002 36505.60899005  2770.77585366
0.46000002 36564.58816434  2781.28553054
0.46100002 36619.13586826  3299.01810673
0.46200002 36671.29547856  3056.18591003
0.46300002 36719.78128778  4089.11503801
0.46400002 36764.59650093  2820.76380022
0.46500002 36807.17858263  3087.38628584
0.46600002 36845.74549091  3097.25351276
0.46700002 36881.00415101  2589.04661411
0.46800002 36913.74382211  2856.57020106
0.46900002 36942.46830290  3125.33296656
0.47000002 36967.70184457  3656.47556275
0.47100002 36990.15440622  2618.90305609
0.47200002 37009.12956738  2888.37765399
0.47300002 37025.44648539  4738.51686579
0.47400002 37037.13727928  2638.89615623
0.47500002 37046.71627151  2909.64923387
0.47600002 37053.40265831  3181.40530303
0.47700002 37055.74827668  3188.27673284
