# SAXS profile: number of points = 501, q_min = 0, q_max = 0.5, delta_q = 0.001
#    q    intensity    error
0.00000000 1646666.22097351 419.89988635
0.00100000 1646598.58844234 642.17346474
0.00200000 1646395.63846994 814.96586685
0.00300000 1646057.53725907 1086.39801329
0.00400000 1645584.15001292 1357.60697535
0.00500000 1644975.93492838 1776.57408004
0.00600000 1644232.62332917 2417.02205470
0.00700000 1643354.87278880 2366.43111517
0.00800000 1642342.10482265 2438.87812863
0.00900000 1641195.67783214 2461.79362198
0.01000000 1639914.79219978 3517.61738116
0.01100000 1638500.61976449 4423.95186598
0.01200000 1636952.65384810 3830.46937795
0.01300000 1635272.28508649 5494.51512022
0.01400000 1633458.74446457 3675.28233797
0.01500000 1631513.67524320 4307.19629444
0.01600000 1629436.17294804 4570.56866944
0.01700000 1627228.17438504 4832.86789472
0.01800000 1624889.27080230 5094.02809318
0.01900000 1622420.23091206 6327.43918607
0.02000000 1619821.53968848 6633.16950508
0.02100000 1617094.96371633 6403.69634665
0.02200000 1614238.58129480 6126.03569433
0.02300000 1611255.36736748 8120.72742117
0.02400000 1608145.20433273 6030.54479123
0.02500000 1604909.23371368 8762.80481628
0.02600000 1601547.75282965 6486.26869563
0.02700000 1598061.85232929 8725.41811335
0.02800000 1594451.28960342 8323.03611342
0.02900000 1590718.60328562 10021.52766083
0.03000000 1586864.26980753 8116.81111316
0.03100000 1582888.27412937 8357.65047196
0.03200000 1578791.76045820 10159.52544648
0.03300000 1574577.41132677 8030.34516797
0.03400000 1570243.16835456 12365.66552135
0.03500000 1565792.58924149 14373.97663300
0.03600000 1561225.21208531 9531.28036026
0.03700000 1556542.80230103 11533.98269847
0.03800000 1551746.93716496 14524.35200404
0.03900000 1546838.33757796 11137.23654633
0.04000000 1541816.37513367 9482.17114647
0.04100000 1536684.77328435 12585.44887674
0.04200000 1531443.93067093 16792.28347885
0.04300000 1526093.74692717 11079.44111698
0.04400000 1520637.97934560 11290.73752100
0.04500000 1515076.10002292 10454.02557590
0.04600000 1509408.53635017 12769.59681114
0.04700000 1503638.61675835 12991.43825300
0.04800000 1497766.22840940 12109.44052012
0.04900000 1491794.22125243 12307.30289821
0.05000000 1485721.99691972 17048.66070854
0.05100000 1479553.09419752 17310.77200852
0.05200000 1473285.44768056 11712.61985488
0.05300000 1466924.66915422 17823.13556110
0.05400000 1460468.87150012 13253.75562694
0.05500000 1453922.24757443 12212.94744935
0.05600000 1447282.96844768 13611.69695343
0.05700000 1440556.17022719 17545.97497239
0.05800000 1433740.49860247 20301.76640815
0.05900000 1426837.88001849 21830.62058390
0.06000000 1419851.04499521 16889.12896926
0.06100000 1412781.42862883 14452.75469027
0.06200000 1405629.44328878 13283.19885998
0.06300000 1398398.16641278 13424.62302523
0.06400000 1391085.85468946 16275.70526103
0.06500000 1383698.98021181 13698.62054489
0.06600000 1376234.78221489 15214.27622924
0.06700000 1368696.59890188 13960.70596215
0.06800000 1361087.25041285 28174.50740237
0.06900000 1353407.32589654 17052.93310470
0.07000000 1345656.74296382 21496.86747551
0.07100000 1337839.94579140 21673.00813694
0.07200000 1329955.89075887 16019.31945464
0.07300000 1322009.55173362 14674.30671182
0.07400000 1313999.73672381 25130.24614255
0.07500000 1305929.30081964 19353.87314531
0.07600000 1297798.09435326 17987.48243100
0.07700000 1289611.65626378 15088.45708576
0.07800000 1281368.09551778 18221.05517276
0.07900000 1273069.69652687 24442.93931978
0.08000000 1264720.08622334 18439.61972216
0.08100000 1256319.25832952 16998.00036271
0.08200000 1247868.57864088 21750.35034635
0.08300000 1239370.57244721 15616.06994573
0.08400000 1230826.34860200 17262.34034941
0.08500000 1222239.37254566 17343.57751062
0.08600000 1213608.98030383 17421.35773022
0.08700000 1204938.59143822 23857.78523078
0.08800000 1196227.03969328 20760.52124887
0.08900000 1187480.26457628 17634.08275723
0.09000000 1178696.91045830 19307.05630027
0.09100000 1169879.82974202 22602.07937249
0.09200000 1161029.65459587 16196.36444263
0.09300000 1152149.92822640 22743.44065195
0.09400000 1143239.09953103 21178.50531415
0.09500000 1134301.18566438 24500.90676196
0.09600000 1125337.45559240 19648.39289827
0.09700000 1116350.58602867 19692.42526334
0.09800000 1107341.55403730 19732.82742074
0.09900000 1098312.27364030 18122.15336721
0.10000000 1089262.33982789 19802.79026934
0.10100000 1080194.25777980 21485.06479772
0.10200000 1071110.88469397 19858.39673629
0.10300000 1062012.66578695 16567.39836562
0.10400000 1052902.21800657 26533.13714202
0.10500000 1043782.34393213 19915.36805923
0.10600001 1034649.17916358 29891.01619251
0.10700001 1025510.74170367 18274.60227712
0.10800001 1016364.12872464 18279.30971537
0.10900001 1007213.19286668 19942.82215738
0.11000001 998058.13110699 21602.96926465
0.11100001 988901.30138489 19936.25117439
0.11200001 979745.03401595 16606.67910836
0.11300001 970588.21674769 18256.76521657
0.11400001 961435.00344135 18243.23004927
0.11500001 952285.84536153 18226.75193848
0.11600001 943141.93847435 19862.57015963
0.11700001 934005.64672735 28104.23123359
0.11800001 924875.79928304 19810.84055370
0.11900001 915756.34077586 23077.06087452
0.12000001 906647.61813915 23037.91706211
0.12100001 897552.63005619 18067.73529417
0.12200001 888470.19942392 22949.18633229
0.12300001 879403.68659889 19628.29120966
0.12400001 870352.88264098 22846.76424581
0.12500001 861320.07373980 16278.95016075
0.12600001 852307.60329664 24354.69091188
0.12700001 843315.42480393 17810.82261122
0.12800001 834343.46145318 22602.36543600
0.12900001 825395.36249137 24142.81549077
0.13000001 816470.94154926 19252.38570919
0.13100001 807571.19915990 22385.87469593
0.13200001 798698.93993080 17527.44906303
0.13300001 789855.44029753 15876.09509843
0.13400001 781038.98428588 15816.04017745
0.13500001 772253.75678880 15753.97738126
0.13600001 763498.51263734 17258.88469194
0.13700001 754776.04318856 21873.41076301
0.13800001 746085.79052246 18667.06735913
0.13900001 737432.38189510 15486.08075009
0.14000001 728812.52551807 26204.45559082
0.14100001 720229.75258694 15340.89445362
0.14200001 711683.48691205 16792.17266570
0.14300001 703177.98933354 19745.23887182
0.14400001 694707.91792985 21153.85709879
0.14500001 686281.69669740 19538.44082664
0.14600001 677894.32608746 16442.32765491
0.14700001 669552.29086635 16350.46771431
0.14800001 661250.79707899 17734.74721436
0.14900001 652992.83546118 20569.27528750
0.15000001 644780.13810524 21906.40622573
0.15100001 636613.32258665 27578.09043572
0.15200001 628493.49134934 18751.10419922
0.15300001 620420.91259221 15764.89613290
0.15400001 612394.21173969 27052.51558024
0.15500001 604418.12899555 21215.07732895
0.15600001 596489.20138362 14047.32135555
0.15700001 588614.14300772 13950.15584769
0.15800001 580785.23979884 18007.24720988
0.15900001 573010.82040939 19253.16447452
0.16000001 565285.93021981 16381.98703104
0.16100001 557617.02006093 23035.16018607
0.16200001 549999.04277559 14792.22495373
0.16300001 542435.94597169 17347.10237109
0.16400001 534927.00817112 14563.38848499
0.16500001 527473.25240236 18387.71844685
0.16600001 520074.84330699 15633.45052791
0.16700001 512731.76735963 15505.00937702
0.16800001 505444.20441749 14094.31230566
0.16900001 498215.69097606 13974.95079175
0.17000001 491043.79826024 18892.91103018
0.17100001 483929.64487711 12485.38542741
0.17200001 476873.76435324 12374.87476934
0.17300001 469876.49625950 13490.15484468
0.17400001 462938.81162089 13367.35881684
0.17500001 456059.85249524 14447.97680939
0.17600001 449238.56906138 15505.46994346
0.17700001 442479.95805987 14177.05852583
0.17800001 435780.35271291 14040.84362759
0.17900001 429141.18108530 12745.49368025
0.18000001 422563.50735428 14914.37969655
0.18100001 416047.69944974 11358.10273149
0.18200001 409590.43668987 13491.90962189
0.18300001 403197.14087252 12241.06577515
0.18400001 396863.81609129 15418.15998351
0.18500001 390593.36260602 17436.08853045
0.18600001 384384.65814319 11860.18918732
0.18700001 378237.48656518 13866.18691258
0.18800001 372152.25034881 11605.56847545
0.18900001 366131.34656640 10434.74387016
0.19000001 360168.67069175 11350.71619316
0.19100001 354273.55961355 11223.38689886
0.19200001 348436.95382604 13113.42537687
0.19300001 342665.49735583 9971.56644424
0.19400001 336955.74118191 9855.95589530
0.19500001 331309.24859308 11688.59084271
0.19600001 325723.91420589 11550.17054356
0.19700001 320201.94008239 14264.99710480
0.19800001 314742.53090849 11274.07798994
0.19900001 309346.52352641 12064.51498770
0.20000001 304010.97816131 10082.52456723
0.20100001 298739.57305471 11767.35233878
0.20200001 293529.25839834 12513.15287694
0.20300001 288381.94314351 9706.93666501
0.20400001 283296.57800738 10453.64422257
0.20500001 278272.31753037 12897.92252718
0.20600001 273310.74515887 11880.81865364
0.20700001 268410.30818745 9211.84221243
0.20800001 263571.59378419 12394.45478359
0.20900001 258796.31564835 12228.12649242
0.21000001 254079.55008624 10454.10358249
0.21100001 249423.89684394 12690.68847135
0.21200001 244829.21241660 14080.12867171
0.21300001 240294.98080853 8484.81617347
0.21400001 235821.88791969 8365.78186946
0.21500001 231409.30755889 11246.49287907
0.21600001 227055.02138292 10346.89781361
0.21700001 222761.18282138 8012.72012492
0.21800001 218526.59530520 8614.31879422
0.21900001 214349.83134392 7780.89924568
0.22000001 210231.79433010 9756.85803619
0.22100001 206174.36302034 6865.60661321
0.22200001 202173.97550131 8791.53574038
0.22300001 198231.12563991 7992.67936374
0.22400001 194344.29888217 7215.03243717
0.22500001 190517.85908947 7750.26687425
0.22600001 186745.98363530 10173.92166956
0.22700001 183031.96387889 7511.63215281
0.22800001 179373.21840096 7393.76441214
0.22900001 175769.95831983 10308.90854298
0.23000001 172222.05835902 8354.49244610
0.23100001 168731.11151705 7046.21155019
0.23200001 165292.63068733 6354.67548731
0.23300001 161909.66926111 7387.93855779
0.23400001 158580.48307617 8384.94343922
0.23500001 155303.68041943 6047.52560156
0.23600001 152080.89883312 5406.47620923
0.23700001 148910.81933483 7974.17475254
0.23800001 145792.60331586 5749.33158370
0.23900001 142726.70103578 7193.42607245
0.24000001 139711.66653828 6565.75007953
0.24100001 136748.99524152 5460.38763828
0.24200001 133836.23468010 5366.16408333
0.24300001 130973.93767343 6711.10488384
0.24400001 128160.56060054 5651.88098984
0.24500001 125397.00523281 5089.86468317
0.24600001 122682.50931393 4545.38718510
0.24700001 120016.97233416 5357.55789844
0.24800001 117398.24240613 7892.68421034
0.24900001 114827.28141755 6028.43255961
0.25000001 112303.90272547 6342.36320647
0.25100001 109826.44826215 4981.72792885
0.25200001 107396.23578793 6113.53101146
0.25300001 105011.88649938 5201.23898439
0.25400001 102671.91969839 5498.08155997
0.25500001 100376.85906357 4625.36588448
0.25600001 98126.61706986  4161.05939372
0.25700001 95919.94717211  5196.94298367
0.25800001 93756.53859934  4006.68586662
0.25900001 91636.53496625  3931.20753606
0.26000001 89559.43177363  5960.62826372
0.26100001 87522.28761433  4127.55127919
0.26200001 85529.18866543  4386.36464826
0.26300001 83575.65177856  4302.47475714
0.26400001 81662.66279067  3246.09099953
0.26500001 79790.77792319  3820.38262774
0.26600001 77957.36532244  3434.41189180
0.26700001 76164.47903473  3367.99342229
0.26800001 74409.85253606  3903.16899948
0.26900001 72693.09740755  2944.07058432
0.27000001 71014.85791513  4041.45575520
0.27100001 69373.49405053  3679.57029857
0.27200001 67769.50043812  3607.70952655
0.27300001 66201.34297477  4081.31298754
0.27400001 64668.17724581  3467.83116892
0.27500001 63172.51891662  3399.94512900
0.27600001 61709.81962956  3333.25606504
0.27700001 60283.50906949  3519.35142604
0.27800001 58890.00571057  2957.45622675
0.27900001 57530.96134124  3141.19063790
0.28000001 56204.41194961  2369.01607580
0.28100001 54910.66949055  2554.99357232
0.28200001 53649.55140355  2732.90827784
0.28300001 52420.11231113  2679.71626818
0.28400001 51222.22188289  2408.72509805
0.28500001 50055.41034430  3435.80352865
0.28600001 48918.32840468  2527.12096500
0.28700001 47811.73663255  2685.10725638
0.28800001 46734.04550211  3241.47354946
0.28900001 45686.95123394  2384.85896730
0.29000001 44667.18072140  2534.63929001
0.29100001 43677.01151030  2295.66383365
0.29200001 42713.77121035  2440.45143362
0.29300001 41778.11683187  2026.65654345
0.29400001 40869.31434257  1989.31396979
0.29500001 39988.23684596  2130.57336001
0.29600001 39131.89733213  1917.65871954
0.29700001 38301.27558080  2396.89393931
0.29800001 37496.55406029  1849.89258214
0.29900001 36716.75943627  1817.47967813
0.30000001 35961.21540228  1786.01384750
0.30100001 35230.48430787  1755.53511617
0.30200001 34522.13043079  2196.64326330
0.30300001 33837.79117802  1697.30368584
0.30400001 33177.01570328  1669.63339431
0.30500001 32537.50766658  1642.81883986
0.30600001 31920.28838001  1763.91521939
0.30700001 31325.42444050  1881.40508097
0.30800001 30751.40708835  1425.32778603
0.30900001 30198.36305927  1965.91352823
0.31000001 29666.72766987  1522.34820245
0.31100001 29153.54922005  1910.14063533
0.31200001 28661.49216055  1614.78854478
0.31300001 28188.05072888  1327.65725219
0.31400001 27735.09681280  1572.58006374
0.31500001 27300.18337943  1423.43162880
0.31600002 26883.37443601  1278.30451496
0.31700002 26484.27469753  2273.93993320
0.31800002 26103.39901190  1873.57155279
0.31900002 25739.90330645  1482.61850065
0.32000002 25392.91994701  1711.73681468
0.32100002 25063.19602298  1331.60766775
0.32200002 24749.83469995  1558.86841239
0.32300002 24451.64811699  1188.35015476
0.32400002 24169.43035135  1767.38967813
0.32500002 23902.13958614  1285.69614922
0.32600002 23650.41569127  1276.05823905
0.32700002 23412.99109277  2073.45458936
0.32800002 23190.63026880  1716.68648694
0.32900002 22981.14300023  1706.34994857
0.33000002 22786.84285829  1923.32356253
0.33100002 22603.74757517  1350.80001906
0.33200002 22436.08751810  1681.02393690
0.33300002 22280.00716145  1339.47409398
0.33400002 22137.06006112  1334.86478490
0.33500002 22005.95452456  1330.92019267
0.33600002 21886.71632126  1438.28563116
0.33700002 21778.40970724  1214.58196689
0.33800002 21682.85055502  1543.60220411
0.33900002 21597.13289299  1211.59921268
0.34000002 21522.87910493  1761.43250937
0.34100002 21459.01100813  1321.01678022
0.34200002 21406.19943437  1321.61881567
0.34300002 21362.13704510  1102.28632373
0.34400002 21328.54634736  1214.12755832
0.34500002 21304.08478019  1326.81846295
0.34600002 21290.04030841  1551.40531075
0.34700002 21282.86553676  1222.06219700
0.34800002 21285.95360371  1560.04761350
0.34900002 21297.14211511  1341.72001680
0.35000002 21316.62509026  1122.32036416
0.35100002 21344.25976788  1803.16315059
0.35200002 21378.87253104  1132.01135413
0.35300002 21421.33369650  1592.46202242
0.35400002 21471.57626461  1143.36149024
0.35500002 21528.56726217  1149.62554625
0.35600002 21591.89341181  1271.87054166
0.35700002 21662.13323341  1163.25660973
0.35800002 21739.25122178  1287.72460712
0.35900002 21822.12764206  1178.39494849
0.36000002 21911.75278739  1305.17361660
0.36100002 22006.24092482  1553.42062046
0.36200002 22107.51315935  1324.12956340
0.36300002 22212.37067802  1455.35459576
0.36400002 22323.30706215  1588.86145541
0.36500002 22438.68276803  1601.44886501
0.36600002 22559.42862365  1614.46558593
0.36700002 22684.33795961  1377.39306615
0.36800002 22815.04571951  1515.37540847
0.36900002 22949.05816295  1401.04006721
0.37000002 23086.13297373  1413.21769693
0.37100002 23227.66255287  1296.10363185
0.37200002 23373.23852585  1438.50603322
0.37300002 23521.73785448  1583.48346737
0.37400002 23674.59403577  1464.86557536
0.37500002 23829.66938344  1343.99341689
0.37600002 23988.63137916  1763.52431938
0.37700002 24149.37533388  1643.12357555
0.37800002 24313.67267987  1935.12530026
0.37900002 24480.27711001  1534.91344751
0.38000002 24649.42385166  1831.32903181
0.38100002 24820.27366446  1564.42192318
0.38200002 24993.56495940  2153.82056241
0.38300002 25168.57609604  1884.62306735
0.38400002 25345.95294485  2781.08481862
0.38500002 25523.81217275  2216.74319222
0.38600002 25704.53511888  1939.79283464
0.38700002 25885.63455967  2109.16160384
0.38800002 26067.95660932  1673.17187424
0.38900002 26251.49286183  2764.28232931
0.39000002 26436.81988255  1860.62347148
0.39100002 26622.01998286  1878.44981898
0.39200002 26808.49270223  2686.61322344
0.39300002 26995.33411172  2393.13648238
0.39400002 27183.47190667  2254.86910149
0.39500002 27371.14454839  2113.59988216
0.39600002 27559.06822715  1969.37110882
0.39700002 27746.83189314  2153.43172525
0.39800002 27935.69854750  2006.34196474
0.39900002 28123.71606677  2531.13456593
0.40000002 28311.54829584  1702.93971068
0.40100002 28498.84512528  2234.02457522
0.40200002 28687.11011334  1734.13588851
0.40300002 28873.68076259  2274.66867825
0.40400002 29059.80087034  2294.99788247
0.40500002 29245.34538854  2137.24994226
0.40600002 29430.41256526  2156.07212669
0.40700002 29614.47627019  1993.64663697
0.40800002 29797.98212020  2559.34880557
0.40900002 29979.50266067  1843.73950099
0.41000002 30160.90494996  2231.30385392
0.41100002 30340.81628168  1875.06253505
0.41200002 30518.86862438  1890.64400086
0.41300002 30696.06784390  3049.96144549
0.41400002 30871.70779448  1921.76390127
0.41500002 31046.37174132  2131.02305730
0.41600002 31218.22423669  2147.97002038
0.41700002 31389.36897305  2755.35893901
0.41800002 31559.63205489  2181.87526550
0.41900002 31726.09762806  2198.61866980
0.42000002 31891.58511378  2416.74443444
0.42100002 32055.77600195  2637.86993220
0.42200002 32217.87012812  2657.49114344
0.42300002 32377.28382795  2265.11488394
0.42400002 32534.89216067  2281.50942088
0.42500002 32690.73337240  2088.93796148
0.42600002 32843.09396606  2313.96029503
0.42700002 32994.52246749  2330.07328707
0.42800002 33143.02939591  2346.02944696
0.42900002 33289.95890844  3006.08343188
0.43000002 33434.41259840  2809.99533999
0.43100002 33574.96475239  2393.22360096
0.43200002 33714.13289929  2627.67964269
0.43300002 33850.40520755  2864.75992847
0.43400002 33984.43143478  2882.72953306
0.43500002 34115.60273871  2677.39262981
0.43600002 34244.87916398  2918.17751625
0.43700002 34370.55844907  2709.77495654
0.43800002 34492.94923881  3407.04122252
0.43900002 34613.60840672  2512.94808941
0.44000002 34730.73984429  2527.18240453
0.44100002 34845.88621264  3003.36707500
0.44200002 34957.81757560  2787.53650558
0.44300002 35067.14692834  2569.01930572
0.44400002 35173.07040009  3052.14332861
0.44500002 35275.26851313  3539.87336305
0.44600002 35375.35107660  2609.10914230
0.44700002 35472.66164213  4290.77335558
0.44800002 35565.99947673  2874.44421393
0.44900002 35657.61223135  3128.95562159
0.45000002 35745.91554123  2660.03243107
0.45100002 35829.86243850  2915.11774615
0.45200002 35911.76408081  2684.22493343
0.45300002 35989.96731051  2941.10026800
0.45400002 36065.71714591  3938.37649898
0.45500002 36138.20346001  3460.59452734
0.45600002 36207.15385030  2978.40061688
0.45700002 36273.09234435  2491.96156216
0.45800002 36335.28265298  3502.35806091
0.45900002 36394.56156648  3515.71481395
0.46000002 36451.48421501  2520.62025293
0.46100002 36504.00615595  3288.64607045
0.46200002 36554.07139604  3046.41645453
0.46300002 36600.48359924  2547.39377924
0.46400002 36643.31847751  2811.45874344
0.46500002 36683.87412221  3589.88409174
0.46600002 36720.42699290  3086.71923932
0.46700002 36753.70408996  3096.13217928
0.46800002 36784.53640912  3881.68838855
0.46900002 36811.24981467  2595.19323494
0.47000002 36834.63980368  4424.02462330
0.47100002 36855.22280155  2870.28488783
0.47200002 36872.36729375  3400.92295853
0.47300002 36886.75049142  2884.91289267
0.47400002 36896.65022132  3154.66374345
0.47500002 36904.43108259  2898.47415461
0.47600002 36909.25589254  3169.02886114
0.47700002 36909.86270883  3705.01219432
