# SAXS profile: number of points = 501, q_min = 0, q_max = 0.5, delta_q = 0.001
#    q    intensity    error
0.00000000 1646666.22097351 321.09991309
0.00100000 1646598.59662765 543.37754979
0.00200000 1646395.67013425 889.05369002
0.00300000 1646057.61627079 987.63460495
0.00400000 1645584.28522408 1234.18826081
0.00500000 1644976.14579266 1480.47858981
0.00600000 1644232.91726978 1899.08909676
0.00700000 1643355.28017769 2760.83698544
0.00800000 1642342.63993150 2438.87892327
0.00900000 1641196.35709582 2954.15356906
0.01000000 1639915.61943736 4058.79133336
0.01100000 1638501.63790841 3834.09399964
0.01200000 1636953.85872356 3830.47219736
0.01300000 1635273.69075977 4120.88988247
0.01400000 1633460.37680525 4410.34321289
0.01500000 1631515.55533086 5090.32875930
0.01600000 1629438.30411717 5817.09500574
0.01700000 1627230.58947506 5272.22734640
0.01800000 1624891.94963141 7872.60185021
0.01900000 1622423.23529430 5840.72391061
0.02000000 1619824.84825412 6122.93820338
0.02100000 1617098.63311356 5870.06830434
0.02200000 1614242.59933450 7239.87838694
0.02300000 1611259.75499568 8120.74953482
0.02400000 1608149.96346097 8442.78769314
0.02500000 1604914.41589345 6885.08315863
0.02600000 1601553.34386871 6486.29133934
0.02700000 1598067.87691593 8054.26246855
0.02800000 1594457.77137979 6935.89162358
0.02900000 1590725.58249106 10021.57162983
0.03000000 1586871.68784122 8116.84905640
0.03100000 1582896.22581217 7597.90223350
0.03200000 1578800.21941124 7815.06144603
0.03300000 1574586.37205189 8833.42995444
0.03400000 1570252.68796265 9068.20969139
0.03500000 1565802.68922765 10991.93538596
0.03600000 1561235.84615618 10397.83121592
0.03700000 1556554.05007649 12421.30189406
0.03800000 1551758.76321999 10893.34702194
0.03900000 1546850.79414266 12065.43675306
0.04000000 1541829.46690362 11378.70199303
0.04100000 1536698.48865638 10649.32102016
0.04200000 1531458.32926823 11853.48801845
0.04300000 1526108.83296978 10072.31876514
0.04400000 1520653.75239302 17449.50261910
0.04500000 1515092.55152058 11499.55300037
0.04600000 1509425.74844126 11705.59722332
0.04700000 1503656.54440709 11908.96038557
0.04800000 1497784.88438738 13210.46329495
0.04900000 1491813.69449527 17901.76516723
0.05000000 1485742.18057381 12502.52103172
0.05100000 1479574.08313955 12694.74622471
0.05200000 1473307.29860628 18740.46971160
0.05300000 1466947.28491240 13070.50091789
0.05400000 1460492.27895147 13253.96804957
0.05500000 1453946.49928315 18319.72674557
0.05600000 1447308.15128954 21036.62496065
0.05700000 1440582.18894886 18799.59844332
0.05800000 1433767.40447852 13957.72633432
0.05900000 1426865.71324851 14125.97122093
0.06000000 1419879.69485527 12991.89981489
0.06100000 1412811.01557335 22336.54320003
0.06200000 1405659.86022439 13283.48630004
0.06300000 1398429.60625493 18794.89478683
0.06400000 1391118.27410857 17632.42494894
0.06500000 1383732.40709226 16438.74176522
0.06600000 1376269.10337095 15214.65564964
0.06700000 1368731.90856740 20941.59918113
0.06800000 1361123.53766753 19722.68098400
0.06900000 1353444.69656788 19895.63797104
0.07000000 1345695.06515531 15764.81842654
0.07100000 1337879.28607638 23118.55514622
0.07200000 1329996.31694384 16019.80638807
0.07300000 1322051.05521255 16142.24414050
0.07400000 1314042.22795705 14782.97575731
0.07500000 1305972.87982037 16376.90068057
0.07600000 1297842.73436007 16489.09271306
0.07700000 1289657.35355237 21124.58844169
0.07800000 1281414.85318270 19740.19673902
0.07900000 1273117.59295202 19860.63538159
0.08000000 1264769.09436821 18440.33426094
0.08100000 1256369.44010370 18544.01380598
0.08200000 1247919.89041031 15536.60336467
0.08300000 1239423.00714459 29671.78818360
0.08400000 1230879.92959543 20401.83579068
0.08500000 1222294.07165284 15767.59426453
0.08600000 1213664.83538403 19005.99221447
0.08700000 1204995.68830186 19087.13259899
0.08800000 1196285.14827419 19164.48897539
0.08900000 1187539.62236191 28857.21417881
0.09000000 1178757.45479950 27353.06802355
0.09100000 1169941.58854968 22603.27255271
0.09200000 1161092.55597816 19436.69030034
0.09300000 1152214.06678076 22744.70674707
0.09400000 1143304.41036245 27696.55064270
0.09500000 1134367.69414186 19601.87467611
0.09600000 1125405.27826463 18012.11232533
0.09700000 1116419.53302899 21334.77827919
0.09800000 1107411.73613827 24667.59758229
0.09900000 1098383.66388737 19770.90687965
0.10000000 1089334.90844759 23104.79449473
0.10100000 1080268.14117864 16528.10333738
0.10200000 1071185.97929999 21514.77140622
0.10300000 1062088.90569371 19882.30524986
0.10400000 1052979.84137313 21559.76326640
0.10500000 1043861.21399950 19916.87290019
0.10600001 1034729.18553549 24911.10631392
0.10700001 1025592.06082519 19937.51060065
0.10800001 1016446.71673373 19942.68552085
0.10900001 1007297.01463752 24930.60228565
0.11000001 998143.29694806 19942.90401173
0.11100001 988987.67657260 21599.49187311
0.11200001 979832.56054988 29894.69282973
0.11300001 970677.01164996 28217.58205717
0.11400001 961525.08479565 18244.93934305
0.11500001 952377.14159792 19885.63565294
0.11600001 943234.38678042 21519.89354780
0.11700001 934099.42357613 19840.27269113
0.11800001 924970.72594903 21463.94670656
0.11900001 915852.51050084 23079.48435170
0.12000001 906744.96993119 16457.42197948
0.12100001 897651.30393745 18069.72159949
0.12200001 888570.13922373 19672.94380923
0.12300001 879504.91084145 22902.30895734
0.12400001 870455.26124401 24481.55537600
0.12500001 861423.66845861 21165.18053134
0.12600001 852412.41885725 19486.14881333
0.12700001 843421.43573941 27529.27695989
0.12800001 834450.72421797 24219.93341189
0.12900001 825503.75554906 22536.25358867
0.13000001 816580.54308567 17650.38927075
0.13100001 807682.01390379 22388.94648077
0.13200001 798810.87249502 19123.53318902
0.13300001 789968.52479936 19054.04171643
0.13400001 781153.38379877 17400.19244446
0.13500001 772369.26647844 20483.23391276
0.13600001 763615.10180903 18830.74929849
0.13700001 754893.88239474 15626.30410240
0.13800001 746204.70095644 21781.71624805
0.13900001 737552.42775447 15488.60171326
0.14000001 728933.74698007 15416.94947570
0.14100001 720352.04606231 16877.84923525
0.14200001 711806.78573985 15268.25627425
0.14300001 703302.47632158 16710.46762559
0.14400001 694833.51073312 22668.94435696
0.14500001 686408.38150557 15032.34426408
0.14600001 678022.10563176 19435.50457479
0.14700001 669681.09162026 16353.61302887
0.14800001 661380.59699015 16260.04274413
0.14900001 653123.56090881 17634.33697654
0.15000001 644911.95011789 18989.43326720
0.15100001 636746.18384967 18873.15777983
0.15200001 628627.30953311 15869.69717801
0.15300001 620555.65972456 15768.32005769
0.15400001 612529.94670840 21361.98289955
0.15500001 604554.81729396 28293.16678460
0.15600001 596626.79041393 19670.78620831
0.15700001 588752.63446508 15348.78190492
0.15800001 580924.70206327 20782.58219722
0.15900001 573151.03196755 16506.75049979
0.16000001 565427.10861302 16386.07838107
0.16100001 557758.98135560 14908.89827540
0.16200001 550141.81388785 18831.35517834
0.16300001 542579.55958622 16016.94935511
0.16400001 535071.40321622 17215.92321124
0.16500001 527618.42228770 15765.23920225
0.16600001 520220.78873608 13031.53137310
0.16700001 512878.46733353 23264.16837666
0.16800001 505591.67285504 14098.42446324
0.16900001 498363.88696147 15249.93566109
0.17000001 491192.71449262 13859.00309383
0.17100001 484079.22835037 13738.16914932
0.17200001 477023.90518384 21043.91057094
0.17300001 470027.24233340 18401.56740636
0.17400001 463090.22158895 14587.34266895
0.17500001 456211.95576640 14452.79544125
0.17600001 449391.17026148 15510.73697413
0.17700001 442633.12373678 13000.13545815
0.17800001 435933.99895931 14045.79410988
0.17900001 429295.31012517 15068.26609712
0.18000001 422718.11098837 13772.15670653
0.18100001 416202.83948351 13634.80566554
0.18200001 409745.92951138 13497.03155568
0.18300001 403353.02071237 13359.05267707
0.18400001 397020.18615387 13220.77282348
0.18500001 390750.09061362 14172.50645609
0.18600001 384541.64607959 11865.03305033
0.18700001 378394.86912379 11737.80939477
0.18800001 372309.96366047 11610.48676530
0.18900001 366289.29347505 13571.01896445
0.19000001 360326.89133121 11355.70251685
0.19100001 354431.89745577 12249.16695485
0.19200001 348595.45883206 16146.94241607
0.19300001 342824.29489576 15961.89992459
0.19400001 337114.66013338 11832.72512982
0.19500001 331468.36329779 12668.72144390
0.19600001 325882.99989741 13481.78034286
0.19700001 320361.11243304 13320.61568447
0.19800001 314901.73220280 12219.76229562
0.19900001 309505.75491986 12070.72501234
0.20000001 304170.21977517 10087.80581560
0.20100001 298898.80577767 13584.95136465
0.20200001 293688.37248097 8942.81136471
0.20300001 288540.96861530 14126.96649111
0.20400001 283455.51799406 9587.88334933
0.20500001 278431.10378934 9463.87366513
0.20600001 273469.31740351 9340.34497742
0.20700001 268568.66964577 9217.27717794
0.20800001 263729.63723410 8267.92451812
0.20900001 258954.12606382 9788.46642793
0.21000001 254237.08623358 9655.92499161
0.21100001 249581.18338914 9524.01840836
0.21200001 244986.10869823 8610.03719723
0.21300001 240451.48999141 8490.34251298
0.21400001 235977.94429412 12937.49140756
0.21500001 231564.94101065 9003.24533215
0.21600001 227210.24606218 7395.69385898
0.21700001 222915.91608324 8747.22096067
0.21800001 218680.79102484 8620.39718978
0.21900001 214503.51540028 10617.92451435
0.22000001 210384.80037995 10461.38469353
0.22100001 206326.79257347 7557.75076932
0.22200001 202325.73856045 8121.35552983
0.22300001 198382.29380337 7998.77446438
0.22400001 194494.69694910 7220.61596567
0.22500001 190667.56096409 9695.44593350
0.22600001 186894.86021512 8909.27840776
0.22700001 183180.04098240 6264.75769785
0.22800001 179520.44848482 8016.48600619
0.22900001 175916.38071997 6069.11542185
0.23000001 172367.67608718 8958.81038831
0.23100001 168875.70568060 7639.93728630
0.23200001 165436.29372713 5781.99873921
0.23300001 162052.41267327 6256.84394923
0.23400001 158722.18120791 7273.44429785
0.23500001 155444.40167684 6053.00528758
0.23600001 152220.54537706 8658.30503056
0.23700001 149049.30448337 6917.37854825
0.23800001 145930.02915730 9940.02440620
0.23900001 142862.93843777 5143.06602702
0.24000001 139846.73945281 6572.09783145
0.24100001 136882.92814159 4968.85052657
0.24200001 133968.83713511 5859.79721347
0.24300001 131105.23651251 6717.83263667
0.24400001 128290.60251646 4714.67986550
0.24500001 125525.68984451 5558.27780925
0.24600001 122809.89258614 5005.11740912
0.24700001 120142.97049562 7597.84181357
0.24800001 117522.84901981 5706.32220410
0.24900001 114950.36554621 6897.02225905
0.25000001 112425.54793719 5079.38649610
0.25100001 109946.58270569 8311.96204578
0.25200001 107514.83493674 5712.26345043
0.25300001 105128.94157987 5607.57800917
0.25400001 102787.35215063 5111.10132750
0.25500001 100490.70077019 6560.03325665
0.25600001 98238.82014968  3787.10669595
0.25700001 96030.47323048  4088.01743884
0.25800001 93865.38978013  5470.00584825
0.25900001 91743.64530169  3578.00233606
0.26000001 89664.81146049  4212.45304173
0.26100001 87625.88322885  3443.69737384
0.26200001 85630.97284963  4391.58465039
0.26300001 83675.61879613  3976.26559334
0.26400001 81760.81742919  4874.98896989
0.26500001 79887.00812050  3187.49177484
0.26600001 78051.71043985  3438.56826614
0.26700001 76256.93166751  3372.08167790
0.26800001 74500.34288966  3306.69787563
0.26900001 72781.59173253  4126.71644652
0.27000001 71101.36883451  3179.29785789
0.27100001 69458.01601078  2833.88718735
0.27200001 67851.97318504  4167.80765013
0.27300001 66281.73214167  2996.59725194
0.27400001 64746.44870569  4540.34493036
0.27500001 63248.69655351  3142.19539348
0.27600001 61783.86367187  3337.25555417
0.27700001 60355.42261433  3775.23186320
0.27800001 58959.74221703  2467.46532856
0.27900001 57598.46862490  2661.04937641
0.28000001 56269.71361627  2608.94539530
0.28100001 54973.74080611  2790.46721539
0.28200001 53710.38114177  2736.00694486
0.28300001 52478.65620092  2459.14994597
0.28400001 51278.51841046  2192.15676580
0.28500001 50109.37777116  3224.53861220
0.28600001 48969.97909110  2318.97346962
0.28700001 47861.05394262  2481.11715382
0.28800001 46780.98173818  2839.13791608
0.28900001 45731.50623598  2387.18473851
0.29000001 44709.34881548  3122.50106907
0.29100001 43716.76362926  2489.23263888
0.29200001 42751.09355154  2442.58384569
0.29300001 41813.01003621  2028.34921287
0.29400001 40901.78501007  2352.87529408
0.29500001 40018.22204651  1954.49005727
0.29600001 39159.41609623  2442.37289754
0.29700001 38326.32167016  1884.50532573
0.29800001 37519.12251964  2187.55254206
0.29900001 36736.74936641  1818.46917972
0.30000001 35978.72852758  1624.43966992
0.30100001 35245.45928960  1596.61938140
0.30200001 34534.59191751  2197.43618774
0.30300001 33847.70867932  2006.49226550
0.30400001 33184.34266348  2125.45724822
0.30500001 32542.29318017  1792.42959322
0.30600001 31922.47828766  1617.03321422
0.30700001 31324.98460701  2315.54297178
0.30800001 30748.43636807  2137.78513970
0.30900001 30192.79033236  1825.15426200
0.31000001 29658.54217107  1521.92816356
0.31100001 29142.78446494  1500.27061529
0.31200001 28648.11527625  1479.53198349
0.31300001 28172.03999691  1326.90314668
0.31400001 27716.48788165  1440.56452585
0.31500001 27278.93413060  1422.32369291
0.31600002 26859.46891338  1788.03493022
0.31700002 26457.80791746  1514.44499690
0.31800002 26074.28418609  1746.71638033
0.31900002 25708.17361477  1604.19010952
0.32000002 25358.58126164  1831.52361834
0.32100002 25026.22447622  1450.52003932
0.32200002 24710.23678367  1676.09544040
0.32300002 24409.41591936  1542.18697081
0.32400002 24124.61769947  1528.89771910
0.32500002 23854.69158088  1749.74171031
0.32600002 23600.36661749  1736.39705610
0.32700002 23360.30051440  1609.05757562
0.32800002 23135.32607748  1141.72839599
0.32900002 22923.28314130  1928.99436768
0.33000002 22726.38849037  1241.20176618
0.33100002 22540.70555944  1908.29622303
0.33200002 22370.45237705  1676.10622372
0.33300002 22211.81300347  1112.81188417
0.33400002 22066.35268268  1219.71770230
0.33500002 21932.64353577  1437.02687252
0.33600002 21810.89680144  1102.54088553
0.33700002 21700.03272440  1430.24922460
0.33800002 21601.98842344  1208.30727969
0.33900002 21513.70791528  1206.91907120
0.34000002 21437.05986292  1535.10792948
0.34100002 21370.63002644  1315.57604673
0.34200002 21315.35393836  1864.34752051
0.34300002 21268.82890755  1316.96594833
0.34400002 21232.80920289  1538.31709960
0.34500002 21205.90436027  1320.70378611
0.34600002 21189.46986380  1764.65913383
0.34700002 21179.90986162  1547.82788599
0.34800002 21180.60632963  1441.44623203
0.34900002 21189.41841213  1334.93342319
0.35000002 21206.61431488  1339.83395587
0.35100002 21231.87925767  1793.66924464
0.35200002 21264.22894320  1351.12917104
0.35300002 21304.37002577  1583.76694273
0.35400002 21352.34914277  1932.92149770
0.35500002 21407.08468548  1714.70756452
0.35600002 21468.18828566  1839.39445944
0.35700002 21536.18105837  1503.44087090
0.35800002 21611.14145562  1629.26403151
0.35900002 21691.87623159  1288.49750919
0.36000002 21779.34888514  1415.22215759
0.36100002 21871.74948647  1662.69047472
0.36200002 21970.97127255  1315.95138670
0.36300002 22073.71565612  1325.74742510
0.36400002 22182.66315940  1335.95095206
0.36500002 22296.00748393  1468.86104262
0.36600002 22414.77919097  1974.29384466
0.36700002 22537.73618178  1244.08309616
0.36800002 22666.48686859  1380.04911837
0.36900002 22798.59054644  1265.32183526
0.37000002 22933.80227956  1786.77262024
0.37100002 23073.47319013  1544.99983800
0.37200002 23217.25754286  1299.00562106
0.37300002 23363.93705417  1572.86031699
0.37400002 23515.03045073  2380.89694592
0.37500002 23668.41616347  1601.87848183
0.37600002 23825.64160266  2155.74415433
0.37700002 23984.74104618  2039.90232261
0.37800002 24147.42957088  2059.17215420
0.37900002 24312.43497076  1524.38974488
0.38000002 24480.01069387  1538.93594517
0.38100002 24649.33641098  1977.36986056
0.38200002 24821.12802048  1996.36342126
0.38300002 24994.60221474  1583.65807135
0.38400002 25170.59824113  1744.32254075
0.38500002 25347.04152532  1614.35315123
0.38600002 25526.42218248  2074.53242905
0.38700002 25706.18909799  2244.15041457
0.38800002 25887.19856268  1963.67354000
0.38900002 26069.49732510  1525.06566577
0.39000002 26253.59572351  1693.75080835
0.39100002 26437.62923566  2642.70554360
0.39200002 26622.99541918  2040.25335061
0.39300002 26808.74213433  2218.15542928
0.39400002 26995.79106783  1759.45076620
0.39500002 27182.40635391  2744.87952366
0.39600002 27369.32980349  2118.79676712
0.39700002 27556.12170884  3290.20108792
0.39800002 27744.08313760  2324.67683624
0.39900002 27931.16642528  1675.87006492
0.40000002 28118.16557667  2198.70006144
0.40100002 28304.68990157  2218.80474651
0.40200002 28492.18269544  2411.29353576
0.40300002 28678.02462692  2085.46604968
0.40400002 28863.46078670  2279.49192363
0.40500002 29048.39498371  2653.57100749
0.40600002 29232.79504528  1963.12844428
0.40700002 29416.32562143  2880.44674133
0.40800002 29599.31830201  1815.91826387
0.40900002 29780.37291102  2014.64232289
0.41000002 29961.28260332  2585.95842402
0.41100002 30140.77433513  2235.23993060
0.41200002 30318.47397373  2066.05250683
0.41300002 30495.32632360  1893.75985443
0.41400002 30670.72992217  2100.17833093
0.41500002 30845.16806625  2309.68629424
0.41600002 31016.81739891  2328.12242428
0.41700002 31187.79087272  2151.02203842
0.41800002 31357.92341351  2562.09925390
0.41900002 31524.32828640  2184.63605376
0.42000002 31689.74120002  2401.44870193
0.42100002 31853.96813408  2016.35627843
0.42200002 32016.07832456  2843.98837233
0.42300002 32175.65320799  2864.92029739
0.42400002 32333.33882286  2267.37549239
0.42500002 32489.34096793  2076.06898623
0.42600002 32641.92204949  2299.78672697
0.42700002 32793.61241781  3158.02502548
0.42800002 32942.41396341  3603.73554630
0.42900002 33089.67693139  2987.99796850
0.43000002 33234.51542314  2148.61152392
0.43100002 33375.45530419  2811.54848806
0.43200002 33515.08405676  2829.84625643
0.43300002 33651.83358350  2190.73447010
0.43400002 33786.37839236  3747.75420077
0.43500002 33918.12884975  2218.24573189
0.43600002 34048.01088385  2455.03194112
0.43700002 34174.40108230  2469.78408326
0.43800002 34297.42623375  2484.33418697
0.43900002 34418.87869216  2498.81071147
0.44000002 34536.77802906  2513.06877238
0.44100002 34652.64642221  3216.45879334
0.44200002 34765.47331669  2772.19897365
0.44300002 34875.66565771  3251.80722003
0.44400002 34982.50564956  2568.59059905
0.44500002 35085.70984472  3286.12773979
0.44600002 35186.80972138  4010.76869617
0.44700002 35285.12027206  2845.39223359
0.44800002 35379.53155604  3335.93618851
0.44900002 35472.26153063  2873.25332015
0.45000002 35561.69411642  2646.32359309
0.45100002 35646.81398051  2658.53951266
0.45200002 35729.94321548  3156.20468352
0.45300002 35809.42059014  2682.48382354
0.45400002 35886.45171432  3184.02557925
0.45500002 35960.27268856  3197.58759901
0.45600002 36030.55572598  2716.88418328
0.45700002 36097.88432194  3719.88715568
0.45800002 36161.48841234  2987.66231422
0.45900002 36222.22826596  2749.26725569
0.46000002 36280.65375827  4014.09172206
0.46100002 36334.69670546  3525.19244144
0.46200002 36386.34894752  3285.14167043
0.46300002 36434.30357300  3296.57594353
0.46400002 36478.76402502  3307.71208474
0.46500002 36520.93758003  3318.65775519
0.46600002 36559.21252133  3841.45943775
0.46700002 36594.20139857  3339.58697792
0.46800002 36626.70997242  2834.35808555
0.46900002 36655.23123697  3617.87149456
0.47000002 36680.42059188  3628.06057270
0.47100002 36702.81055964  3378.12684402
0.47200002 36721.78365049  2865.95174084
0.47300002 36738.03726130  2873.28203039
0.47400002 36749.85083733  3142.11239552
0.47500002 36759.57261913  3936.95041411
0.47600002 36766.34354998  3945.94800853
0.47700002 36768.93331759  3690.86570136
