# SAXS profile: number of points = 501, q_min = 0, q_max = 0.5, delta_q = 0.001
#    q    intensity    error
0.00000000 1628779.37420969 317.61197797
0.00100000 1628712.31028342 732.92055703
0.00200000 1628511.06361983 879.39600220
0.00300000 1628175.80999379 1172.28662496
0.00400000 1627706.39521526 1464.93581136
0.00500000 1627103.28431797 1610.83231523
0.00600000 1626366.22833152 1878.45307020
0.00700000 1625495.85959128 3120.95218012
0.00800000 1624491.59684882 2193.06374834
0.00900000 1623354.81589085 3652.54849189
0.01000000 1622084.70831425 2944.08387271
0.01100000 1620682.42921770 3208.95134957
0.01200000 1619147.49502279 3473.07152910
0.01300000 1617481.28269824 4755.39518087
0.01400000 1615683.01001508 4725.87301380
0.01500000 1613754.33268678 4647.61268509
0.01600000 1611694.34067119 5342.76697817
0.01700000 1609504.94192399 4780.22989195
0.01800000 1607185.78588203 4580.47969587
0.01900000 1604737.60364206 7221.31954223
0.02000000 1602160.84275036 6056.16825955
0.02100000 1599457.30896599 6333.85123067
0.02200000 1596625.05473777 8262.53503365
0.02300000 1593667.09837409 5737.20181529
0.02400000 1590583.29989205 6561.15641123
0.02500000 1587374.71856239 8047.99019067
0.02600000 1584041.74599301 7056.90630117
0.02700000 1580585.41474016 7966.15085515
0.02800000 1577005.45321966 9603.96365054
0.02900000 1573304.51552025 9911.81890287
0.03000000 1569482.98332525 8027.90582871
0.03100000 1565540.84312616 9017.51567133
0.03200000 1561479.21266994 9275.18695046
0.03300000 1557300.78518297 9530.68124469
0.03400000 1553003.47100680 14675.88347817
0.03500000 1548590.93347677 10034.86971232
0.03600000 1544062.60714676 12854.32179854
0.03700000 1539420.28633972 15794.45286830
0.03800000 1534665.52062354 9875.57308225
0.03900000 1529798.98397173 15603.95035913
0.04000000 1524820.14413195 12190.93761725
0.04100000 1519732.65024099 13404.04259662
0.04200000 1514536.86444274 11722.51587463
0.04300000 1509232.82506226 11953.12452933
0.04400000 1503824.16891271 17256.38313969
0.04500000 1498310.29365521 10338.34150659
0.04600000 1492691.74818381 12628.17277668
0.04700000 1486971.76451833 10706.19720245
0.04800000 1481150.24355754 10886.45479667
0.04900000 1475230.13265615 15489.91711391
0.05000000 1469210.57303354 14611.29982921
0.05100000 1463095.41832851 12553.35927404
0.05200000 1456882.31631985 11582.21495449
0.05300000 1450577.09356231 21149.41501008
0.05400000 1444177.71597847 15488.80672617
0.05500000 1437688.32210550 12076.58246905
0.05600000 1431107.31120523 12235.96808179
0.05700000 1424439.63489370 18588.93810307
0.05800000 1417683.87165002 18819.75427489
0.05900000 1410842.15845120 12697.58001911
0.06000000 1403916.85120759 15415.00774643
0.06100000 1396909.71808269 14290.38708380
0.06200000 1389820.99637832 19700.71354454
0.06300000 1382653.81837419 19910.21591550
0.06400000 1375406.42551170 18774.29858625
0.06500000 1368085.38588512 17607.25973997
0.06600000 1360687.61009428 20512.36668191
0.06700000 1353216.83681715 16563.37485779
0.06800000 1345675.43282841 16713.28965806
0.06900000 1338064.34907299 21074.51448459
0.07000000 1330383.33636999 17002.29983500
0.07100000 1322636.84395830 22855.16573408
0.07200000 1314823.92580506 17276.78719444
0.07300000 1306949.29192792 23211.42051222
0.07400000 1299011.92883173 16075.27337265
0.07500000 1291014.70692572 19132.83885344
0.07600000 1282957.35573081 16299.97396871
0.07700000 1274845.39372736 16407.26098658
0.07800000 1266677.05929974 15010.12385662
0.07900000 1258454.54804859 19631.89187037
0.08000000 1250181.35758061 21265.58589004
0.08100000 1241857.54834831 16802.33341749
0.08200000 1233484.76246652 18428.26321600
0.08300000 1225064.93038712 18522.98261677
0.08400000 1216599.73326563 18613.97679268
0.08500000 1208092.28902866 18701.26951210
0.08600000 1199541.84348849 21915.63050951
0.08700000 1190952.29644702 23580.85657695
0.08800000 1182321.76185348 17362.39588822
0.08900000 1173656.76174180 19013.24043326
0.09000000 1164955.77258701 19081.97645136
0.09100000 1156221.49267234 23933.78602275
0.09200000 1147454.54442195 16006.99164680
0.09300000 1138658.69794157 19266.10607453
0.09400000 1129831.95688308 24150.15921337
0.09500000 1120978.86201473 17756.30600891
0.09600000 1112100.45401945 21035.38107660
0.09700000 1103199.18129099 19460.43447286
0.09800000 1094276.00951318 16249.99950531
0.09900000 1085333.34641709 17908.00105796
0.10000000 1076370.32272973 21199.11450310
0.10100000 1067389.49359300 16331.06002005
0.10200000 1058393.74245662 19622.62090812
0.10300000 1049383.53654738 21281.49912228
0.10400000 1040361.52748525 19662.83379451
0.10500000 1031330.47213915 19677.78633424
0.10600001 1022286.25601586 19689.23421731
0.10700001 1013237.41828442 26263.11511781
0.10800001 1004180.41633891 27911.19598569
0.10900001 995119.47098141 18061.41924839
0.11000001 986054.70259305 21343.15504224
0.11100001 976988.35344703 26261.44817687
0.11200001 967922.95524152 22968.81280919
0.11300001 958857.37710313 18036.10811246
0.11400001 949795.51198976 22937.56269455
0.11500001 940737.75195989 18005.72142037
0.11600001 931685.48285885 17986.18909359
0.11700001 922641.22347542 24496.12563692
0.11800001 913603.42349672 17938.60406524
0.11900001 904576.22958889 29308.27121915
0.12000001 895560.05016857 16254.41567622
0.12100001 886557.47005234 17846.40271286
0.12200001 877567.94910968 27524.92002056
0.12300001 868594.31536724 22618.19703781
0.12400001 859636.38914267 17730.00136146
0.12500001 850696.75779348 22509.43727187
0.12600001 841777.45756682 16035.86132231
0.12700001 832878.54571439 17590.39571446
0.12800001 823999.98266962 20727.72054094
0.12900001 815145.34256406 17484.86842210
0.13000001 806314.06527438 19012.88655534
0.13100001 797507.86225939 18948.78770048
0.13200001 788729.12993741 20455.69094921
0.13300001 779979.10517534 18813.09690373
0.13400001 771256.03728782 17179.72904054
0.13500001 762564.44320771 17111.94691238
0.13600001 753902.48795146 20140.50591526
0.13700001 745273.43353565 15427.16080163
0.13800001 736676.58861262 16895.67835656
0.13900001 728116.26765055 18348.53081008
0.14000001 719589.75693578 24350.91852311
0.14100001 711100.00858639 16661.07398696
0.14200001 702646.69850682 22607.65859075
0.14300001 694233.97262252 22493.18177392
0.14400001 685856.78284420 17900.86287662
0.14500001 677523.24829792 22256.63975648
0.14600001 669228.31904336 16232.13364414
0.14700001 660978.78644354 22010.59462695
0.14800001 652769.39204437 21884.09490075
0.14900001 644603.39100077 18854.65007635
0.15000001 636482.59851557 18741.23099756
0.15100001 628407.46068706 21491.53616957
0.15200001 620378.93155171 18509.00629623
0.15300001 612397.53957993 14146.38383185
0.15400001 604461.86553585 21080.60855538
0.15500001 596576.51201259 16751.86924788
0.15600001 588737.93670801 16637.73487658
0.15700001 580953.28855178 16522.31230621
0.15800001 573214.37534569 15038.27984698
0.15900001 565529.74728149 13572.71457540
0.16000001 557894.22201897 13473.14609772
0.16100001 550314.24978057 17384.42797119
0.16200001 542785.17011397 15925.31764292
0.16300001 535310.56054102 22386.68869865
0.16400001 527889.87129603 14371.80242452
0.16500001 520523.80165302 14257.14760037
0.16600001 513213.19917495 19283.98686945
0.16700001 505957.11350347 15300.14383474
0.16800001 498756.34218492 18965.21080705
0.16900001 491614.18832117 13789.77863354
0.17000001 484528.25513947 16156.59543053
0.17100001 477499.75930832 16015.34268347
0.17200001 470529.06865820 15873.29888077
0.17300001 463616.76185716 13310.43786150
0.17400001 456763.43611138 11990.04076417
0.17500001 449968.49389633 11879.16879989
0.17600001 443230.75177974 14121.33241864
0.17700001 436555.45222076 11656.03112482
0.17800001 429938.32413515 17315.76682240
0.17900001 423381.47033302 11431.30023893
0.18000001 416885.52717389 12450.28685714
0.18100001 410451.09504479 14566.91005123
0.18200001 404074.65651476 12201.03482981
0.18300001 397761.70181178 10978.22348861
0.18400001 391508.32461549 13037.22782558
0.18500001 385317.19737761 13975.45540912
0.18600001 379187.44375303 13827.07078969
0.18700001 373118.47394932 14730.71804747
0.18800001 367111.41224546 11448.36993177
0.18900001 361167.68454675 13381.26334469
0.19000001 355281.82393208 17304.00205220
0.19100001 349463.10024251 16103.26042005
0.19200001 343701.95514677 10945.18927882
0.19300001 338005.68887906 10819.56261227
0.19400001 332370.70991912 16527.13433170
0.19500001 326798.33292370 12490.23287457
0.19600001 321286.34031626 11392.81416600
0.19700001 315837.49007997 13132.52345814
0.19800001 310450.29896988 14827.10697951
0.19900001 305126.12885471 10069.16272807
0.20000001 299861.80262167 9040.83377632
0.20100001 294661.17253954 12499.52752988
0.20200001 289520.80071732 9697.49967836
0.20300001 284442.89987356 10444.74377702
0.20400001 279426.31934470 9451.59569857
0.20500001 274470.33713553 11025.47396387
0.20600001 269576.35800868 9207.38094300
0.20700001 264742.89729723 10737.97242195
0.20800001 259970.59871524 13040.12584797
0.20900001 255261.05976239 8844.79613887
0.21000001 250609.37157642 8724.96568388
0.21100001 246018.37566496 8605.72318758
0.21200001 241487.47697006 10030.18283012
0.21300001 237016.43651062 8369.05076884
0.21400001 232605.86977808 8251.69362049
0.21500001 228255.27674625 9614.11271108
0.21600001 223962.46719438 8018.97651702
0.21700001 219729.26931665 8622.17693564
0.21800001 215554.75280117 8497.16875717
0.21900001 211437.34585976 8372.91929193
0.22000001 207377.99930016 6874.58100185
0.22100001 203378.53205891 7449.75598157
0.22200001 199435.59902041 8005.34532321
0.22300001 195549.43267195 6570.46124846
0.22400001 191718.79409667 8411.66248875
0.22500001 187947.86258119 7008.57612707
0.22600001 184230.57031363 7527.66145898
0.22700001 180570.65468581 8645.72335521
0.22800001 176965.33307097 6078.75947845
0.22900001 173414.87568562 6581.09484350
0.23000001 169919.08528758 6476.46624202
0.23100001 166479.51252323 6952.18477176
0.23200001 163091.88909650 5700.06179350
0.23300001 159758.96664707 7850.55599232
0.23400001 156479.21945566 5515.89274669
0.23500001 153251.23267557 5967.60328263
0.23600001 150076.46755604 6402.26240875
0.23700001 146953.82049618 5770.87680384
0.23800001 143882.21143044 6189.81302851
0.23900001 140862.42602775 6592.36184991
0.24000001 137892.73889543 5483.30502154
0.24100001 134974.97081949 6369.46917426
0.24200001 132106.26683706 4815.27365398
0.24300001 129287.30890762 6624.68202179
0.24400001 126516.62375328 4649.48614287
0.24500001 123795.12728166 5024.84445406
0.24600001 121122.18562108 4487.57718955
0.24700001 118497.30971413 5730.53016886
0.24800001 115918.70598968 4329.56387353
0.24900001 113387.13719021 5527.62319952
0.25000001 110902.55053808 4593.02934782
0.25100001 108463.08178591 5329.87609111
0.25200001 106070.36785708 6038.05597592
0.25300001 103722.84791179 4742.20883088
0.25400001 101418.88982504 3879.27271934
0.25500001 99159.44104476  4188.49498790
0.25600001 96943.98494928  4858.34803559
0.25700001 94771.47116098  4767.95293970
0.25800001 92641.63859039  5398.69174429
0.25900001 90554.57257349  5650.60559594
0.26000001 88509.84911445  5544.25721086
0.26100001 86504.40358782  4419.51018842
0.26200001 84542.21256853  3668.70948800
0.26300001 82618.99160820  4580.39711149
0.26400001 80735.89772459  3530.17729505
0.26500001 78893.17183197  4092.18901656
0.26600001 77088.20407766  3087.38271940
0.26700001 75323.31689879  4239.19647566
0.26800001 73596.00617925  3266.55888884
0.26900001 71905.95056139  2912.19113555
0.27000001 70253.81908013  4569.30860920
0.27100001 68637.85581279  3080.46711465
0.27200001 67058.85138036  3295.27211277
0.27300001 65514.94488853  2961.93079858
0.27400001 64005.53745036  4752.41138060
0.27500001 62532.98133483  3106.63865974
0.27600001 61092.81530120  3553.76923426
0.27700001 59688.59268253  2737.91587592
0.27800001 58316.46722814  3416.76197660
0.27900001 56978.27589134  2632.39647077
0.28000001 55671.96354346  2815.88804930
0.28100001 54397.91014526  2531.13487885
0.28200001 53156.00057656  2707.76679753
0.28300001 51945.17493513  3319.29683546
0.28400001 50765.43675131  3038.31153337
0.28500001 49616.14078257  2767.09230241
0.28600001 48496.04482391  2296.53031134
0.28700001 47405.98196790  2457.52622154
0.28800001 46344.16625991  2009.01970246
0.28900001 45312.39631712  2168.19826640
0.29000001 44307.62999685  2127.43095500
0.29100001 43331.91510504  2087.73176858
0.29200001 42382.49329922  1862.71066867
0.29300001 41460.25249422  2011.23694370
0.29400001 40564.39980821  2333.46720943
0.29500001 39695.85269528  1938.74553741
0.29600001 38851.35651254  2942.40762476
0.29700001 38032.29518673  2040.05241039
0.29800001 37238.55301194  2171.19393614
0.29900001 36469.33349506  2954.01615294
0.30000001 35723.82786673  2096.81017590
0.30100001 35002.60791910  1902.74185656
0.30200001 34303.50727325  2026.82282319
0.30300001 33627.96878446  1533.43544917
0.30400001 32975.36760687  1659.48545338
0.30500001 32343.75660945  1633.03634852
0.30600001 31734.03458076  2192.02854244
0.30700001 31146.19791519  1582.84985299
0.30800001 30578.75292286  1417.32526508
0.30900001 30031.89680323  1815.42824771
0.31000001 29506.17090355  2202.34070051
0.31100001 28998.32045324  1628.54575376
0.31200001 28511.35774571  1338.60830954
0.31300001 28042.47116122  1981.20068134
0.31400001 27593.70751241  2216.46466088
0.31500001 27162.80847632  2317.53092893
0.31600002 26749.44481619  1653.51700960
0.31700002 26353.56102308  1508.47790438
0.31800002 25975.46916093  1242.92625820
0.31900002 25614.42398208  2336.03557777
0.32000002 25269.54693117  1703.42023929
0.32100002 24941.59000452  1325.14673969
0.32200002 24629.75741220  1670.63652437
0.32300002 24332.72393529  1300.82748318
0.32400002 24051.33266677  1289.75277533
0.32500002 23784.61529865  1395.68129181
0.32600002 23533.09902483  1616.01798656
0.32700002 23295.56600033  1719.21285223
0.32800002 23072.87236828  1594.10482741
0.32900002 22862.73428098  1358.04648060
0.33000002 22667.44974107  1463.07061282
0.33100002 22483.27237174  1567.53382399
0.33200002 22314.05308062  1337.50440499
0.33300002 22156.30406251  1665.04632915
0.33400002 22011.41648658  1106.07373083
0.33500002 21878.08807446  1102.65569117
0.33600002 21756.43367651  1649.68166164
0.33700002 21645.41345142  1536.39151954
0.33800002 21546.90013830  1205.22591631
0.33900002 21457.99647015  1094.35787180
0.34000002 21380.54659299  1312.33801203
0.34100002 21313.04519788  1093.35927043
0.34200002 21256.47261981  1421.73923851
0.34300002 21208.48922385  1094.35809578
0.34400002 21170.67671100  1643.37385752
0.34500002 21141.85010974  1426.44069446
0.34600002 21123.31167303  1319.36210958
0.34700002 21111.48215086  1212.22136251
0.34800002 21109.72257525  1547.13164081
0.34900002 21115.93507379  1330.30397265
0.35000002 21130.21782542  1223.75662332
0.35100002 21152.49104513  1228.53673809
0.35200002 21181.71615884  1121.57192373
0.35300002 21218.51255917  1464.71399133
0.35400002 21263.04287024  1811.61133835
0.35500002 21314.20574658  1251.99650485
0.35600002 21371.56621398  1258.89216746
0.35700002 21435.62337458  1611.53024163
0.35800002 21506.57709886  1389.75507795
0.35900002 21583.15436390  1398.58846903
0.36000002 21666.40864158  1525.20690857
0.36100002 21754.37474089  1417.51512526
0.36200002 21849.09526323  1546.58828146
0.36300002 21947.21453264  1437.98156429
0.36400002 22051.38940029  1328.04498954
0.36500002 22160.01450939  1338.24333961
0.36600002 22273.88541523  1594.03068525
0.36700002 22391.79659716  1606.83539993
0.36800002 22515.45594562  1495.47665475
0.36900002 22642.48887727  1507.98983066
0.37000002 22772.43009783  1520.74295397
0.37100002 22906.89574380  1661.66629597
0.37200002 23045.28105480  1289.38353609
0.37300002 23186.55237131  1951.14847447
0.37400002 23332.18954243  1443.67929633
0.37500002 23480.04349485  2118.83922535
0.37600002 23631.66703477  1603.64500095
0.37700002 23785.19703791  1753.20695672
0.37800002 23942.28197967  1497.23067453
0.37900002 24101.51905543  1511.16531636
0.38000002 24263.42327303  1525.32017632
0.38100002 24427.02677160  1819.56931041
0.38200002 24592.98177580  2684.44705291
0.38300002 24760.76344523  1426.22004201
0.38400002 24930.90344150  2015.66363874
0.38500002 25101.47663757  1744.05067940
0.38600002 25275.07047864  1613.93970187
0.38700002 25449.05905093  1481.13530693
0.38800002 25624.25481256  2093.24547481
0.38900002 25800.71864162  1811.21053445
0.39000002 25979.02855904  2285.50514576
0.39100002 26157.25538061  1845.65602710
0.39200002 26336.82631211  2173.57837852
0.39300002 26516.82914328  2037.28807960
0.39400002 26698.12493181  1740.05037487
0.39500002 26879.04799035  1756.27707890
0.39600002 27060.29854498  1772.58494017
0.39700002 27241.45065712  2602.10349005
0.39800002 27423.68895809  1969.56943429
0.39900002 27605.22304141  2815.73288363
0.40000002 27786.79439752  1671.37576220
0.40100002 27967.73271555  2192.39067145
0.40200002 28149.76405872  2382.31464516
0.40300002 28330.25079334  1888.49460736
0.40400002 28510.25172913  2424.79702445
0.40500002 28689.93326477  2271.38212419
0.40600002 28869.09481285  2114.94998620
0.40700002 29047.41237019  1955.47189341
0.40800002 29225.34711221  1972.27264332
0.40900002 29401.24748351  2169.81216709
0.41000002 29577.18526241  2370.46362517
0.41100002 29751.76679802  2757.98891286
0.41200002 29924.69423010  2409.98536401
0.41300002 30096.77046131  2055.91048763
0.41400002 30267.42707982  2260.97690999
0.41500002 30437.30901184  2659.00344127
0.41600002 30604.35576811  2488.59330720
0.41700002 30770.92891403  2508.13853463
0.41800002 30936.69542319  1944.37139948
0.41900002 31098.79481724  2351.06899959
0.42000002 31259.97937125  1974.06779084
0.42100002 31420.12567606  2784.45166935
0.42200002 31578.24486154  2404.36767769
0.42300002 31733.85519122  3229.23725728
0.42400002 31887.76595267  2439.41421097
0.42500002 32040.03677226  2661.56598079
0.42600002 32189.03022366  2474.04898023
0.42700002 32337.17290667  2906.46523858
0.42800002 32482.52469291  2090.25056304
0.42900002 32626.51287290  2314.85119803
0.43000002 32768.09839337  2542.14919382
0.43100002 32905.89951486  2345.53262857
0.43200002 33042.57628165  2360.72697431
0.43300002 33176.40096850  2375.76218594
0.43400002 33308.17271029  2390.69420957
0.43500002 33437.28723424  2405.47855762
0.43600002 33564.59218813  2860.20685885
0.43700002 33688.45785318  2213.33178584
0.43800002 33809.19203841  2448.96894136
0.43900002 33928.39462807  2911.05639704
0.44000002 34044.12966160  2702.42314060
0.44100002 34158.06623258  3849.95582752
0.44200002 34268.99398091  2504.89223374
0.44300002 34377.40946662  3434.30336847
0.44400002 34482.60764677  2992.22842035
0.44500002 34584.27912059  3007.79489766
0.44600002 34683.87122197  2325.55367564
0.44700002 34780.87564827  2571.00244976
0.44800002 34874.19911532  3288.28839042
0.44900002 34965.79857754  3304.26812217
0.45000002 35054.28557758  2371.42253171
0.45100002 35138.54828581  3097.11179269
0.45200002 35220.92013203  2393.26163639
0.45300002 35299.87958541  4086.66725328
0.45400002 35376.40254553  2414.43958816
0.45500002 35449.88762105  2424.77242820
0.45600002 35519.86880482  2678.37583417
0.45700002 35587.10824640  4645.18545956
0.45800002 35650.69622745  2700.00560675
0.45900002 35711.54409757  3203.32565737
0.46000002 35770.24987812  3462.91805482
0.46100002 35824.70992505  2482.65251547
0.46200002 35876.79094300  2740.80757399
0.46300002 35925.25406870  3000.47736203
0.46400002 35970.43044389  2759.83140661
0.46500002 36013.42081875  3020.80588145
0.46600002 36052.61858347  3283.13186691
0.46700002 36088.67962022  3293.45305824
0.46800002 36122.34159767  3049.44822221
0.46900002 36152.12478874  2548.72491841
0.47000002 36178.73824284  2556.02797800
0.47100002 36202.62453025  3588.40431352
0.47200002 36223.22823762  2570.03816527
0.47300002 36241.12389235  3092.09283705
0.47400002 36254.80318521  2841.47033432
0.47500002 36266.45040982  3107.30961839
0.47600002 36275.25281526  2595.49446195
0.47700002 36280.05292974  2861.40791019
