# SAXS profile: number of points = 501, q_min = 0, q_max = 0.5, delta_q = 0.001
#    q    intensity    error
0.00000000 1664650.74656091 349.57665678
0.00100000 1664582.11847178 549.31211214
0.00200000 1664376.18947129 823.86623988
0.00300000 1664033.11387803 1098.26189428
0.00400000 1663552.78806692 1497.19756615
0.00500000 1662935.63622223 1646.30634502
0.00600000 1662181.41594991 2792.46489248
0.00700000 1661290.73683544 1993.54896705
0.00800000 1660263.13486880 2241.35532670
0.00900000 1659099.91505175 2488.64997896
0.01000000 1657800.20731100 4103.05569026
0.01100000 1656365.30841185 3279.60345345
0.01200000 1654794.65552753 4194.90463568
0.01300000 1653089.58562438 4512.93476780
0.01400000 1651249.51685830 3715.31157763
0.01500000 1649276.02394362 4749.91516047
0.01600000 1647168.04679276 5040.33444851
0.01700000 1644927.69543700 6217.82696768
0.01800000 1642554.62584158 5617.53707315
0.01900000 1640049.39905198 7380.22262875
0.02000000 1637412.82125312 5157.85062027
0.02100000 1634646.29491272 5933.76631956
0.02200000 1631748.21981866 5629.53161414
0.02300000 1628721.57898654 6449.73774637
0.02400000 1625565.93277507 6705.45977845
0.02500000 1622282.85788182 7592.28412163
0.02600000 1618872.51701420 7867.72079255
0.02700000 1615335.77867224 7462.85163927
0.02800000 1611672.66977788 7711.85407855
0.02900000 1607885.86677834 7235.48673271
0.03000000 1603975.33357238 8950.18277273
0.03100000 1599941.68950476 9215.66455559
0.03200000 1595785.77831514 11058.79595307
0.03300000 1591510.29630756 12175.05432803
0.03400000 1587113.41984433 12498.51875796
0.03500000 1582598.34369351 8546.03145058
0.03600000 1577964.99749401 11385.01798306
0.03700000 1573215.03098508 11657.52391873
0.03800000 1568349.80704870 12844.78551418
0.03900000 1563370.54710634 10318.24608874
0.04000000 1558276.25596869 11500.07930195
0.04100000 1553070.86062643 11741.21625074
0.04200000 1547754.67050937 10981.31989672
0.04300000 1542327.61749390 11197.29902276
0.04400000 1536793.67044701 10373.35775728
0.04500000 1531152.27835366 13734.43657500
0.04600000 1525403.62627497 13980.32488471
0.04700000 1519551.10076175 13128.92212118
0.04800000 1513594.98621092 14462.40076615
0.04900000 1507537.91624398 14698.49536756
0.05000000 1501379.25113677 12634.10698664
0.05100000 1495122.53586452 13994.34758761
0.05200000 1488765.93430179 13019.25870218
0.05300000 1482314.93781798 15608.77702287
0.05400000 1475767.79348325 13392.59335041
0.05500000 1469128.51984609 16042.88418511
0.05600000 1462395.62412147 15004.17980364
0.05700000 1455573.97276382 16462.54240041
0.05800000 1448662.41102562 14102.72922982
0.05900000 1441662.79632431 15569.95892751
0.06000000 1434577.90038467 14439.02724195
0.06100000 1427409.04710146 18584.86666176
0.06200000 1420156.99913203 18788.67797677
0.06300000 1412824.96435090 13563.12029192
0.06400000 1405410.78166046 17813.58249063
0.06500000 1397920.77926058 23527.00781550
0.06600000 1390352.99405578 16767.65789285
0.06700000 1382710.43599617 15514.01181792
0.06800000 1374995.61280225 15654.32578452
0.06900000 1367209.90868697 17226.84565600
0.07000000 1359352.28520525 21715.65377306
0.07100000 1351428.02602797 18974.05037413
0.07200000 1343435.49102983 19123.80511070
0.07300000 1335379.96506307 20751.80562942
0.07400000 1327260.88314385 14931.68563513
0.07500000 1319080.07036431 19548.76755910
0.07600000 1310838.16470545 22710.27226819
0.07700000 1302540.31205336 22859.58354839
0.07800000 1294185.07008384 15336.09379970
0.07900000 1285773.88160115 16972.21603320
0.08000000 1277311.67757350 27934.80769898
0.08100000 1268797.80136989 23409.32053360
0.08200000 1260233.30876128 15689.90543033
0.08300000 1251621.31216643 17347.47220078
0.08400000 1242962.56708486 17432.55082163
0.08500000 1234260.97843002 23882.95105381
0.08600000 1225515.60951652 17592.27740059
0.08700000 1216730.04501909 20879.08855296
0.08800000 1207903.09141570 25800.81124434
0.08900000 1199040.43494990 21043.16062176
0.09000000 1190141.17436913 24368.14168991
0.09100000 1181207.97294914 21190.87203028
0.09200000 1172241.64268401 19623.32602057
0.09300000 1163245.76463545 19682.11926254
0.09400000 1154218.44924632 18092.37504223
0.09500000 1145164.18155815 28033.62048220
0.09600000 1136084.00185123 19836.02760477
0.09700000 1126981.09187217 21536.60967817
0.09800000 1117855.64344605 19920.18850281
0.09900000 1108710.00983512 18293.71602250
0.10000000 1099543.83290082 18323.89883701
0.10100000 1090360.02047093 21687.26182716
0.10200000 1081160.59495330 23385.50476881
0.10300000 1071946.55527395 20066.84045869
0.10400000 1062720.68047943 26780.56240798
0.10500000 1053485.15200606 18425.45617549
0.10600001 1044237.13922797 20112.00824787
0.10700001 1034983.86482439 18443.41333907
0.10800001 1025722.35671621 18447.61745372
0.10900001 1016457.22793845 16771.54505035
0.11000001 1007188.34243932 23477.56136734
0.11100001 997918.05847075 21794.53142294
0.11200001 988648.77268054 20109.11698300
0.11300001 979378.84296295 18422.11690346
0.11400001 970113.40906639 23428.23993206
0.11500001 960852.26647992 25078.24533601
0.11600001 951596.73466998 23380.73287188
0.11700001 942349.63719961 20015.50723675
0.11800001 933109.09111418 18321.59786694
0.11900001 923879.93564935 18292.82358748
0.12000001 914661.80768029 24901.66888709
0.12100001 905457.97515343 23197.83441624
0.12200001 896267.41291598 18189.74800207
0.12300001 887093.15353866 19799.92011984
0.12400001 877935.39997788 21399.67638276
0.12500001 868796.00170614 21346.31876777
0.12600001 859678.06175862 19652.24141788
0.12700001 850580.50099567 16331.14638874
0.12800001 841504.29479902 26052.97419483
0.12900001 832452.30876997 17856.10286471
0.13000001 823425.02263741 21034.39319473
0.13100001 814422.78499943 20963.24347404
0.13200001 805449.03997648 17675.58001552
0.13300001 796504.66231938 17610.71891410
0.13400001 787588.17219893 17543.52736283
0.13500001 778703.61605947 20651.22087157
0.13600001 769849.74646097 18984.49564286
0.13700001 761030.14751122 18903.98975556
0.13800001 752242.86310041 18821.11732230
0.13900001 743493.23054880 15613.35857782
0.14000001 734778.57240311 18648.68104707
0.14100001 726101.29197899 20105.74572314
0.14200001 717461.30464476 24623.27313677
0.14300001 708863.37239215 18373.73947905
0.14400001 700301.62195251 21324.18539431
0.14500001 691784.72682775 18180.10347863
0.14600001 683307.47455443 15066.93052470
0.14700001 674876.08804191 17978.69983361
0.14800001 666486.26683331 16385.56564315
0.14900001 658141.10945131 16288.99322745
0.15000001 649842.45950990 20606.50536333
0.15100001 641590.14818355 19016.73288946
0.15200001 633385.90379660 17443.44861366
0.15300001 625229.48483644 15887.08195939
0.15400001 617120.43336314 15782.85582807
0.15500001 609062.67518526 22803.30763509
0.15600001 601053.20866947 19816.72522508
0.15700001 593098.45111858 15462.07735042
0.15800001 585190.73247544 15352.47959111
0.15900001 577338.48350547 22169.79881304
0.16000001 569536.68600195 16505.17393942
0.16100001 561791.95036876 20477.31755756
0.16200001 554098.97616317 16257.26472807
0.16300001 546462.26914070 17475.86419212
0.16400001 538880.25467315 14671.01562609
0.16500001 531354.59439650 13230.73002511
0.16600001 523885.04553805 15747.98521238
0.16700001 516471.89135420 13015.09227663
0.16800001 509115.39303495 14196.68340510
0.16900001 501818.81683059 16635.29456342
0.17000001 494579.53864877 19028.94864805
0.17100001 487399.13734258 18862.34750586
0.17200001 480278.11937368 13709.53956493
0.17300001 473216.18336006 14821.13156276
0.17400001 466215.29087120 14685.78235599
0.17500001 459274.09331420 13337.32029973
0.17600001 452391.49575813 12010.99477965
0.17700001 445572.43861332 13086.46314015
0.17800001 438813.40789144 20029.63894925
0.17900001 432115.52441946 18667.39153665
0.18000001 425480.29146378 13862.14855067
0.18100001 418907.84456365 12579.80316647
0.18200001 412394.59176600 14716.30170234
0.18300001 405946.43144723 11204.12203722
0.18400001 399559.30296696 13305.32541735
0.18500001 393235.84078232 12068.40852375
0.18600001 386974.97836232 10854.64865587
0.18700001 380776.56646504 13959.26958611
0.18800001 374640.91493960 13807.39157244
0.18900001 368570.53815432 13655.53908381
0.19000001 362559.26808877 15580.98528230
0.19100001 356616.35775601 17459.93770072
0.19200001 350733.13027665 13199.84198167
0.19300001 344915.73818598 12044.45814659
0.19400001 339160.78361679 13888.63474540
0.19500001 333469.67605141 13725.61251488
0.19600001 327841.04052646 10656.47352590
0.19700001 322276.50172615 12443.09631968
0.19800001 316775.28607792 9455.74273629
0.19900001 311338.19989243 15878.24894492
0.20000001 305962.43739039 11992.19830028
0.20100001 300651.78249517 9109.74944015
0.20200001 295402.56312944 9894.50931967
0.20300001 290217.44929848 9768.71980510
0.20400001 285095.02474423 8766.67242525
0.20500001 280034.52985946 10383.68085799
0.20600001 275037.50562865 11101.88943946
0.20700001 270102.31199463 11798.06954561
0.20800001 265229.14518200 9146.42750395
0.20900001 260420.50308516 10664.22010545
0.21000001 255671.01489197 8901.18680424
0.21100001 250983.67871546 8779.40949650
0.21200001 246357.57614188 9445.34991580
0.21300001 241792.79364041 10866.16865990
0.21400001 237289.46972266 11478.87864052
0.21500001 232847.80054457 8298.69600375
0.21600001 228464.94697245 8180.18781310
0.21700001 224143.05289121 9528.32162890
0.21800001 219881.16876897 7945.40640913
0.21900001 215677.83215509 8540.84255717
0.22000001 211533.61187410 8414.80747822
0.22100001 207450.61793654 7598.91649432
0.22200001 203425.42412941 8165.49691066
0.22300001 199458.34734722 14073.78165430
0.22400001 195547.73673630 8579.65735501
0.22500001 191697.99428810 6498.56231367
0.22600001 187903.55184660 7677.73949152
0.22700001 184167.41836999 8188.08380794
0.22800001 180487.16316396 7439.68121744
0.22900001 176862.79409642 6711.94335337
0.23000001 173294.75636632 6004.66359206
0.23100001 169783.61805448 6499.31720650
0.23200001 166325.71257920 9300.93428730
0.23300001 162923.77354444 6862.34966624
0.23400001 159576.20415983 6750.07375521
0.23500001 156281.26711778 8851.77138821
0.23600001 153041.04013226 5440.60923403
0.23700001 149853.60808895 6954.70628035
0.23800001 146718.82875302 5785.85728554
0.23900001 143636.58885533 6205.10093205
0.24000001 140605.86869126 5591.19263297
0.24100001 137627.97761775 6994.25415337
0.24200001 134700.22620950 7855.71756413
0.24300001 131823.14146544 6272.14536762
0.24400001 128995.76723464 5688.71360414
0.24500001 126218.42148716 6054.69796515
0.24600001 123490.37975260 5032.85066490
0.24700001 120811.82275249 4494.20001900
0.24800001 118180.63911410 5738.26120364
0.24900001 115597.20982945 5635.36424578
0.25000001 113061.71067307 7662.19249480
0.25100001 110572.60519637 5015.57360899
0.25200001 108131.17114388 5334.65158076
0.25300001 105735.86789320 6042.80513598
0.25400001 103385.13934215 5536.27447370
0.25500001 101079.78489193 4657.75670819
0.25600001 98819.29105045  5333.27739032
0.25700001 96602.95583237  4486.24148111
0.25800001 94430.11714034  5502.91533672
0.25900001 92300.93716053  4319.68406350
0.26000001 90214.99972563  4944.68436892
0.26100001 88169.04594727  4504.55677058
0.26200001 86167.46585527  3399.30668883
0.26300001 84205.81632878  4001.46058128
0.26400001 82284.91015587  4252.07293351
0.26500001 80405.24034792  4491.43693836
0.26600001 78564.52167989  3461.16016639
0.26700001 76764.43489407  4937.48868603
0.26800001 75003.03619339  3934.28444970
0.26900001 73279.44728899  3264.59953121
0.27000001 71594.50689954  3201.34852751
0.27100001 69946.99365936  3995.37246690
0.27200001 68336.81037760  3078.23176913
0.27300001 66762.71219324  3292.73712120
0.27400001 65223.78467632  2959.52936975
0.27500001 63722.74014475  3165.74588021
0.27600001 62254.56459388  2845.34500942
0.27700001 60823.11793060  3043.58896529
0.27800001 59424.64419060  3232.99792020
0.27900001 58060.82362522  2926.26564920
0.28000001 56729.76372672  2630.27561968
0.28100001 55431.47818631  3517.12745738
0.28200001 54166.02452266  2299.34784981
0.28300001 52932.52719033  2931.40349454
0.28400001 51730.67371413  2432.63504655
0.28500001 50559.94538939  2602.82611184
0.28600001 49419.12998948  2340.24301142
0.28700001 48309.00533461  2921.72878093
0.28800001 47227.87662224  2456.79425818
0.28900001 46177.51947253  2410.46663056
0.29000001 45154.61292010  2562.29863144
0.29100001 44161.48455734  1934.27311517
0.29200001 43195.45465832  2847.66048314
0.29300001 42257.09713611  2049.89187911
0.29400001 41345.64308849  2744.31718990
0.29500001 40462.09672757  2335.47233367
0.29600001 39603.44699696  2117.20037668
0.29700001 38770.61214335  2079.65573382
0.29800001 37963.75018047  2043.20913144
0.29900001 37181.85830507  2509.77555440
0.30000001 36424.34806809  1973.47127175
0.30100001 35691.82492121  2101.89166911
0.30200001 34981.94474185  1589.92946379
0.30300001 34296.03085558  1720.28898916
0.30400001 33633.65020499  1846.48748367
0.30500001 32992.80704116  1817.24389786
0.30600001 32374.52320484  1639.93155058
0.30700001 31778.30138110  2349.05214930
0.30800001 31203.30147925  2024.78232885
0.30900001 30649.33925158  1710.23321121
0.31000001 30116.73438821  1545.44029830
0.31100001 29602.85702654  1801.03790677
0.31200001 29110.08495742  1366.71855346
0.31300001 28635.96647001  1348.75408460
0.31400001 28182.68883701  1464.79532166
0.31500001 27747.19737263  1578.26066128
0.31600002 27330.17437263  1689.41480883
0.31700002 26930.81337909  1284.59985901
0.31800002 26549.62957621  1651.51978599
0.31900002 26186.18596055  1885.40547843
0.32000002 25839.32649654  1617.41271863
0.32100002 25509.70127131  1601.75421867
0.32200002 25196.46672740  1586.99953197
0.32300002 24898.58076472  1331.07819071
0.32400002 24616.71630168  1320.07147418
0.32500002 24349.80109591  1547.91692896
0.32600002 24098.52678834  1182.03279494
0.32700002 23861.74719115  1291.39781914
0.32800002 23640.10840397  1283.30334548
0.32900002 23431.31088391  1507.80492678
0.33000002 23237.80616349  1384.50855678
0.33100002 23055.57917450  1262.98468699
0.33200002 22888.93934413  1371.96308926
0.33300002 22733.79078076  1366.75556646
0.33400002 22592.12211500  1248.77960904
0.33500002 22462.04357388  1924.54798455
0.33600002 22344.15805519  1468.34641613
0.33700002 22237.07168470  1465.64546415
0.33800002 22142.87077886  1576.35104540
0.33900002 22058.58979092  1124.98813261
0.34000002 21985.89316557  2024.24127962
0.34100002 21923.55470820  1687.01761469
0.34200002 21872.47027598  1237.87251389
0.34300002 21829.99764470  1126.42793181
0.34400002 21798.19402223  1240.86225348
0.34500002 21775.58811706  1356.18369216
0.34600002 21763.46255670  1246.06710770
0.34700002 21758.21955591  2044.40240630
0.34800002 21763.33109061  1253.24148021
0.34900002 21776.50694670  1600.57333639
0.35000002 21798.13717288  1951.04236006
0.35100002 21827.80522509  1152.50817047
0.35200002 21864.71980386  1620.83175583
0.35300002 21909.47843429  1745.09003994
0.35400002 21961.99210999  1754.21420287
0.35500002 22021.36732014  1881.50571295
0.35600002 22087.13485580  1419.31935306
0.35700002 22159.79394014  1784.97148642
0.35800002 22239.41712217  1437.11120250
0.35900002 22324.89653462  1687.76225796
0.36000002 22417.06905510  1699.43808556
0.36100002 22514.22063526  1711.53113376
0.36200002 22618.19269042  1354.71671536
0.36300002 22725.71113172  1613.07105254
0.36400002 22839.42974293  1625.59648895
0.36500002 22957.48167652  1512.43896449
0.36600002 23081.15941399  1270.61788593
0.36700002 23208.89798138  1537.35747511
0.36800002 23342.50187387  1550.40904790
0.36900002 23479.30878601  1433.41186929
0.37000002 23619.42429509  1445.86312671
0.37100002 23763.77147392  1723.82406438
0.37200002 23912.35996781  1337.89660358
0.37300002 24063.87324987  1484.98168859
0.37400002 24219.81533218  1498.60114467
0.37500002 24377.74555482  1787.37638875
0.37600002 24539.83985103  1942.81921304
0.37700002 24703.44067369  2241.09624408
0.37800002 24870.95725365  1555.30538553
0.37900002 25040.57628550  1998.23808224
0.38000002 25212.75621101  1440.90908572
0.38100002 25386.73135287  2181.98966315
0.38200002 25563.04634008  1615.45678999
0.38300002 25741.08924052  1927.49285364
0.38400002 25921.62645557  1946.06619834
0.38500002 26102.54775154  1511.33758641
0.38600002 26286.33032234  1525.92154750
0.38700002 26470.45981565  1694.63891768
0.38800002 26655.87472738  1710.90740043
0.38900002 26842.40957697  2041.36534504
0.39000002 27030.71575103  2536.56248625
0.39100002 27218.94240037  2240.66344455
0.39200002 27408.40697175  1938.87080104
0.39300002 27598.14055266  1794.15520233
0.39400002 27789.19624860  2140.46294246
0.39500002 27979.70385675  2492.99173175
0.39600002 28170.58593389  2180.82601339
0.39700002 28361.08605276  2201.10399284
0.39800002 28552.90885428  1708.89167589
0.39900002 28743.58276099  2241.99956158
0.40000002 28934.07536085  1914.42318695
0.40100002 29124.07586737  2283.03641541
0.40200002 29314.97261773  1949.29919657
0.40300002 29504.21155289  1966.75083530
0.40400002 29692.82712884  1984.22326690
0.40500002 29880.88548873  2729.61901873
0.40600002 30068.40797671  2386.37931214
0.40700002 30254.86557760  2777.39679162
0.40800002 30440.59448842  2054.28361639
0.40900002 30624.51757652  2071.74871221
0.41000002 30808.15787505  2279.18762759
0.41100002 30990.13149146  1915.19021692
0.41200002 31170.28516633  3089.59881208
0.41300002 31349.50858424  2530.84594792
0.41400002 31527.07421845  1962.56046309
0.41500002 31703.63652673  2373.96841561
0.41600002 31877.31766661  2592.10420888
0.41700002 32050.15977798  2813.36315862
0.41800002 32222.04949753  2632.70267894
0.41900002 32390.10728134  2652.74991204
0.42000002 32557.12820751  2878.37584122
0.42100002 32722.70800598  3314.15602389
0.42200002 32886.05728949  2086.62043389
0.42300002 33046.91491970  2732.31905503
0.42400002 33205.58451899  3810.34100411
0.42500002 33362.42635543  2771.41688867
0.42600002 33515.72783760  2790.68721064
0.42700002 33668.05683518  3674.53189711
0.42800002 33817.47255064  2393.76990793
0.42900002 33964.98641986  2847.96424626
0.43000002 34110.02280816  2646.25569486
0.43100002 34251.08185271  3773.09935569
0.43200002 34390.64892441  2680.40730419
0.43300002 34527.12652609  2472.48764770
0.43400002 34661.40033752  2713.98777504
0.43500002 34792.54498977  2502.97580518
0.43600002 34921.90111410  2975.86994446
0.43700002 35047.42230468  2532.87732999
0.43800002 35169.50085736  3242.27643769
0.43900002 35289.91458443  2562.04792024
0.44000002 35406.61160914  2576.36221583
0.44100002 35521.09085520  2826.05812237
0.44200002 35632.29427112  3314.87249314
0.44300002 35740.87215929  3094.44485820
0.44400002 35845.83584496  2871.25158725
0.44500002 35947.02106896  2885.82698818
0.44600002 36046.07476884  3383.64519891
0.44700002 36142.08189752  3885.99682978
0.44800002 36234.08049823  3416.51161209
0.44900002 36324.19503908  3187.44826574
0.45000002 36410.92929664  2709.51943202
0.45100002 36493.18740420  3463.93351257
0.45200002 36573.21307235  3727.72491907
0.45300002 36649.50175827  3244.58054443
0.45400002 36723.19460368  4260.80885583
0.45500002 36793.46060792  2768.34010734
0.45600002 36860.20400216  3284.79723533
0.45700002 36923.75145406  3804.99276767
0.45800002 36983.39564637  3055.56829312
0.45900002 37040.05066262  2811.33997853
0.46000002 37094.21641268  3334.58474246
0.46100002 37143.82467920  2831.47388949
0.46200002 37190.92476560  2582.90984739
0.46300002 37234.27187078  3628.10762304
0.46400002 37273.95831406  3119.83045875
0.46500002 37311.11960612  3390.46159930
0.46600002 37344.28778387  3400.75772822
0.46700002 37374.04424127  6559.14507522
0.46800002 37401.14838527  2631.17091361
0.46900002 37424.24593197  3166.09135591
0.47000002 37443.66712685  3439.01377026
0.47100002 37460.30518603  3182.62767945
0.47200002 37473.30883791  3456.35080449
0.47300002 37483.56950498  4264.13106899
0.47400002 37489.20986452  3205.32759534
0.47500002 37492.60910790  2944.66965891
0.47600002 37492.95383668  3219.14516900
0.47700002 37488.92033774  2956.75128718
