# SAXS profile: number of points = 501, q_min = 0, q_max = 0.5, delta_q = 0.001
#    q    intensity    error
0.00000000 1664650.74656091 324.60689558
0.00100000 1664582.05852978 699.12448119
0.00200000 1664375.94439556 823.86611856
0.00300000 1664032.56681224 1198.10349078
0.00400000 1663551.80300083 1871.49584949
0.00500000 1662934.10532120 1945.63298024
0.00600000 1662179.21851638 2617.93237574
0.00700000 1661287.73303980 2392.25443500
0.00800000 1660259.19782723 4258.56502222
0.00900000 1659094.94368829 2986.37102630
0.01000000 1657794.07513046 3008.89637628
0.01100000 1656357.91418731 2981.44437535
0.01200000 1654785.84062960 3872.19903685
0.01300000 1653079.24919333 4165.75989170
0.01400000 1651237.55434075 4829.87006056
0.01500000 1649262.28821465 3958.22966797
0.01600000 1647152.45386319 4200.23894512
0.01700000 1644910.11572005 6217.76051634
0.01800000 1642534.95855581 6553.71477954
0.01900000 1640027.49925735 5904.09926373
0.02000000 1637388.57854104 5673.55168129
0.02100000 1634619.61592775 5933.66947484
0.02200000 1631719.00466133 7318.26006839
0.02300000 1628689.69220874 8208.59642237
0.02400000 1625531.28254969 6705.31684626
0.02500000 1622245.31683257 6326.75702459
0.02600000 1618832.05290508 9834.40517121
0.02700000 1615292.19128813 7462.65026555
0.02800000 1611625.90262238 9113.74489728
0.02900000 1607835.83703415 12299.94471805
0.03000000 1603921.91491366 11933.17959547
0.03100000 1599884.75073223 9215.33658824
0.03200000 1595725.21123686 10268.49220726
0.03300000 1591446.06113959 10551.28787177
0.03400000 1587045.44282576 9165.18785520
0.03500000 1582526.53005278 13673.02985105
0.03600000 1577889.22036187 11384.47125103
0.03700000 1573135.17569770 9863.55800779
0.03800000 1568265.87109504 11926.66250164
0.03900000 1563282.38327404 13131.57262763
0.04000000 1558183.78099290 10541.11376688
0.04100000 1552974.01411789 10762.11041684
0.04200000 1547653.38615151 15971.78368606
0.04300000 1542221.80156398 11196.53079907
0.04400000 1536683.27723949 17633.44142525
0.04500000 1531037.17289151 17959.06687248
0.04600000 1525283.87086737 12903.90214740
0.04700000 1519426.48042988 14221.83251825
0.04800000 1513465.48129848 15573.56052717
0.04900000 1507403.44058255 12436.07896367
0.05000000 1501239.81697301 19523.62472887
0.05100000 1494978.08956096 12826.91260596
0.05200000 1488616.32330789 17751.75048270
0.05300000 1482160.23710478 18008.24772033
0.05400000 1475607.87449476 15825.89519198
0.05500000 1468963.37593823 18508.93940025
0.05600000 1462225.12544877 13752.22794658
0.05700000 1455398.10161471 17726.74970513
0.05800000 1448481.05529013 15382.86952544
0.05900000 1441476.05082195 14270.61356966
0.06000000 1434385.77636293 18374.48265364
0.06100000 1427211.42243706 15927.68021872
0.06200000 1419953.90895485 14760.42157354
0.06300000 1412616.25580039 16273.34002769
0.06400000 1405196.58422313 20551.00100537
0.06500000 1397700.98002717 16604.68841945
0.06600000 1390127.50223019 15367.86025619
0.06700000 1382479.19758757 16921.54617038
0.06800000 1374758.76462546 19920.25543187
0.06900000 1366967.39453104 15788.47414603
0.07000000 1359104.12964398 18816.79755608
0.07100000 1351174.13322527 20429.75385125
0.07200000 1343175.90655515 19120.10992553
0.07300000 1335114.70350697 17783.72868398
0.07400000 1326989.94712516 20900.09264669
0.07500000 1318803.45080869 16537.79604831
0.07600000 1310555.85142963 15136.92079364
0.07700000 1302252.42338345 18283.62488160
0.07800000 1293891.49037019 21465.66083190
0.07900000 1285474.58909575 32393.96116461
0.08000000 1277006.78427197 18618.75978811
0.08100000 1268487.23647636 21843.35123697
0.08200000 1259917.26017197 18823.16475025
0.08300000 1251299.65287873 15766.37636622
0.08400000 1242635.37859836 17427.96200289
0.08500000 1233928.29657213 20692.97850495
0.08600000 1225177.36893464 17587.42195681
0.08700000 1216386.49514456 27295.71423279
0.08800000 1207554.01351218 19345.01620498
0.08900000 1198686.23144751 17800.49137308
0.09000000 1189781.52512166 22736.72601314
0.09100000 1180843.08307402 22813.88943681
0.09200000 1171871.45332130 17982.36829615
0.09300000 1162870.40603491 19675.76819472
0.09400000 1153838.08033297 16442.19341749
0.09500000 1144778.76272037 21430.25944540
0.09600000 1135693.63741158 19829.21184133
0.09700000 1126585.67740963 18216.89126014
0.09800000 1117455.57026830 19913.05919845
0.09900000 1108304.92330250 19949.48955752
0.10000000 1099134.12620404 23312.63591312
0.10100000 1089945.51474515 23346.63402388
0.10200000 1080741.39685550 16697.45536680
0.10300000 1071522.87823406 16715.75768677
0.10400000 1062292.57075262 25096.66316471
0.10500000 1053052.80545621 18417.89443398
0.10600001 1043800.39833962 21778.89633613
0.10700001 1034542.88462450 23463.43372742
0.10800001 1025277.33780192 21792.27084056
0.10900001 1016008.25268028 26822.61913318
0.11000001 1006735.36737924 26819.43144936
0.11100001 997461.26511835 16757.35004281
0.11200001 988188.23501149 18424.77050917
0.11300001 978914.60714783 18413.38462737
0.11400001 969645.66476435 18399.02735521
0.11500001 960380.99261144 26737.00809329
0.11600001 951122.17916101 20030.63403640
0.11700001 941871.70524029 25006.69495182
0.11800001 932628.06884391 18312.15299422
0.11900001 923395.75957668 23269.57423737
0.12000001 914174.65026123 21569.95188896
0.12100001 904968.03209476 18217.00734424
0.12200001 895774.75038317 19832.45390782
0.12300001 886597.82174137 19788.86431361
0.12400001 877437.60025508 16451.95577996
0.12500001 868295.90882104 22975.11083000
0.12600001 859175.53068000 19640.75355688
0.12700001 850075.78653216 17953.60145765
0.12800001 840997.66803900 19527.96677220
0.12900001 831943.68173941 22712.06358195
0.13000001 822914.57887938 19404.32668460
0.13100001 813910.66680216 16115.43196233
0.13200001 804935.62025595 27299.39284788
0.13300001 795989.54987225 19199.26884803
0.13400001 787071.89109028 19125.84785519
0.13500001 778186.14560023 20637.49755434
0.13600001 769331.32191293 20552.68723398
0.13700001 760510.63968664 20465.34227898
0.13800001 751722.56894033 20375.44119195
0.13900001 742972.26983233 18722.90208271
0.14000001 734257.01247485 17082.49020085
0.14100001 725579.22532628 18545.80587401
0.14200001 716939.12132257 18454.01385323
0.14300001 708340.90846916 16830.18077907
0.14400001 699779.14266359 22830.29560630
0.14500001 691262.37086398 15138.64663604
0.14600001 682785.27702649 16560.95767553
0.14700001 674354.21792972 23953.06295089
0.14800001 665965.01457985 16372.75065589
0.14900001 657620.59087549 19235.40319065
0.15000001 649322.49330960 20590.01723434
0.15100001 641071.00868856 16078.06165655
0.15200001 632867.88593102 14524.31866748
0.15300001 624712.70801749 20203.20993066
0.15400001 616604.88036558 14336.06414503
0.15500001 608548.48319886 19936.04925044
0.15600001 600540.51953031 18385.54887312
0.15700001 592587.40727830 15448.75443688
0.15800001 584681.54659560 19522.51776227
0.15900001 576831.20551016 15228.34454426
0.16000001 569031.45008056 17864.74321854
0.16100001 561288.90272145 19095.04937195
0.16200001 553598.21226271 17596.12000741
0.16300001 545963.86669358 13430.71175470
0.16400001 538384.47807986 17322.52140001
0.16500001 530861.38221311 18505.82865763
0.16600001 523394.73272123 14422.14254105
0.16700001 515984.43921178 13002.80848206
0.16800001 508630.97898130 14183.17551857
0.16900001 501337.64164374 14062.52151211
0.17000001 494101.64540023 15208.44936356
0.17100001 486924.58786534 15075.18595218
0.17200001 479807.18632432 16186.29619501
0.17300001 472748.99454743 14806.49920845
0.17400001 465751.80997100 15893.78126586
0.17500001 458814.41062454 19380.32162007
0.17600001 451935.76638571 14398.67419709
0.17700001 445120.76760928 20204.03259603
0.17800001 438365.96943332 12947.13951873
0.17900001 431672.49689294 15151.70535661
0.18000001 425041.58862390 16155.83154672
0.18100001 418473.59491055 12566.76264877
0.18200001 411965.17565442 12439.28906649
0.18300001 405521.59591929 13430.87589131
0.18400001 399139.38839714 15506.56597177
0.18500001 392820.84969622 14247.61289157
0.18600001 386564.93462395 13011.77631416
0.18700001 380371.74502381 16089.72557466
0.18800001 374241.33574981 13792.66508071
0.18900001 368176.19221549 11542.32417130
0.19000001 362170.35169793 11413.79917305
0.19100001 356232.94430624 10259.50928078
0.19200001 350355.15515202 15214.17333137
0.19300001 344543.58686015 11028.84073653
0.19400001 338794.29452392 13873.62701634
0.19500001 333108.93439138 11752.08376067
0.19600001 327486.25498515 10644.94122133
0.19700001 321927.77217752 11473.50634262
0.19800001 316432.58991966 13223.71855768
0.19900001 311001.56219224 9330.04730670
0.20000001 305632.01696459 10136.28632168
0.20100001 300327.53322658 10009.91715553
0.20200001 295084.71515120 11680.92900134
0.20300001 289905.92975604 8871.12186983
0.20400001 284790.10092867 9633.02561922
0.20500001 279736.04433967 13830.15068586
0.20600001 274745.52510613 11090.10364512
0.20700001 269816.84832063 10943.77188519
0.20800001 264950.53261563 9967.43950816
0.20900001 260148.47530137 9833.61283124
0.21000001 255405.82867847 10508.67331775
0.21100001 250725.16204048 8770.36658278
0.21200001 246105.97254045 7863.08619439
0.21300001 241548.03785728 11630.53857267
0.21400001 237051.70314827 11467.37668194
0.21500001 232616.93983585 10551.50488980
0.21600001 228241.12613997 9658.02370923
0.21700001 223926.17928955 8786.86369076
0.21800001 219671.29901055 8659.44301642
0.21900001 215475.12535740 7110.67947300
0.22000001 211337.91452564 7706.43741756
0.22100001 207262.09825791 9662.55947766
0.22200001 203243.93809318 11557.46708616
0.22300001 199284.03224385 8035.13256002
0.22400001 195380.47678498 7912.90968396
0.22500001 191537.98961137 7142.45197036
0.22600001 187750.71959876 9589.36845697
0.22700001 184021.79677369 6922.90032200
0.22800001 180348.64462505 9292.46435375
0.22900001 176731.40771292 7316.68062533
0.23000001 173170.58576907 6000.36108067
0.23100001 169666.53945818 8266.15419333
0.23200001 166215.85968657 7552.01794202
0.23300001 162821.01149025 7429.52310568
0.23400001 159480.60114371 7870.36803867
0.23500001 156192.75808234 6635.06867715
0.23600001 152959.61255643 7612.80027700
0.23700001 149779.25341258 6416.54351968
0.23800001 146651.46748129 6308.94642945
0.23900001 143576.31963339 5685.62252641
0.24000001 140552.51117474 5589.07087123
0.24100001 137581.64772355 5493.63545346
0.24200001 134660.76506930 5399.22363085
0.24300001 131790.62646899 6270.59830401
0.24400001 128970.03838717 5213.61404842
0.24500001 126199.46105178 4656.76033310
0.24600001 123478.33678164 6862.30889126
0.24700001 120806.45153890 6741.00031476
0.24800001 118181.95513203 4855.50585630
0.24900001 115605.16541171 5635.75208043
0.25000001 113076.27179826 5108.78620153
0.25100001 110593.75073701 4598.48837319
0.25200001 108158.71732752 4515.08586844
0.25300001 105769.83918677 5641.76348914
0.25400001 103425.49177253 7120.84544543
0.25500001 101126.47580351 3883.25685458
0.25600001 98872.21229361  4954.98115353
0.25700001 96662.09041979  4488.98769148
0.25800001 94495.28908258  4405.37058547
0.25900001 92372.15335820  5043.51981199
0.26000001 90292.22789537  5302.41133404
0.26100001 88252.15186488  4161.97167888
0.26200001 86256.42085292  3402.81596366
0.26300001 84300.50403401  3338.30011771
0.26400001 82385.24616540  3929.77642804
0.26500001 80511.17951115  4818.59432175
0.26600001 78676.00605040  4096.26644885
0.26700001 76881.32607594  4945.00712720
0.26800001 75125.21482322  3637.56307387
0.26900001 73406.85835086  3270.27569429
0.27000001 71727.17209600  4081.99355715
0.27100001 70084.67876073  3431.34603451
0.27200001 68479.54352666  3084.66118414
0.27300001 66910.35278684  2750.01562968
0.27400001 65376.20049427  4314.82943682
0.27500001 63879.81207796  2644.62434519
0.27600001 62416.29810051  3371.41650145
0.27700001 60989.32210491  3051.90582257
0.27800001 59595.40724796  3491.69507591
0.27900001 58235.77800640  2935.08335043
0.28000001 56908.95441878  3598.06881342
0.28100001 55614.77937672  2823.00633477
0.28200001 54353.31511726  2307.29833593
0.28300001 53123.74053401  2263.07145386
0.28400001 51925.66250348  2885.76883022
0.28500001 50758.65230495  2830.81017303
0.28600001 49621.49769116  3417.92892274
0.28700001 48514.82019967  2305.42436501
0.28800001 47437.06392903  3495.87459172
0.28900001 46390.02278908  2219.76269553
0.29000001 45370.28674786  2376.49573234
0.29100001 44380.20671393  1943.85314608
0.29200001 43417.13299973  2480.63801136
0.29300001 42481.58162631  2622.81297376
0.29400001 41572.87207867  2575.43954719
0.29500001 40691.90360915  1987.39266635
0.29600001 39835.78453156  2307.08957036
0.29700001 39005.25833808  1917.88864327
0.29800001 38200.73554473  2227.29399137
0.29900001 37420.95955053  1683.94325949
0.30000001 36665.50198839  1986.53699177
0.30100001 35934.94880115  1627.85325775
0.30200001 35226.89370034  1761.16863392
0.30300001 34542.71598268  1732.66271572
0.30400001 33881.87973118  1550.09607109
0.30500001 33242.52936589  1830.99860416
0.30600001 32625.59593280  1953.13139298
0.30700001 32030.59676071  1775.77636848
0.30800001 31456.78751032  1749.62660416
0.30900001 30903.81808135  1580.73036970
0.31000001 30372.16149849  1841.91982128
0.31100001 29859.10038332  1816.62775333
0.31200001 29366.98962300  1516.65825089
0.31300001 28893.46741112  1905.23533129
0.31400001 28440.70163492  1881.35250223
0.31500001 28005.53280500  1858.44724493
0.31600002 27588.76805489  1967.76897468
0.31700002 27189.56156813  1556.33057785
0.31800002 26808.37862689  1667.61527144
0.31900002 26444.88813411  1396.29015959
0.32000002 26097.85053461  1507.93387529
0.32100002 25767.88473527  1617.96555914
0.32200002 25454.26782769  1356.58526811
0.32300002 25155.87852683  1711.60605601
0.32400002 24873.42385926  1455.09536467
0.32500002 24605.77819639  1323.54487186
0.32600002 24353.68841603  1552.91301538
0.32700002 24116.01011109  1186.50775365
0.32800002 23893.32290676  1650.78975780
0.32900002 23683.38247052  1524.02573415
0.33000002 23488.69358122  1399.45642984
0.33100002 23305.18287752  1276.65797849
0.33200002 23137.08529401  1849.11594426
0.33300002 22980.43914762  1266.45206140
0.33400002 22837.19457959  1377.08289836
0.33500002 22705.37513842  1830.96153787
0.33600002 22585.69323532  1255.87753182
0.33700002 22476.75063836  1253.52844246
0.33800002 22380.64940822  1593.27850682
0.33900002 22294.24396373  1364.40779520
0.34000002 22219.46930815  1250.17849983
0.34100002 22154.82738099  1477.50550801
0.34200002 22101.41901667  1478.25348094
0.34300002 22056.59268187  1479.55630717
0.34400002 22022.30296035  1481.55050182
0.34500002 21997.16890208  1712.47968013
0.34600002 21982.40474620  1945.11317609
0.34700002 21974.46775304  1147.06727103
0.34800002 21976.73929029  1150.48235633
0.34900002 21987.08270719  1385.18627616
0.35000002 22005.80416137  1506.18733716
0.35100002 22032.43578442  1395.97519742
0.35200002 22066.23310544  1168.40709827
0.35300002 22107.90402956  1173.92975957
0.35400002 22157.17971803  1533.83083863
0.35500002 22213.32807557  2016.52601821
0.35600002 22275.75816440  1312.15359682
0.35700002 22345.01777354  1319.92026240
0.35800002 22421.22279704  1569.59777625
0.35900002 22503.23132691  1579.72691397
0.36000002 22591.82898236  1345.68235707
0.36100002 22685.35318812  1478.17768375
0.36200002 22785.65838835  1240.67915801
0.36300002 22889.47044582  1624.69468920
0.36400002 22999.45138226  1511.06402739
0.36500002 23113.69450064  1522.73026583
0.36600002 23233.51455216  1534.80604402
0.36700002 23357.36849865  1547.19216264
0.36800002 23487.03633025  1560.00902695
0.36900002 23619.83765953  1310.90105220
0.37000002 23755.98341525  1850.82875556
0.37100002 23896.29816733  1866.77890126
0.37200002 24040.78884615  2286.63973942
0.37300002 24188.21151668  1492.65460340
0.37400002 24340.01393769  1642.95101862
0.37500002 24493.77802536  1795.88388989
0.37600002 24651.69919598  1533.45902113
0.37700002 24811.08925385  1547.46771007
0.37800002 24974.37512460  1703.75195171
0.37900002 25139.75454416  1576.26268459
0.38000002 25307.63965884  1735.59801002
0.38100002 25477.34133672  1605.83690053
0.38200002 25649.34026665  1915.62106856
0.38300002 25823.05435812  1636.14880164
0.38400002 25999.30150206  1951.89765274
0.38500002 26175.90930813  1667.14374281
0.38600002 26355.36773344  1529.92916941
0.38700002 26535.07419839  2162.07794811
0.38800002 26716.14696813  1714.77597439
0.38900002 26898.29777846  1730.90554405
0.39000002 27082.29519833  2541.40270181
0.39100002 27266.19784098  1923.90301081
0.39200002 27451.33274394  1780.08175612
0.39300002 27636.75063658  2286.66485601
0.39400002 27823.48136921  1813.39548415
0.39500002 28009.65929871  1830.15122529
0.39600002 28196.16745837  1846.99003687
0.39700002 28382.44275460  1863.87510400
0.39800002 28569.94544888  1880.90244774
0.39900002 28756.30203126  1897.91602398
0.40000002 28942.60938603  2263.16744817
0.40100002 29128.36254788  2107.72841383
0.40200002 29314.99253691  2126.50965938
0.40300002 29500.06014441  2860.32596712
0.40400002 29684.49641730  3065.66651275
0.40500002 29868.42424113  1818.98712247
0.40600002 30051.79142638  2018.12814886
0.40700002 30234.18884634  1850.33244507
0.40800002 30415.86599062  2425.81750702
0.40900002 30595.79458395  2822.46218410
0.41000002 30775.42432097  2845.95749893
0.41100002 30953.44373848  2104.21520504
0.41200002 31129.67413947  2121.33174475
0.41300002 31304.98496451  2332.84759009
0.41400002 31478.69880551  2743.36873089
0.41500002 31651.45352628  2370.06095235
0.41600002 31821.41099766  2388.51522266
0.41700002 31990.47686931  2607.54389317
0.41800002 32158.70965209  2829.64499637
0.41900002 32323.13706384  2647.26505097
0.42000002 32486.55622285  3077.28918403
0.42100002 32648.59677050  2066.65627350
0.42200002 32808.44478242  3122.54388013
0.42300002 32965.84839204  2515.95366850
0.42400002 33121.04733077  2111.46686739
0.42500002 33274.62450314  2126.24860651
0.42600002 33424.63268962  2997.18695530
0.42700002 33573.71861650  3664.23582344
0.42800002 33719.93789510  2169.87810637
0.42900002 33864.31654635  2402.67337282
0.43000002 34006.27632623  3077.90821614
0.43100002 34144.33592336  2876.31899449
0.43200002 34280.92784746  2226.54636920
0.43300002 34414.51412798  3136.53896626
0.43400002 34545.90828693  2704.94474705
0.43500002 34674.31402204  2494.47026895
0.43600002 34800.91433772  2737.44005153
0.43700002 34923.77035794  2982.83936763
0.43800002 35043.29320061  4153.68173991
0.43900002 35161.10485955  2552.69633377
0.44000002 35275.36835043  2800.15887236
0.44100002 35387.44067584  2580.80617079
0.44200002 35496.32005585  3066.34975334
0.44300002 35602.64130191  3082.47683000
0.44400002 35705.39463263  3575.00280701
0.44500002 35804.41820347  2395.31569133
0.44600002 35901.39893821  2407.18891289
0.44700002 35995.37530875  3386.44506954
0.44800002 36085.44535781  2916.42583203
0.44900002 36173.68713444  3174.24119648
0.45000002 36258.55776125  4905.78309759
0.45100002 36339.12621269  2956.55144878
0.45200002 36417.50628098  2474.56966907
0.45300002 36492.16746849  2733.62839462
0.45400002 36564.33151138  3244.17046710
0.45500002 36633.14170332  3257.41911464
0.45600002 36698.44442524  3270.38202995
0.45700002 36760.67962613  3535.64233401
0.45800002 36819.07810560  2788.49301249
0.45900002 36874.52230853  3816.51323981
0.46000002 36927.60669974  2553.54412431
0.46100002 36976.18351818  3331.18453103
0.46200002 37022.27090543  2828.31651987
0.46300002 37064.70895333  2579.70386542
0.46400002 37103.54637848  3364.36422732
0.46500002 37139.92191535  2855.68873142
0.46600002 37172.42214026  3385.10678264
0.46700002 37201.52492901  3395.01132593
0.46800002 37228.04540122  3404.69105354
0.46900002 37250.62642587  3676.63700249
0.47000002 37269.64119667  3159.72033041
0.47100002 37285.91666635  2903.82732761
0.47200002 37298.63710325  3440.23995628
0.47300002 37308.62178206  2652.64313443
0.47400002 37314.15791344  2658.63387735
0.47500002 37317.47039775  3197.36101523
0.47600002 37317.74919170  2937.09358934
0.47700002 37313.71990494  3745.55138159
