# SAXS profile: number of points = 501, q_min = 0, q_max = 0.5, delta_q = 0.001
#    q    intensity    error
0.00000000 1682732.95097188 353.37391970
0.00100000 1682663.68077305 656.23885109
0.00200000 1682455.82468824 832.81565959
0.00300000 1682109.53760518 1211.11891022
0.00400000 1681624.70713464 1513.46229393
0.00500000 1681001.79123843 2420.64267520
0.00600000 1680240.49233430 2117.10310653
0.00700000 1679341.47011928 2216.73083269
0.00800000 1678304.22615784 2265.71080097
0.00900000 1677130.12256493 2767.26482053
0.01000000 1675818.22976379 3318.12023821
0.01100000 1674369.89263182 3315.25253175
0.01200000 1672784.50905784 3588.12292925
0.01300000 1671063.45473680 3860.15675069
0.01400000 1669206.10153394 4882.42806343
0.01500000 1667214.10675465 4401.44543782
0.01600000 1665086.37141036 6368.95565536
0.01700000 1662824.98668237 5387.55319853
0.01800000 1660429.59886813 6151.89194063
0.01900000 1657900.83747269 4973.70273684
0.02000000 1655239.48727658 5735.40508286
0.02100000 1652446.96075572 5453.07521773
0.02200000 1649521.68721168 6829.02009531
0.02300000 1646466.53569126 7112.73575795
0.02400000 1643281.16370706 12940.83975426
0.02500000 1639967.24412702 10872.98332514
0.02600000 1636524.74699049 8616.30318700
0.02700000 1632954.71439401 8230.09213749
0.02800000 1629257.14841980 8504.72270477
0.02900000 1625434.57438983 8777.34710471
0.03000000 1621487.13569822 9801.89018584
0.03100000 1617415.38977367 7763.59422814
0.03200000 1613220.20925672 10381.07252470
0.03300000 1608904.30805265 9846.49481921
0.03400000 1604465.94533062 10108.13592198
0.03500000 1599908.13387225 12959.25648280
0.03600000 1595230.90073410 9738.88509905
0.03700000 1590435.91081798 9065.48511092
0.03800000 1585524.50436876 14840.51004770
0.03900000 1580498.04669058 10431.28759123
0.04000000 1575355.38648206 11626.12329098
0.04100000 1570100.58290703 12859.12437024
0.04200000 1564733.81046858 15138.80031862
0.04300000 1559255.10088778 13378.40938662
0.04400000 1553668.47800588 10487.26271359
0.04500000 1547973.32266541 11749.11806495
0.04600000 1542169.94213381 14133.98817670
0.04700000 1536261.49466986 12167.19160366
0.04800000 1530248.51968693 11247.32714302
0.04900000 1524133.51118984 14860.30242581
0.05000000 1517916.00253463 16256.88114417
0.05100000 1511599.35600020 17685.71328907
0.05200000 1505181.93952001 17949.29546524
0.05300000 1498668.98368916 24278.43866757
0.05400000 1492059.01283758 14771.38491594
0.05500000 1485355.92448524 14972.38841726
0.05600000 1478558.23858504 17698.34294174
0.05700000 1471670.91629136 20485.66011102
0.05800000 1464692.69317049 18147.54331573
0.05900000 1457625.55305322 13118.63059020
0.06000000 1450472.27621959 14599.00414220
0.06100000 1443234.21363858 13422.07881407
0.06200000 1435912.00092356 21710.99046881
0.06300000 1428508.90305711 16456.42333264
0.06400000 1421022.99425775 15240.47232616
0.06500000 1413460.23719808 15392.58270312
0.06600000 1405818.84997822 15541.32811367
0.06700000 1398101.80919569 14260.63912118
0.06800000 1390311.95543485 17267.67529478
0.06900000 1382450.34868626 17418.87520898
0.07000000 1374516.05149579 19030.17562411
0.07100000 1366514.35244406 17710.02683717
0.07200000 1358443.46461617 17849.94796127
0.07300000 1350309.17489960 14988.43254368
0.07400000 1342110.39681045 19628.36547322
0.07500000 1333849.29230022 18247.05917395
0.07600000 1325526.37611292 18371.79643421
0.07700000 1317146.91973790 21574.86755692
0.07800000 1308709.16074531 21711.48599495
0.07900000 1300214.89578883 15602.57948129
0.08000000 1291669.13901886 20401.91500788
0.08100000 1283071.01076022 18938.12900736
0.08200000 1274421.67785437 15866.55063383
0.08300000 1265724.40516801 15948.12825359
0.08400000 1256979.61711023 24039.73630563
0.08500000 1248191.28427551 17711.83515535
0.08600000 1239358.82256011 17790.99673316
0.08700000 1230485.53144916 22739.37368897
0.08800000 1221570.46322155 22831.15302985
0.08900000 1212619.24818581 19644.43274330
0.09000000 1203630.67173263 16429.55944094
0.09100000 1194607.88388856 23079.82540104
0.09200000 1185551.48569569 18192.28840280
0.09300000 1176465.05370885 19905.78964417
0.09400000 1167346.88588545 18298.16329622
0.09500000 1158201.19002825 23349.33708845
0.09600000 1149029.18893595 18390.21303340
0.09700000 1139834.09777464 18431.11822751
0.09800000 1130616.26872141 20147.58285591
0.09900000 1121377.55257169 23548.92971133
0.10000000 1112118.21561961 20218.31011077
0.10100000 1102840.83703887 20248.15872034
0.10200000 1093547.54481547 25342.96554314
0.10300000 1084239.36975584 18605.54846023
0.10400000 1074919.10917034 27087.96282545
0.10500000 1065588.94954783 18637.15160446
0.10600001 1056246.00881295 20343.29908696
0.10700001 1046897.41374712 20351.68668095
0.10800001 1037540.59413381 16963.78951243
0.10900001 1028179.86174141 25447.45277580
0.11000001 1018815.31977500 20355.93104725
0.11100001 1009449.09780742 20350.49476976
0.11200001 1000083.54575464 18646.55858842
0.11300001 990717.35812573 23717.77467018
0.11400001 981355.45589900 18621.22065245
0.11500001 971997.79115144 20295.31483491
0.11600001 962645.68277217 21962.76228671
0.11700001 953301.92563927 18560.78936632
0.11800001 943964.57742640 23589.67590092
0.11900001 934638.60876777 23552.89405033
0.12000001 925323.44060555 16794.62123810
0.12100001 916022.99296262 25144.83234135
0.12200001 906735.28833074 18402.19354362
0.12300001 897464.09268951 18362.11620155
0.12400001 888209.35967459 19984.71153431
0.12500001 878973.17605493 18273.85319125
0.12600001 869758.22100369 21539.56335818
0.12700001 860563.75914184 18175.10744960
0.12800001 851390.71214601 32948.82211290
0.12900001 842241.99272984 19708.46355878
0.13000001 833118.23413692 19644.92888691
0.13100001 824019.45301065 24473.37890803
0.13200001 814949.52004605 21135.71679874
0.13300001 805908.68979279 17818.64197134
0.13400001 796896.20533736 17750.86381077
0.13500001 787915.65785478 19288.17621369
0.13600001 778966.13405694 20810.08125254
0.13700001 770050.86479517 17534.05901817
0.13800001 761168.08069738 19044.42627710
0.13900001 752323.23105407 17378.66745690
0.14000001 743513.58912142 15725.31315153
0.14100001 734741.56978020 17214.99579186
0.14200001 726007.19982488 24916.56827319
0.14300001 717315.05594371 17043.40653312
0.14400001 708659.23243905 18496.00683911
0.14500001 700048.61767613 22996.59817546
0.14600001 691477.95032687 19821.21638117
0.14700001 682953.39777396 16677.72276044
0.14800001 674470.87818678 16581.86732253
0.14900001 666033.24077809 19481.47321191
0.15000001 657642.43433813 19364.28239275
0.15100001 649298.12301422 16284.39769358
0.15200001 641002.63064264 16182.11217416
0.15300001 632755.17187720 19001.63870814
0.15400001 624555.32108410 18877.18547060
0.15500001 616407.19138918 18751.10764698
0.15600001 608308.00222663 18623.35036710
0.15700001 600263.56757912 15648.87194536
0.15800001 592266.76441607 18363.23189744
0.15900001 584325.74812969 15426.20047875
0.16000001 576435.84077966 20881.38931790
0.16100001 568603.22694293 19343.88269371
0.16200001 560823.01351929 19196.97265898
0.16300001 553099.30667724 16327.49230390
0.16400001 545430.93986635 17549.24131869
0.16500001 537819.29714127 17409.21147037
0.16600001 530264.29230466 15939.74537924
0.16700001 522766.28108515 22395.30853908
0.16800001 515325.11428294 19595.23839583
0.16900001 507944.80326136 15543.11171371
0.17000001 500622.13586038 19261.43758675
0.17100001 493358.84444669 14001.52466657
0.17200001 486155.59805918 13877.31220193
0.17300001 479011.90318745 13752.43238996
0.17400001 471929.72067800 16104.60247869
0.17500001 464907.86824225 13500.92513137
0.17600001 457945.07438671 13374.28652912
0.17700001 451046.37138439 14451.52642171
0.17800001 444208.52964545 14312.39950118
0.17900001 437432.25474200 11810.67143589
0.18000001 430719.10647612 22218.64615707
0.18100001 424069.39394736 17365.64250244
0.18200001 417479.57540631 13751.77786349
0.18300001 410955.51445204 15879.32182856
0.18400001 404492.93065586 13469.61522715
0.18500001 398094.73525161 14438.89672970
0.18600001 391759.61427545 12087.74346954
0.18700001 385487.93488826 19567.36849938
0.18800001 379279.17747717 15053.59126529
0.18900001 373136.50878090 11697.83010297
0.19000001 367053.68864858 15774.13301498
0.19100001 361039.68393850 14557.12074423
0.19200001 355086.41962516 14391.65326743
0.19300001 349199.34187333 16258.72212589
0.19400001 343375.36118754 11048.10276827
0.19500001 337615.80738251 9925.90520610
0.19600001 331919.58282749 11769.86896326
0.19700001 326287.97442924 13567.05461791
0.19800001 320720.47036175 10530.85714200
0.19900001 315217.64628956 13239.14176984
0.20000001 309776.85560923 9339.77263803
0.20100001 304401.81308702 13835.06305868
0.20200001 299089.08688358 12750.16837646
0.20300001 293840.98893834 11688.99509244
0.20400001 288656.43913929 8876.18592307
0.20500001 283534.38976780 10513.45566953
0.20600001 278476.28172990 9511.35785207
0.20700001 273480.99312612 11945.65034441
0.20800001 268548.26050437 10944.68487421
0.20900001 263680.78999748 9136.53980531
0.21000001 258873.23393057 9012.67206534
0.21100001 254128.50103077 8889.41538629
0.21200001 249445.62976209 13548.64002103
0.21300001 244824.76456340 11002.42543962
0.21400001 240266.16407195 7748.58415765
0.21500001 235769.85870203 8402.83816141
0.21600001 231332.94655435 9035.86531962
0.21700001 226957.93797061 10390.13489154
0.21800001 222643.31140254 8776.59975045
0.21900001 218388.15512735 9368.85229794
0.22000001 214192.76120033 9940.68651733
0.22100001 210059.40929162 10492.46799024
0.22200001 205984.34788062 6890.17676240
0.22300001 201968.40373161 6786.13868627
0.22400001 198009.21155278 8019.37344709
0.22500001 194111.71648642 9870.58125009
0.22600001 190270.45025745 7126.58005140
0.22700001 186487.89161360 6377.88619479
0.22800001 182762.04056066 6905.66402915
0.22900001 179092.63448174 9268.04427272
0.23000001 175480.41037357 9728.63441120
0.23100001 171925.54120975 7179.61094046
0.23200001 168424.79951582 7652.38112791
0.23300001 164980.60215768 6369.90135057
0.23400001 161591.54904612 6265.71261060
0.23500001 158255.73605750 8403.37998210
0.23600001 154975.16405275 6060.30407692
0.23700001 151748.12625139 6500.89003609
0.23800001 148574.62410768 8522.24084191
0.23900001 145454.11577393 7854.52262331
0.24000001 142385.87727123 7720.87456023
0.24100001 139371.01471204 6576.91849536
0.24200001 136406.97525582 6463.64482824
0.24300001 133494.30823835 5374.48110390
0.24400001 130631.90447387 5280.79498816
0.24500001 127820.25935289 6131.53813121
0.24600001 125058.36371459 4633.41259481
0.24700001 122346.90135461 4551.30494570
0.24800001 119683.27549249 5364.20466134
0.24900001 117068.01010230 4829.05564517
0.25000001 114501.33017942 4742.07281372
0.25100001 111981.72505585 4656.20034810
0.25200001 109510.30998245 5818.28304463
0.25300001 107085.54003991 5303.94704911
0.25400001 104706.16771033 4405.51221484
0.25500001 102372.54478071 4717.32708668
0.25600001 100084.65511748 3858.26363732
0.25700001 97841.37195202  4543.75352843
0.25800001 95642.02217050  4087.26201084
0.25900001 93487.08635088  5468.99481029
0.26000001 91375.92258859  5008.31455405
0.26100001 89305.19504982  4562.60263098
0.26200001 87279.67204935  4131.81987032
0.26300001 85294.47112729  4053.19345976
0.26400001 83350.58870517  3975.82326937
0.26500001 81448.46730694  3574.77339926
0.26600001 79585.89469646  4781.12285013
0.26700001 77764.43246912  3751.35639983
0.26800001 75982.27362444  5518.59279449
0.26900001 74238.41561275  4810.64955935
0.27000001 72533.69058425  3538.19359413
0.27100001 70866.93100560  2891.37092186
0.27200001 69238.01825486  4820.00486891
0.27300001 67645.70372767  3614.31012121
0.27400001 66089.06076124  2998.79127396
0.27500001 64570.73448447  4277.16565467
0.27600001 63085.90453348  3407.58529464
0.27700001 61638.05244488  3084.36829031
0.27800001 60224.01933664  3276.48792708
0.27900001 58844.71185697  2965.77361796
0.28000001 57498.85484405  3150.64990029
0.28100001 56186.19640330  2614.34384238
0.28200001 54906.71697151  3030.02731948
0.28300001 53659.73750999  2514.49541873
0.28400001 52444.74445233  2466.21422460
0.28500001 51261.51300878  3518.59041946
0.28600001 50108.46589540  2588.60347068
0.28700001 48986.61168772  2327.84389758
0.28800001 47894.08028966  2491.45017460
0.28900001 46832.92677365  2852.12537552
0.29000001 45799.42838667  2798.80320119
0.29100001 44796.09688876  2746.89679124
0.29200001 43820.47287031  2311.09184858
0.29300001 42872.68485693  2268.82259003
0.29400001 41952.23928059  2042.02534365
0.29500001 41059.93727224  2369.97969154
0.29600001 40193.14830921  2148.72581033
0.29700001 39352.35762298  2110.86056282
0.29800001 38538.03988614  1728.43117071
0.29900001 37748.89671888  2038.44051932
0.30000001 36984.54879020  2003.82294831
0.30100001 36245.61627192  1806.11914433
0.30200001 35529.57114877  1614.81908516
0.30300001 34837.75352826  2224.04229053
0.30400001 34169.87725586  2032.25354600
0.30500001 33523.76138726  2000.36293668
0.30600001 32900.49748430  2272.60197132
0.30700001 32299.66362173  2089.14234196
0.30800001 31720.34120313  2205.35682656
0.30900001 31162.39871788  1593.95676988
0.31000001 30625.95580437  2285.92144946
0.31100001 30108.61997973  1549.99182994
0.31200001 29612.54561610  1390.30908250
0.31300001 29135.59013761  2058.42954068
0.31400001 28679.61927732  1626.13449002
0.31500001 28241.59386823  1606.38193528
0.31600002 27822.41963001  1455.25172765
0.31700002 27421.13930190  1569.58608796
0.31800002 27038.19408557  1423.15541308
0.31900002 26673.17264681  1408.34358244
0.32000002 26325.06771112  1521.06248437
0.32100002 25994.39614126  1381.08233238
0.32200002 25680.22031345  1493.04807972
0.32300002 25381.65931907  1973.67792211
0.32400002 25099.34702005  1468.31187020
0.32500002 24832.15438442  1942.86785104
0.32600002 24580.75547731  1567.39194723
0.32700002 24344.06754882  1557.04663415
0.32800002 24122.72936971  1309.50242584
0.32900002 23914.31572820  1302.13455306
0.33000002 23721.45881663  1884.43277763
0.33100002 23539.95517156  1523.97676997
0.33200002 23374.26518223  1167.54460114
0.33300002 23220.05661721  1163.32489161
0.33400002 23079.61671350  1623.65111268
0.33500002 22950.88190484  1619.41430389
0.33600002 22834.38645959  1269.70611921
0.33700002 22728.99074122  1498.06785070
0.33800002 22636.46950515  1611.49034039
0.33900002 22554.03364664  1265.28134750
0.34000002 22483.26550756  1725.02862776
0.34100002 22422.95914331  1725.44678779
0.34200002 22374.00985094  1726.71429202
0.34300002 22333.79516551  1382.90866214
0.34400002 22304.44675986  1731.38276173
0.34500002 22284.15039867  1850.47593674
0.34600002 22274.56782028  1391.26957195
0.34700002 22271.91177017  1627.63138925
0.34800002 22279.72198552  1516.24655154
0.34900002 22295.55527774  1404.62004902
0.35000002 22320.00550101  1762.72251793
0.35100002 22352.54329885  1888.34294732
0.35200002 22392.27259741  1778.50633528
0.35300002 22440.08202278  1549.03893540
0.35400002 22495.58988278  1437.46826159
0.35500002 22557.95722664  1686.43296214
0.35600002 22626.80989418  1696.33201811
0.35700002 22702.61635151  1584.86972257
0.35800002 22785.43494916  1472.39487616
0.35900002 22874.07236015  1358.71996255
0.36000002 22969.38134440  1492.55047045
0.36100002 23069.84842339  1503.23139447
0.36200002 23176.99218258  1261.98728412
0.36300002 23287.80674535  1525.81717023
0.36400002 23404.79494484  1281.41258393
0.36500002 23526.12581664  1808.21811592
0.36600002 23653.02755588  1692.72899722
0.36700002 23784.08392307  1575.45779369
0.36800002 23920.96779114  1588.83075595
0.36900002 24060.97452273  1468.92256419
0.37000002 24204.33074352  2020.45660452
0.37100002 24351.88403391  1494.71871281
0.37200002 24503.64091304  1782.27240624
0.37300002 24658.35373936  2351.66730752
0.37400002 24817.46719836  1814.77737485
0.37500002 24978.52691628  1408.78898481
0.37600002 25143.68369604  1564.06291840
0.37700002 25310.40827425  1578.61023885
0.37800002 25480.90216271  1593.44829223
0.37900002 25653.48743407  2193.37327952
0.38000002 25828.64672367  1623.71795320
0.38100002 26005.46562389  1639.12457592
0.38200002 26184.71125748  1805.17407961
0.38300002 26365.48603022  1822.38248074
0.38400002 26548.73951276  1993.14671334
0.38500002 26732.51398261  1547.81263292
0.38600002 26918.84715851  1875.16698190
0.38700002 27105.53823837  2366.31360031
0.38800002 27293.45094611  1911.08752579
0.38900002 27482.45015018  1768.49575095
0.39000002 27673.11187295  2272.23932354
0.39100002 27863.66539729  1966.06032358
0.39200002 28055.49468989  1653.87149032
0.39300002 28247.34960809  1836.36028502
0.39400002 28440.57954398  2022.12530138
0.39500002 28633.01640575  2040.96150610
0.39600002 28825.87823376  1888.23924316
0.39700002 29018.24832839  2598.58426092
0.39800002 29211.95678682  1923.16926618
0.39900002 29404.35631148  2469.96604719
0.40000002 29596.41538282  2136.26936355
0.40100002 29788.01348146  1796.21729804
0.40200002 29980.35800706  1993.54400013
0.40300002 30170.87673993  2194.02626048
0.40400002 30360.91990683  2028.86856890
0.40500002 30550.14031737  2604.70508687
0.40600002 30738.83280932  2251.92699831
0.40700002 30926.29961328  2460.49651381
0.40800002 31112.87118952  3054.03958067
0.40900002 31297.64790019  2117.28598077
0.41000002 31482.05864591  2717.21661048
0.41100002 31664.67823089  2348.25264887
0.41200002 31845.34425013  3156.51067164
0.41300002 32025.07401550  2386.50862871
0.41400002 32202.89984364  2205.09367128
0.41500002 32379.74936594  3434.84397549
0.41600002 32553.64512649  2647.09977889
0.41700002 32726.51875253  2872.73395222
0.41800002 32898.38073412  2894.72865796
0.41900002 33066.29465341  2916.44732662
0.42000002 33233.03586918  3357.86610333
0.42100002 33398.29129517  2536.93432699
0.42200002 33561.18980373  2129.45759395
0.42300002 33721.45311182  2573.62142345
0.42400002 33879.45797315  2591.77865776
0.42500002 34035.59289813  2609.84938710
0.42600002 34187.97063093  2408.71358494
0.42700002 34339.31677050  2645.50108936
0.42800002 34487.69309839  2441.21147165
0.42900002 34633.98384143  2457.28126999
0.43000002 34777.74285686  3597.40989158
0.43100002 34917.48245574  3393.97945553
0.43200002 35055.49066326  3415.28133971
0.43300002 35190.40119992  2519.98474934
0.43400002 35322.95953462  2535.30554074
0.43500002 35452.27836731  2550.43702661
0.43600002 35579.71121651  2798.70021692
0.43700002 35703.25315212  3518.55576488
0.43800002 35823.21931554  3302.54274520
0.43900002 35941.44202755  2372.13528623
0.44000002 36055.82658431  2385.09304158
0.44100002 36167.83360190  2637.72022959
0.44200002 36276.57486669  3615.86777119
0.44300002 36382.52328225  2907.69139851
0.44400002 36484.76404551  3409.50136163
0.44500002 36583.09707484  2936.89117235
0.44600002 36679.25914987  2951.21333106
0.44700002 36772.25404838  2965.31470699
0.44800002 36861.02504329  2730.84916975
0.44900002 36947.99760218  3491.58593888
0.45000002 37031.44419070  4258.80144098
0.45100002 37110.31323870  3774.11903524
0.45200002 37186.84891594  3284.90045467
0.45300002 37259.43780236  3552.31496843
0.45400002 37329.51684545  3057.28757454
0.45500002 37395.97090267  2557.88453097
0.45600002 37458.91966357  3081.37087756
0.45700002 37518.46089171  3608.52573959
0.45800002 37573.98083092  3621.75618394
0.45900002 37626.48861682  2596.22783761
0.46000002 37676.40676290  3907.98547670
0.46100002 37721.70527079  3659.76001883
0.46200002 37764.34562516  3147.28071357
0.46300002 37803.26769221  2631.10755608
0.46400002 37838.33651443  3167.06891636
0.46500002 37870.88064229  3176.60961883
0.46600002 37899.27738230  3451.29785840
0.46700002 37924.18643232  2928.50581510
0.46800002 37946.40558946  3737.34166364
0.46900002 37964.55749071  3479.45185894
0.47000002 37978.83704055  3219.84595691
0.47100002 37990.32528331  2958.68667330
0.47200002 37998.10497778  2695.96567595
0.47300002 38003.14059312  2972.22576666
0.47400002 38003.38241586  4603.15991330
0.47500002 38001.36573124  2713.29764181
0.47600002 37996.23314258  3534.21979327
0.47700002 37986.57619216  2996.00140628
