# SAXS profile: number of points = 501, q_min = 0, q_max = 0.5, delta_q = 0.001
#    q    intensity    error
0.00000000 1664650.74656091 249.69761198
0.00100000 1664582.05291035 599.24955328
0.00200000 1664375.92149631 898.76302607
0.00300000 1664032.51758447 1198.10345534
0.00400000 1663551.72118617 1746.72937362
0.00500000 1662933.97057554 1795.96875931
0.00600000 1662179.00840483 2268.87443884
0.00700000 1661287.46739081 2192.89954809
0.00800000 1660258.83559983 2465.48447496
0.00900000 1659094.48670322 2986.37020373
0.01000000 1657793.51813040 3829.50319224
0.01100000 1656357.23316758 5366.59766912
0.01200000 1654785.04126373 3226.83097194
0.01300000 1653078.32038854 4512.90401370
0.01400000 1651236.45513207 3715.28218875
0.01500000 1649261.03724241 4354.04933220
0.01600000 1647151.04883462 4620.25889852
0.01700000 1644908.51297667 4441.25318427
0.01800000 1642533.15179664 6085.58560124
0.01900000 1640025.50974807 5412.08442638
0.02000000 1637386.35633159 6189.32070691
0.02100000 1634617.19774512 7012.50809626
0.02200000 1631716.33602880 6192.36377656
0.02300000 1628686.78544637 7622.25450284
0.02400000 1625528.13529502 7314.87694237
0.02500000 1622241.89391739 9490.11551284
0.02600000 1618828.31593959 8523.13147326
0.02700000 1615288.19626889 8141.05288206
0.02800000 1611621.63676449 8412.66532971
0.02900000 1607831.25361056 9405.81326548
0.03000000 1603916.99604601 8204.03581188
0.03100000 1599879.55218366 9983.24886499
0.03200000 1595719.63322298 7898.81254826
0.03300000 1591440.16371833 8116.34520913
0.03400000 1587039.21826700 8331.95628034
0.03500000 1582519.97078667 12818.41235530
0.03600000 1577882.24998215 9632.97158132
0.03700000 1573127.80452610 10760.19468059
0.03800000 1568258.06709720 12844.03416394
0.03900000 1563274.24121442 10317.61046982
0.04000000 1558175.24303338 11499.33382645
0.04100000 1552965.05066071 10762.04830008
0.04200000 1547643.96149144 12976.99521915
0.04300000 1542211.93815089 12214.31911712
0.04400000 1536673.01410699 10372.54332694
0.04500000 1531026.46985004 11620.49144611
0.04600000 1525272.68737890 10753.17294590
0.04700000 1519414.86002444 17503.66000154
0.04800000 1513453.40161685 14461.04792529
0.04900000 1507390.92090792 13566.51891966
0.05000000 1501226.70756756 13781.26181721
0.05100000 1494964.48847821 17491.08533000
0.05200000 1488602.34598826 20118.46164358
0.05300000 1482145.71874203 20409.14749851
0.05400000 1475592.79253800 13391.00521676
0.05500000 1468947.78802515 18508.74299254
0.05600000 1462208.98874435 16252.45366830
0.05700000 1455381.49470097 13928.00155443
0.05800000 1448463.88477199 14100.79657666
0.05900000 1441458.37751415 14270.43860390
0.06000000 1434367.47768126 15749.35564073
0.06100000 1427192.62032312 22563.91638175
0.06200000 1419934.46997936 13418.38136853
0.06300000 1412596.34408757 23053.57341339
0.06400000 1405176.06739134 15070.51402757
0.06500000 1397679.96693426 13837.03231991
0.06600000 1390105.85780491 22352.90323936
0.06700000 1382456.93813801 14101.06142892
0.06800000 1374735.96008357 19919.92499404
0.06900000 1366944.00172525 24399.95157318
0.07000000 1359080.07013039 21711.30513704
0.07100000 1351149.61767158 16051.65820976
0.07200000 1343150.74364273 17649.00159826
0.07300000 1335089.03099609 20747.28451381
0.07400000 1326963.56780589 14928.34083742
0.07500000 1318776.45903183 24054.48374023
0.07600000 1310528.29182016 19677.58322418
0.07700000 1302224.21708769 25901.24089234
0.07800000 1293862.63142552 22998.40935213
0.07900000 1285445.18269865 18510.41149907
0.08000000 1276976.76429921 20169.84893830
0.08100000 1268456.54869867 21842.82279342
0.08200000 1259885.93680525 20391.25484406
0.08300000 1251267.74717142 17342.57178972
0.08400000 1242602.90506991 22180.46289662
0.08500000 1233895.07652858 19100.69668135
0.08600000 1225143.63681910 22383.37529562
0.08700000 1216352.08003347 19267.01785247
0.08800000 1207518.97022832 16120.37900962
0.08900000 1198650.59068403 22654.49722800
0.09000000 1189745.22990979 17864.02546627
0.09100000 1180806.15463909 21183.66340946
0.09200000 1171833.93853898 22885.91789500
0.09300000 1162832.30443609 21314.71714194
0.09400000 1153799.30597862 18085.80497120
0.09500000 1144739.34090929 28023.22038263
0.09600000 1135653.61412018 18176.13694841
0.09700000 1126545.08792175 18216.23492809
0.09800000 1117414.26868244 19912.32320415
0.09900000 1108263.09847522 18286.34198471
0.10000000 1099091.57183930 18316.36190607
0.10100000 1089902.49944199 16675.50902574
0.10200000 1080697.77869817 21705.81590611
0.10300000 1071478.59163805 28415.61358693
0.10400000 1062247.68490504 25095.60273651
0.10500000 1053007.41531558 23439.94616776
0.10600001 1043754.34677916 21777.93547028
0.10700001 1034496.28793025 25138.26097965
0.10800001 1025230.15873379 16762.51388417
0.10900001 1015960.41642219 18439.68242594
0.11000001 1006687.01194972 25142.00930687
0.11100001 997412.32676036 23459.13902970
0.11200001 988138.69798007 23448.53240696
0.11300001 978864.61638550 16738.58572826
0.11400001 969594.96753374 21743.16817071
0.11500001 960329.87628444 16709.74063418
0.11600001 951070.43812121 25036.93046257
0.11700001 941819.47441683 23338.28767516
0.11800001 932575.26679089 23305.05701473
0.11900001 923342.48950063 18282.18215323
0.12000001 914120.85965325 23227.81213793
0.12100001 904913.77290834 21527.89967163
0.12200001 895719.97093092 23136.44793913
0.12300001 886542.55717760 18138.66157445
0.12400001 877381.77426263 18095.99994680
0.12500001 868239.57304048 18050.70157407
0.12600001 859118.64799065 22912.69542164
0.12700001 850018.51933706 19584.42760847
0.12800001 840939.78883372 26035.49708933
0.12900001 831885.40381998 19466.11936687
0.13000001 822855.86066407 21019.85395143
0.13100001 813851.57623686 19337.11436289
0.13200001 804875.99074767 20874.45980407
0.13300001 795929.64165203 22397.46117197
0.13400001 787011.58135045 17530.68380108
0.13500001 778125.36689590 19048.50987971
0.13600001 769270.17529324 15808.50284766
0.13700001 760449.05847180 18889.55550314
0.13800001 751660.53848660 20373.75985642
0.13900001 742909.90827796 20281.44145242
0.14000001 734194.35195117 15528.21127609
0.14100001 725516.19779025 16998.84531594
0.14200001 716875.70759527 23065.47697977
0.14300001 708277.23656284 18358.54683764
0.14400001 699715.14173308 18262.56606068
0.14500001 691198.09511010 18164.68679636
0.14600001 682720.63454304 21075.58698257
0.14700001 674289.40215237 25447.68323776
0.14800001 665899.81195592 16371.14764931
0.14900001 657555.07319562 22192.48476741
0.15000001 649256.75199102 17646.79935174
0.15100001 641005.02893171 18999.38995402
0.15200001 632801.59941312 18879.63660936
0.15300001 624646.26125572 15872.26224750
0.15400001 616538.18297368 15767.96477366
0.15500001 608481.69877436 17086.16690793
0.15600001 600473.47307472 15555.26605413
0.15700001 592520.13729906 18255.54629179
0.15800001 584614.13490607 18125.96210828
0.15900001 576763.56401827 17995.02404675
0.16000001 568963.72587100 13740.47462837
0.16100001 561220.98780622 15001.43771219
0.16200001 553530.22653891 18947.34054886
0.16300001 545895.75612147 13429.03623454
0.16400001 538316.25368606 19984.99186158
0.16500001 530793.15280924 18503.45018050
0.16600001 523326.43517858 13109.32782015
0.16700001 515915.98474354 16901.40845819
0.16800001 508562.44021878 15470.47016192
0.16900001 501269.17096069 15338.83735567
0.17000001 494033.08146864 12671.94913804
0.17100001 486856.05113568 13816.97538369
0.17200001 479738.69446747 13694.14168025
0.17300001 472680.40449710 17271.74279597
0.17400001 465683.28215818 17113.86142753
0.17500001 458746.04739807 12110.89622328
0.17600001 451867.37612409 13196.78734298
0.17700001 445052.44450735 14259.48099550
0.17800001 438297.65872594 11768.29269263
0.17900001 431604.26876247 15149.31054912
0.18000001 424973.43124771 14999.43796439
0.18100001 418405.64270569 14849.21696105
0.18200001 411897.24799508 12437.23799072
0.18300001 405453.92347337 13428.63457980
0.18400001 399071.76744791 14396.51469078
0.18500001 392753.38270818 15340.94785332
0.18600001 386497.59493780 19514.26449033
0.18700001 380304.71279624 11797.05274829
0.18800001 374174.46325942 13790.20049496
0.18900001 368109.59490735 13638.46113570
0.19000001 362103.91366682 10374.27761673
0.19100001 356166.72309646 11283.36232084
0.19200001 350289.19449221 15211.30898958
0.19300001 344477.98331566 17041.32663987
0.19400001 338728.90485200 11889.38512212
0.19500001 333043.87053296 11749.78830764
0.19600001 327421.41075379 11610.36377399
0.19700001 321863.23928345 10515.27252432
0.19800001 316368.41466004 11332.31714867
0.19900001 310937.73456707 11193.75897343
0.20000001 305568.52844459 11976.75903842
0.20100001 300264.33087002 10917.61158643
0.20200001 295022.00145061 10780.10444251
0.20300001 289843.58302364 11529.97827764
0.20400001 284728.10962652 10506.46774181
0.20500001 279674.50591999 11234.52543383
0.20600001 274684.40103451 9381.84616079
0.20700001 269756.18291442 10099.67196572
0.20800001 264890.23196552 9965.17099760
0.20900001 260088.72908262 9012.07488872
0.21000001 255346.46735482 8081.71607382
0.21100001 250666.37651838 8768.31026512
0.21200001 246047.59686428 8647.34320059
0.21300001 241490.20743463 12402.93764020
0.21400001 236994.27411276 7643.06570147
0.21500001 232560.06817280 9795.43053454
0.21600001 228184.79869061 8912.89865824
0.21700001 223870.55845478 10980.85141138
0.21800001 219616.07985007 7935.82742059
0.21900001 215420.47421618 9952.42637935
0.22000001 211283.84121805 9805.68353457
0.22100001 207208.61763127 8280.05675206
0.22200001 203191.12358979 8156.09208655
0.22300001 199231.93609901 10041.29005420
0.22400001 195328.92649648 7910.82189718
0.22500001 191487.04030137 7789.69316781
0.22600001 187700.37128940 8308.55732802
0.22700001 183972.11289108 6921.03121425
0.22800001 180299.62146233 8051.27997715
0.22900001 176683.12051025 7924.23832963
0.23000001 173122.91873158 8998.06412661
0.23100001 169619.56693888 7083.31345036
0.23200001 166169.45575632 6969.14730402
0.23300001 162775.35395734 7998.78127176
0.23400001 159435.71362543 6182.12008821
0.23500001 156148.53561496 7185.95594887
0.23600001 152916.12531832 8697.86961949
0.23700001 149736.54037251 6414.71369296
0.23800001 146609.51224149 5781.54638870
0.23900001 143535.16693018 6200.71950468
0.24000001 140512.13956127 7111.31971956
0.24100001 137542.03205867 5991.33119987
0.24200001 134621.85546688 6379.05692304
0.24300001 131752.57104964 5304.35876137
0.24400001 128932.76983651 5685.93541876
0.24500001 126163.00535806 5120.95662973
0.24600001 123442.58296948 4573.54791537
0.24700001 120771.61707214 4941.97480438
0.24800001 118147.83143520 7501.79691186
0.24900001 115571.89752467 5634.13027086
0.25000001 113043.94992159 4681.71540749
0.25100001 110562.19963870 4179.25134406
0.25200001 108128.04074719 5744.84307669
0.25300001 105740.00503510 4431.56382068
0.25400001 103396.45123066 3954.91444668
0.25500001 101098.25970137 4270.39069183
0.25600001 98844.95304992  4953.61505647
0.25700001 96635.65193648  5235.71986964
0.25800001 94469.69351240  5138.20687325
0.25900001 92347.45957246  3961.70620311
0.26000001 90268.38742736  4594.20979549
0.26100001 88229.14389779  3467.40551925
0.26200001 86234.38286627  5102.91984757
0.26300001 84279.31994201  4338.69959591
0.26400001 82365.00939990  4583.61298999
0.26500001 80491.84684668  4175.11229350
0.26600001 78657.47130571  3780.27824983
0.26700001 76863.72528851  3707.90628338
0.26800001 75108.52756817  3030.62923079
0.26900001 73391.09355194  3269.57337246
0.27000001 71712.32514678  4372.65923275
0.27100001 70070.76204619  3144.77594945
0.27200001 68466.48635720  3364.44329881
0.27300001 66898.25708786  3299.42219572
0.27400001 65365.04941317  4044.46262384
0.27500001 63869.55784535  3437.45976592
0.27600001 62406.93721061  3111.61003658
0.27700001 60980.88145871  2542.90287718
0.27800001 59587.88525942  3990.00498581
0.27900001 58229.18187616  2690.18833000
0.28000001 56903.21779641  2638.31781800
0.28100001 55610.10950979  2587.53851796
0.28200001 54349.52317834  3229.99231536
0.28300001 53120.77831646  2715.53431606
0.28400001 51923.68314634  2663.68507148
0.28500001 50757.55333905  2395.24905544
0.28600001 49621.29699360  2349.81663035
0.28700001 48515.58273154  2515.04792785
0.28800001 47438.67308582  2467.75989073
0.28900001 46392.58503473  2219.88529899
0.29000001 45373.75257121  2772.79015087
0.29100001 44384.61665395  2332.85556176
0.29200001 43422.43647427  2480.94102539
0.29300001 42487.77558995  2435.82428987
0.29400001 41579.93353442  1839.91214599
0.29500001 40699.84379177  2168.48777988
0.29600001 39844.60629010  1952.58502368
0.29700001 39015.03431907  1918.36932828
0.29800001 38211.34582092  1885.15683532
0.29900001 37432.45095815  2526.69055929
0.30000001 36677.90250900  1821.60811434
0.30100001 35948.24961984  2279.83809882
0.30200001 35241.00445132  2402.55559221
0.30300001 34557.63589865  2048.57675305
0.30400001 33897.73198393  1705.90344285
0.30500001 33259.25189086  2137.23962769
0.30600001 32643.13513320  2705.78959929
0.30700001 32049.01840641  2517.13002481
0.30800001 31475.98345657  2042.47666320
0.30900001 30923.90573638  1581.75785330
0.31000001 30393.04797744  1417.83575527
0.31100001 29880.78505812  1817.94704901
0.31200001 29389.49379435  1793.78783867
0.31300001 28916.80989415  1634.37817260
0.31400001 28464.77936893  1613.95306663
0.31500001 28030.52371870  1328.64688717
0.31600002 27614.44127047  1838.29344241
0.31700002 27216.07251420  1298.20672040
0.31800002 26835.70535687  1540.90627455
0.31900002 26472.89716678  1270.69912417
0.32000002 26126.63588174  1635.39685045
0.32100002 25797.41320755  1246.01511692
0.32200002 25484.50134046  1728.61380777
0.32300002 25186.85436563  1591.30553417
0.32400002 24905.07674836  1578.35931366
0.32500002 24638.17893509  1325.28770767
0.32600002 24386.83044721  1435.40890809
0.32700002 24149.78880178  1188.16966531
0.32800002 23927.85073431  1417.00738759
0.32900002 23718.55795327  1408.88240914
0.33000002 23524.55208210  1401.59287942
0.33100002 23341.63656957  1627.37897869
0.33200002 23174.28322159  1389.06660208
0.33300002 23018.17403237  1729.81586045
0.33400002 22875.59793139  1149.49885049
0.33500002 22744.43293221  1146.31947407
0.33600002 22625.33433837  1715.56605745
0.33700002 22516.96927039  1598.25455450
0.33800002 22421.49127772  1254.14617401
0.33900002 22335.61046346  1139.11618758
0.34000002 22261.41693310  2391.21021311
0.34100002 22197.39130620  1252.59885073
0.34200002 22144.44793481  1481.13147026
0.34300002 22100.20299668  1254.40758150
0.34400002 22066.46581605  1370.32759208
0.34500002 22041.80445611  1601.55758763
0.34600002 22027.56628249  1605.14883103
0.34700002 22020.05885366  1609.22597724
0.34800002 22022.86556956  1729.34560075
0.34900002 22033.62102414  1735.14773783
0.35000002 22052.76584527  1161.07817674
0.35100002 22079.90319186  1282.40083812
0.35200002 22114.13095456  1288.03761845
0.35300002 22156.19124350  1529.44195398
0.35400002 22205.90598759  1537.20391480
0.35500002 22262.42962495  1664.33931759
0.35600002 22325.14393030  1554.16496832
0.35700002 22394.89590028  1563.38775685
0.35800002 22471.38956641  1331.09282401
0.35900002 22553.72076854  1339.69107711
0.36000002 22642.61608399  1226.09771902
0.36100002 22736.49742324  1851.88780284
0.36200002 22837.07227856  1492.17437336
0.36300002 22941.18347488  1252.58867706
0.36400002 23051.42211938  1388.27196290
0.36500002 23165.96037249  2034.89805551
0.36600002 23285.99269995  1410.08335474
0.36700002 23410.10378873  1679.90912745
0.36800002 23540.01188289  1302.93971944
0.36900002 23673.07134680  1445.24107418
0.37000002 23809.31783787  1589.98632053
0.37100002 23949.87165639  1870.96406242
0.37200002 24094.45439029  1617.70174440
0.37300002 24242.05332821  1767.97303298
0.37400002 24393.98050202  1372.16146824
0.37500002 24547.94932077  2076.75661092
0.37600002 24705.94762295  1536.83354469
0.37700002 24865.50115037  1550.86138022
0.37800002 25028.83149464  1707.46696545
0.37900002 25194.25037716  2154.10850929
0.38000002 25362.24583121  1594.39765971
0.38100002 25531.98557242  2487.07083243
0.38200002 25704.07774940  2067.37907132
0.38300002 25877.74074005  1937.72531841
0.38400002 26053.95276458  2708.30851818
0.38500002 26230.57006351  2126.25011008
0.38600002 26409.99358716  1686.41022040
0.38700002 26589.71203623  2321.28197073
0.38800002 26770.71112184  1562.07106796
0.38900002 26952.83774632  1734.41519115
0.39000002 27136.69968663  1750.72426322
0.39100002 27320.53708443  2249.02671934
0.39200002 27505.53782289  2107.88699092
0.39300002 27690.82995247  2291.13937881
0.39400002 27877.46919373  1816.91414078
0.39500002 28063.48628394  2167.06251352
0.39600002 28249.88028737  2355.19263114
0.39700002 28435.93933708  2037.15079062
0.39800002 28623.29499321  2398.34600111
0.39900002 28809.44333515  2419.99335481
0.40000002 28995.57607007  2092.90077990
0.40100002 29181.06580716  2463.46569216
0.40200002 29367.50580657  1952.79239113
0.40300002 29552.25637279  2686.30023156
0.40400002 29736.51232552  2348.44117218
0.40500002 29920.09184045  2550.98715118
0.40600002 30103.24399882  1837.80313320
0.40700002 30285.32944654  2409.50092493
0.40800002 30466.71017461  2429.87258511
0.40900002 30646.22553425  2261.69155159
0.41000002 30825.58499900  2090.43714576
0.41100002 31003.22833889  3257.19932362
0.41200002 31179.08652926  2317.85340241
0.41300002 31354.04643497  2336.50365104
0.41400002 31527.40288233  3140.12947587
0.41500002 31699.77983628  2373.67962661
0.41600002 31869.32299203  2790.79674665
0.41700002 32037.98507114  3013.17263872
0.41800002 32205.74499636  2226.54428583
0.41900002 32369.71884359  3262.86781404
0.42000002 32532.65448818  2465.32467393
0.42100002 32694.29378345  2483.45867347
0.42200002 32853.64278090  2918.38922652
0.42300002 33010.50222295  2519.36164904
0.42400002 33165.25216139  2959.99889567
0.42500002 33318.29874164  2554.84726857
0.42600002 33467.78833031  2357.97313855
0.42700002 33616.34771844  2373.98658837
0.42800002 33762.03523850  2389.84577760
0.42900002 33905.89112824  2843.00910582
0.43000002 34047.21213751  2641.38284280
0.43100002 34184.73139027  2879.72190878
0.43200002 34320.74086729  2452.04544746
0.43300002 34453.73501275  3140.11355787
0.43400002 34584.53595622  3159.29750931
0.43500002 34712.31476725  2724.22259203
0.43600002 34838.28156033  2512.01441095
0.43700002 34960.49085285  2756.28522946
0.43800002 35079.37987368  2540.97500156
0.43900002 35196.61975872  4413.65632690
0.44000002 35310.17671278  3503.65245036
0.44100002 35421.55995650  2348.44953641
0.44200002 35529.80946027  2597.05154557
0.44300002 35635.39784338  2610.64936973
0.44400002 35737.51041842  2624.02682683
0.44500002 35835.80200500  3116.63984808
0.44600002 35932.09493072  2650.17178721
0.44700002 36025.31961066  3147.17207034
0.44800002 36114.66546123  2918.78740090
0.44900002 36202.22402498  3176.74530874
0.45000002 36286.38431237  2700.25141658
0.45100002 36366.16528386  2958.75134772
0.45200002 36443.82194242  2971.62938202
0.45300002 36517.67303395  3232.90974691
0.45400002 36589.12848142  2746.92895093
0.45500002 36657.16100149  3510.28990387
0.45600002 36721.72492530  2769.00179923
0.45700002 36783.16717741  3285.10481631
0.45800002 36840.75051966  2790.13437284
0.45900002 36895.37537446  3309.51532794
0.46000002 36947.66939377  3576.90404354
0.46100002 36995.48065712  2820.16562415
0.46200002 37040.75287438  3601.47257267
0.46300002 37082.42014618  3097.12387740
0.46400002 37120.40081752  2848.06288771
0.46500002 37155.95679050  3116.64180330
0.46600002 37187.61904349  3125.99140495
0.46700002 37215.91053773  3396.32415665
0.46800002 37241.63447673  3405.93384250
0.46900002 37263.39640612  3152.48348537
0.47000002 37281.55447773  2897.33614356
0.47100002 37296.98530578  2904.68935329
0.47200002 37308.86260679  4235.30228386
0.47300002 37317.99577769  3449.30251322
0.47400002 37322.67087497  2925.16446847
0.47500002 37325.10135446  2931.51359933
0.47600002 37324.55666775  3471.74380300
0.47700002 37319.72543620  4281.31910497
