# SAXS profile: number of points = 501, q_min = 0, q_max = 0.5, delta_q = 0.001
#    q    intensity    error
0.00000000 1664650.74656091 274.66737318
0.00100000 1664582.08095980 549.31209976
0.00200000 1664376.03484395 1273.24770697
0.00300000 1664032.77209153 1597.47151811
0.00400000 1663552.17545487 1621.96343270
0.00500000 1662934.66926229 1496.64126157
0.00600000 1662180.01805796 2094.34690802
0.00700000 1661288.85614304 2192.90138125
0.00800000 1660260.65061160 3137.89276214
0.00900000 1659096.77515627 2737.50979603
0.01000000 1657796.34238003 4103.04612456
0.01100000 1656360.62340536 3279.59417713
0.01200000 1654789.09459709 3872.20665113
0.01300000 1653083.07785291 3471.47461660
0.01400000 1651241.95216301 4086.82401278
0.01500000 1649267.35746742 3958.24183418
0.01600000 1647158.22362883 5460.32975543
0.01700000 1644916.63865243 5329.53014831
0.01800000 1642542.24169583 6085.61927932
0.01900000 1640035.63182725 5904.12854099
0.02000000 1637397.55123058 5673.58277166
0.02100000 1634629.55783043 6473.13334249
0.02200000 1631729.89161359 6755.36205819
0.02300000 1628701.55789249 6449.65846283
0.02400000 1625544.21603048 6095.79108807
0.02500000 1622259.31667023 6326.81162396
0.02600000 1618847.12119464 8523.23048293
0.02700000 1615308.50691775 8819.58485172
0.02800000 1611643.41623467 9113.84393676
0.02900000 1607854.57963856 9405.94972275
0.03000000 1603941.92434260 9695.82937832
0.03100000 1599906.13519724 10751.36972323
0.03200000 1595747.96131497 9478.74332678
0.03300000 1591470.27430491 8928.14865044
0.03400000 1587071.09034879 10831.76069141
0.03500000 1582553.72986424 10254.94864307
0.03600000 1577917.86782910 10508.93348540
0.03700000 1573165.41178744 10760.45191427
0.03800000 1568297.67120060 14679.26688179
0.03900000 1563315.91797229 11255.87513066
0.04000000 1558219.02624254 9583.04745546
0.04100000 1553010.94896515 9783.96943213
0.04200000 1547692.04479606 10980.87556726
0.04300000 1542262.32295214 11196.82498437
0.04400000 1536725.62663684 11410.18830769
0.04500000 1531081.41023356 17959.58577653
0.04600000 1525329.95184276 13979.64965851
0.04700000 1519474.58266161 17504.34800635
0.04800000 1513515.56032078 17798.94381752
0.04900000 1507455.62257118 14697.69300421
0.05000000 1501293.90632871 14930.36859369
0.05100000 1495034.31412630 15159.64865144
0.05200000 1488674.75814741 14201.95785456
0.05300000 1482220.74442459 18008.98288430
0.05400000 1475670.51213598 13391.71052214
0.05500000 1469028.19949304 14807.80494166
0.05600000 1462292.20824080 17503.63854943
0.05700000 1455467.56499107 12662.56840649
0.05800000 1448552.85865102 16665.60141694
0.05900000 1441550.19313514 12973.95234418
0.06000000 1434462.20576943 13125.32979599
0.06100000 1427290.27809302 14601.18022722
0.06200000 1420035.14723940 14761.26604555
0.06300000 1412699.96600610 16274.30436930
0.06400000 1405282.61272954 15071.65672638
0.06500000 1397789.69135073 15221.93045086
0.06600000 1390218.74767852 16766.03888146
0.06700000 1382572.99057207 15512.46968019
0.06800000 1374855.19480590 15652.72712555
0.06900000 1367066.37364612 15789.61735487
0.07000000 1359205.65202258 17370.64904629
0.07100000 1351278.35112065 17512.56825077
0.07200000 1343282.89706559 19121.63293552
0.07300000 1335224.51388222 19267.29063810
0.07400000 1327102.30980549 20901.86235898
0.07500000 1318918.55573955 16539.23946421
0.07600000 1310673.78638244 19679.76782513
0.07700000 1302372.95812878 15237.76432458
0.07800000 1294014.82983776 16867.48409796
0.07900000 1285600.94037704 21598.09681137
0.08000000 1277135.87747294 17068.92180315
0.08100000 1268619.25482590 17164.41932312
0.08200000 1260052.06094786 23531.47334242
0.08300000 1251437.33425146 22075.35561224
0.08400000 1242776.04349152 20599.01388776
0.08500000 1234071.75570259 17511.47903550
0.08600000 1225323.99434787 19188.57465242
0.08700000 1216535.89712303 17664.10205569
0.08800000 1207706.28213298 16122.87962367
0.08900000 1198841.41395489 19421.23181828
0.09000000 1189939.82636164 17866.94733213
0.09100000 1181004.34111617 21187.21887502
0.09200000 1172035.68164943 22889.85793813
0.09300000 1163037.68764394 26238.13146623
0.09400000 1154008.33428881 18089.08149012
0.09500000 1144951.95690638 18136.03984984
0.09600000 1135869.83835740 23137.66969499
0.09700000 1126764.93865969 21532.47899009
0.09800000 1117637.71651338 19916.30504469
0.09900000 1108490.30368872 21615.56193835
0.10000000 1099322.30507057 23316.62718706
0.10100000 1090136.91292143 18347.00510736
0.10200000 1080935.93800961 20040.55323333
0.10300000 1071720.44492058 18390.72369995
0.10400000 1062493.09820187 18407.69379234
0.10500000 1053256.44502904 21770.81174305
0.10600001 1044007.01057437 23458.83863143
0.10700001 1034752.51072774 18439.29060888
0.10800001 1025490.05094744 18443.43943427
0.10900001 1016223.88904723 20121.23395015
0.11000001 1006954.08971441 16765.78638290
0.11100001 997683.00893954 18437.18287310
0.11200001 988412.98568227 25130.40134404
0.11300001 979142.35853480 18417.66863116
0.11400001 969876.30526688 23422.51387503
0.11500001 960614.77140142 21729.10715228
0.11600001 951358.71126679 20035.61540279
0.11700001 942111.25977549 18342.90709169
0.11800001 932870.60663812 18316.91522404
0.11900001 923641.24927949 19950.65192415
0.12000001 914423.13437528 16596.78067070
0.12100001 905219.34777610 24848.27226701
0.12200001 896029.08791817 23144.43243129
0.12300001 886855.07737450 16495.50521634
0.12400001 877697.73476776 24685.24995345
0.12500001 868558.64235378 18057.33502541
0.12600001 859441.19598838 18009.59111061
0.12700001 850344.40794687 17959.27474219
0.12800001 841269.05581110 19534.26839657
0.12900001 832217.77569024 19473.89686900
0.13000001 823191.48688186 16175.71347967
0.13100001 814190.36714603 19345.16403527
0.13200001 805217.71680711 20883.32246984
0.13300001 796274.62533165 19206.14486843
0.13400001 787359.66081564 20727.24404817
0.13500001 778476.50114612 15880.92137214
0.13600001 769624.21055579 18978.93392718
0.13700001 760806.18202269 17323.55758152
0.13800001 752020.63843870 15679.63105083
0.13900001 743272.86240573 17169.60393126
0.14000001 734560.10757959 15535.94700799
0.14100001 725884.94795388 18553.62014474
0.14200001 717247.10147752 16923.44615756
0.14300001 708651.48254218 18368.24729388
0.14400001 700092.08182435 15227.00349794
0.14500001 691577.65458471 21203.77188979
0.14600001 683102.82548799 16568.65981383
0.14700001 674674.22341093 22466.65269948
0.14800001 666287.12076363 20848.12499228
0.14900001 657944.80758216 16284.13475596
0.15000001 649648.90823835 14714.54846587
0.15100001 641399.72063214 17548.69718453
0.15200001 633198.52862736 18891.47899303
0.15300001 625045.53978994 17326.26318059
0.15400001 616939.64341913 15778.23212504
0.15500001 608885.35949967 17097.50170163
0.15600001 600879.34931650 14150.70934425
0.15700001 592927.97495755 16862.87240367
0.15800001 585024.07958193 16743.38994790
0.15900001 577175.58869860 18007.87921738
0.16000001 569377.58874877 17875.61024254
0.16100001 561636.75211246 15012.55109262
0.16200001 553947.71173570 16252.82662956
0.16300001 546315.05217010 13439.35091783
0.16400001 538737.18580320 17333.86977154
0.16500001 531215.82903051 13227.27476734
0.16600001 523750.63233498 15743.94475131
0.16700001 516341.76676542 14312.99445052
0.16800001 508989.79973619 12902.89203254
0.16900001 501697.80095998 14072.62398141
0.17000001 494463.14598361 13951.27832270
0.17100001 487287.37268967 13829.21628997
0.17200001 480171.05048842 13706.48328345
0.17300001 473113.99755324 16052.75869506
0.17400001 466118.05777202 19576.95935097
0.17500001 459181.75820039 15759.11868570
0.17600001 452304.19221637 16812.14761870
0.17700001 445490.13611509 11894.58719606
0.17800001 438736.09370701 12958.07113967
0.17900001 432043.50257795 17497.76268089
0.18000001 425413.40388739 13859.96935333
0.18100001 418846.27810484 24012.45825801
0.18200001 412338.35802809 12450.55730880
0.18300001 405895.50369289 15683.80300359
0.18400001 399513.79247448 15521.11157086
0.18500001 393195.88390264 10970.16567914
0.18600001 386940.40690462 14109.78260437
0.18700001 380747.59674706 12884.49928265
0.18800001 374617.58825430 13806.53186742
0.18900001 368552.74533742 10503.75373839
0.19000001 362547.09651885 11425.67228664
0.19100001 356609.91491443 12324.43924177
0.19200001 350732.16595692 14215.17535792
0.19300001 344920.74985697 13048.35258366
0.19400001 339171.51438857 13889.07417052
0.19500001 333486.15441923 9804.49340324
0.19600001 327863.17644502 15501.37171486
0.19700001 322304.50656022 10529.68872693
0.19800001 316809.12138356 17022.15489638
0.19900001 311377.91386268 10275.47164309
0.20000001 306007.94073968 11993.98180414
0.20100001 300703.02359602 10022.43225014
0.20200001 295459.85036078 9896.42815557
0.20300001 290280.50348209 9770.84220902
0.20400001 285163.89249193 12276.30615203
0.20500001 280109.25758502 12117.52705589
0.20600001 275118.05051279 9396.65745943
0.20700001 270188.67656550 10115.86452878
0.20800001 265321.36968494 11644.95546593
0.20900001 260518.51998567 9847.60052097
0.21000001 255774.87195926 8904.80258821
0.21100001 251093.22051792 10380.19422692
0.21200001 246472.92182294 8662.29124697
0.21300001 241913.81955950 12424.69435996
0.21400001 237416.32958572 9188.01238934
0.21500001 232980.21136058 12077.69472794
0.21600001 228603.12071894 7441.03193120
0.21700001 224286.86011701 10267.85294162
0.21800001 220030.49387186 7228.00206543
0.21900001 215832.78420345 7834.73043702
0.22000001 211693.97735620 7719.42124929
0.22100001 207616.57971111 8296.35891754
0.22200001 203596.71118950 7491.34134244
0.22300001 199635.02884057 6707.73728622
0.22400001 195729.72526982 7266.46639425
0.22500001 191885.34380741 7155.40480894
0.22600001 188096.09423888 7045.13954287
0.22700001 184365.23952394 9457.93723484
0.22800001 180690.03211076 7448.04347582
0.22900001 177070.72864967 6108.94042731
0.23000001 173507.67104942 6613.24519480
0.23100001 170001.50889715 6507.65806835
0.23200001 166548.38499743 7567.12623023
0.23300001 163151.24025810 6871.93056468
0.23400001 159808.48253978 6759.89913114
0.23500001 156518.09543419 6648.88900851
0.23600001 153282.52606238 6539.03287110
0.23700001 150099.63744214 5894.41304115
0.23800001 146969.25207580 6849.50231697
0.23900001 143891.40565865 5698.09993360
0.24000001 140864.89698089 5092.26626673
0.24100001 137891.15771636 5505.99418805
0.24200001 134967.46897673 6395.43381998
0.24300001 132094.51330789 4834.65941576
0.24400001 129270.98801853 5225.77993785
0.24500001 126497.40633835 4667.75451469
0.24600001 123773.16867255 4585.79611625
0.24700001 121098.20247586 5856.30934877
0.24800001 118470.49782612 4867.36063344
0.24900001 115890.59458165 4780.48725265
0.25000001 113358.50415412 5121.53745997
0.25100001 110872.59407210 4190.98425420
0.25200001 108434.24166161 4526.58763232
0.25300001 106042.00845138 5252.26092708
0.25400001 103694.14534883 5156.19162142
0.25500001 101391.64894984 5450.81530543
0.25600001 99133.97594173  4203.77644870
0.25700001 96920.17496426  4876.05423315
0.25800001 94749.80856346  4049.13326054
0.25900001 92622.94907524  4695.98374030
0.26000001 90539.27812417  4253.53548753
0.26100001 88495.47764874  5216.80865423
0.26200001 86495.99710956  3412.26724743
0.26300001 84536.26763654  3347.63635681
0.26400001 82617.18118413  3940.83972896
0.26500001 80739.17171695  3865.79172473
0.26600001 78899.97045781  4423.92155291
0.26700001 77101.34093347  3719.36886263
0.26800001 75341.16033858  3648.01915622
0.26900001 73618.78956739  3279.71723043
0.27000001 71935.04884424  4093.82382345
0.27100001 70288.47567154  3441.32393173
0.27200001 68679.13859357  3093.65194435
0.27300001 67105.81829510  2758.04926245
0.27400001 65567.42486077  2975.12204385
0.27500001 64066.77214719  2917.60094166
0.27600001 62599.03794798  4161.58423973
0.27700001 61167.76710558  3315.90481172
0.27800001 59769.45084617  3251.75712718
0.27900001 58405.43824496  2943.63422686
0.28000001 57074.20119505  3127.38100250
0.28100001 55775.70495111  3067.10616042
0.28200001 54509.81207849  3470.91244838
0.28300001 53275.75679309  2269.54734680
0.28400001 52073.23103807  2448.74380547
0.28500001 50901.65215714  3275.52147135
0.28600001 49759.93495609  2142.16530125
0.28700001 48648.81869386  2521.95488046
0.28800001 47566.45975183  3093.00919176
0.28900001 46514.85540009  3237.43408909
0.29000001 45490.51870432  2184.22735898
0.29100001 44495.86259915  2533.59453632
0.29200001 43528.12059248  2295.67318871
0.29300001 42587.91727985  2629.37813732
0.29400001 41674.57259337  3134.96987173
0.29500001 40788.93795577  1992.13182406
0.29600001 39928.11606233  1778.79765478
0.29700001 39092.97069029  2096.94704709
0.29800001 38283.74649487  2232.13394505
0.29900001 37499.30417155  1687.46876760
0.30000001 36739.11691321  1990.52544859
0.30100001 36003.88078196  1794.07346430
0.30200001 35291.10302326  1924.77685001
0.30300001 34602.16348108  2051.21634827
0.30400001 33936.67314177  2328.90430461
0.30500001 33292.61033831  1680.94397556
0.30600001 32670.90880979  1955.84404849
0.30700001 32071.29656204  1778.03276558
0.30800001 31492.72126790  1751.62523985
0.30900001 30935.01484628  1726.17391015
0.31000001 30398.71159988  1701.71995593
0.31100001 29880.89570215  1817.95378059
0.31200001 29384.09178586  2069.37476200
0.31300001 28905.94755276  1769.91125245
0.31400001 28448.44474280  1478.60798551
0.31500001 28008.71605800  2124.18112641
0.31600002 27587.15879457  1442.94640907
0.31700002 27183.37368737  1685.64108217
0.31800002 26797.61955982  1795.17261931
0.31900002 26429.47595423  1522.33788704
0.32000002 26077.83586132  1381.21264179
0.32100002 25743.23661993  1243.39838762
0.32200002 25425.07672534  1601.39853337
0.32300002 25122.14412978  1465.12351502
0.32400002 24835.09809719  1452.85330748
0.32500002 24562.92171987  1681.57770057
0.32600002 24306.40759350  1430.67521870
0.32700002 24064.17900886  1420.74919596
0.32800002 23837.04797915  1882.17339756
0.32900002 23622.68871494  1286.25546144
0.33000002 23423.62878180  1511.87819131
0.33100002 23235.63558426  2082.84247240
0.33200002 23063.25606005  1497.61260318
0.33300002 22902.26063996  1147.40331240
0.33400002 22754.73663420  1486.45324102
0.33500002 22618.70501120  1481.97762251
0.33600002 22494.75405096  1364.53184535
0.33700002 22381.55555171  1815.59187234
0.33800002 22281.28430709  1246.30369674
0.33900002 22190.73186173  1244.90011640
0.34000002 22111.80468215  1470.32452197
0.34100002 22043.14067662  1356.97580432
0.34200002 21985.67255208  1244.27919701
0.34300002 21936.80278601  2037.49033926
0.34400002 21898.62203634  1473.22986727
0.34500002 21869.52812375  1362.03427605
0.34600002 21850.85246730  1706.00538718
0.34700002 21838.99905196  1595.99412631
0.34800002 21837.48627131  1257.51170649
0.34900002 21844.06611659  1146.81352544
0.35000002 21858.97533968  1496.13763798
0.35100002 21882.00268218  1617.51771488
0.35200002 21912.13605983  1508.32195712
0.35300002 21950.12999595  1748.32793698
0.35400002 21995.89118043  1288.40938692
0.35500002 22048.51785571  1295.13000019
0.35600002 22107.42570053  1302.23797257
0.35700002 22173.35784986  1190.70937294
0.35800002 22246.11678708  1317.74879030
0.35900002 22324.74825045  1808.30469394
0.36000002 22410.03446013  1577.55445054
0.36100002 22500.35817772  1343.94645761
0.36200002 22597.45638749  1845.64733787
0.36300002 22698.15160776  1611.11487743
0.36400002 22805.02441275  1748.00520404
0.36500002 22916.25120731  1761.34315122
0.36600002 23033.02503672  1267.96808833
0.36700002 23153.96882322  1661.52888146
0.36800002 23280.73402924  1804.02416538
0.36900002 23410.81380167  1429.23025029
0.37000002 23544.06127350  1965.34060790
0.37100002 23681.70128524  1982.15849147
0.37200002 23823.52367146  1466.21883381
0.37300002 23968.33236748  1613.54821141
0.37400002 24117.51503848  1356.61028518
0.37500002 24268.84506609  1779.39180454
0.37600002 24424.29424583  1519.31329553
0.37700002 24581.31811557  1393.76080318
0.37800002 24742.20911763  1969.23251696
0.37900002 24905.35258222  1987.44723021
0.38000002 25071.03762841  1576.09085517
0.38100002 25238.57183678  1446.17023476
0.38200002 25408.49974650  1751.66205551
0.38300002 25580.11351672  1915.43899087
0.38400002 25754.33926588  1784.77579568
0.38500002 25929.04304155  2251.93749484
0.38600002 26106.60699345  1818.58632932
0.38700002 26284.57055616  1529.76207884
0.38800002 26463.83683672  1544.16495258
0.38900002 26644.37459573  1870.43518523
0.39000002 26826.67968945  1573.38483833
0.39100002 27009.02158622  1746.94359896
0.39200002 27192.59170972  1603.00335723
0.39300002 27376.56067447  2265.13673752
0.39400002 27561.88390890  2286.25837856
0.39500002 27746.76187746  1648.15773361
0.39600002 27932.01516314  2162.35705630
0.39700002 28117.05046930  2014.30559105
0.39800002 28303.39649291  2540.93754054
0.39900002 28488.68729120  1880.25345030
0.40000002 28673.96066327  1724.73881561
0.40100002 28858.73988288  1740.18209739
0.40200002 29044.50914476  1931.31472709
0.40300002 29228.68779722  3542.51712887
0.40400002 29412.35709130  1965.48085575
0.40500002 29595.51887044  2703.55077691
0.40600002 29778.23820288  2181.55383411
0.40700002 29960.02100660  2016.90870973
0.40800002 30141.16644627  2958.65703855
0.40900002 30320.54093013  2237.65602667
0.41000002 30499.74154101  2632.43281713
0.41100002 30677.40907470  2085.45036771
0.41200002 30853.29325339  2675.90625066
0.41300002 31028.37009705  3082.97899892
0.41400002 31201.97004159  2136.55499983
0.41500002 31374.56587375  2545.10490427
0.41600002 31544.41188594  3156.96489113
0.41700002 31713.50527736  2386.12425013
0.41800002 31881.70117575  2003.76501384
0.41900002 32046.24364767  2422.69613456
0.42000002 32209.79603903  2440.85845950
0.42100002 32372.09376427  2458.98435885
0.42200002 32532.17753288  2683.41679095
0.42300002 32689.88566905  2494.89219248
0.42400002 32845.50823150  2303.29137388
0.42500002 32999.47177984  2319.53298132
0.42600002 33149.97191492  2547.90696212
0.42700002 33299.61311516  3848.10347394
0.42800002 33446.42969282  3013.18899381
0.42900002 33591.47451276  2166.65020874
0.43000002 33734.08089897  3489.45349355
0.43100002 33872.90241207  2194.96418032
0.43200002 34010.33033548  3092.55948395
0.43300002 34144.76491161  2222.82430108
0.43400002 34277.12513505  2683.89902526
0.43500002 34406.41266631  3150.25129301
0.43600002 34534.04662813  2942.81892287
0.43700002 34657.99063149  2504.73310163
0.43800002 34778.58338826  3206.23775450
0.43900002 34897.63829203  2533.56866007
0.44000002 35013.04480101  2779.33562802
0.44100002 35126.39623485  2794.65621688
0.44200002 35236.57921642  2809.76495987
0.44300002 35344.19040104  2353.92319226
0.44400002 35448.40199103  3312.65332305
0.44500002 35548.84249185  2853.86121049
0.44600002 35647.28867566  2868.18098277
0.44700002 35742.85770668  3122.49619723
0.44800002 35834.48620695  4102.86969271
0.44900002 35924.35146194  3152.36199018
0.45000002 36010.88718692  2679.75029701
0.45100002 36093.11546692  3181.24734802
0.45200002 36173.27933002  3195.36678105
0.45300002 36249.71949565  2962.32721758
0.45400002 36323.69479966  3718.63843135
0.45500002 36394.37821172  3236.18826396
0.45600002 36461.58635063  2499.44186279
0.45700002 36525.74006948  3262.11400021
0.45800002 36586.12650105  2518.95492898
0.45900002 36643.57159350  2781.24721576
0.46000002 36698.71372692  3045.25940939
0.46100002 36749.31783301  2546.72784653
0.46200002 36797.61887840  2811.15422745
0.46300002 36842.19173585  3077.05999962
0.46400002 36883.18212963  3601.64290566
0.46500002 36921.81419520  2580.83493456
0.46600002 36956.47329452  3365.44140007
0.46700002 36987.91462412  2596.55172968
0.46800002 37016.77894254  2864.54357424
0.46900002 37041.68649569  2611.43902172
0.47000002 37063.06452845  4189.60901287
0.47100002 37081.69444928  3938.07613717
0.47200002 37096.85749886  2632.02216429
0.47300002 37109.31975797  3430.01458780
0.47400002 37117.24305019  3173.52443121
0.47500002 37123.07283749  2915.64627885
0.47600002 37125.89837244  2921.99396990
0.47700002 37124.45483764  2928.00589183
