# SAXS profile: number of points = 501, q_min = 0, q_max = 0.5, delta_q = 0.001
#    q    intensity    error
0.00000000 1646666.22097351 271.69992646
0.00100000 1646598.15308733 543.37740342
0.00200000 1646393.89603460 1037.22818735
0.00300000 1646053.62232288 1185.15865029
0.00400000 1645577.20856377 1604.43783932
0.00500000 1644965.06711423 2368.74979040
0.00600000 1644216.99263044 1726.42791255
0.00700000 1643333.58987427 2366.40046777
0.00800000 1642314.31495435 2217.12441880
0.00900000 1641160.56070271 2707.91504092
0.01000000 1639871.45551263 2976.36682027
0.01100000 1638448.24866955 3539.04837121
0.01200000 1636890.40591314 4149.51736092
0.01300000 1635199.25608575 4807.48602493
0.01400000 1633374.16665246 3675.09203789
0.01500000 1631416.76388013 4306.94044843
0.01600000 1629326.04504588 5401.21608078
0.01700000 1627103.98582155 6589.77143819
0.01800000 1624750.32464264 5093.59249695
0.01900000 1622265.60476033 4866.79703388
0.02000000 1619650.55718764 6632.46933171
0.02100000 1616906.73877531 6936.53022384
0.02200000 1614032.38074349 8352.61794983
0.02300000 1611030.53800886 5799.71020083
0.02400000 1607900.81482037 7838.51682967
0.02500000 1604644.63468251 8761.36010550
0.02600000 1601262.32686969 6485.11272044
0.02700000 1597754.68019198 8052.68395699
0.02800000 1594121.71959526 8321.31575790
0.02900000 1590366.09616315 10734.97164199
0.03000000 1586487.80838710 9590.31924252
0.03100000 1582487.48526178 11393.91041815
0.03200000 1578365.77112413 7812.91092691
0.03300000 1574125.68526815 11239.25791095
0.03400000 1569765.17631998 9889.52106712
0.03500000 1565287.60367006 14369.34086524
0.03600000 1560692.62089134 10394.21333549
0.03700000 1555982.01320748 9756.00767400
0.03800000 1551157.23218356 10889.12427387
0.03900000 1546219.39651409 9277.31680872
0.04000000 1541167.58181792 10425.99917413
0.04100000 1536005.54156724 10644.51889661
0.04200000 1530733.66098911 12835.20234286
0.04300000 1525352.05868703 12080.78886557
0.04400000 1519864.44295081 13336.81110628
0.04500000 1514270.30929717 11493.31218160
0.04600000 1508569.90541570 12762.50199311
0.04700000 1502766.60299720 11901.91204927
0.04800000 1496860.59789242 13202.31108769
0.04900000 1490854.62280164 14535.83324892
0.05000000 1484747.75425274 14765.81710363
0.05100000 1478544.00452300 12685.90814977
0.05200000 1472241.20798642 18726.90903829
0.05300000 1465845.00223971 22559.35563614
0.05400000 1459353.31136570 16855.53153231
0.05500000 1452770.55509245 21965.89181769
0.05600000 1446094.94295470 13600.52357315
0.05700000 1439331.55759578 15026.62216272
0.05800000 1432479.00613754 15212.92775551
0.05900000 1425539.43531270 17961.79772386
0.06000000 1418515.23356863 14277.35649289
0.06100000 1411408.05059458 17063.92412911
0.06200000 1404218.36736441 14596.85061106
0.06300000 1396949.57118681 16092.85981250
0.06400000 1389599.39588432 17613.17316654
0.06500000 1382174.41821167 20525.29107057
0.06600000 1374672.18381651 15197.00170314
0.06700000 1367095.89054510 15338.81660976
0.06800000 1359448.28678755 15477.31946956
0.06900000 1351730.36241481 17031.80336384
0.07000000 1343941.37695006 20038.16686868
0.07100000 1336086.56807686 17315.68273330
0.07200000 1328164.21334517 17452.07858093
0.07300000 1320179.65256369 14653.99483008
0.07400000 1312132.02229656 16237.63453688
0.07500000 1304023.47205345 19325.62876167
0.07600000 1295854.58184983 17960.54534644
0.07700000 1287630.36012151 16571.80351179
0.07800000 1279349.38309588 15160.29090065
0.07900000 1271013.25355491 22878.23963706
0.08000000 1262626.54383228 19943.18719539
0.08100000 1254188.71342506 18511.82627870
0.08200000 1245701.19958500 20161.67486137
0.08300000 1237166.56764120 21823.61927742
0.08400000 1228586.03505115 20363.81448682
0.08500000 1219962.85597856 18885.02589711
0.08600000 1211296.76311746 23711.13525130
0.08700000 1202591.17186704 25398.72674250
0.08800000 1193844.30218841 19125.38661926
0.08900000 1185062.76067346 25597.35683285
0.09000000 1176244.85602787 19266.89164681
0.09100000 1167393.70596723 25776.05423875
0.09200000 1158509.74867221 16161.21175334
0.09300000 1149596.87609507 21072.11172905
0.09400000 1140652.97368832 24381.45845845
0.09500000 1131682.65969736 17925.85417217
0.09600000 1122687.05995743 19602.11698831
0.09700000 1113668.82597792 18008.02576267
0.09800000 1104628.60869934 19684.48273254
0.09900000 1095568.87466281 24650.30083903
0.10000000 1086488.75794715 18106.33600268
0.10100000 1077391.56697702 24726.13762504
0.10200000 1068278.99756932 26407.85806204
0.10300000 1059152.30063933 18175.05433394
0.10400000 1050014.11629881 24806.58466459
0.10500000 1040866.85569018 19859.74054096
0.10600001 1031707.02569784 19870.67824993
0.10700001 1022542.67820526 18221.71138309
0.10800001 1013370.32658813 16568.60561946
0.10900001 1004194.58361727 24853.81711429
0.11000001 995015.31056081 19880.40684077
0.11100001 985834.95880241 21530.63651376
0.11200001 976656.00198925 23176.04801827
0.11300001 967476.84920079 23161.39686032
0.11400001 958302.02838288 16530.71076794
0.11500001 949132.01621937 29726.81614777
0.11600001 939967.56746586 19795.71790304
0.11700001 930811.90280248 26360.59432882
0.11800001 921663.09199453 18096.85566364
0.11900001 912525.75243230 18068.01074919
0.12000001 903399.76138880 19676.04772989
0.12100001 894288.05198096 16365.47212220
0.12200001 885189.88231181 19598.10491768
0.12300001 876108.14010670 27702.54069536
0.12400001 867042.95885512 22759.87874233
0.12500001 857996.41590892 25945.81283966
0.12600001 848971.22054126 22642.06351881
0.12700001 839966.85968711 17740.10091262
0.12800001 830983.55430267 19295.43904029
0.12900001 822024.92062316 32058.97341531
0.13000001 813090.65203082 23965.84809824
0.13100001 804181.85108748 17515.08154230
0.13200001 795301.32087799 22212.76693924
0.13300001 786450.41736809 25292.24661491
0.13400001 777627.35646120 15746.95471074
0.13500001 768836.22110025 23526.38947489
0.13600001 760075.77402160 28115.20420671
0.13700001 751349.28127554 15552.93085578
0.13800001 742655.36504271 17032.80160045
0.13900001 733999.02974448 21579.57249214
0.14000001 725377.61793100 16875.91107704
0.14100001 716793.42150850 16794.47065802
0.14200001 708246.71135857 16711.08194269
0.14300001 699741.55028693 16625.86001902
0.14400001 691272.81395435 16538.70285399
0.14500001 682848.74587352 14954.38824006
0.14600001 674464.00992203 14871.93212035
0.14700001 666125.55368383 20703.18318520
0.14800001 657828.05769466 16172.70356143
0.14900001 649575.28219052 17538.53344663
0.15000001 641368.43924578 17432.39500121
0.15100001 633208.32990981 17324.58072379
0.15200001 625095.65326247 14345.94591932
0.15300001 617031.03086332 18529.44273121
0.15400001 609013.36222359 16991.47360788
0.15500001 601046.91961343 16877.39829924
0.15600001 593128.02713919 20952.24854753
0.15700001 585264.13065407 16644.91266139
0.15800001 577446.98365762 20658.16681539
0.15900001 569685.03970939 17774.17407788
0.16000001 561973.18219766 21714.64478510
0.16100001 554318.02004827 13469.92852301
0.16200001 546714.54955391 16040.60564113
0.16300001 539166.88745291 21221.60969197
0.16400001 531673.74300063 14474.81833654
0.16500001 524236.59561864 15664.19021661
0.16600001 516855.50431007 15536.67719309
0.16700001 509530.01464247 12840.15697523
0.16800001 502261.06132354 17825.24590802
0.16900001 495051.83415949 15148.58684057
0.17000001 487899.32152468 13766.08000685
0.17100001 480805.37431794 13645.25716749
0.17200001 473770.63696881 14753.21833190
0.17300001 466794.46559210 18275.00419096
0.17400001 459878.90489932 15693.36837082
0.17500001 453022.76154712 19135.68235148
0.17600001 446224.61449838 13031.99048191
0.17700001 439489.74059876 16428.12727949
0.17800001 432814.24507825 11621.06302924
0.17900001 426199.73442085 13808.87204748
0.18000001 419647.27960543 12532.76659740
0.18100001 413157.44278829 11279.19872091
0.18200001 406726.22305761 13397.56242039
0.18300001 400359.54678836 11049.92401335
0.18400001 394053.52640279 12028.48446168
0.18500001 387810.58871603 11901.90752997
0.18600001 381629.73738804 13916.12903130
0.18700001 375511.05395070 11648.35344387
0.18800001 369454.73981588 12568.85084237
0.18900001 363462.96016529 12430.43382496
0.19000001 357529.73760605 11267.55021303
0.19100001 351664.55821677 13166.32168175
0.19200001 345858.10425014 12015.11110938
0.19300001 340117.59296562 14846.13363447
0.19400001 334438.68990306 13695.26499868
0.19500001 328823.13327373 9667.40057508
0.19600001 323269.28427022 11463.12936193
0.19700001 317779.39177338 9438.04838169
0.19800001 312351.99097165 13985.56105670
0.19900001 306988.20374566 12893.50516666
0.20000001 301685.30554223 10005.39363117
0.20100001 296446.60779307 8982.33264066
0.20200001 291269.32570018 10642.98166411
0.20300001 286155.11235542 9631.98153714
0.20400001 281103.17995968 12101.49246925
0.20500001 276112.53992450 9385.06567564
0.20600001 271184.75772878 10946.37326314
0.20700001 266318.19260233 9140.04080215
0.20800001 261513.30304536 10657.97516942
0.20900001 256772.08350636 8897.15311407
0.21000001 252089.46326662 11967.94783434
0.21100001 247468.37648383 8656.44421862
0.21200001 242907.86244674 9313.08788648
0.21300001 238408.11898155 8418.19107921
0.21400001 233969.17815764 9054.60762277
0.21500001 229591.24840378 11158.13519995
0.21600001 225271.73566692 12465.41208248
0.21700001 221012.50247462 7227.10917261
0.21800001 216812.35097653 9258.97188622
0.21900001 212670.30038646 9123.55631795
0.22000001 208586.70737115 8297.57961156
0.22100001 204563.70034468 8855.56300664
0.22200001 200597.81849260 7380.99708044
0.22300001 196689.43882273 7930.51854833
0.22400001 192836.77148236 7159.06547981
0.22500001 189044.65641498 7690.33698662
0.22600001 185306.71549145 6309.69396086
0.22700001 181626.81673339 6832.80116863
0.22800001 178001.98930274 7337.24234604
0.22900001 174432.41616860 6619.71050665
0.23000001 170918.42145467 7699.02065853
0.23100001 167460.78649485 8158.68990388
0.23200001 164055.62988563 9747.36571064
0.23300001 160705.74311637 6204.84903518
0.23400001 157409.72812318 7213.30113240
0.23500001 154165.61524919 7094.70194932
0.23600001 150975.46918321 6977.33163831
0.23700001 147837.67721374 5805.58585878
0.23800001 144751.59055962 6227.21372041
0.23900001 141717.62528271 5101.83475149
0.24000001 138734.28059860 9528.96451364
0.24100001 135803.29737735 4929.65992798
0.24200001 132921.64197642 7267.49111883
0.24300001 130090.21226548 6189.69259238
0.24400001 127307.57165229 8889.25161111
0.24500001 124574.37785290 4596.79476022
0.24600001 121889.98101817 5419.22881243
0.24700001 119254.22760291 6654.38621503
0.24800001 116665.12349066 5228.93108222
0.24900001 114123.26334033 5135.54709326
0.25000001 111628.88086344 4623.11031967
0.25100001 109179.89414035 4539.70021312
0.25200001 106777.99800538 5267.89278082
0.25300001 104421.62970545 5967.69642000
0.25400001 102109.07014641 4686.80654146
0.25500001 99841.40313811  5367.47408665
0.25600001 97617.97564253  4892.12508078
0.25700001 95437.86950185  5170.82401426
0.25800001 93300.62875335  3987.20255843
0.25900001 91206.50735531  4624.17014171
0.26000001 89154.99165688  4537.54351507
0.26100001 87142.82525905  3767.18451420
0.26200001 85174.36641961  5040.19337137
0.26300001 83245.13428268  4285.45971565
0.26400001 81356.25433669  3557.30238920
0.26500001 79507.82148865  3806.83467301
0.26600001 77697.59645650  4978.86221653
0.26700001 75927.56067528  3357.51689194
0.26800001 74195.45929307  3592.54430897
0.26900001 72500.63911606  3523.53122778
0.27000001 70844.01544749  4319.71404633
0.27100001 69223.92143833  3106.76974117
0.27200001 67640.72466348  3877.84292847
0.27300001 66093.02617786  3802.99290625
0.27400001 64579.87414784  2930.31192813
0.27500001 63103.81384358  3657.49722347
0.27600001 61660.25829504  3586.77739477
0.27700001 60252.84607180  3768.81570016
0.27800001 58877.82972892  3203.24847800
0.27900001 57536.78420138  2658.19955591
0.28000001 56227.84069401  4266.00647536
0.28100001 54951.31217616  3021.77279958
0.28200001 53707.00379240  3191.80738645
0.28300001 52493.93824726  3354.36281276
0.28400001 51312.14729949  2851.67272114
0.28500001 50160.76762521  2797.46614287
0.28600001 49038.93254835  2111.12614613
0.28700001 47947.21250602  2071.31967830
0.28800001 46883.80721273  2438.89576665
0.28900001 45850.70355945  2193.95626917
0.29000001 44844.63785753  2740.45594919
0.29100001 43867.74916397  1921.40750433
0.29200001 42917.36664989  2074.84018890
0.29300001 41994.13542050  2037.13560568
0.29400001 41097.42921868  1818.56132901
0.29500001 40228.07233689  2143.35179557
0.29600001 39383.02873789  1754.51401333
0.29700001 38563.42599736  1896.16374605
0.29800001 37769.24258632  2032.74073222
0.29900001 36999.60971180  2164.47727060
0.30000001 36253.86235543  2127.92055169
0.30100001 35532.60562775  2575.40337782
0.30200001 34833.44024911  1899.81592113
0.30300001 34157.85776792  2024.87790434
0.30400001 33505.40634473  1532.87241284
0.30500001 32874.00400816  2112.48359757
0.30600001 32264.69289431  1782.94701375
0.30700001 31677.08413355  1902.52576313
0.30800001 31110.16657948  1586.15191815
0.30900001 30563.86257858  1421.21967719
0.31000001 30038.57497053  1541.42954759
0.31100001 29531.51766291  1382.07509206
0.31200001 29045.25497660  1909.14470000
0.31300001 28577.21494912  1749.78295418
0.31400001 28129.44446198  1860.76283926
0.31500001 27699.42055361  1575.54311569
0.31600002 27287.06179595  1816.49978976
0.31700002 26892.27110878  1282.76139263
0.31800002 26515.30683763  1268.75749225
0.31900002 26155.57257230  1381.01429721
0.32000002 25812.01533800  1367.13345711
0.32100002 25485.35482755  1354.03696610
0.32200002 25174.85166276  1707.61026914
0.32300002 24879.31491670  1450.96171465
0.32400002 24599.42001042  1678.91049521
0.32500002 24334.22229159  1784.91528961
0.32600002 24084.37668325  1772.00809838
0.32700002 23848.49093171  1408.01497128
0.32800002 23627.57343835  1399.22496528
0.32900002 23419.15388082  1622.94744079
0.33000002 23225.75770091  1499.10660179
0.33100002 23043.38181555  1377.07256251
0.33200002 22876.26497611  1828.27118347
0.33300002 22720.32658475  1252.11725738
0.33400002 22577.64314289  1474.88460815
0.33500002 22446.26734202  1696.93789142
0.33600002 22326.83794450  1128.62171154
0.33700002 22217.91182456  1126.44818285
0.33800002 22121.74261355  1349.86879820
0.33900002 22034.96413142  1573.29651349
0.34000002 21959.84259088  1572.54440241
0.34100002 21894.64701805  1797.11271235
0.34200002 21840.42638361  1348.42798878
0.34300002 21794.83651602  1237.07497924
0.34400002 21759.57442124  1351.26963555
0.34500002 21733.27012741  1353.54812764
0.34600002 21717.26056905  1921.65189246
0.34700002 21707.92748435  1473.10002886
0.34800002 21708.75666617  1704.68019795
0.34900002 21717.52220036  1254.18696647
0.35000002 21734.47660159  1258.75227200
0.35100002 21759.41347474  1608.45592023
0.35200002 21791.32623536  1500.00601246
0.35300002 21830.91978865  1622.91065395
0.35400002 21878.16715534  1514.51619306
0.35500002 21932.15451117  1288.29481700
0.35600002 21992.21505784  1530.98812377
0.35700002 22059.27031314  1658.41602069
0.35800002 22132.96301079  1311.04612604
0.35900002 22212.50704846  1199.47543743
0.36000002 22298.54387570  1811.19931209
0.36100002 22389.43042296  1458.89535546
0.36200002 22487.09183153  1346.86442905
0.36300002 22588.09169494  1356.64085146
0.36400002 22695.29400153  1491.08088653
0.36500002 22806.76006871  1377.30030579
0.36600002 22923.63208917  1514.33520754
0.36700002 23044.56043299  1399.26577577
0.36800002 23171.25407604  1410.78187125
0.36900002 23301.18950087  1681.18090212
0.37000002 23434.15173078  1304.11060559
0.37100002 23571.53826404  1709.87946667
0.37200002 23712.85873450  2122.77521447
0.37300002 23857.18825020  1472.22715666
0.37400002 24005.79208894  1620.39104276
0.37500002 24156.51927178  1634.91330176
0.37600002 24311.22156248  1924.71950228
0.37700002 24467.51709266  1387.30828487
0.37800002 24627.65339408  1400.08216178
0.37900002 24789.79928983  1413.01862646
0.38000002 24954.57174210  1853.99999541
0.38100002 25121.03778005  1583.37908629
0.38200002 25289.94068058  1598.19787702
0.38300002 25460.40648530  1613.17143133
0.38400002 25633.42322088  2220.49539170
0.38500002 25806.78942060  1942.47713171
0.38600002 25983.22395454  1659.15884422
0.38700002 26159.85507868  1827.00436525
0.38800002 26337.78346224  1690.49071161
0.38900002 26516.90097341  1706.36265848
0.39000002 26697.76889705  1722.40664199
0.39100002 26878.66787947  2370.69861928
0.39200002 27060.68446741  2233.31839490
0.39300002 27243.21852681  2254.10400770
0.39400002 27426.99743345  1625.04967492
0.39500002 27610.27160700  2132.06527450
0.39600002 27793.98641218  1820.64516619
0.39700002 27977.37610414  2505.37414883
0.39800002 28162.01074815  2359.69499239
0.39900002 28345.62959283  2040.88542738
0.40000002 28529.34598623  1716.04024238
0.40100002 28712.34701404  2770.16737116
0.40200002 28896.39407816  2445.50194670
0.40300002 29078.84449943  2114.61367219
0.40400002 29260.80418402  1777.59393840
0.40500002 29442.20435329  1972.33336308
0.40600002 29623.15959784  2170.19277496
0.40700002 29803.26504553  2188.75188865
0.40800002 29982.68658216  2207.32549076
0.40900002 30160.20548776  2040.33799792
0.41000002 30337.68495377  2431.41387583
0.41100002 30513.53841881  2262.88411636
0.41200002 30687.76608543  1901.10719907
0.41300002 30861.06196071  2491.41365014
0.41400002 31032.90126360  2124.97801471
0.41500002 31203.79857614  2725.96397278
0.41600002 31371.85607433  1962.30969043
0.41700002 31539.26938499  2373.01474097
0.41800002 31705.75954063  2191.97778971
0.41900002 31868.57357391  2810.80832241
0.42000002 32030.35914855  2022.71727608
0.42100002 32191.02617629  2241.46125887
0.42200002 32349.47548610  2463.08918023
0.42300002 32505.48706056  2274.08398252
0.42400002 32659.52494636  2290.24929539
0.42500002 32811.88804217  2516.01569430
0.42600002 32960.84277517  2533.37049575
0.42700002 33108.88848541  2975.82703808
0.42800002 33254.08604924  2353.89059254
0.42900002 33397.68997888  2369.56621629
0.43000002 33538.77050101  3902.90690815
0.43100002 33676.10885875  2618.65434895
0.43200002 33812.10615042  2415.70603839
0.43300002 33945.10454145  3314.73961555
0.43400002 34076.01161812  3335.18979517
0.43500002 34204.06296182  2908.02957082
0.43600002 34330.27393782  2925.45443224
0.43700002 34452.87677789  2489.90952273
0.43800002 34572.23687849  2959.55647823
0.43900002 34690.05690758  2518.49825084
0.44000002 34804.24168280  2992.99090535
0.44100002 34916.38315944  2777.94757581
0.44200002 35025.45191132  3258.41794573
0.44300002 35131.96717954  3041.72586255
0.44400002 35235.09217861  2822.33101726
0.44500002 35334.50028058  3782.20508928
0.44600002 35431.91137570  2613.28074736
0.44700002 35526.39506353  2626.11124755
0.44800002 35617.18698725  3118.46295446
0.44900002 35706.12891660  2892.19657931
0.45000002 35791.77701926  3389.83936215
0.45100002 35873.16840503  2918.64111975
0.45200002 35952.51804337  3420.16320356
0.45300002 36028.28454516  3434.93681133
0.45400002 36101.57420040  3695.89883393
0.45500002 36171.58307046  2721.55003920
0.45600002 36238.10903579  2732.53474135
0.45700002 36301.72876050  4239.67910287
0.45800002 36361.55129522  2753.84221786
0.45900002 36418.44994521  3015.44779838
0.46000002 36473.18092635  3278.75675477
0.46100002 36523.47119858  3796.61501103
0.46200002 36571.31073437  3555.82871123
0.46300002 36615.51407334  3058.12788035
0.46400002 36656.18898259  3579.47702380
0.46500002 36694.55142019  3077.93911901
0.46600002 36729.10123952  2830.16103015
0.46700002 36760.34198601  2580.57612973
0.46800002 36789.06991962  3623.35566812
0.46900002 36813.90256768  3373.99433024
0.47000002 36835.30218907  2862.65564530
0.47100002 36853.97308110  3652.96598494
0.47200002 36869.17681508  2877.45504092
0.47300002 36881.60240988  3146.73846676
0.47400002 36889.80739482  3679.75846204
0.47500002 36895.73843483  2897.79143402
0.47600002 36898.78349204  5544.22697638
0.47700002 36897.74658663  2910.12541122
