# SAXS profile: number of points = 501, q_min = 0, q_max = 0.5, delta_q = 0.001
#    q    intensity    error
0.00000000 1664650.74656091 299.63713438
0.00100000 1664582.10244850 499.37464259
0.00200000 1664376.12071068 973.66006145
0.00300000 1664032.96301464 1198.10377605
0.00400000 1663552.51493251 1372.43087697
0.00500000 1662935.20842441 1646.30592150
0.00600000 1662180.79892418 2094.34789191
0.00700000 1661289.91516278 2591.61237536
0.00800000 1660262.02611954 3137.89536185
0.00900000 1659098.51746946 3484.10703562
0.01000000 1657798.49151694 3008.90439203
0.01100000 1656363.23197359 3279.59934210
0.01200000 1654792.19396060 3872.21390364
0.01300000 1653086.71518928 3818.63048051
0.01400000 1651246.14266070 5572.95597853
0.01500000 1649272.15478312 5541.55468683
0.01600000 1647163.68998042 5460.34787638
0.01700000 1644922.78411165 4441.29171633
0.01800000 1642549.10637807 6553.77122935
0.01900000 1640043.26187587 7872.20801222
0.02000000 1637406.01359119 5157.82917613
0.02100000 1634638.82383772 5394.30836323
0.02200000 1631740.05832904 6755.40414840
0.02300000 1628712.62177375 7622.37541686
0.02400000 1625556.17848744 6095.83594728
0.02500000 1622272.31045118 6326.86229971
0.02600000 1618861.08700881 7212.02647249
0.02700000 1615323.52699504 6784.35912411
0.02800000 1611659.55164860 8412.86324542
0.02900000 1607871.75248008 8682.50786204
0.03000000 1603960.28689573 10441.78194765
0.03100000 1599925.66920425 8447.60792210
0.03200000 1595768.69649367 9478.86649375
0.03300000 1591492.16308311 15421.55977122
0.03400000 1587094.22357974 9165.46956407
0.03500000 1582578.12775679 10255.10674143
0.03600000 1577943.61217706 11384.86368799
0.03700000 1573192.45823931 15244.23562535
0.03800000 1568326.00189534 11927.11979640
0.03900000 1563345.55239988 14070.11062319
0.04000000 1558250.06929180 13416.53371831
0.04100000 1553043.41687031 11741.00877593
0.04200000 1547725.87691465 10981.11560615
0.04300000 1542297.57730397 12214.99737924
0.04400000 1536762.25174228 10373.14568101
0.04500000 1531119.51548437 12677.67017728
0.04600000 1525369.51499311 11829.24113868
0.04700000 1519515.58316748 10940.51270763
0.04800000 1513558.09151978 14462.04823736
0.04900000 1507499.58803138 11306.24743651
0.05000000 1501339.40527524 17227.87047777
0.05100000 1495081.23450187 11661.63417236
0.05200000 1488723.16652738 15385.95464307
0.05300000 1482270.64316368 15608.31060014
0.05400000 1475721.93704403 14609.64785804
0.05500000 1469081.10196489 12340.28183217
0.05600000 1462346.59095529 13753.37032972
0.05700000 1455523.37316032 20260.88630014
0.05800000 1448610.16926174 15384.24071589
0.05900000 1441608.99827898 14271.92974954
0.06000000 1434522.44703854 17063.64530472
0.06100000 1427352.06756326 17256.68730327
0.06200000 1420098.29049062 17445.90831416
0.06300000 1412764.57966246 14918.79465877
0.06400000 1405348.74492176 20553.22635569
0.06500000 1397857.10641158 17990.42180107
0.06600000 1390287.61211542 18164.10850216
0.06700000 1382643.19301563 21154.44184315
0.06800000 1374926.72055032 15653.54144619
0.06900000 1367139.14770823 14354.96172302
0.07000000 1359279.82233473 24609.76233581
0.07100000 1351353.78581751 17513.54588449
0.07200000 1343359.40600858 16180.76480339
0.07300000 1335302.25582333 17786.22688095
0.07400000 1327181.34312933 17916.94897191
0.07500000 1318998.81050123 16540.24585897
0.07600000 1310755.15424917 18167.06728958
0.07700000 1302455.57004657 21334.22323769
0.07800000 1294098.44300757 16868.57399568
0.07900000 1285685.47934068 18513.87177088
0.08000000 1277221.44053198 17070.06535348
0.08100000 1268705.72040267 17165.58920243
0.08200000 1260139.49914101 18826.48500060
0.08300000 1251525.79982478 20499.99356324
0.08400000 1242865.29187200 15846.53321518
0.08500000 1234161.66041785 15920.68616679
0.08600000 1225414.51665091 17590.82621244
0.08700000 1216627.19989581 22483.27170984
0.08800000 1207798.39085646 22573.75298526
0.08900000 1198934.06838138 27515.53816175
0.09000000 1190032.92339095 21117.13521756
0.09100000 1181098.03018443 19558.98429876
0.09200000 1172129.93139941 21256.57730471
0.09300000 1163132.28077732 19680.19911557
0.09400000 1154103.22239871 16445.97169210
0.09500000 1145047.17238672 19786.41606886
0.09600000 1135965.34607405 21486.78553104
0.09700000 1126860.55037672 21534.30613009
0.09800000 1117733.36551844 24897.51188755
0.09900000 1108586.09957409 28268.94686842
0.10000000 1099418.20113941 21653.04248972
0.10100000 1090232.70214699 18348.61724010
0.10200000 1081031.56578593 25052.90771549
0.10300000 1071815.85011482 20064.39365799
0.10400000 1062588.37294949 16735.76766129
0.10500000 1053351.23577683 28472.08524264
0.10600001 1044101.56366009 26812.52941642
0.10700001 1034846.70806553 21793.87269743
0.10800001 1025583.66209990 18445.12303093
0.10900001 1016316.93911675 20123.07634162
0.11000001 1007046.52822540 25150.98822627
0.11100001 997774.67993902 20115.13849446
0.11200001 988503.82412282 21781.68278997
0.11300001 979232.56958355 21768.34104671
0.11400001 969965.47296504 21751.47675540
0.11500001 960702.97290320 20059.47901878
0.11600001 951445.88618030 18367.66369767
0.11700001 942197.41296586 21679.96349336
0.11800001 932955.52864302 19983.90836474
0.11900001 923724.98926517 21615.16576691
0.12000001 914505.50042660 18258.10317606
0.12100001 905300.43259110 18223.69856654
0.12200001 896108.37054888 31413.08040950
0.12300001 886932.91412327 19796.34357592
0.12400001 877773.82927290 19749.91208921
0.12500001 868633.28290046 18058.88680244
0.12600001 859514.02922742 18011.11733121
0.12700001 850415.39075173 24491.96440787
0.12800001 841337.80613791 19535.86477923
0.12900001 832284.83037118 17852.51045289
0.13000001 823256.45486483 19412.38812071
0.13100001 814253.15995852 20958.87732528
0.13200001 805278.34092955 17671.83402475
0.13300001 796332.98004115 25610.06984546
0.13400001 787415.54175475 22323.23166119
0.13500001 778530.08483453 22234.82027121
0.13600001 769675.38838075 20561.87897010
0.13700001 760854.72984380 20474.60174554
0.13800001 752066.58375867 15680.58901080
0.13900001 743316.11479678 17170.60306154
0.14000001 734600.58434305 18644.16370990
0.14100001 725922.57396013 18554.58186551
0.14200001 717282.00984536 18462.83980422
0.14300001 708683.25990060 22961.33870381
0.14400001 700120.80573291 19795.91671587
0.14500001 691603.24500015 24233.77884796
0.14600001 683125.35020179 22594.37202380
0.14700001 674693.56081506 16476.01753239
0.14800001 666303.13670114 17870.25096942
0.14900001 657957.54731044 16284.45006425
0.15000001 649658.29941511 17657.71341124
0.15100001 641405.66312625 17548.85977118
0.15200001 633200.91089721 17438.35390897
0.15300001 625044.27494068 23101.63749195
0.15400001 616934.81539738 15778.10864837
0.15500001 608876.86452828 15672.49123259
0.15600001 600866.99023696 21225.62743186
0.15700001 592912.05628625 15457.21803691
0.15800001 585004.18156704 19533.29054447
0.15900001 577151.78811079 16621.97228216
0.16000001 569349.92344864 20624.70195046
0.16100001 561604.98997544 20470.50285090
0.16200001 553912.10973325 13543.15172230
0.16300001 546275.27189299 13438.37232296
0.16400001 538693.29536355 15999.19162761
0.16500001 531167.71385909 13226.07669951
0.16600001 523698.33744823 15742.37276694
0.16700001 516285.28711355 16913.50680441
0.16800001 508928.88526656 20642.15656106
0.16900001 501632.65634738 14070.79667494
0.17000001 494393.59477310 19021.79445710
0.17100001 487213.48154556 17598.15178443
0.17200001 480092.92001637 12458.41186275
0.17300001 473031.31011895 12346.11777714
0.17400001 466030.79166452 13456.63974482
0.17500001 459090.15214619 12119.98058906
0.17600001 452207.90742407 22811.62896738
0.17700001 445389.33324775 13081.08533531
0.17800001 438630.84890659 16488.13438917
0.17900001 431933.52263833 15160.86736071
0.18000001 425298.84758477 13856.23710881
0.18100001 418727.14777588 13717.50200910
0.18200001 412214.58920849 12446.82010911
0.18300001 405767.23451830 12319.09382192
0.18400001 399380.78750814 12191.09911460
0.18500001 393058.14211957 10966.32268321
0.18600001 386798.07081027 15189.56095833
0.18700001 380600.69334276 16099.41008901
0.18800001 374465.87085185 12739.32952826
0.18900001 368396.43415740 11549.22875651
0.19000001 362386.12290984 12458.83549430
0.19100001 356444.21221074 15398.39069508
0.19200001 350562.05631137 10148.77200976
0.19300001 344745.89145879 13041.73769014
0.19400001 338992.02565599 11898.62066278
0.19500001 333302.07918772 9799.08159118
0.19600001 327674.57984002 12587.61957940
0.19700001 322111.27922252 14350.05816751
0.19800001 316611.34258768 11341.01882745
0.19900001 311175.54427851 13069.37347736
0.20000001 305801.09770718 9219.90353161
0.20100001 300491.61581959 12746.85494551
0.20200001 295244.02702825 9889.19915271
0.20300001 290060.28467307 9763.42964356
0.20400001 284939.35903496 14895.20569759
0.20500001 279880.34042058 12107.62409888
0.20600001 274884.73448696 12802.75711389
0.20700001 269951.12454050 9264.72303217
0.20800001 265079.53306326 9141.26812980
0.20900001 260272.47181167 10658.15822451
0.21000001 255524.66362148 10513.56278171
0.21100001 250839.02424409 9572.01761766
0.21200001 246214.55154274 7866.55529368
0.21300001 241651.44824157 10859.81659738
0.21400001 237149.89242936 9177.70127091
0.21500001 232709.95043417 10555.72385074
0.21600001 228328.89465125 8175.31645951
0.21700001 224009.02760150 8790.11465868
0.21800001 219748.86419168 7940.62558300
0.21900001 215547.37253920 7824.36999312
0.22000001 211405.09276183 9110.50290334
0.22100001 207324.06428987 8975.05916748
0.22200001 203300.78127644 7480.45260078
0.22300001 199335.79958535 7367.45150105
0.22400001 195427.04016943 7255.22920936
0.22500001 191579.40403580 8442.90473510
0.22600001 187786.96111682 6394.14632840
0.22700001 184052.91327992 6924.07092502
0.22800001 180374.80494524 6815.46232716
0.22900001 176752.53569422 7927.35160078
0.23000001 173186.57178794 9601.46399399
0.23100001 169677.60608866 6495.25906825
0.23200001 166221.83156645 5809.45328800
0.23300001 162822.07235736 6858.06601204
0.23400001 159476.76140856 8432.33415829
0.23500001 156184.04458952 6634.69852796
0.23600001 152945.96135650 8155.84377508
0.23700001 149760.81983606 6950.39997733
0.23800001 146628.38058869 6307.95323128
0.23900001 143548.43885214 7751.61606466
0.24000001 140520.01221928 8127.67789121
0.24100001 137544.45265185 5492.15025417
0.24200001 134618.97364191 8341.66509630
0.24300001 131744.31232076 5786.21047083
0.24400001 128919.24355091 4737.78242461
0.24500001 126144.33723586 6051.14414345
0.24600001 123418.57495482 5029.92426023
0.24700001 120742.47096364 5389.94415879
0.24800001 118113.61363574 6176.16114919
0.24900001 115532.60538308 6931.95665092
0.25000001 112999.68086747 6807.10109749
0.25100001 110512.99165881 5848.34779526
0.25200001 108073.99059987 4511.54895103
0.25300001 105681.02417644 4831.73665394
0.25400001 103332.83214874 4742.97722002
0.25500001 101029.84544143 4267.50087335
0.25600001 98772.00371921  3807.66092353
0.25700001 96558.06349052  4110.47695727
0.25800001 94387.62759804  6233.83115966
0.25900001 92260.93043871  3598.17645736
0.26000001 90177.47058865  3883.49295465
0.26100001 88133.98803312  3810.03248295
0.26200001 86134.95591099  3737.82658862
0.26300001 84175.74623899  4333.36762143
0.26400001 82257.41351986  3923.67881056
0.26500001 80380.27746096  4169.32518919
0.26600001 78541.98029408  3145.60645963
0.26700001 76744.37651693  3085.12408197
0.26800001 74985.47267266  3328.23036207
0.26900001 73264.37961432  4154.09052071
0.27000001 71581.99322872  4073.73142742
0.27100001 69936.90716543  3709.45373160
0.27200001 68329.20535685  3357.69731013
0.27300001 66757.60069190  5213.10128474
0.27400001 65221.20579432  3766.52481287
0.27500001 63722.55403491  2901.92524808
0.27600001 62256.87746803  3104.12805746
0.27700001 60827.87573940  3043.82704605
0.27800001 59431.94982687  4228.28627055
0.27900001 58070.55081376  2682.85957457
0.28000001 56741.87452746  2391.67012453
0.28100001 55446.05126364  2814.44169535
0.28200001 54183.03485628  2530.07693236
0.28300001 52951.87974742  2706.90022081
0.28400001 51752.37826019  2212.41427534
0.28500001 50584.03379900  2604.06618323
0.28600001 49445.66559097  2767.22680578
0.28700001 48337.98186447  2505.84109846
0.28800001 47259.16861760  2253.55356220
0.28900001 46211.18446316  2814.26126702
0.29000001 45190.65448200  1972.57216151
0.29100001 44199.80846939  1935.95170260
0.29200001 43236.15850803  2280.27510765
0.29300001 42300.00604659  2425.05946144
0.29400001 41390.89240516  2014.70178319
0.29500001 40509.50212871  2158.34637559
0.29600001 39653.14368349  2119.85716167
0.29700001 38822.51179048  1908.90299510
0.29800001 38017.87213549  1705.10164599
0.29900001 37238.18055146  1843.29002456
0.30000001 36482.92261427  1976.64484081
0.30100001 35752.57852297  2105.46944889
0.30200001 35044.76057347  2070.61977651
0.30300001 34360.96670144  1880.23218691
0.30400001 33700.78410091  2004.35422929
0.30500001 33061.96852704  2731.57996902
0.30600001 32445.70563959  1643.53729698
0.30700001 31851.61292779  2354.47133909
0.30800001 31278.62123084  2174.64624403
0.30900001 30726.66562617  1857.42702504
0.31000001 30195.99142575  1549.50737337
0.31100001 29684.12143049  1528.13864359
0.31200001 29193.28235318  1507.68713851
0.31300001 28721.17639132  1758.59771370
0.31400001 28269.74616119  1469.32012630
0.31500001 27836.16891199  1319.43446890
0.31600002 27420.93527488  1564.63864087
0.31700002 27023.39225702  1417.91745886
0.31800002 26644.14096003  1529.90664636
0.31900002 26282.42924051  1387.71232961
0.32000002 25937.25955579  1748.43074944
0.32100002 25609.34444976  1608.01081414
0.32200002 25297.81459532  1348.24709270
0.32300002 25001.57724294  1215.07671154
0.32400002 24721.38735170  1446.20122855
0.32500002 24456.12529320  1793.85687520
0.32600002 24206.50982779  1187.32936328
0.32700002 23971.21920057  1297.32244457
0.32800002 23751.12702721  1289.32999173
0.32900002 23543.81052171  1281.96054361
0.33000002 23351.82854602  1391.30201066
0.33100002 23171.06000046  1269.31072693
0.33200002 23005.90995766  1264.05978248
0.33300002 22852.09561120  1259.37904877
0.33400002 22711.77849981  1369.52030839
0.33500002 22583.08061760  1138.18731703
0.33600002 22466.52635263  1476.38784918
0.33700002 22360.71812823  1133.68846279
0.33800002 22267.88873297  1472.01885440
0.33900002 22184.76400358  1357.70762132
0.34000002 22113.26021606  1131.09331362
0.34100002 22052.09587991  1357.52708666
0.34200002 22002.09338002  1358.40930962
0.34300002 21960.80222532  1133.17744849
0.34400002 21930.12375186  1248.37235370
0.34500002 21908.55381127  1591.87559532
0.34600002 21897.42999655  1367.71354236
0.34700002 21893.17851416  1142.82397256
0.34800002 21899.24650705  1261.06816983
0.34900002 21913.35108680  1610.63138116
0.35000002 21935.87970264  2078.86341788
0.35100002 21966.47218847  1739.74467973
0.35200002 22004.14006893  1631.16698057
0.35300002 22049.77332007  1287.92732063
0.35400002 22103.04092299  1176.98698490
0.35500002 22163.19128816  1183.51447084
0.35600002 22229.59339702  1190.39478279
0.35700002 22303.03210593  1556.97474506
0.35800002 22383.27231374  1566.94105254
0.35900002 22469.39157991  1213.34720279
0.36000002 22562.13272273  1954.78327169
0.36100002 22659.84355729  1476.51547613
0.36200002 22764.34057434  1487.42208358
0.36300002 22872.33915160  1623.47870988
0.36400002 22986.57144144  1510.21781524
0.36500002 23105.04148246  1268.46683747
0.36600002 23229.10699942  1790.26736125
0.36700002 23357.23331998  1289.31934034
0.36800002 23491.19383394  1430.26140433
0.36900002 23628.32096056  1442.50906297
0.37000002 23768.70139025  1455.00112453
0.37100002 23913.31569684  1334.36307909
0.37200002 24062.08921599  1480.90135095
0.37300002 24213.83080949  1358.39597276
0.37400002 24369.88037594  1507.88641969
0.37500002 24527.96674809  2075.06608519
0.37600002 24690.17507256  1535.85241314
0.37700002 24853.87739614  1831.97938965
0.37800002 25021.42854436  1422.46828013
0.37900002 25191.08011915  1723.06996178
0.38000002 25363.24617525  1739.41150510
0.38100002 25537.10577958  1609.60385354
0.38200002 25713.42984043  1920.40759861
0.38300002 25891.31510016  2087.87574859
0.38400002 26071.66472145  1505.63870899
0.38500002 26252.44438085  1976.02158216
0.38600002 26436.07109919  1841.53680001
0.38700002 26619.90790862  1859.13445641
0.38800002 26805.10116910  1720.48550005
0.38900002 26991.36584067  1736.89447413
0.39000002 27179.32450201  1594.06745756
0.39100002 27367.22642806  2091.95088727
0.39200002 27556.29219108  2111.77655211
0.39300002 27745.68337356  1967.72395808
0.39400002 27936.36223111  1820.75249467
0.39500002 28126.39416568  1837.77868185
0.39600002 28316.81647551  1854.89315111
0.39700002 28506.84908833  2212.41666257
0.39800002 28698.12546979  2232.85775797
0.39900002 28888.22587390  1733.29363456
0.40000002 29078.20111421  1749.05387989
0.40100002 29267.59379214  1941.31958821
0.40200002 29457.84636601  1780.72689720
0.40300002 29646.35478899  2335.53994093
0.40400002 29834.36361335  2174.92521046
0.40500002 30021.64330094  2011.14998002
0.40600002 30208.46389259  2397.49485043
0.40700002 30394.24996628  2418.16664189
0.40800002 30579.16965015  3376.85786447
0.40900002 30762.22297311  2837.81520373
0.41000002 30945.10789727  2289.31919071
0.41100002 31126.23168462  2308.32145110
0.41200002 31305.49386024  2133.31298019
0.41300002 31483.83310436  2541.68996695
0.41400002 31660.52008311  2759.21445598
0.41500002 31836.12615173  1986.57436600
0.41600002 32008.85101385  2602.79984352
0.41700002 32180.72967922  2017.73184650
0.41800002 32351.61633690  4066.59836624
0.41900002 32518.66150202  2253.54334887
0.42000002 32684.59966186  2683.24233638
0.42100002 32849.13457310  2911.09044381
0.42200002 33011.47143963  2094.57796210
0.42300002 33171.12227426  2320.65182427
0.42400002 33328.70225682  2549.64584346
0.42500002 33484.43493779  2567.58659270
0.42600002 33636.60429511  2154.42460719
0.42700002 33787.73461815  3687.59353097
0.42800002 33935.92284872  2402.15441268
0.42900002 34082.26592672  2418.13688209
0.43000002 34226.03433374  2212.71322453
0.43100002 34365.91870414  2449.60280131
0.43200002 34504.21182447  2241.04866420
0.43300002 34639.42641284  2931.53479624
0.43400002 34772.37748469  2268.89773840
0.43500002 34902.24624877  2510.86771412
0.43600002 35030.22134171  2755.47734132
0.43700002 35154.41532677  2771.57423570
0.43800002 35275.18872950  2322.87128792
0.43900002 35394.22859535  3504.02879699
0.44000002 35509.55083057  3053.64396839
0.44100002 35622.61912644  3070.31368801
0.44200002 35732.47689974  2374.42320251
0.44300002 35839.62712236  2386.91927947
0.44400002 35943.16985194  2879.04804158
0.44500002 36042.90753614  2893.52475413
0.44600002 36140.49574199  3150.18646064
0.44700002 36235.01539224  3652.48972463
0.44800002 36325.54089788  2446.52529542
0.44900002 36414.19775077  3932.73354346
0.45000002 36499.39744792  3703.77653156
0.45100002 36580.17613229  2728.14966524
0.45200002 36658.72447566  3238.24858003
0.45300002 36733.48269129  3252.01537678
0.45400002 36805.68215249  3265.58430375
0.45500002 36874.38821162  3278.87075517
0.45600002 36939.59662323  2532.20946853
0.45700002 37001.61201545  2796.21195253
0.45800002 37059.66285059  3317.02528065
0.45900002 37114.71647429  2560.91555810
0.46000002 37167.36932156  2827.13608144
0.46100002 37215.40103751  4642.24934544
0.46200002 37260.88378799  2846.54535189
0.46300002 37302.68981087  2855.89406728
0.46400002 37340.73193714  2864.96779366
0.46500002 37376.31861192  3396.38623324
0.46600002 37407.91189941  4192.67896440
0.46700002 37436.02737540  2628.00924631
0.46800002 37461.56214335  2898.96312386
0.46900002 37483.03598184  3171.06499436
0.47000002 37500.85239997  2914.37888240
0.47100002 37515.87835312  3452.96160728
0.47200002 37527.27195826  2928.81607880
0.47300002 37535.86090761  3202.55980443
0.47400002 37539.91992194  3477.13524758
0.47500002 37541.65092117  3484.61620367
0.47600002 37540.41373505  3223.22007607
0.47700002 37534.80711116  2960.37037717
