# SAXS profile: number of points = 501, q_min = 0, q_max = 0.5, delta_q = 0.001
#    q    intensity    error
0.00000000 1682732.95097188 252.40994265
0.00100000 1682663.58209868 504.79908662
0.00200000 1682455.42684949 908.52595927
0.00300000 1682108.64663791 1312.04479112
0.00400000 1681623.12336039 1639.58260758
0.00500000 1680999.30422100 2269.34915052
0.00600000 1680236.92343904 1940.67372558
0.00700000 1679336.62727522 3022.80605472
0.00800000 1678297.90107736 2265.70226211
0.00900000 1677122.11519364 5282.93488869
0.01000000 1675808.33793727 2765.08387699
0.01100000 1674357.93523771 3616.61329758
0.01200000 1672770.33229278 3588.09252008
0.01300000 1671046.83039521 4561.95804818
0.01400000 1669186.81325801 4131.23754596
0.01500000 1667192.01066129 4801.51320451
0.01600000 1665061.25397234 5095.08766492
0.01700000 1662796.69246981 4489.55127106
0.01800000 1660397.94303744 5205.34778565
0.01900000 1657865.59538516 9947.19402115
0.02000000 1655200.49949078 6256.65817110
0.02100000 1652404.10703250 5452.93380043
0.02200000 1649474.68755624 6259.75672367
0.02300000 1646415.29925472 7112.51441653
0.02400000 1643225.50528793 7394.51511097
0.02500000 1639906.88262808 7674.76456121
0.02600000 1636459.72187635 7290.42839441
0.02700000 1632884.67548110 8915.55073647
0.02800000 1629182.03168593 9213.02481169
0.02900000 1625354.17563647 9508.32236404
0.03000000 1621401.36304728 7539.51668473
0.03100000 1617324.09523981 8539.47161579
0.03200000 1613123.19531527 9581.95222150
0.03300000 1608801.44249667 9025.37650848
0.03400000 1604356.96923462 10949.73682025
0.03500000 1599793.09845353 9502.77144363
0.03600000 1595109.56675205 8852.85850460
0.03700000 1590308.24941665 16316.56339362
0.03800000 1585390.27451941 10201.98688868
0.03900000 1580357.19827970 12326.78671744
0.04000000 1575207.76921112 12593.78669843
0.04100000 1569946.02806794 10879.72647897
0.04200000 1564572.24380847 11100.64058481
0.04300000 1559086.47620025 11318.96834262
0.04400000 1553492.62538621 13631.89842086
0.04500000 1547790.06172492 10679.75192214
0.04600000 1541979.18303240 11958.04912031
0.04700000 1536063.35365323 13271.58799280
0.04800000 1530042.65231942 14619.55822313
0.04900000 1523919.96376799 16001.16036438
0.05000000 1517694.65477765 13932.43757964
0.05100000 1511370.12585717 12967.55628394
0.05200000 1504944.75351694 14357.17361761
0.05300000 1498423.79306642 12137.23328965
0.05400000 1491805.83972919 14768.87850205
0.05500000 1485094.65687864 13722.27526969
0.05600000 1478288.72288560 13903.30608753
0.05700000 1471393.13187497 20481.79335176
0.05800000 1464406.71173997 18144.00000565
0.05900000 1457331.14908004 15739.17714518
0.06000000 1450169.40678634 15922.86083041
0.06100000 1442922.92086949 17444.93892854
0.06200000 1435592.30893219 13566.34795355
0.06300000 1428180.74826293 16452.64298924
0.06400000 1420686.28311676 18007.19948064
0.06500000 1413114.95724018 22383.74196975
0.06600000 1405465.08332951 15537.41722318
0.06700000 1397739.59101100 17108.33339463
0.06800000 1389941.27919283 15824.48220434
0.06900000 1382071.13912433 15962.92240425
0.07000000 1374128.24685698 16097.91316577
0.07100000 1366118.02669453 22131.11306902
0.07200000 1358038.83582283 26766.94670801
0.07300000 1349895.93645733 16482.23015643
0.07400000 1341688.74540575 25659.79845841
0.07500000 1333419.18210226 15200.97938847
0.07600000 1325087.97049470 21426.67348739
0.07700000 1316700.13623519 15405.39231629
0.07800000 1308254.12227654 18603.37449120
0.07900000 1299751.59530729 26514.93378792
0.08000000 1291197.65587672 18825.66270581
0.08100000 1282591.32621302 22086.22367363
0.08200000 1273934.06758736 20618.62385143
0.08300000 1265228.55322081 17536.06857064
0.08400000 1256475.89986076 19224.08217022
0.08500000 1247679.87462279 17704.57825204
0.08600000 1238839.46722255 19400.22696757
0.08700000 1229958.64093980 17859.00030506
0.08800000 1221035.90682664 17930.91313385
0.08900000 1212077.22745547 19635.65200706
0.09000000 1203081.30979722 18064.26671518
0.09100000 1194051.08134389 19773.48683604
0.09200000 1184987.43112165 18183.63298495
0.09300000 1175893.94848626 21554.13708863
0.09400000 1166768.67450998 18289.09983249
0.09500000 1157616.24682065 18336.64221151
0.09600000 1148437.47836249 18380.74270523
0.09700000 1139235.76420510 20096.11982535
0.09800000 1130011.48400803 20136.80559181
0.09900000 1120766.41841060 18492.64677334
0.10000000 1111500.89651779 18523.16331156
0.10100000 1102217.24826836 18550.31716081
0.10200000 1092918.01496940 23639.81777572
0.10300000 1083604.12268762 20285.07013094
0.10400000 1074278.22262291 28763.80076392
0.10500000 1064942.64208447 18625.84768639
0.10600001 1055594.29434852 23719.20491008
0.10700001 1046240.51872517 22033.82636121
0.10800001 1036878.68621733 23734.15424448
0.10900001 1027513.05097312 23735.55259461
0.11000001 1018143.74654693 20342.51301352
0.11100001 1008773.12334273 16947.38926993
0.11200001 999403.19272605 18633.87340561
0.11300001 990032.69652986 16929.55990772
0.11400001 980666.89977990 30449.70867187
0.11500001 971305.58820878 21970.93343985
0.11600001 961949.71388248 16882.21827365
0.11700001 952602.48409519 16861.06476256
0.11800001 943261.90272696 20204.67090802
0.11900001 933932.90757385 23535.11037940
0.12000001 924614.84758077 23494.46438373
0.12100001 915311.59310398 20100.24353145
0.12200001 906021.56026482 23402.53800416
0.12300001 896748.11679943 21683.37048581
0.12400001 887491.24268593 19968.55390130
0.12500001 878253.08999834 26558.37469299
0.12600001 869036.52653479 23177.20525487
0.12700001 859840.65162709 26414.30606279
0.12800001 850666.25086065 18106.43200291
0.12900001 841516.49554398 19691.48692383
0.13000001 832391.97109438 19627.80360356
0.13100001 823292.48126552 17931.31108720
0.13200001 814221.94903510 21116.84724368
0.13300001 805180.88279779 21039.37745937
0.13400001 796168.51407710 16122.41317016
0.13500001 787187.98473089 19270.36277478
0.13600001 778238.77853327 15992.80765293
0.13700001 769324.09427739 19110.01140295
0.13800001 760442.21312694 19026.26506963
0.13900001 751598.47636198 17361.92562272
0.14000001 742789.79999205 21994.00701501
0.14100001 734019.44565142 17198.07642272
0.14200001 725286.60266107 17113.13819693
0.14300001 716596.30646156 20122.02523455
0.14400001 707942.23034489 21556.84193084
0.14500001 699334.05762941 16846.95824300
0.14600001 690766.05066238 19800.80977633
0.14700001 682244.04729878 16660.40042102
0.14800001 673764.43093603 18070.36289024
0.14900001 665329.85724530 20957.89149204
0.15000001 656942.37503691 14879.74549666
0.15100001 648601.59123486 17745.74037352
0.15200001 640309.66765516 17634.12907933
0.15300001 632066.15979459 14600.72898025
0.15400001 623870.36839280 20306.98144949
0.15500001 615726.52518396 15848.80150619
0.15600001 607631.83676582 14309.73043118
0.15700001 599592.12272887 19894.46757110
0.15800001 591600.11821566 14109.66348540
0.15900001 583664.24727326 16809.53111489
0.16000001 575779.51161623 15295.58344807
0.16100001 567952.44271472 17941.61851228
0.16200001 560177.78025164 19174.88632318
0.16300001 552459.91176414 17667.66881227
0.16400001 544797.42976944 14832.11072569
0.16500001 537192.25680121 18726.52295619
0.16600001 529643.39637165 14594.32447606
0.16700001 522151.98051759 15789.87663637
0.16800001 514717.54256246 19572.13548006
0.16900001 507344.06064969 14231.00157318
0.17000001 500028.37158027 16673.44683766
0.17100001 492772.26819320 20341.64019157
0.17200001 485576.27666908 18901.05746191
0.17300001 478440.20865505 21228.39306052
0.17400001 471365.70045948 13610.68524355
0.17500001 464351.53695389 12258.88115454
0.17600001 457396.73588325 13358.27230237
0.17700001 450506.21380022 12028.51647658
0.17800001 443676.40473207 13103.98323269
0.17900001 436908.61040738 15335.49294965
0.18000001 430203.99761346 18688.06253906
0.18100001 423562.99988331 12719.59748732
0.18200001 416981.96212930 17169.23310171
0.18300001 410466.67750760 14727.54508469
0.18400001 404013.30631378 11211.36977984
0.18500001 397624.15214134 14421.82867948
0.18600001 391298.29876270 12073.50957872
0.18700001 385035.79556283 16287.01492178
0.18800001 378836.68712330 11814.02264611
0.18900001 372703.58464508 12746.46319710
0.19000001 366630.40271034 15755.94230093
0.19100001 360626.19623317 13501.84542493
0.19200001 354682.67565532 11294.87033994
0.19300001 348805.53927466 15225.36250878
0.19400001 342991.54742798 14045.50453088
0.19500001 337242.08936017 15863.86863315
0.19600001 331555.96513616 11756.97507932
0.19700001 325934.67174250 9680.26020822
0.19800001 320377.44398829 13388.57401700
0.19900001 314884.93199458 15114.47745005
0.20000001 309454.62849466 13995.08623509
0.20100001 304089.92447798 10135.31766187
0.20200001 298787.80584596 10007.89802982
0.20300001 293550.25657421 9880.90210330
0.20400001 288376.35230075 11527.84522809
0.20500001 283264.87130087 10503.46192430
0.20600001 278217.42955557 12094.11223444
0.20700001 273232.78653784 9377.34967724
0.20800001 268310.91449965 12617.32135077
0.20900001 263454.06072524 9958.56396617
0.21000001 258657.23343294 10642.45237269
0.21100001 253923.25276223 8074.75981956
0.21200001 249251.18297213 9556.29080692
0.21300001 244641.10959772 10208.87398614
0.21400001 240093.38671505 8517.31329639
0.21500001 235607.77440657 10687.16915235
0.21600001 231181.62861788 8277.45860401
0.21700001 226817.24878276 10383.69414021
0.21800001 222513.47113614 13157.22217036
0.21900001 218268.98122286 7923.16439301
0.22000001 214084.28099530 10645.34137583
0.22100001 209961.66071009 7690.89599546
0.22200001 205897.20102900 8264.71404010
0.22300001 201891.68186331 6783.56083137
0.22400001 197942.99214403 6680.57630076
0.22500001 194056.08442608 9209.90220237
0.22600001 190225.15224338 7772.60008822
0.22700001 186453.03796447 7014.36361993
0.22800001 182737.52527945 6904.73771921
0.22900001 179078.39726156 7413.84599724
0.23000001 175476.27591443 7296.30389758
0.23100001 171931.70548336 7179.86836054
0.23200001 168440.91998262 7064.41251817
0.23300001 165006.77400291 9266.78086627
0.23400001 161627.53282357 8546.05620223
0.23500001 158301.62464774 5603.87777757
0.23600001 155030.79198977 7715.88288227
0.23700001 151813.36433793 6503.68483585
0.23800001 148649.34135796 7460.71079564
0.23900001 145538.30878015 7335.13110947
0.24000001 142479.40025149 5150.63056272
0.24100001 139473.78837786 6075.47850912
0.24200001 136518.91431544 5473.72612840
0.24300001 133615.20934980 5868.38027223
0.24400001 130761.78849863 6247.14474103
0.24500001 127958.80984245 5666.01636785
0.24600001 125205.84570325 7422.20288440
0.24700001 122502.71952707 5012.81152018
0.24800001 119847.59754132 6266.83117190
0.24900001 117240.64312318 4836.17675762
0.25000001 114682.14062768 4749.56107879
0.25100001 112170.63931963 5512.06547694
0.25200001 109707.03967680 4579.72058797
0.25300001 107290.09095664 5314.07845649
0.25400001 104918.28811478 5217.06212333
0.25500001 102592.29532111 4727.45319206
0.25600001 100311.71947386 3867.01696868
0.25700001 98075.59458729  4175.07825912
0.25800001 95883.40931508  5215.09887939
0.25900001 93735.30182903  4752.38002759
0.26000001 91630.86072561  3946.08320386
0.26100001 89566.82751878  4575.96943445
0.26200001 87547.74424877  3799.13454144
0.26300001 85568.89958915  3388.52858407
0.26400001 83631.14683612  3656.77206844
0.26500001 81734.93080154  4239.59106129
0.26600001 79878.28446157  4478.77562169
0.26700001 78062.38013378  3138.10782987
0.26800001 76285.64834064  4309.37647869
0.26900001 74547.12457369  3924.90629454
0.27000001 72847.56684169  4145.75522515
0.27100001 71185.85473965  4937.45111840
0.27200001 69561.80734497  3133.41176014
0.27300001 67974.17844241  3631.86052605
0.27400001 66421.89645601  3561.87436602
0.27500001 64907.88303877  3493.34243047
0.27600001 63427.29484268  3426.02549307
0.27700001 61983.41700333  3101.65033364
0.27800001 60573.08119045  2534.98356779
0.27900001 59197.36145137  2734.91822849
0.28000001 57854.96945774  2682.44578586
0.28100001 56545.55597075  2870.25255692
0.28200001 55269.25523624  3988.50599290
0.28300001 54025.16188021  2761.76640603
0.28400001 52813.02381369  3612.41099983
0.28500001 51632.26459890  2436.52668175
0.28600001 50481.68136104  2825.20743109
0.28700001 49361.99729747  2132.43838418
0.28800001 48271.60418768  2720.34638276
0.28900001 47212.33354043  2053.73660622
0.29000001 46180.49325737  2217.35648871
0.29100001 45178.67804494  2374.59143044
0.29200001 44204.42575461  2137.06306427
0.29300001 43257.83348196  2098.43760154
0.29400001 42338.46128480  2997.56320086
0.29500001 41446.95034455  2024.26915065
0.29600001 40580.89692109  2169.45485210
0.29700001 39740.69537154  2486.97283408
0.29800001 38926.65340824  2618.79073201
0.29900001 38137.68641412  2059.43516385
0.30000001 37373.33701381  2362.36874448
0.30100001 36634.33374818  1825.48893709
0.30200001 35918.00828636  2285.46297546
0.30300001 35225.70586098  2248.80916863
0.30400001 34557.18728405  1739.09053240
0.30500001 33910.27452522  2023.42617671
0.30600001 33286.02872918  1839.38603466
0.30700001 32684.09509918  1510.00526507
0.30800001 32103.54508806  2380.79901645
0.30900001 31544.15089069  2200.20462879
0.31000001 31006.19875608  2169.65886068
0.31100001 30487.14971680  1712.15840916
0.31200001 29989.22642015  1407.99424709
0.31300001 29510.30280479  1528.92886071
0.31400001 29052.18566583  1509.98742147
0.31500001 28611.85648657  1627.44247401
0.31600002 28190.23014686  1474.49005765
0.31700002 27786.40154333  1457.95255801
0.31800002 27400.72821471  1835.57487002
0.31900002 27032.92893461  1686.85484539
0.32000002 26681.87339104  1927.09839692
0.32100002 26348.04085321  1527.13252016
0.32200002 26030.68405138  1639.54271261
0.32300002 25728.77324943  2000.66950261
0.32400002 25443.05916578  1488.41903168
0.32500002 25172.22870222  1230.92204182
0.32600002 24917.16911120  1344.40592306
0.32700002 24676.57898451  1456.90529223
0.32800002 24451.29991684  1206.67170804
0.32900002 24238.88483225  1319.80734161
0.33000002 24041.91217761  1313.04909576
0.33100002 23856.13428545  1663.24976114
0.33200002 23686.01533068  1419.73982615
0.33300002 23527.49007872  1532.34550139
0.33400002 23382.44320308  1409.96139192
0.33500002 23249.00469819  1640.44984919
0.33600002 23127.81929973  1636.75584935
0.33700002 23017.55978505  1867.18453819
0.33800002 22920.13262452  1282.03767907
0.33900002 22832.71117388  1397.36199002
0.34000002 22756.80055869  1280.41144407
0.34100002 22691.31619517  1396.87749113
0.34200002 22637.16357598  1514.08675748
0.34300002 22591.62599487  1515.44634351
0.34400002 22556.82539378  1867.70523106
0.34500002 22531.17246106  1286.30469672
0.34600002 22516.05272847  2109.52908004
0.34700002 22507.74323990  1292.39467804
0.34800002 22509.85077528  1414.06889268
0.34900002 22520.09240329  1300.53539789
0.35000002 22538.82059985  1424.00275294
0.35100002 22565.49960741  1548.89596641
0.35200002 22599.34368901  1435.96236601
0.35300002 22641.24802870  1202.25032727
0.35400002 22690.78180272  1329.11260705
0.35500002 22747.18460695  1822.04957332
0.35600002 22810.07151457  1465.77526495
0.35700002 22879.74229571  1842.96332921
0.35800002 22956.44136434  1854.30663903
0.35900002 23038.99578573  1617.33758076
0.36000002 23128.16668602  1878.58542805
0.36100002 23222.42265223  1260.97760974
0.36200002 23323.38087324  1523.94977844
0.36300002 23427.98957158  1407.08512032
0.36400002 23538.65710202  1675.36399859
0.36500002 23653.73914569  1688.16744279
0.36600002 23774.39206073  1832.29248291
0.36700002 23899.15582473  1846.92684962
0.36800002 24029.74304530  1463.05097462
0.36900002 24163.46437171  1609.28680339
0.37000002 24300.47288620  1622.78565621
0.37100002 24441.78410768  1773.00710316
0.37200002 24587.30487099  1788.35770451
0.37300002 24735.66261699  2359.04025553
0.37400002 24888.46519153  1539.97385668
0.37500002 25043.28932052  2118.66237688
0.37600002 25202.19658136  1567.70271261
0.37700002 25362.65029015  2300.89974332
0.37800002 25526.90530252  2321.92741631
0.37900002 25693.36337176  2050.33049420
0.38000002 25862.28694415  1773.63572265
0.38100002 26032.99224757  1640.85957910
0.38200002 26205.98974157  1505.53418198
0.38300002 26380.66167151  1975.38403954
0.38400002 26557.94587273  1687.09359149
0.38500002 26735.59254193  1702.78996966
0.38600002 26915.94393893  1562.47061968
0.38700002 27096.64727076  1734.72744046
0.38800002 27278.56437222  1750.87473718
0.38900002 27461.68821520  1927.81060404
0.39000002 27646.49505872  1783.61371321
0.39100002 27831.24771502  2127.42067613
0.39200002 28017.28278516  1816.78078828
0.39300002 28203.41571689  1666.82194784
0.39400002 28390.90674586  1850.37743483
0.39500002 28577.73329621  1697.51743822
0.39600002 28764.95397063  2398.13432615
0.39700002 28951.84781265  1901.26793593
0.39800002 29140.03430416  2092.83736288
0.39900002 29326.92747716  1759.61573200
0.40000002 29513.66872556  2130.29670954
0.40100002 29699.99499287  1970.00076121
0.40200002 29887.01371360  2529.33809042
0.40300002 30072.43285057  2004.62846880
0.40400002 30257.22391052  2021.93908362
0.40500002 30441.43113031  2410.04821678
0.40600002 30625.05909265  1869.65994619
0.40700002 30807.60443421  1885.42548071
0.40800002 30989.32022087  2471.55335132
0.40900002 31169.32865409  2491.98794397
0.41000002 31348.92005008  2125.92711393
0.41100002 31526.91218708  2922.54489822
0.41200002 31702.96652911  2553.19853040
0.41300002 31878.10844416  2177.59369100
0.41400002 32051.57312530  2394.25262591
0.41500002 32224.00218766  2614.01118132
0.41600002 32393.58250376  2431.46241794
0.41700002 32562.20267688  2449.98024550
0.41800002 32729.87373914  2674.19446057
0.41900002 32893.74742606  3108.45927906
0.42000002 33056.47703621  3131.27493563
0.42100002 33217.75661340  2102.68409326
0.42200002 33376.78119109  3176.63530039
0.42300002 33533.31477699  2345.99081296
0.42400002 33687.52919228  2577.09610533
0.42500002 33840.02554962  2594.85328210
0.42600002 33988.92439187  2394.68978150
0.42700002 34136.76185787  2849.05427966
0.42800002 34281.73009532  3088.44121064
0.42900002 34424.73129993  2886.51385628
0.43000002 34565.26110737  2458.10866013
0.43100002 34701.83184877  2248.67881036
0.43200002 34836.78618797  2715.17924416
0.43300002 34968.65430104  2504.10545316
0.43400002 35098.29499513  3206.22939974
0.43500002 35224.78124008  2994.81104295
0.43600002 35349.44139597  3939.16518863
0.43700002 35470.35514868  2796.48293244
0.43800002 35587.67055409  2577.79303875
0.43900002 35703.32579540  2592.06157558
0.44000002 35815.29886974  2843.01855901
0.44100002 35924.98788734  2381.82680981
0.44200002 36031.44140427  2633.71833426
0.44300002 36135.13701971  2647.26026352
0.44400002 36235.24716785  3144.31372200
0.44500002 36331.56901366  3159.75670686
0.44600002 36425.70611155  2442.34371052
0.44700002 36516.81861660  2699.32336006
0.44800002 36603.80854784  3204.84660929
0.44900002 36689.02281103  2476.50915711
0.45000002 36770.73780204  3731.31079530
0.45100002 36848.03179131  3497.61534339
0.45200002 36923.06051156  2759.81428873
0.45300002 36994.24900298  4030.89356240
0.45400002 37062.86733614  3288.40306025
0.45500002 37128.05480591  4317.25041744
0.45600002 37189.75565262  3824.03680621
0.45700002 37248.13469293  2558.94697468
0.45800002 37302.63651824  2825.11531060
0.45900002 37354.11680538  2577.43418173
0.46000002 37403.08466571  2586.42342722
0.46100002 37447.43818513  4152.17214276
0.46200002 37489.34140304  2863.99837222
0.46300002 37527.50524930  3656.68028480
0.46400002 37561.93033449  2619.94476500
0.46500002 37593.82573456  2890.58939773
0.46600002 37621.68778337  4480.17890202
0.46700002 37646.14108015  3171.31107490
0.46800002 37667.91448562  2914.93170063
0.46900002 37685.65289254  3188.20638582
0.47000002 37699.72544629  2663.48572902
0.47100002 37710.96841304  3203.92402823
0.47200002 37718.58794764  3478.97412424
0.47300002 37723.54229981  3218.57278157
0.47400002 37723.73484889  2956.59785892
0.47500002 37721.74482428  3231.99924973
0.47600002 37716.67449574  3778.07946331
0.47700002 37707.10435310  3244.31941232
