# SAXS profile: number of points = 501, q_min = 0, q_max = 0.5, delta_q = 0.001
#    q    intensity    error
0.00000000 1700912.83420644 280.65061764
0.00100000 1700842.82053617 714.35400159
0.00200000 1700632.72956358 918.34170304
0.00300000 1700282.72500598 1326.22057275
0.00400000 1699792.67975388 1529.81346991
0.00500000 1699163.06477619 1835.09618259
0.00600000 1698393.58736059 2318.30734113
0.00700000 1697484.91039483 2444.37837256
0.00800000 1696436.50679275 2290.18938086
0.00900000 1695249.79552109 3051.44976238
0.01000000 1693923.79011340 3074.47181181
0.01100000 1692459.87641523 3046.42791019
0.01200000 1690857.49644287 3626.88948889
0.01300000 1689117.94262387 3547.14783596
0.01400000 1687240.58357383 3796.29148133
0.01500000 1685227.18430238 4853.45450691
0.01600000 1683076.60352807 6866.95284937
0.01700000 1680790.92243481 6353.38997181
0.01800000 1678369.75770785 5261.68942718
0.01900000 1675813.79100140 5530.18575984
0.02000000 1673123.81531697 6851.44233365
0.02100000 1670301.30844909 7716.79239490
0.02200000 1667344.59203927 7478.04083504
0.02300000 1664256.58458674 6590.45637495
0.02400000 1661036.93772490 7474.66656059
0.02500000 1657687.32672132 7111.47895642
0.02600000 1654207.89569617 7369.49651239
0.02700000 1650599.42219226 6932.51789072
0.02800000 1646862.15668221 9313.00592313
0.02900000 1642998.40744218 8872.19180755
0.03000000 1639008.56705832 9145.66822457
0.03100000 1634893.01337310 10201.73287286
0.03200000 1630652.71610332 8878.90444813
0.03300000 1626290.37822074 10782.30570467
0.03400000 1621804.19446314 8514.47241379
0.03500000 1617197.44312917 12226.01323463
0.03600000 1612469.87378409 12528.89149831
0.03700000 1607623.35143537 13745.18029045
0.03800000 1602659.00633122 10313.11118303
0.03900000 1597578.53584082 13419.66032253
0.04000000 1592380.55395828 9793.14086065
0.04100000 1587069.18260096 10998.38994538
0.04200000 1581644.67146010 14282.25204588
0.04300000 1576107.05579142 14563.22987151
0.04400000 1570460.27224105 14840.85026192
0.04500000 1564703.69758262 15115.03842097
0.04600000 1558837.89387283 13187.76919522
0.04700000 1552865.91172752 14534.82560975
0.04800000 1546788.15180583 11368.89344475
0.04900000 1540607.27964297 17331.83270274
0.05000000 1534322.90505822 11737.57077027
0.05100000 1527938.20693899 11917.91856931
0.05200000 1521451.70186535 18143.31239025
0.05300000 1514868.54387379 14724.52293288
0.05400000 1508187.54352199 17419.56694002
0.05500000 1501412.28516093 16395.42291879
0.05600000 1494541.33000378 17889.66055495
0.05700000 1487579.83397123 14236.13967563
0.05800000 1480526.41494459 13102.65938405
0.05900000 1473383.06243837 14586.49299941
0.06000000 1466152.75924599 14756.82821123
0.06100000 1458836.75414973 17637.33718189
0.06200000 1451435.70327890 16459.28164455
0.06300000 1443952.79775575 15248.14225723
0.06400000 1436386.22354528 14004.76633452
0.06500000 1428741.86728291 19802.36320685
0.06600000 1421018.11792863 24278.09568075
0.06700000 1413217.92314483 21622.23523601
0.06800000 1405344.25090366 24727.03325210
0.06900000 1397397.83585703 22009.01694519
0.07000000 1389378.01623419 19235.93953555
0.07100000 1381290.00361538 16409.72601155
0.07200000 1373132.20033896 21050.11761733
0.07300000 1364910.19499007 18180.60464913
0.07400000 1356622.97237621 19840.61190082
0.07500000 1348272.81146078 16907.34184821
0.07600000 1339860.25436215 17022.92532972
0.07700000 1331390.50853554 18692.72361631
0.07800000 1322861.67540816 17243.50274760
0.07900000 1314275.77121078 18925.57199312
0.08000000 1305637.90305647 23795.25189946
0.08100000 1296946.99226396 23928.67312996
0.08200000 1288204.54373003 20849.59151864
0.08300000 1279413.38521062 20956.79223329
0.08400000 1270574.33258506 17819.80585094
0.08500000 1261691.29260373 19530.98212639
0.08600000 1252763.37473381 19618.27536944
0.08700000 1243794.54198432 26268.94196024
0.08800000 1234783.30716443 19781.22950978
0.08900000 1225735.69799647 18202.17597020
0.09000000 1216650.11589482 21589.45732073
0.09100000 1207529.92647404 21663.08789870
0.09200000 1198375.82773275 25076.01537355
0.09300000 1189191.50907982 20121.12127917
0.09400000 1179975.00993412 25221.96702271
0.09500000 1170730.78198055 20230.22886350
0.09600000 1161459.84059546 23658.93806508
0.09700000 1152165.55449624 18630.51789208
0.09800000 1142848.57541326 23759.82299997
0.09900000 1133510.09906347 22103.44797110
0.10000000 1124151.10502367 20437.06805043
0.10100000 1114773.39582137 25584.05063736
0.10200000 1105379.94144915 18785.93298855
0.10300000 1095971.57602248 27355.45182434
0.10400000 1086550.89260003 18824.49509990
0.10500000 1077120.28300295 22264.07729718
0.10600001 1067676.64805039 22277.07430979
0.10700001 1058227.14153586 22286.26464948
0.10800001 1048769.65973086 18862.12321794
0.10900001 1039308.08380497 24008.01786585
0.11000001 1029842.70427929 24005.63456668
0.11100001 1020375.78353508 18856.54536737
0.11200001 1010909.25835782 23988.87783016
0.11300001 1001442.13154746 20549.59350685
0.11400001 991979.43872140 18822.81073600
0.11500001 982521.28592934 20515.04541622
0.11600001 973068.49585308 25616.02935963
0.11700001 963624.10645715 18761.76223630
0.11800001 954186.39797684 20438.67360729
0.11900001 944760.20043825 27209.09505421
0.12000001 935344.70677852 22069.45939602
0.12100001 925944.37085707 16944.78278492
0.12200001 916556.87991254 21983.61780038
0.12300001 907186.17967364 21935.76285800
0.12400001 897831.97936522 18517.78544692
0.12500001 888496.61777534 23509.62161412
0.12600001 879182.68016185 30147.17552339
0.12700001 869889.58435619 16701.88080674
0.12800001 860617.91668032 19983.54896713
0.12900001 851371.21813347 16601.73953608
0.13000001 842149.71015827 19857.89110153
0.13100001 832953.31880838 21440.21943677
0.13200001 823786.26510130 19721.44411620
0.13300001 814648.33630837 18011.87556491
0.13400001 805539.55915763 16312.17684199
0.13500001 796462.76589614 16247.84119034
0.13600001 787417.53018070 16181.43100818
0.13700001 778406.73184481 25780.83217435
0.13800001 769429.09628958 19251.11689697
0.13900001 760489.72732316 19164.34203230
0.14000001 751585.70306980 17485.64220655
0.14100001 742720.26178760 18983.93078663
0.14200001 733892.67186600 18890.39826480
0.14300001 725107.76190485 17228.56123549
0.14400001 716359.32203621 21813.14238493
0.14500001 707657.00836024 23246.53382122
0.14600001 698995.31957725 23119.27128565
0.14700001 690379.76151719 18391.71771448
0.14800001 681807.10295822 21333.74525806
0.14900001 673279.75939282 21208.31342150
0.15000001 664799.76735728 21080.80161755
0.15100001 656366.62324386 17958.19165931
0.15200001 647983.15393334 19332.57830985
0.15300001 639648.24286185 17731.05012884
0.15400001 631361.29952335 16147.06599731
0.15500001 623126.71455094 16039.28238948
0.15600001 614941.97510436 17378.26103661
0.15700001 606812.28584641 20134.03259465
0.15800001 598730.86388459 18563.65131092
0.15900001 590705.99060806 17012.33333250
0.16000001 582732.73474255 19702.19469164
0.16100001 574817.59289851 13968.06816679
0.16200001 566955.30434036 22179.29255279
0.16300001 559150.11329460 19257.13081095
0.16400001 551400.96745339 15011.89204762
0.16500001 543709.60563702 14892.20680148
0.16600001 536074.97097556 14771.54652264
0.16700001 528498.34807084 14649.97490022
0.16800001 520978.97513475 14527.49940757
0.16900001 513521.48067744 15713.75805070
0.17000001 506122.09517315 19473.04853130
0.17100001 498782.82154905 19302.89610546
0.17200001 491504.19524469 15305.44136269
0.17300001 484286.16458062 16431.83034020
0.17400001 477130.08723099 13777.13191943
0.17500001 470034.95322486 12408.92335118
0.17600001 462999.74391000 13521.90815952
0.17700001 456029.29560662 15828.77759811
0.17800001 449120.35479640 12058.88209585
0.17900001 442273.89786347 11941.39580635
0.18000001 435491.24615199 13005.94668067
0.18100001 428772.68014893 11705.49472099
0.18200001 422114.90938499 11587.05480997
0.18300001 415523.40482384 16055.82512086
0.18400001 408994.30801047 11349.59258345
0.18500001 402530.27916841 17968.95251097
0.18600001 396129.94859813 11111.44558312
0.18700001 389793.77630653 13190.62201340
0.18800001 383521.39404545 11960.11523838
0.18900001 377315.79031242 20431.65101076
0.19000001 371170.88194417 14887.66477820
0.19100001 365095.39772125 11566.22274631
0.19200001 359081.52641987 10395.41068105
0.19300001 353134.52373850 14386.70117692
0.19400001 347251.28234557 12188.52058628
0.19500001 341433.15829772 12045.76239397
0.19600001 335679.25741329 9919.32252531
0.19700001 329990.69037862 14701.08595111
0.19800001 324366.97748965 13555.29662990
0.19900001 318808.61931100 10520.68493447
0.20000001 313313.03793329 11335.66624816
0.20100001 307883.83578198 9328.88066510
0.20200001 302517.98300756 17502.17873412
0.20300001 297217.28067310 10913.81906215
0.20400001 291981.09316934 10774.10284719
0.20500001 286807.88960472 14179.78273229
0.20600001 281699.21423386 9621.43711694
0.20700001 276654.23365893 8631.61249817
0.20800001 271672.68872768 13627.10271074
0.20900001 266756.81483563 10083.40807744
0.21000001 261901.79455925 9947.03062758
0.21100001 257110.25616461 8176.10653255
0.21200001 252381.37702213 10482.66099018
0.21300001 247715.04299335 11132.31455841
0.21400001 243111.94305695 10192.46869453
0.21500001 238571.53591239 9275.66175480
0.21600001 234091.26159448 8381.63801766
0.21700001 229673.47057527 9763.41969577
0.21800001 225316.98381834 8881.99592206
0.21900001 221020.53901666 9481.78157213
0.22000001 216784.58343443 8623.69113677
0.22100001 212611.48767857 8495.95544935
0.22200001 208496.99703916 8369.06985688
0.22300001 204442.48461449 6869.26780786
0.22400001 200445.12664464 7441.52567856
0.22500001 196510.42480189 9992.55557370
0.22600001 192632.51618584 6559.13748630
0.22700001 188813.99878703 7103.18297027
0.22800001 185052.73934234 7627.87427641
0.22900001 181348.50849051 8133.48099044
0.23000001 177702.08632686 6773.11534066
0.23100001 174113.90294585 6059.16410907
0.23200001 170580.18316245 6557.95545183
0.23300001 167103.70713571 7038.40847743
0.23400001 163682.84735226 6346.80270626
0.23500001 160315.98745898 5675.18622446
0.23600001 157004.81771665 6139.67368720
0.23700001 153747.76844400 7684.31383028
0.23800001 150544.91496955 7016.14609401
0.23900001 147395.57388786 6367.48909313
0.24000001 144299.08920234 5738.05355354
0.24100001 141256.46710726 7691.41499780
0.24200001 138265.33132944 8567.61166109
0.24300001 135326.01988459 5943.51907448
0.24400001 132437.56313468 6813.91294560
0.24500001 129600.24464964 5738.69910455
0.24600001 126813.45638464 6107.97041570
0.24700001 124077.33455994 5077.24477038
0.24800001 121389.84901276 6800.86661267
0.24900001 118751.07545770 4898.48209436
0.25000001 116161.37913807 4373.47613145
0.25100001 113619.34929423 5153.77392781
0.25200001 111125.78071168 5482.39065078
0.25300001 108679.39464959 5382.89067166
0.25400001 106278.94301161 4878.20371503
0.25500001 103924.73119490 3990.70986669
0.25600001 101616.71172204 5484.25419111
0.25700001 99353.66863299  6151.97945283
0.25800001 97135.06088936  5660.54594115
0.25900001 94961.20767673  4073.83600208
0.26000001 92831.51513164  4361.22478724
0.26100001 90742.87582858  3922.81470768
0.26200001 88699.81122845  3849.12849039
0.26300001 86697.49710735  4119.86525748
0.26400001 84736.73959661  4041.94267002
0.26500001 82818.14821525  3965.33312418
0.26600001 80939.76706529  3565.80160679
0.26700001 79102.46601178  5723.85471147
0.26800001 77305.05985092  3119.25931259
0.26900001 75546.35111072  3671.55283772
0.27000001 73827.01892391  4201.49584578
0.27100001 72146.10937302  3532.27368206
0.27200001 70503.44538309  3175.82784757
0.27300001 68897.65437819  2831.69372895
0.27400001 67327.72078693  3332.72233667
0.27500001 65796.54983049  2996.37502109
0.27600001 64299.36232604  3473.13022041
0.27700001 62839.17524308  3406.51185115
0.27800001 61413.30709877  2827.16172609
0.27900001 60022.20766389  2773.02612531
0.28000001 58665.13269337  2720.00900606
0.28100001 57341.35834162  2668.09352991
0.28200001 56051.23527442  2617.31255502
0.28300001 54793.72740251  3501.31934674
0.28400001 53568.54380962  2748.06642750
0.28500001 52375.36632505  2696.28398603
0.28600001 51212.70136452  2204.70689810
0.28700001 50081.27951147  2596.21365276
0.28800001 48979.68327417  2760.25018157
0.28900001 47909.70683692  3542.92298829
0.29000001 46867.39691673  2045.76197225
0.29100001 45855.47014274  2410.16362479
0.29200001 44871.70336297  2169.32260177
0.29300001 43915.83616385  3486.03923970
0.29400001 42987.55692443  2282.63938074
0.29500001 42087.47394394  2429.28911104
0.29600001 41213.43536615  2019.66449572
0.29700001 40365.35686768  1984.76469114
0.29800001 39543.89374325  2482.96120568
0.29900001 38747.94552420  2266.75492047
0.30000001 37976.85910708  2571.98290478
0.30100001 37231.52598458  1855.24702764
0.30200001 36509.18417401  1991.21099912
0.30300001 35811.06838709  1796.28327533
0.30400001 35137.16464845  2250.53550228
0.30500001 34485.12215414  2057.72733636
0.30600001 33856.10230888  2806.33245324
0.30700001 33249.66715150  2150.58857317
0.30800001 32664.93747289  1514.01992355
0.30900001 32101.64351879  1492.72649430
0.31000001 31560.06546085  1913.96026049
0.31100001 31037.66066443  1597.81884665
0.31200001 30536.54725271  1433.69096139
0.31300001 30054.95972932  1698.70640433
0.31400001 29594.29499005  1538.16355493
0.31500001 29151.52190971  2210.85152631
0.31600002 28727.93568321  1912.41876898
0.31700002 28322.24751878  1621.16552473
0.31800002 27934.96148688  2005.03195566
0.31900002 27565.79360175  1323.15815553
0.32000002 27213.65178475  1703.43861412
0.32100002 26878.89707677  1428.07586931
0.32200002 26560.77458958  1415.55654878
0.32300002 26258.31254304  1531.38486002
0.32400002 25972.25807146  1519.37716913
0.32500002 25701.31612264  1382.47385970
0.32600002 25446.29384053  1248.14077198
0.32700002 25205.90490191  1364.14363789
0.32800002 24981.08026101  1602.66128004
0.32900002 24769.21054720  1471.29117617
0.33000002 24573.03951729  1586.06691075
0.33100002 24388.10888375  1457.43345591
0.33200002 24219.10456801  1209.74433046
0.33300002 24061.71094063  1446.59013025
0.33400002 23917.99644790  1322.06731627
0.33500002 23786.04515381  1318.69840578
0.33600002 23666.44360528  1555.24041517
0.33700002 23557.93115633  1433.26459943
0.33800002 23462.36259342  1431.67343325
0.33900002 23376.97458341  1311.44833624
0.34000002 23303.09210656  1311.14853947
0.34100002 23239.79783431  1430.64202243
0.34200002 23187.97607338  1312.32356802
0.34300002 23144.76718699  1791.40506511
0.34400002 23112.53545197  1794.11064943
0.34500002 23089.37694315  1917.34195216
0.34600002 23076.92587327  1321.26945345
0.34700002 23071.33342966  1445.18839448
0.34800002 23076.28112321  1449.65204882
0.34900002 23089.32563518  1333.40861858
0.35000002 23111.06035674  1460.15686249
0.35100002 23140.74289921  1466.19753954
0.35200002 23177.54163419  1963.60142025
0.35300002 23222.57337365  1726.36618636
0.35400002 23275.26093922  1487.28924446
0.35500002 23334.74429428  1619.89802563
0.35600002 23400.93315888  1378.43203301
0.35700002 23473.86725219  1386.60140426
0.35800002 23553.89973883  1902.56634152
0.35900002 23639.71440531  1531.85356602
0.36000002 23732.19113604  1542.11785306
0.36100002 23829.80627877  1423.35439645
0.36200002 23934.08416961  1433.53203924
0.36300002 24042.12900636  1575.24036711
0.36400002 24156.18717637  1454.80644161
0.36500002 24274.67866414  1732.48389832
0.36600002 24398.68688252  2283.35122006
0.36700002 24526.86249086  1353.88287363
0.36800002 24660.82894088  1501.47464119
0.36900002 24797.82481647  1513.90727676
0.37000002 24938.22655156  2220.49979733
0.37100002 25082.85055796  1539.58544018
0.37200002 25231.72071325  1835.22929301
0.37300002 25383.36839979  1566.40773815
0.37400002 25539.43984862  1723.91227145
0.37500002 25697.46124852  1449.33688307
0.37600002 25859.59586459  1608.59623696
0.37700002 26023.22599275  1918.17207879
0.37800002 26190.58754448  2233.40245866
0.37900002 26360.11717560  1652.77942521
0.38000002 26532.11348877  1516.31035771
0.38100002 26705.73691011  2601.40595565
0.38200002 26881.77439000  1853.22961424
0.38300002 27059.33137701  2026.20282950
0.38400002 27239.40768201  1573.07586816
0.38500002 27419.93840309  2063.89886138
0.38600002 27602.97297477  1602.35265710
0.38700002 27786.28885721  1778.87829691
0.38800002 27970.77882849  2121.72352855
0.38900002 28156.48396054  1811.86982870
0.39000002 28343.75507853  2161.06970835
0.39100002 28530.85844829  1845.37601186
0.39200002 28719.33783105  2031.60605442
0.39300002 28907.66774011  2220.97621770
0.39400002 29097.41503599  1896.42411482
0.39500002 29286.22215925  1739.60167868
0.39600002 29475.51830888  2281.84735799
0.39700002 29664.33344866  2125.15294895
0.39800002 29854.47461139  1786.79039015
0.39900002 30043.15285313  2343.36603357
0.40000002 30231.51901550  2909.48152790
0.40100002 30419.54990994  2201.15873577
0.40200002 30608.00845558  2405.33045845
0.40300002 30794.82563265  2612.63313046
0.40400002 30981.01900438  2258.51639243
0.40500002 31166.49307625  2087.84347010
0.40600002 31351.29270800  2105.39616156
0.40700002 31534.94089894  2894.90771169
0.40800002 31717.50105947  2140.45566042
0.40900002 31898.43252192  2157.92906235
0.41000002 32078.81818491  2570.95700525
0.41100002 32257.52056674  2790.92081167
0.41200002 32434.07485184  2210.22013550
0.41300002 32609.76424018  2227.57310080
0.41400002 32783.53284353  3265.24002593
0.41500002 32956.26565630  2673.41239671
0.41600002 33126.03645230  2693.64378175
0.41700002 33294.75271007  2922.61353137
0.41800002 33462.41923258  2313.42446326
0.41900002 33626.13523420  2542.13594416
0.42000002 33788.68610656  3414.00900598
0.42100002 33949.62793081  2578.81385982
0.42200002 34108.16720611  2380.57964295
0.42300002 34264.13442360  3268.79857890
0.42400002 34417.71002167  3510.60658856
0.42500002 34569.50709080  2429.89076856
0.42600002 34717.46715382  2446.01926423
0.42700002 34864.34575051  2909.77843422
0.42800002 35008.26246695  2478.05997615
0.42900002 35150.07316296  2720.61579174
0.43000002 35289.29486009  2281.45302082
0.43100002 35424.54464649  2295.51060187
0.43200002 35557.90048886  2771.38289543
0.43300002 35688.20059102  2323.30196857
0.43400002 35816.16649564  2570.70547205
0.43500002 35940.79349910  2585.58080685
0.43600002 36063.50464576  3309.54797818
0.43700002 36182.41605530  2614.90333223
0.43800002 36297.60619542  2629.21722936
0.43900002 36410.99693666  3604.68886755
0.44000002 36520.66968617  2899.01089707
0.44100002 36627.90162801  2428.42999302
0.44200002 36731.81259595  2440.82906267
0.44300002 36832.85608325  2453.06833140
0.44400002 36930.18467994  3697.63491631
0.44500002 37023.65699587  2972.25932449
0.44600002 37114.85357367  2488.55105005
0.44700002 37202.93977486  3500.05273989
0.44800002 37286.65957336  2511.25664128
0.44900002 37368.64529237  3026.86041213
0.45000002 37447.01934360  3039.94917438
0.45100002 37520.90576049  3052.70103735
0.45200002 37592.38027031  3065.28283251
0.45300002 37659.86200376  2821.10039640
0.45400002 37724.75410510  3089.65750764
0.45500002 37786.09440706  2843.02587793
0.45600002 37843.94551710  3113.04310577
0.45700002 37898.24711168  3124.33163996
0.45800002 37948.59966109  2874.03733154
0.45900002 37995.90167200  2621.71733962
0.46000002 38040.52606717  3682.70350310
0.46100002 38080.47650490  3166.77257624
0.46200002 38117.83369353  3441.46877813
0.46300002 38151.52427140  3717.48470120
0.46400002 38181.25548047  3462.08550478
0.46500002 38208.50107218  4273.23896244
0.46600002 38231.49511568  2945.92799576
0.46700002 38251.01526076  2953.74353843
0.46800002 38267.82984760  2961.35615311
0.46900002 38280.52915131  3238.53291970
0.47000002 38289.37491532  3787.20225237
0.47100002 38295.41908520  3795.84211964
0.47200002 38297.75204794  2988.94820025
0.47300002 38297.40536310  4084.41847557
0.47400002 38292.07003126  3546.80315476
0.47500002 38284.60432491  4100.28131754
0.47600002 38273.93086033  3286.19985943
0.47700002 38258.66738325  3017.46123954
