# SAXS profile: number of points = 501, q_min = 0, q_max = 0.5, delta_q = 0.001
#    q    intensity    error
0.00000000 1682732.95097189 252.40994265
0.00100000 1682663.51263619 757.19859867
0.00200000 1682455.14434951 832.81532282
0.00300000 1682108.01324212 1614.82375024
0.00400000 1681621.98918783 2270.18977167
0.00500000 1680997.54611603 2269.34677708
0.00600000 1680234.39238370 2822.79389413
0.00700000 1679333.18244074 2418.23988322
0.00800000 1678293.38892782 2718.83540485
0.00900000 1677116.41847642 3773.51210288
0.01000000 1675801.31989771 3871.10121612
0.01100000 1674349.44798726 4219.36079264
0.01200000 1672760.21096210 3588.07080983
0.01300000 1671034.97918718 5263.76041660
0.01400000 1669173.07125626 4882.33144986
0.01500000 1667176.24496832 5601.71243253
0.01600000 1665043.36698815 7217.96331856
0.01700000 1662776.49008918 4938.44639710
0.01800000 1660375.32838020 5678.48387858
0.01900000 1657840.44749748 7957.63450706
0.02000000 1655172.66869415 7299.31179913
0.02100000 1652373.44630264 6543.39914403
0.02200000 1649441.13292143 6259.62938383
0.02300000 1646378.66414544 10075.83788321
0.02400000 1643185.67920911 9242.91986701
0.02500000 1639863.76634741 6395.46898084
0.02600000 1636413.18358256 7290.22106630
0.02700000 1632834.58485993 8229.48668461
0.02800000 1629128.26629825 7086.70828339
0.02900000 1625296.61960477 8045.21863643
0.03000000 1621339.95382440 9801.00047137
0.03100000 1617258.56817938 10091.69392979
0.03200000 1613053.54691207 12775.38467995
0.03300000 1608727.52534227 9845.41290897
0.03400000 1604278.75523487 10106.95662432
0.03500000 1599710.40809668 8638.43660263
0.03600000 1595022.34806066 8852.37444084
0.03700000 1590216.29781722 9970.65664843
0.03800000 1585293.57432026 11128.76140676
0.03900000 1580255.58034586 12325.99409751
0.04000000 1575101.16770926 10655.55989332
0.04100000 1569834.36070039 10878.95262407
0.04200000 1564455.47080940 12108.88590583
0.04300000 1558964.37424971 11318.08188242
0.04400000 1553365.18477527 13630.78012944
0.04500000 1547657.21382890 14950.36938025
0.04600000 1541840.88387375 10869.97873662
0.04700000 1535919.40051163 12164.48221780
0.04800000 1529893.09402263 14618.12919354
0.04900000 1523764.57983364 17142.35232106
0.05000000 1517533.50129321 13930.95819058
0.05100000 1511203.06750895 12966.12292324
0.05200000 1504771.62628942 17944.40247973
0.05300000 1498244.71664432 13349.36104762
0.05400000 1491620.65723772 15997.63229491
0.05500000 1484903.30345494 21204.42016251
0.05600000 1478091.13787966 18956.51972790
0.05700000 1471189.30955360 14079.28234963
0.05800000 1464196.38940702 18141.39411182
0.05900000 1457114.55974285 19671.04747528
0.06000000 1449946.45777416 22553.91820437
0.06100000 1442693.53330875 13417.05048677
0.06200000 1435356.45779007 18989.76682421
0.06300000 1427938.27832934 17820.67054676
0.06400000 1420437.26369635 16619.11676247
0.06500000 1412859.26551709 19582.23033608
0.06600000 1405202.76965170 18358.97504449
0.06700000 1397470.54552897 14254.20023148
0.06800000 1389665.43984362 23012.86076102
0.06900000 1381788.50437654 26115.80395543
0.07000000 1373838.94299361 14631.38542805
0.07100000 1365821.86380449 19176.13986598
0.07200000 1357735.90051903 22300.81321075
0.07300000 1349586.23685423 16478.44872410
0.07400000 1341372.24678018 18108.52618017
0.07500000 1333095.92545296 22795.94139375
0.07600000 1324757.80009312 21421.33463175
0.07700000 1316363.30407010 18481.74165573
0.07800000 1307910.45111152 18598.48748700
0.07900000 1299401.05571256 17152.09473990
0.08000000 1290840.34042802 20388.82413352
0.08100000 1282227.11080129 20502.81246367
0.08200000 1273563.16157989 17441.44831628
0.08300000 1264850.96620677 20718.25979882
0.08400000 1256091.43810788 24022.74988141
0.08500000 1247288.72568250 16090.02531665
0.08600000 1238441.56626265 17777.82951840
0.08700000 1229554.18138830 19476.13914775
0.08800000 1220624.76773192 22813.47798032
0.08900000 1211659.59704236 19628.88639405
0.09000000 1202657.00387770 21341.14953632
0.09100000 1193620.32274776 19766.35347335
0.09200000 1184550.16528300 23134.26581498
0.09300000 1175450.35415025 19888.62092683
0.09400000 1166318.74349032 18282.04716342
0.09500000 1157159.95888798 18329.41461032
0.09600000 1147974.95822184 25054.55464095
0.09700000 1138766.90518089 20087.84915178
0.09800000 1129536.68723226 16773.62059406
0.09900000 1120285.44826604 18484.71076559
0.10000000 1111014.01099347 20198.23566973
0.10100000 1101724.33352435 20227.65971485
0.10200000 1092419.12342535 16877.87625079
0.10300000 1083099.47489646 16896.35260320
0.10400000 1073767.82600074 20294.21286616
0.10500000 1064426.57756110 25386.57506925
0.10600001 1055072.58733993 20320.69898833
0.10700001 1045713.37222405 22022.72465538
0.10800001 1036346.10092847 27110.81527617
0.10900001 1026975.29625079 18639.60250424
0.11000001 1017600.73421345 23720.27423102
0.11100001 1008224.93033465 20325.81555235
0.11200001 998850.00924348 18623.55929909
0.11300001 989474.68855237 25380.02695628
0.11400001 980103.97794827 20288.15329879
0.11500001 970737.87683031 23647.17579308
0.11600001 961377.41592109 18559.39188835
0.11700001 952025.58825028 21906.10981731
0.11800001 942680.59448806 18509.53434454
0.11900001 933347.22139474 16800.25077642
0.12000001 924024.98122399 16771.05419921
0.12100001 914717.67715795 21761.13456471
0.12200001 905423.54922680 21716.58485130
0.12300001 896146.20092485 21668.81615928
0.12400001 886885.70947054 18292.01861970
0.12500001 877644.02106717 16587.47277978
0.12600001 868423.79029611 21506.51618014
0.12700001 859224.48499390 18146.82197827
0.12800001 850046.85763515 26317.45195271
0.12900001 840894.05531053 22956.40879196
0.13000001 831766.49306671 17978.63359506
0.13100001 822664.17521644 16288.75143710
0.13200001 813591.08213940 22723.59999535
0.13300001 804547.20014853 17788.53943389
0.13400001 795532.24934679 27386.19897490
0.13500001 786549.56443531 25672.97899360
0.13600001 777598.31303660 19175.57530363
0.13700001 768681.35612716 22276.38675097
0.13800001 759797.58990128 28515.20489365
0.13900001 750952.01623595 25231.98893542
0.14000001 742141.70666911 17265.92761993
0.14100001 733369.76955826 18744.93219398
0.14200001 724635.68202535 15543.43611255
0.14300001 715944.06211805 17010.83171829
0.14400001 707289.03057981 19998.59828298
0.14500001 698679.74854915 22951.63082252
0.14600001 690110.96161075 21303.72638991
0.14700001 681588.27618464 19670.63857868
0.14800001 673108.24661700 19557.16102814
0.14900001 664673.42372803 17946.18328737
0.15000001 656285.62191717 14864.87003779
0.15100001 647944.66418711 16250.45294459
0.15200001 639652.99983006 17616.04444657
0.15300001 631409.71890490 16044.12171448
0.15400001 623214.26957738 15938.70569661
0.15500001 615070.91883963 17271.19221610
0.15600001 606976.81607098 20012.02657033
0.15700001 598937.96566666 17033.79654750
0.15800001 590946.94736331 21141.12803976
0.15900001 583012.25580099 13992.29479967
0.16000001 575128.69617268 18056.16626864
0.16100001 567303.07844131 16542.55854823
0.16200001 559530.00772384 19152.71306851
0.16300001 551813.74219312 21719.38991805
0.16400001 544153.19851282 14814.57152890
0.16500001 536549.84763959 16032.11020437
0.16600001 529003.25545798 15901.83860984
0.16700001 521514.04384239 18399.01633546
0.16800001 514082.01997866 15638.37578614
0.16900001 506711.16595435 15505.36241034
0.17000001 499398.13065458 15371.47518738
0.17100001 492144.84327794 20315.74008985
0.17200001 484951.90327216 12584.50248419
0.17300001 477819.04088229 17459.50857835
0.17400001 470747.68932365 12357.12742832
0.17500001 463736.88655280 17139.71613646
0.17600001 456785.70556402 13340.42716105
0.17700001 449898.72983712 14414.75598480
0.17800001 443072.86086207 15465.45893886
0.17900001 436308.94207668 11780.34199250
0.18000001 429608.50182976 11663.87137562
0.18100001 422971.59667080 18475.40021529
0.18200001 416395.04186634 13716.05332699
0.18300001 409884.15524286 14706.64418485
0.18400001 403435.33998964 12314.86433495
0.18500001 397050.92691416 17724.35421478
0.18600001 390729.96032511 19727.95662883
0.18700001 384472.39630110 15178.97092309
0.18800001 378278.36284547 12869.03051202
0.18900001 372150.44924169 14848.80362631
0.19000001 366082.59735516 11537.09360076
0.19100001 360083.86458990 10370.41579019
0.19200001 354145.90410573 16404.03905329
0.19300001 348274.48016670 11148.26663692
0.19400001 342466.25783601 13022.28006957
0.19500001 336722.54765092 10889.60770562
0.19600001 331042.51284525 10760.53738854
0.19700001 325427.38209025 10631.71307532
0.19800001 319876.32813239 12412.80149979
0.19900001 314390.16086647 13204.38738043
0.20000001 308966.20538215 11178.39783903
0.20100001 303608.04918514 12879.05405513
0.20200001 298312.47357078 10900.33829946
0.20300001 293081.61488434 8968.29783934
0.20400001 287914.55755071 10624.04767577
0.20500001 282809.91918456 12234.35768220
0.20600001 277769.42344396 16387.00791066
0.20700001 272791.81496675 10213.32603513
0.20800001 267877.08281807 9237.74163765
0.20900001 263027.37426265 13256.58028949
0.21000001 258237.97024398 8990.55535905
0.21100001 253511.29066549 13704.82102125
0.21200001 248846.75739890 9540.78512971
0.21300001 244244.07191693 9408.28209502
0.21400001 239703.96581168 10822.63456805
0.21500001 235225.99334150 10669.85156242
0.21600001 230807.57899777 8264.06575673
0.21700001 226450.93733540 9626.42980126
0.21800001 222154.98513037 10216.90824921
0.21900001 217918.44387663 12225.22527951
0.22000001 213741.61718347 7085.53494465
0.22100001 209627.01398747 6980.57989585
0.22200001 205570.52222704 8251.60115237
0.22300001 201573.12203871 7450.14294283
0.22400001 197632.52501764 7337.10783822
0.22500001 193753.88392735 7881.90837088
0.22600001 189931.16141815 9054.01889295
0.22700001 186167.36295610 7003.61652560
0.22800001 182460.06202630 8147.75445509
0.22900001 178809.21141039 8019.59351101
0.23000001 175215.45557602 6678.33740511
0.23100001 171679.27222561 6571.88285160
0.23200001 168196.92908067 6466.33124432
0.23300001 164771.14994065 11566.93527289
0.23400001 161400.38626130 6258.30027327
0.23500001 158082.82940537 7834.58539588
0.23600001 154820.50942998 7705.41711877
0.23700001 151611.60367156 7577.54830991
0.23800001 148456.01437542 5854.36320380
0.23900001 145353.52542133 7325.81802774
0.24000001 142303.04953829 5658.68103255
0.24100001 139305.96835958 6068.16826877
0.24200001 136359.59687392 5467.33829528
0.24300001 133464.42338361 7327.19719036
0.24400001 130619.47584712 4800.26596445
0.24500001 127825.02695680 5188.41808961
0.24600001 125080.52357254 6487.92706462
0.24700001 122385.88689848 5008.03072880
0.24800001 119739.16250924 5813.93531067
0.24900001 117140.72096678 5271.33269288
0.25000001 114590.62601977 4314.33727375
0.25100001 112087.52997673 4236.90883356
0.25200001 109632.23960234 4160.54368974
0.25300001 107223.60809214 4493.74162774
0.25400001 104860.21589586 4813.08413733
0.25500001 102542.39783866 4331.39108963
0.25600001 100270.06863195 3865.41132864
0.25700001 98042.22565989  3794.23431256
0.25800001 95858.11855143  6330.94973927
0.25900001 93718.16688594  5117.01215408
0.26000001 91621.81430418  3945.69361970
0.26100001 89565.84344231  4927.91293937
0.26200001 87554.73812501  3799.43804071
0.26300001 85583.85079835  5422.59304317
0.26400001 83653.91861175  4655.34079103
0.26500001 81765.64001152  4567.42886717
0.26600001 79916.76725572  4801.00002007
0.26700001 78108.56509411  5651.93603766
0.26800001 76339.54605855  4928.48132676
0.26900001 74608.64257855  3625.98020090
0.27000001 72916.61383945  2964.06049284
0.27100001 71262.28664186  2907.50143258
0.27200001 69645.71278535  3137.19128088
0.27300001 68065.39484981  4196.23179107
0.27400001 66520.44941598  4390.34986923
0.27500001 65013.61485821  3499.03291726
0.27600001 63540.11522605  4224.14706014
0.27700001 62103.28755097  3107.64865612
0.27800001 60700.05185309  3302.38647736
0.27900001 59331.19739013  2491.91040832
0.28000001 57995.63254020  2444.51602726
0.28100001 56692.92473878  2398.11082995
0.28200001 55423.29720976  2823.26289349
0.28300001 54185.75984536  3231.63887013
0.28400001 52980.02167039  2491.38563697
0.28500001 51805.72946588  2889.20566906
0.28600001 50661.47825264  2180.97674201
0.28700001 49547.98009631  2140.47284147
0.28800001 48463.71810545  2100.90227931
0.28900001 47410.53490280  2062.35836589
0.29000001 46384.68112229  2632.09885487
0.29100001 45388.67683298  2783.23379514
0.29200001 44420.18051215  2147.49372851
0.29300001 43479.25169214  2300.92210846
0.29400001 42565.41062637  3201.98316594
0.29500001 41679.41984321  1850.56632864
0.29600001 40818.74564077  2727.71280657
0.29700001 39983.68884313  2502.17936625
0.29800001 39174.83796909  1932.69072270
0.29900001 38390.96790127  2418.63109228
0.30000001 37631.59260380  1699.06648649
0.30100001 36897.41241852  2005.74343402
0.30200001 36185.80331455  1809.10932236
0.30300001 35498.15168171  1942.45895198
0.30400001 34834.16227101  1912.39559921
0.30500001 34191.65171449  2511.03502079
0.30600001 33571.80898220  2318.97281523
0.30700001 32974.07739396  2285.10367159
0.30800001 32397.66400510  2102.28451682
0.30900001 31842.20383724  2220.99382280
0.31000001 31308.14877606  1898.68277242
0.31100001 30792.93784253  2161.66433889
0.31200001 30298.63231229  2560.53753794
0.31300001 29823.30960452  1545.14574377
0.31400001 29368.64698990  1387.66863597
0.31500001 28931.59944872  1782.76524244
0.31600002 28513.31798971  2304.87416883
0.31700002 28112.54270167  1609.16202043
0.31800002 27729.90700755  1326.87611314
0.31900002 27365.05710630  1444.87508363
0.32000002 27016.78003833  1430.94382248
0.32100002 26685.62283572  1417.80720840
0.32200002 26370.84061021  1405.43401687
0.32300002 26071.39173654  1393.77666823
0.32400002 25787.99491227  1508.59777380
0.32500002 25519.44935019  1247.90113231
0.32600002 25266.50985993  1239.32236731
0.32700002 25028.00723952  1723.92922029
0.32800002 24804.60776477  1836.16117673
0.32900002 24593.96965632  1217.40155564
0.33000002 24398.73495449  1211.39724785
0.33100002 24214.57516854  1447.06308060
0.33200002 24045.97506437  1201.09651134
0.33300002 23888.78144950  1316.51080803
0.33400002 23745.00268170  1909.09830602
0.33500002 23612.78823649  1785.12687522
0.33600002 23492.62955916  1306.30772850
0.33700002 23383.30107328  1185.53342056
0.33800002 23286.82351282  1184.13503170
0.33900002 23200.11227155  1538.16751645
0.34000002 23124.91400741  1419.40728900
0.34100002 23059.94501675  1182.97523538
0.34200002 23006.24321119  1302.03839620
0.34300002 22961.06909284  1540.22858769
0.34400002 22926.50426601  1542.38064754
0.34500002 22901.01435309  1426.27524146
0.34600002 22885.93628206  1548.57695187
0.34700002 22877.64812879  1791.31993332
0.34800002 22879.61664402  1197.74798804
0.34900002 22889.62126381  1562.21672524
0.35000002 22908.03543413  1326.71893500
0.35100002 22934.30045219  1937.48979397
0.35200002 22967.60388252  1459.36161981
0.35300002 23008.96202444  1343.95353550
0.35400002 23057.79191586  1964.52396428
0.35500002 23113.38500170  1481.10578106
0.35600002 23175.43953934  1365.14933072
0.35700002 23244.18771568  1248.21293945
0.35800002 23319.89009469  1758.08659751
0.35900002 23401.33738957  1263.67227889
0.36000002 23489.30872545  1526.33535328
0.36100002 23582.25122725  1536.61956275
0.36200002 23681.86276509  1418.42523750
0.36300002 23785.02175150  1298.66224915
0.36400002 23894.22018148  1439.02947859
0.36500002 24007.69996056  1713.42962735
0.36600002 24126.72826978  1992.26468125
0.36700002 24249.72100764  1874.01852824
0.36800002 24378.50108709  1484.28510900
0.36900002 24510.31026700  1632.38674111
0.37000002 24645.41457234  1508.66912451
0.37100002 24784.72693152  1659.58539395
0.37200002 24928.14504100  1813.14871545
0.37300002 25074.38448424  1547.34033982
0.37400002 25224.99969516  1986.46882009
0.37500002 25377.48093914  2433.19298771
0.37600002 25534.10206069  2165.93030990
0.37700002 25692.15155881  1748.09407487
0.37800002 25853.95511019  2645.63535176
0.37900002 26017.87434814  3114.33970701
0.38000002 26184.25563094  1945.35936426
0.38100002 26352.30246217  1962.98310340
0.38200002 26522.68664317  1523.72841983
0.38300002 26694.66998098  1537.61306375
0.38400002 26869.08903404  1706.85896175
0.38500002 27043.95535354  2348.76763373
0.38600002 27221.45656805  1580.20562864
0.38700002 27399.18314295  1594.63253447
0.38800002 27578.15635140  1931.02259921
0.38900002 27758.24231891  1786.24297785
0.39000002 27940.08098777  2130.29157584
0.39100002 28121.72243671  1984.26882914
0.39200002 28304.66107294  2002.27181916
0.39300002 28487.60789540  2188.70301830
0.39400002 28671.96122947  2038.57654000
0.39500002 28855.54073406  1885.42112089
0.39600002 29039.51810189  1729.30338490
0.39700002 29223.14878238  1919.08427146
0.39800002 29407.99967842  1936.07575056
0.39900002 29591.54284560  2840.78824777
0.40000002 29774.93956470  2149.15523961
0.40100002 29957.87133845  1987.10570003
0.40200002 30141.45034761  2186.46091181
0.40300002 30323.41135889  1837.59881541
0.40400002 30504.76106402  2594.43005142
0.40500002 30685.47849604  2242.49487474
0.40600002 30865.58775213  2072.77864370
0.40700002 31044.62525836  1899.93115583
0.40800002 31222.79077374  2107.07013520
0.40900002 31399.24865739  2124.15927232
0.41000002 31575.33952232  2335.94372854
0.41100002 31749.73096216  2354.56015972
0.41200002 31922.18934845  2175.33769622
0.41300002 32093.74378785  2790.23021712
0.41400002 32263.59669862  2811.77258551
0.41500002 32432.44372146  3845.19070981
0.41600002 32598.38527103  2854.64073345
0.41700002 32763.39313360  3081.39727022
0.41800002 32927.48499513  2483.39103601
0.41900002 33087.71602171  3126.78931221
0.42000002 33246.87830866  2729.40260408
0.42100002 33404.52902478  2537.40814496
0.42200002 33559.94380871  2555.25424268
0.42300002 33712.83493178  3430.61824522
0.42400002 33863.44653457  3022.31274642
0.42500002 34012.40804161  2390.73227453
0.42600002 34157.67732102  3500.47893773
0.42700002 34301.96734323  2422.40504857
0.42800002 34443.34150424  2216.42913083
0.42900002 34582.74052161  2676.70424321
0.43000002 34719.71335987  2469.09253259
0.43100002 34852.76860475  2484.30546387
0.43200002 34984.16645629  2953.88823472
0.43300002 35112.53171801  2742.99110780
0.43400002 35238.68471625  3908.85128738
0.43500002 35361.71907406  2312.65653704
0.43600002 35482.89298661  2558.49412004
0.43700002 35600.30375827  3976.19811519
0.43800002 35714.26549464  2586.96294370
0.43900002 35826.46036913  2837.45579570
0.44000002 35935.05682980  3803.36659511
0.44100002 36041.38814269  2628.49856181
0.44200002 36144.48607184  2641.98133463
0.44300002 36244.89280516  2896.69197026
0.44400002 36341.70725449  2668.38998162
0.44500002 36434.71150329  3168.72700961
0.44600002 36525.61900106  3183.75573111
0.44700002 36613.46823000  2952.51021799
0.44800002 36697.28201212  3213.03067884
0.44900002 36779.32413095  3227.38584544
0.45000002 36857.88584654  2992.12331483
0.45100002 36932.07448400  3004.79372242
0.45200002 37004.05016704  3520.19545922
0.45300002 37072.16005987  3029.53706367
0.45400002 37137.75030882  2788.11673657
0.45500002 37199.95212727  2544.47684610
0.45600002 37258.66672552  2809.48989759
0.45700002 37314.11818124  3588.87205676
0.45800002 37365.72748272  2572.63045911
0.45900002 37414.33110244  2581.58896842
0.46000002 37460.46965445  3885.58739906
0.46100002 37502.05750168  3378.56052045
0.46200002 37541.11948682  3389.40013351
0.46300002 37576.60967632  4184.53145188
0.46400002 37608.28229753  2885.49559604
0.46500002 37637.58662167  3157.04091546
0.46600002 37662.83978551  2902.11025722
0.46700002 37684.65607172  2910.00927978
0.46800002 37703.91981973  2652.47088504
0.46900002 37719.11902287  3722.87722401
0.47000002 37730.70716282  3998.51188110
0.47100002 37739.53053541  3206.35066626
0.47200002 37744.75658968  2945.78966766
0.47300002 37747.29516490  2952.21609477
0.47400002 37745.19464240  2689.34524574
0.47500002 37740.90505140  3772.58104775
0.47600002 37733.57980609  2699.83776309
0.47700002 37721.80162491  4056.97995705
