# SAXS profile: number of points = 501, q_min = 0, q_max = 0.5, delta_q = 0.001
#    q    intensity    error
0.00000000 1700912.83420644 357.19169518
0.00100000 1700842.83797291 663.32872256
0.00200000 1700632.80317521 841.81326423
0.00300000 1700282.88551015 1530.25465147
0.00400000 1699792.96610678 1657.29820493
0.00500000 1699163.51749881 1529.24722628
0.00600000 1698394.22360258 2139.97680886
0.00700000 1697485.80657503 2036.98305255
0.00800000 1696437.67213022 2519.21004947
0.00900000 1695251.27295630 2797.16471995
0.01000000 1693925.61378096 3074.47512177
0.01100000 1692462.05613902 3351.07501706
0.01200000 1690860.08582037 3626.89504310
0.01300000 1689120.99455064 3547.15424500
0.01400000 1687244.07994296 4555.55921780
0.01500000 1685231.25010096 5662.37725248
0.01600000 1683081.20413110 5579.41444111
0.01700000 1680796.11691232 4991.96469116
0.01800000 1678375.55808350 5261.70761136
0.01900000 1675820.26724901 7038.44544004
0.02000000 1673130.98793534 6324.43542049
0.02100000 1670309.25632735 6614.42495494
0.02200000 1667353.27195178 6902.84285949
0.02300000 1664266.03941232 6590.49381606
0.02400000 1661047.22785228 6851.82012732
0.02500000 1657698.52917878 7111.52701496
0.02600000 1654219.90637311 8709.46820541
0.02700000 1650612.46442834 7625.82993493
0.02800000 1646876.10020132 7880.30250085
0.02900000 1643013.29613560 11090.34025812
0.03000000 1639024.47994436 9145.75701848
0.03100000 1634909.97639273 7847.56824778
0.03200000 1630670.83741584 9686.18522038
0.03300000 1626309.62128365 9123.59739600
0.03400000 1621824.64437146 10217.49573098
0.03500000 1617219.01398421 13972.77292606
0.03600000 1612492.61115437 8949.33440549
0.03700000 1607647.39467771 10079.94963080
0.03800000 1602684.30303930 12188.41468869
0.03900000 1597605.10392347 10544.19417420
0.04000000 1592408.44242337 12731.30608713
0.04100000 1587098.41643615 11998.46458458
0.04200000 1581675.25853657 12242.16706902
0.04300000 1576139.08689763 11442.77030203
0.04400000 1570493.69749254 13781.08283552
0.04500000 1564738.70209759 12956.03705537
0.04600000 1558874.29985478 12089.07075736
0.04700000 1552903.86223395 13417.08999370
0.04800000 1546827.64443739 19327.61231652
0.04900000 1540648.41829776 13865.83641010
0.05000000 1534365.60187401 19954.42558157
0.05100000 1527982.52127461 20261.04917594
0.05200000 1521497.60418755 18143.85977546
0.05300000 1514916.19197748 15952.06824517
0.05400000 1508236.75843308 16175.83998854
0.05500000 1501463.13141402 15134.74907068
0.05600000 1494594.00058261 15334.53516155
0.05700000 1487634.29206864 14236.66083964
0.05800000 1480582.67953901 14413.47305831
0.05900000 1473441.14662805 17239.26222072
0.06000000 1466212.55390268 16099.01459398
0.06100000 1458898.45503564 17638.08314563
0.06200000 1451499.23326170 15088.33523504
0.06300000 1444018.19964995 20793.86304718
0.06400000 1436453.48270513 18207.04874477
0.06500000 1428810.99526219 19803.32132069
0.06600000 1421089.32168733 15710.14318631
0.06700000 1413291.08258272 17298.68366037
0.06800000 1405419.23805534 17455.30775371
0.06900000 1397474.84114325 17608.18382280
0.07000000 1389456.88808551 17757.25986128
0.07100000 1381370.84392708 16410.68639449
0.07200000 1373215.15141832 21051.38925743
0.07300000 1364995.32307621 25757.46295333
0.07400000 1356709.93809184 15262.98751882
0.07500000 1348361.99797744 19982.72574667
0.07600000 1339951.33381839 23214.65794672
0.07700000 1331483.54042006 24925.37304538
0.07800000 1322956.85539456 18812.44736594
0.07900000 1314373.23641957 20504.22344987
0.08000000 1305737.44386454 20624.12389334
0.08100000 1297048.65985814 15953.69926477
0.08200000 1288308.12945034 20851.26805360
0.08300000 1279519.23208566 19346.33169710
0.08400000 1270682.16369303 19441.43801706
0.08500000 1261801.28776237 17904.96111390
0.08600000 1252875.78859881 24525.04471331
0.08700000 1243908.85871139 21345.47701782
0.08800000 1234899.72051763 18134.50324747
0.08900000 1225854.10784835 26478.44997321
0.09000000 1216770.81087087 19930.70681832
0.09100000 1207652.74043649 18332.16946109
0.09200000 1198500.83983692 20062.90500156
0.09300000 1189318.75984242 23477.15342253
0.09400000 1180104.35612633 18498.13665165
0.09500000 1170862.12829881 23604.58161598
0.09600000 1161593.30858490 27041.89349504
0.09700000 1152301.26072444 20326.59519479
0.09800000 1142986.19215686 22065.34947705
0.09900000 1133650.15042603 18705.22836160
0.10000000 1124293.06687648 17033.04076419
0.10100000 1114917.69229180 17058.24149434
0.10200000 1105526.43342529 18788.42261980
0.10300000 1096120.23281236 23939.26701074
0.10400000 1086701.52083989 22250.21468596
0.10500000 1077272.92370206 18841.50432203
0.10600001 1067831.33642008 17138.69375598
0.10700001 1058384.10934253 18860.40571601
0.10800001 1048928.48292994 32584.96485572
0.10900001 1039469.04967714 25726.86019036
0.11000001 1030005.71310896 17149.59593049
0.11100001 1020540.81297392 18859.59511154
0.11200001 1011076.13629890 20565.28958047
0.11300001 1001611.15358591 22265.81699251
0.11400001 992150.51758076 20537.51668092
0.11500001 982694.22594026 27358.20853842
0.11600001 973243.20923276 22204.54486429
0.11700001 963801.00265922 22177.06211562
0.11800001 954365.11945299 22146.04363995
0.11900001 944940.81409801 25513.40318237
0.12000001 935527.51486322 18677.80771406
0.12100001 926128.85482989 22032.60649432
0.12200001 916743.25210420 18605.30517797
0.12300001 907374.29571530 18564.87896501
0.12400001 898022.05884006 18521.70583627
0.12500001 888688.28324537 18475.83027926
0.12600001 879376.20722423 16752.11753704
0.12700001 870084.97724160 20046.75882038
0.12800001 860815.16089788 18322.45156323
0.12900001 851570.00053367 18266.17737237
0.13000001 842350.31240156 23173.05818643
0.13100001 833155.59908024 18146.12980333
0.13200001 823989.83806077 21370.17745750
0.13300001 814853.83146662 18016.41906307
0.13400001 805746.39344689 17948.00176020
0.13500001 796671.33424832 19502.51518191
0.13600001 787627.48856907 21041.46934924
0.13700001 778618.37028201 17729.14112731
0.13800001 769642.16295960 20861.15181074
0.13900001 760704.20434371 17572.26794902
0.14000001 751801.70793290 22260.84962173
0.14100001 742937.70002148 22154.40325951
0.14200001 734111.10219264 17321.35227320
0.14300001 725327.85762469 21933.91544914
0.14400001 716580.88754012 15585.63503917
0.14500001 707879.72874895 17052.82346998
0.14600001 699219.12989318 26210.23032050
0.14700001 690604.91690709 15331.42987862
0.14800001 682033.33635813 21340.82410148
0.14900001 673506.91334603 18184.68751831
0.15000001 665028.26428472 16569.17998644
0.15100001 656596.26778531 25449.67254020
0.15200001 648213.64467541 14876.50384728
0.15300001 639879.83383205 17737.46983084
0.15400001 631593.82144560 17621.46844991
0.15500001 623360.30748016 24797.27420182
0.15600001 615176.32482588 15936.14344672
0.15700001 607047.58550541 17264.43414660
0.15800001 598966.95271968 15713.89874628
0.15900001 590942.88741169 15600.89296404
0.16000001 582970.18407880 14078.73061005
0.16100001 575055.89025760 16768.63055146
0.16200001 567194.19452430 13867.89871077
0.16300001 559389.81982365 16513.18826075
0.16400001 551641.07269794 15018.42891322
0.16500001 543950.30673840 16253.23593268
0.16600001 536316.00315035 14778.18816453
0.16700001 528740.02623066 18653.94900616
0.16800001 521221.25449269 17176.84725284
0.16900001 513763.93595523 18341.37337965
0.17000001 506365.00013109 15585.91544000
0.17100001 499025.94507636 18024.81798731
0.17200001 491747.37901526 15313.01410566
0.17300001 484529.61888894 13910.84601523
0.17400001 477373.76508745 16290.38050294
0.17500001 470278.80192031 17381.50533986
0.17600001 463243.79130679 14758.94788809
0.17700001 456273.32679716 14618.99808105
0.17800001 449364.40643323 15685.06534739
0.17900001 442517.85278073 15532.37736625
0.18000001 435735.08153850 13013.22882483
0.18100001 429016.52168979 12883.36675491
0.18200001 422358.39516124 18549.98159174
0.18300001 415766.75022685 14917.71170284
0.18400001 409237.24708063 17034.50121445
0.18500001 402773.07979696 12361.10640293
0.18600001 396372.33101574 18901.01549743
0.18700001 390035.75273657 14298.71137086
0.18800001 383762.90514150 10879.67887478
0.18900001 377556.86374580 12912.44535019
0.19000001 371411.46971563 12769.12693215
0.19100001 365335.36124887 13678.15657145
0.19200001 359320.93349513 15603.51227431
0.19300001 353373.24764173 12339.79439074
0.19400001 347489.33339754 12196.87617860
0.19500001 341670.53109808 16072.18254235
0.19600001 335915.78306189 9926.31185856
0.19700001 330226.21143186 14711.57841452
0.19800001 324601.73638358 14534.04343344
0.19900001 319042.66714721 14356.92070013
0.20000001 313545.90637224 11344.09142868
0.20100001 308115.97741793 10269.50601270
0.20200001 302748.97018364 11062.44789336
0.20300001 297447.26326858 12742.64136070
0.20400001 292209.63075254 8985.44657034
0.20500001 287035.26718368 11530.20722777
0.20600001 281925.50782568 13130.68114764
0.20700001 276879.33365026 11230.22630370
0.20800001 271896.28663873 8523.94898905
0.20900001 266979.15428775 8409.84375761
0.21000001 262122.73971231 9125.80361448
0.21100001 257329.86178211 10638.01698897
0.21200001 252599.44756482 10491.71855060
0.21300001 247931.60890207 9550.32602640
0.21400001 243327.02975682 10201.48620485
0.21500001 238785.04865369 11604.95391322
0.21600001 234303.04486590 9151.87736515
0.21700001 229883.55165892 8268.91174412
0.21800001 225525.49919232 7408.51299875
0.21900001 221227.26750370 8030.55019008
0.22000001 216989.40876839 7912.51916486
0.22100001 212814.52422709 7795.39639103
0.22200001 208698.12706100 7679.04794831
0.22300001 204641.66416149 7563.55626505
0.22400001 200642.64808575 9480.36557034
0.22500001 196705.81517133 8668.82568453
0.22600001 192825.76857765 7878.86127666
0.22700001 189005.28463549 7756.77724825
0.22800001 185241.89876786 6363.05952359
0.22900001 181535.53812145 6889.27399751
0.23000001 177887.00938162 8012.92071654
0.23100001 174296.71426554 7885.18372628
0.23200001 170760.61699033 7758.50899988
0.23300001 167282.03919182 7045.91982399
0.23400001 163858.74658943 6353.62319950
0.23500001 160489.42909623 7953.85648220
0.23600001 157176.14875347 6146.37358771
0.23700001 153916.70396250 8242.23988703
0.23800001 150711.44287106 7564.20767548
0.23900001 147559.63725959 7968.22078891
0.24000001 144460.63998977 6266.70285917
0.24100001 141415.46953451 7700.07268038
0.24200001 138421.71419428 7568.20758156
0.24300001 135479.90360043 5950.27764760
0.24400001 132588.87655726 6821.69802156
0.24500001 129749.06933064 4787.74088478
0.24600001 126959.60262151 4703.85349964
0.24700001 124220.76195920 5083.11381983
0.24800001 121530.47601074 5446.99619248
0.24900001 118889.11414578 5350.01038966
0.25000001 116296.57878461 4816.42303822
0.25100001 113751.65417807 6019.73782389
0.25200001 111255.35027294 5488.78296539
0.25300001 108806.21877424 4974.62055771
0.25400001 106402.94835764 4883.89556068
0.25500001 104045.87735605 3995.36187950
0.25600001 101734.96831481 4706.25985691
0.25700001 99468.95939128  4234.39380163
0.25800001 97247.57717421  4155.87540717
0.25900001 95070.73500800  5190.86237704
0.26000001 92937.95512718  5093.92956154
0.26100001 90846.47352446  4641.34655198
0.26200001 88800.38370070  4904.44542385
0.26300001 86795.12591219  4468.21329338
0.26400001 84831.20956220  5058.06110948
0.26500001 82909.66921383  3308.09595817
0.26600001 81028.18649620  3569.69692501
0.26700001 79187.93816479  3820.02631783
0.26800001 77387.44869495  3122.58370260
0.26900001 75625.57947940  3062.83611385
0.27000001 73903.04066314  3004.15874512
0.27100001 72219.21121875  3535.85274860
0.27200001 70573.41368230  2889.98142705
0.27300001 68964.47515159  3684.77208173
0.27400001 67391.36296452  3057.88323923
0.27500001 65857.19792926  2726.48812330
0.27600001 64356.80117791  2674.02521549
0.27700001 62893.62395125  3147.19709147
0.27800001 61464.31602833  2829.50992228
0.27900001 60070.17450253  2775.24219336
0.28000001 58709.93722252  2474.62397105
0.28100001 57382.96367556  2427.29947836
0.28200001 56089.77184706  2381.01092760
0.28300001 54829.06599243  3270.00565056
0.28400001 53600.77541804  2520.57658333
0.28500001 52404.42903355  2922.59514553
0.28600001 51238.53378556  3529.31037420
0.28700001 50103.94592041  2813.83773608
0.28800001 48999.22743988  2761.35159308
0.28900001 47926.11856630  2293.26488195
0.29000001 46880.72512796  2660.24687331
0.29100001 45865.58689315  2812.47792142
0.29200001 44878.63380317  2761.38246862
0.29300001 43919.68946177  2324.23007634
0.29400001 42988.27248377  2282.67737694
0.29500001 42085.08904973  2055.43584649
0.29600001 41207.95809426  2202.97754400
0.29700001 40356.88076571  2164.74318675
0.29800001 39532.19836078  2127.62301650
0.29900001 38733.21071493  1742.99456468
0.30000001 37959.01543996  1885.23459107
0.30100001 37210.63884788  1854.20622157
0.30200001 36485.18338532  2321.55232871
0.30300001 35784.09888325  2447.63247949
0.30400001 35107.21918209  2088.00195970
0.30500001 34452.09936048  2055.75686616
0.30600001 33820.13837855  1868.90093528
0.30700001 33210.78348957  1841.20592383
0.30800001 32623.11698729  2116.91416153
0.30900001 32056.85736566  2235.96590711
0.31000001 31512.26341365  1617.05187363
0.31100001 30987.04621005  1885.25198068
0.31200001 30483.07257177  1717.41639001
0.31300001 29998.58458771  1695.52008117
0.31400001 29535.15896337  2093.30449064
0.31500001 29089.46654765  1654.60893557
0.31600002 28663.12426520  1908.10427268
0.31700002 28254.52974919  1482.51524613
0.31800002 27864.60832459  1466.65372861
0.31900002 27492.73605528  1319.65139314
0.32000002 27137.87546744  1437.35764219
0.32100002 26800.40394977  1941.68935810
0.32200002 26479.64870801  2052.70246504
0.32300002 26174.53577286  1908.12374819
0.32400002 25885.89046405  1388.13094186
0.32500002 25612.32539432  1753.41987952
0.32600002 25354.78653512  1616.74803997
0.32700002 25111.86533729  1606.15498303
0.32800002 24884.53658084  1596.46751994
0.32900002 24670.16785623  1343.29070338
0.33000002 24471.63147138  1336.51821610
0.33100002 24284.21429574  1693.09550087
0.33200002 24112.87803068  1445.32597760
0.33300002 23953.24363291  1440.06907541
0.33400002 23807.06999746  1315.93585643
0.33500002 23672.88270954  1551.04734858
0.33600002 23551.11705931  1190.50902373
0.33700002 23440.24876521  1663.78893615
0.33800002 23342.48626019  1305.66203080
0.33900002 23255.00882515  1660.40770875
0.34000002 23178.89788518  1185.60068297
0.34100002 23113.58655623  1422.87245579
0.34200002 23059.76371785  1305.06738942
0.34300002 23014.44205937  1306.29979316
0.34400002 22980.21835605  1783.83953437
0.34500002 22955.19151507  1548.78684487
0.34600002 22940.72743211  1313.47141133
0.34700002 22933.29588120  1556.25353220
0.34800002 22936.36565840  1560.93443881
0.34900002 22947.65340452  1566.17741904
0.35000002 22967.59024304  1572.01678864
0.35100002 22995.47536571  1578.40950386
0.35200002 23030.63507837  1341.41940367
0.35300002 23073.93436313  1347.74856998
0.35400002 23125.04029731  1723.97183582
0.35500002 23182.92497497  1733.15555322
0.35600002 23247.60522299  1369.40025052
0.35700002 23319.02032576  1377.45459589
0.35800002 23397.60067318  1385.95694152
0.35900002 23481.96592322  1648.43408589
0.36000002 23573.03933424  1659.42418253
0.36100002 23669.26994869  1799.33798673
0.36200002 23772.27420888  1423.84043118
0.36300002 23878.96823031  1955.68759070
0.36400002 23991.83361521  1970.32942898
0.36500002 24109.09172276  1323.58919827
0.36600002 24231.94720590  1734.15938393
0.36700002 24359.02333188  1613.54178193
0.36800002 24491.80413551  1762.30785005
0.36900002 24627.80563235  1640.21193281
0.37000002 24767.16678359  1378.29289680
0.37100002 24910.76757197  1390.02089636
0.37200002 25058.85504475  1822.65590802
0.37300002 25209.55903154  1838.53322726
0.37400002 25364.80376469  1712.12433522
0.37500002 25521.87756969  2159.15094468
0.37600002 25683.30835306  1597.63027178
0.37700002 25846.12043365  1905.11762741
0.37800002 26012.82952825  2070.36120023
0.37900002 26181.73636107  1641.59494761
0.38000002 26353.09382915  1506.07938368
0.38100002 26526.09719096  1671.93998515
0.38200002 26701.57187806  2454.40860331
0.38300002 26878.68937453  1857.85509758
0.38400002 27058.25246148  2031.39839978
0.38500002 27238.34150673  2207.94006714
0.38600002 27421.02322027  1910.14856802
0.38700002 27603.89366075  2088.51069332
0.38800002 27788.14682523  1783.58228848
0.38900002 27973.63806614  2291.04106616
0.39000002 28160.64317197  1981.94616034
0.39100002 28347.50949642  1833.51700109
0.39200002 28535.75907150  1682.18307696
0.39300002 28723.96997259  2376.62138813
0.39400002 28913.56836539  1713.12900681
0.39500002 29102.40076817  1901.55095628
0.39600002 29291.63341769  2093.18022320
0.39700002 29480.51340594  2463.98142721
0.39800002 29670.68773342  2130.94889397
0.39900002 29859.39831446  2149.87678050
0.40000002 30047.79215153  2168.84974026
0.40100002 30236.07113113  2552.52924583
0.40200002 30424.71888049  1839.17434346
0.40300002 30611.79124452  3153.62688343
0.40400002 30798.19796481  2432.28779951
0.40500002 30983.99363209  2453.00289208
0.40600002 31169.03316108  2093.15652111
0.40700002 31353.06136290  2686.33042485
0.40800002 31535.97888488  2128.20563588
0.40900002 31717.34790534  2340.74038632
0.41000002 31898.18492545  2556.48015198
0.41100002 32077.38089618  2180.62045665
0.41200002 32254.43196484  1998.16215490
0.41300002 32430.59356459  3020.90993368
0.41400002 32605.04146851  2029.66392759
0.41500002 32778.33510704  2045.36820760
0.41600002 32948.64284204  2267.03147817
0.41700002 33118.06168870  2491.80307953
0.41800002 33286.32982514  2510.45511437
0.41900002 33450.76623478  2528.87804718
0.42000002 33614.14548673  2122.73338807
0.42100002 33775.75533251  2779.40703801
0.42200002 33935.13857416  2799.14003793
0.42300002 34091.92554328  3469.19450767
0.42400002 34246.34811732  2619.84575512
0.42500002 34398.99486026  2417.90546330
0.42600002 34547.79067512  2655.34331712
0.42700002 34695.63095776  2895.69749695
0.42800002 34840.47076466  3138.77815992
0.42900002 34983.23151082  2707.70224725
0.43000002 35123.41498229  3860.23910655
0.43100002 35259.69001667  2513.31082349
0.43200002 35394.12599237  2528.73345136
0.43300002 35525.41311764  2775.24540426
0.43400002 35654.52221660  3024.39499034
0.43500002 35780.14958963  2574.02408346
0.43600002 35904.04584859  3059.56341198
0.43700002 36024.11422640  3786.85506693
0.43800002 36140.38477382  3093.79778518
0.43900002 36254.96457667  3349.95888564
0.44000002 36365.78385318  2405.59671589
0.44100002 36474.24309640  2660.06667508
0.44200002 36579.35419598  4618.32658288
0.44300002 36681.62384924  2931.59551696
0.44400002 36780.08050319  3437.09868591
0.44500002 36874.92836068  3453.70595394
0.44600002 36967.40493164  2974.39754176
0.44700002 37056.80529559  3486.30440743
0.44800002 37141.87692097  3502.10774085
0.44900002 37225.15890847  2763.96817994
0.45000002 37304.83114876  3028.40633618
0.45100002 37380.08888194  3548.11820483
0.45200002 37452.94969055  3817.39207813
0.45300002 37521.86097938  3066.28662455
0.45400002 37588.06851273  3848.07869636
0.45500002 37650.82064287  3605.44275563
0.45600002 37710.02850035  3619.03160670
0.45700002 37765.77754012  3372.86175196
0.45800002 37817.53469487  2864.11112586
0.45900002 37866.34507347  2874.05572729
0.46000002 37912.40679556  2883.80735958
0.46100002 37953.68787033  2630.19069407
0.46200002 37992.61869739  3430.16374167
0.46300002 38027.79493799  3705.42851438
0.46400002 38058.95734775  3450.99612107
0.46500002 38087.69980140  2662.33034230
0.46600002 38112.12165881  2936.72967361
0.46700002 38133.14778770  4015.42065236
0.46800002 38151.49205389  3757.54063048
0.46900002 38165.71714795  3228.81982375
0.47000002 38176.01051792  3506.27585220
0.47100002 38183.58702510  2973.73789846
0.47200002 38187.40133470  3522.21512905
0.47300002 38188.67317709  3258.25774990
0.47400002 38184.75401515  2720.66385253
0.47500002 38178.83050889  3271.16235305
0.47600002 38169.70157713  2731.04227729
0.47700002 38155.92339994  4377.24773991
