# SAXS profile: number of points = 501, q_min = 0, q_max = 0.5, delta_q = 0.001
#    q    intensity    error
0.00000000 1682732.95097188 454.33789676
0.00100000 1682663.53470819 757.19860860
0.00200000 1682455.23134728 908.52585370
0.00300000 1682108.21370429 1312.04445343
0.00400000 1681622.35070937 1513.46017315
0.00500000 1680998.09541427 2269.34751863
0.00600000 1680235.16726133 2117.09639694
0.00700000 1679334.27377503 2216.72133351
0.00800000 1678294.80274388 2265.69807936
0.00900000 1677118.20453930 3270.38063865
0.01000000 1675803.52170625 3871.10630229
0.01100000 1674352.08991544 3616.60067168
0.01200000 1672763.37493515 3914.26646896
0.01300000 1671038.68786959 4211.01767916
0.01400000 1669177.34916417 6009.03872338
0.01500000 1667181.18591222 5601.72903410
0.01600000 1665048.96749055 4245.87505691
0.01700000 1662782.82388004 4938.46520846
0.01800000 1660382.40502946 5678.50808072
0.01900000 1657848.34837700 6465.60885042
0.02000000 1655181.40960150 7299.35034653
0.02100000 1652383.14090321 8179.29691831
0.02200000 1649451.71151468 5690.60866326
0.02300000 1646390.20261902 5927.00499922
0.02400000 1643198.24852616 8010.59182683
0.02500000 1639877.40020517 7035.07436818
0.02600000 1636427.84524135 8615.79299927
0.02700000 1632850.46253545 8229.56670810
0.02800000 1629145.30189887 9921.49534356
0.02900000 1625314.83995139 9508.09225027
0.03000000 1621359.38378383 9047.18577737
0.03100000 1617279.33440489 8539.23527857
0.03200000 1613075.67665387 11178.61495408
0.03300000 1608751.08037913 9025.09397699
0.03400000 1604303.73160199 10107.11397544
0.03500000 1599736.83749911 13821.72691425
0.03600000 1595050.17122323 11508.28751722
0.03700000 1590245.73297365 10877.28131659
0.03800000 1585324.51192841 9274.14882398
0.03900000 1580288.18584995 12326.24842046
0.04000000 1575135.40667567 10655.79151994
0.04100000 1569870.25185157 11868.21965429
0.04200000 1564493.02152119 13118.27459405
0.04300000 1559003.79221397 15434.13825934
0.04400000 1553406.37556996 13631.14157868
0.04500000 1547700.21514609 11747.04517878
0.04600000 1541885.70078589 13044.35363504
0.04700000 1535966.13436542 13270.74801811
0.04800000 1529941.73688677 15743.10120506
0.04900000 1523815.33363047 14857.20019446
0.05000000 1517586.07747727 12770.48743664
0.05100000 1511257.74049261 14145.37310996
0.05200000 1504828.44767761 14356.06405986
0.05300000 1498303.59466018 16990.76355552
0.05400000 1491681.55708164 14767.64810378
0.05500000 1484966.33311907 16215.83311412
0.05600000 1478156.39978100 16429.70915024
0.05700000 1471256.86120787 16639.91587699
0.05800000 1464266.23712201 15550.50816433
0.05900000 1457186.64881263 14426.14849703
0.06000000 1450020.75202823 23881.84290164
0.06100000 1442770.24122072 17443.09303150
0.06200000 1435435.45668288 14921.35226970
0.06300000 1428019.68460991 19192.58545851
0.06400000 1420521.00249813 15235.08846429
0.06500000 1412945.54134473 15386.97766501
0.06600000 1405291.50098857 16947.81629489
0.06700000 1397561.77598748 17106.15693864
0.06800000 1389759.22787746 17260.81041820
0.06900000 1381884.86491625 14509.79176095
0.07000000 1373937.66191755 19022.16782003
0.07100000 1365923.26628755 19177.56355691
0.07200000 1357839.99525854 19328.85323800
0.07300000 1349693.08598097 16479.75335200
0.07400000 1341481.52592290 16600.83466128
0.07500000 1333207.95057516 19758.14275364
0.07600000 1324872.50877671 16832.50601313
0.07700000 1316480.49188141 15402.82247723
0.07800000 1308030.41774351 17050.17729488
0.07900000 1299524.04352162 20272.57602980
0.08000000 1290965.99651966 25096.38014964
0.08100000 1282355.58882709 22082.16427566
0.08200000 1273694.28651976 22200.49245580
0.08300000 1264984.90108013 25502.09680264
0.08400000 1256228.31162223 32033.82344999
0.08500000 1247428.33755494 17701.00894088
0.08600000 1238584.30941897 19396.23119618
0.08700000 1229699.63141570 25971.25743505
0.08800000 1220772.97940690 19556.78404856
0.08900000 1211810.62656252 24539.16634049
0.09000000 1202811.08923067 19702.04656711
0.09100000 1193777.26780807 19768.95248367
0.09200000 1184710.00983037 28095.39920324
0.09300000 1175613.12117919 28179.44783888
0.09400000 1166484.52800546 23271.36742740
0.09500000 1157328.52668463 18332.08472434
0.09600000 1148146.47542881 21717.19160361
0.09700000 1138941.48350841 23439.41683256
0.09800000 1129713.95473260 23486.75422318
0.09900000 1120465.94796326 16806.99000976
0.10000000 1111197.21425606 18518.10244643
0.10100000 1101910.72307319 21917.00531272
0.10200000 1092608.60454052 28697.36634808
0.10300000 1083291.88087699 18589.28955030
0.10400000 1073963.05345220 16914.91888764
0.10500000 1064624.86971529 22005.79709237
0.10600001 1055273.78630084 18630.85957379
0.10700001 1045917.57691210 18638.25209765
0.10800001 1036553.20687779 16947.64573004
0.10900001 1027185.34440880 22033.12667457
0.11000001 1017813.78482536 22030.58040951
0.11100001 1008440.95300260 32189.43673511
0.11200001 999068.81843414 18627.63899664
0.11300001 989696.53146577 22000.95493031
0.11400001 980328.73098314 20292.80568683
0.11500001 970965.54706576 18584.28144594
0.11600001 961607.79764370 20251.46117205
0.11700001 952258.99403359 20225.98198581
0.11800001 942916.82054854 25246.59905926
0.11900001 933586.38067462 20165.46677240
0.12000001 924267.10998782 20130.53860378
0.12100001 914962.51582511 16743.81482837
0.12200001 905671.42025641 16709.63849094
0.12300001 896396.87265863 16672.98261699
0.12400001 887139.16836614 16633.86019061
0.12500001 877900.05338906 23229.23650725
0.12600001 868682.66748582 21512.92727405
0.12700001 859486.29021296 19802.56505973
0.12800001 850311.44312517 19744.23263990
0.12900001 841161.24573767 22963.70309097
0.13000001 832036.37750876 16349.51558868
0.13100001 822936.84821638 16294.15036275
0.13200001 813866.09775503 22731.28118186
0.13300001 804825.16593673 16176.98659796
0.13400001 795812.78399644 17726.73059926
0.13500001 786832.63889463 16051.38659024
0.13600001 777883.79407325 22379.71781071
0.13700001 768969.50945438 15917.66959628
0.13800001 760088.16749871 20602.19075156
0.13900001 751245.10866672 23664.22203896
0.14000001 742437.36434295 20413.31629531
0.14100001 733667.91621529 17189.84008765
0.14200001 724935.93393216 17104.86416789
0.14300001 716246.93407126 20112.21485737
0.14400001 707594.30442043 15390.17684710
0.14500001 698987.33709442 15307.82340447
0.14600001 690420.75523848 15223.77837118
0.14700001 681900.48603061 15138.19150405
0.14800001 673422.51287095 15050.99387275
0.14900001 664989.68876690 16458.49557351
0.15000001 656604.11697576 22308.12592681
0.15100001 648265.37732876 17736.54156061
0.15200001 639975.66324582 20562.41903037
0.15300001 631734.51249360 16052.37471996
0.15400001 623541.00334107 18846.52771537
0.15500001 615399.71864025 14400.35409578
0.15600001 607307.52203313 18592.72066453
0.15700001 599270.49058992 18463.52468650
0.15800001 591281.35751127 16922.47325069
0.15900001 583348.43205962 15400.39933328
0.16000001 575466.56841580 16677.02193989
0.16100001 567642.73617215 23449.32253818
0.16200001 559871.19186486 15057.73641602
0.16300001 552156.73541041 19016.27886525
0.16400001 544497.65576128 16171.58113956
0.16500001 536896.01380565 17379.32478739
0.16600001 529350.73116626 15912.28373012
0.16700001 521863.04710914 18411.32917130
0.16800001 514432.55074961 16953.12551042
0.16900001 507062.90549477 14223.11517072
0.17000001 499751.39043813 16664.21090104
0.17100001 492499.28275437 17789.07493311
0.17200001 485307.34589163 18890.58933090
0.17300001 478175.70449016 16224.50241954
0.17400001 471105.58610913 17313.13110714
0.17500001 464095.90498778 12252.13247032
0.17600001 457145.69987050 16992.10646671
0.17700001 450259.73421025 13224.12901834
0.17800001 443434.64182039 14287.46483428
0.17900001 436671.63913696 14148.16177631
0.18000001 429971.94520326 15175.86052278
0.18100001 423335.93342555 11557.07152843
0.18200001 416759.91174902 12584.06612971
0.18300001 410249.75071609 14719.76175104
0.18400001 403801.43107196 13446.58828992
0.18500001 397417.68595342 11087.95396192
0.18600001 391097.09157722 10970.27393701
0.18700001 384840.01983501 14108.23579369
0.18800001 378646.37520215 11808.08776857
0.18900001 372518.85262571 10616.78780145
0.19000001 366451.21033598 12598.59320662
0.19100001 360452.68831491 12457.24549677
0.19200001 354514.79082157 11289.52404716
0.19300001 348643.50777124 13189.18452221
0.19400001 342835.36682743 10027.93495356
0.19500001 337091.69204615 11892.59545737
0.19600001 331411.40180769 10772.52812483
0.19700001 325796.05721477 9676.14335655
0.19800001 320244.90219407 11471.17293871
0.19900001 314758.63180690 11331.31128057
0.20000001 309334.25583851 10259.07107974
0.20100001 303975.78041400 15657.79318915
0.20200001 298679.89087894 9094.80310712
0.20300001 293448.53592398 11673.38331079
0.20400001 288280.69221423 10637.55804550
0.20500001 283175.49177946 9625.13542053
0.20600001 278134.39677964 10363.28811386
0.20700001 273156.09764728 11931.45890922
0.20800001 268240.49133114 13454.94368119
0.20900001 263389.97398878 9126.46303013
0.21000001 258599.64346087 9003.14701269
0.21100001 253872.00881664 8880.44328821
0.21200001 249206.40069619 7962.14487865
0.21300001 244602.68977097 11777.62006926
0.21400001 240061.53988937 7741.98502745
0.21500001 235582.36505490 9159.44278637
0.21600001 231162.65905252 9029.21388948
0.21700001 226804.63689893 9641.46557042
0.21800001 222507.37023262 8771.24094928
0.21900001 218269.38721195 10804.33517784
0.22000001 214091.02777288 7097.11790624
0.22100001 209974.85534379 8390.59561627
0.22200001 205916.77836482 10331.87484299
0.22300001 201917.65165776 11533.53680806
0.22400001 197975.50302138 8018.00825151
0.22500001 194094.97901266 8553.76612957
0.22600001 190270.33234061 8422.31665933
0.22700001 186504.67290794 7016.30612659
0.22800001 182795.38854223 6906.92408270
0.22900001 179142.59310078 6180.41975425
0.23000001 175546.79561332 7299.23610680
0.23100001 172008.51874841 6584.48640909
0.23200001 168523.88535927 6478.90107905
0.23300001 165095.92052399 5794.86708446
0.23400001 161722.81460120 6840.87538117
0.23500001 158402.87975582 6728.95465028
0.23600001 155138.30355031 6066.68364727
0.23700001 151926.87319736 5966.16859265
0.23800001 148768.80701569 7466.70677728
0.23900001 145663.68784964 6292.67161274
0.24000001 142610.63491705 5670.91216571
0.24100001 139610.80273195 6588.23409255
0.24200001 136661.72215933 5479.45200917
0.24300001 133763.81022967 6364.48239179
0.24400001 130916.00421085 5292.27972057
0.24500001 128118.72520586 5200.33930210
0.24600001 125371.35842724 6038.51176430
0.24700001 122673.64306824 5932.49765942
0.24800001 120023.89745296 8517.49628568
0.24900001 117422.39181007 5724.34187155
0.25000001 114869.14568635 5189.78824763
0.25100001 112362.74068284 4672.04297862
0.25200001 109904.31904382 4170.86910504
0.25300001 107492.52533046 4914.55849062
0.25400001 105125.70754527 4825.27020462
0.25500001 102804.65255216 3947.69884478
0.25600001 100528.88903457 4262.92774120
0.25700001 98297.53494048  4184.52626040
0.25800001 96110.06308873  5227.42657873
0.25900001 93966.56377161  4764.10500863
0.26000001 91866.50324445  5394.86065829
0.26100001 89807.02408563  4235.29945628
0.26200001 87792.30213422  3809.74713138
0.26300001 85817.70942534  3738.21959945
0.26400001 83884.01762851  4668.14580191
0.26500001 81991.93546806  4252.92189397
0.26600001 80139.23685109  3851.49190531
0.26700001 78327.31350236  4093.38559733
0.26800001 76554.27077094  3397.86146896
0.26900001 74819.43527312  3636.22472635
0.27000001 73123.45267993  3566.96219052
0.27100001 71465.34255613  3207.36472570
0.27200001 69844.70064605  3718.18281485
0.27300001 68260.38757352  4208.25309306
0.27400001 66711.26815445  4402.94390656
0.27500001 65200.37983063  2969.22543801
0.27600001 63722.84291994  2912.45267349
0.27700001 62281.92778886  2597.15651171
0.27800001 60874.25666715  3311.86409072
0.27900001 59501.23487970  2499.05198322
0.28000001 58161.48881705  3677.26030450
0.28100001 56854.46199322  2885.93262736
0.28200001 55580.62973812  3775.03655048
0.28300001 54338.82502587  2546.31746123
0.28400001 53128.79571664  2952.63296170
0.28500001 51950.12436664  2451.52648490
0.28600001 50801.46544616  2624.40382917
0.28700001 49683.56713247  2146.33020171
0.28800001 48594.99481482  3159.88968740
0.28900001 47537.33147600  2274.66141879
0.29000001 46507.14056853  2436.04413829
0.29100001 45506.61712001  3787.06085599
0.29200001 44533.62639318  2152.97826989
0.29300001 43588.25842819  1922.24228767
0.29400001 42669.94924822  2643.40348106
0.29500001 41779.42384397  2968.01041037
0.29600001 40914.25236386  2369.54903782
0.29700001 40074.76793437  1791.34221147
0.29800001 39261.37386584  1936.95997136
0.29900001 38473.01317756  1904.41424244
0.30000001 37708.96546851  2553.83980725
0.30100001 36970.28035088  1842.22915710
0.30200001 36254.14064259  2142.07600127
0.30300001 35561.95080285  1621.62503338
0.30400001 34893.43876820  2234.92485891
0.30500001 34246.37119390  1571.90851222
0.30600001 33621.96565853  2322.43738781
0.30700001 33019.71778769  2288.26655102
0.30800001 32438.78812001  3007.07580109
0.30900001 31878.74558039  1927.07026157
0.31000001 31340.18697962  1462.01979182
0.31100001 30820.38812842  1875.11250251
0.31200001 30321.59140929  1708.31854088
0.31300001 29841.74034077  1405.54603660
0.31400001 29382.62270054  1527.16188717
0.31500001 28941.05462427  1920.52847580
0.31600002 28518.21680350  1356.04127321
0.31700002 28112.98765700  1475.08853221
0.31800002 27725.91470754  2255.36463867
0.31900002 27356.65024972  2232.30276607
0.32000002 27003.94215112  2080.38380183
0.32100002 26668.31648419  1674.50367133
0.32200002 26349.16831279  1276.61726520
0.32300002 26045.32969549  1265.80308314
0.32400002 25757.57390344  1381.24996598
0.32500002 25484.57861367  1620.05473918
0.32600002 25227.35019856  1484.88190300
0.32700002 24984.50025592  1720.93245912
0.32800002 24756.84909950  1710.45078528
0.32900002 24541.92082061  1214.82513815
0.33000002 24342.54707900  1450.32902365
0.33100002 24154.03898570  1563.73255798
0.33200002 23981.24610474  1437.43595959
0.33300002 23820.02381850  1432.05989978
0.33400002 23672.05570761  1427.42502677
0.33500002 23535.71419939  1186.20005182
0.33600002 23411.52478269  1183.45263381
0.33700002 23298.08769488  2008.06227352
0.33800002 23197.58267762  1179.59713502
0.33900002 23106.90591952  1885.52361233
0.34000002 23027.69499600  1295.65332031
0.34100002 22958.83089788  1295.56688892
0.34200002 22901.30598305  1296.09947349
0.34300002 22852.17529813  1415.00676147
0.34400002 22813.89735395  1298.68116838
0.34500002 22784.65108752  1300.77579219
0.34600002 22765.79818394  1303.45583675
0.34700002 22753.77686155  1425.29665011
0.34800002 22752.07593159  1548.39260086
0.34900002 22758.49655020  1314.30323802
0.35000002 22773.30756111  1199.01469988
0.35100002 22795.96837480  1685.07806207
0.35200002 22825.85943596  1450.35517725
0.35300002 22863.66407564  1335.46668191
0.35400002 22909.11749519  1829.86584660
0.35500002 22961.34954646  1593.97696101
0.35600002 23020.08206771  1479.27054374
0.35700002 23085.56648675  1239.69497906
0.35800002 23158.02410839  1496.47158876
0.35900002 23236.24181199  1756.65996419
0.36000002 23321.07955337  1515.40382116
0.36100002 23410.91634057  1652.57666276
0.36200002 23507.51482941  1407.98266740
0.36300002 23607.64563937  1933.46626945
0.36400002 23713.94945148  1428.17267336
0.36500002 23824.47577794  1438.76016038
0.36600002 23940.63334418  1317.93192802
0.36700002 24060.88299659  1593.79296519
0.36800002 24186.82974278  1606.48930761
0.36900002 24315.97235517  1484.49018260
0.37000002 24448.42432541  1632.66585379
0.37100002 24585.14742736  2057.77693715
0.37200002 24726.11669625  1383.42629469
0.37300002 24869.82644838  1674.23679581
0.37400002 25017.98676188  1407.26182202
0.37500002 25168.10432755  1703.37738158
0.37600002 25322.36623542  1861.57384198
0.37700002 25478.13929184  1877.99373617
0.37800002 25637.71565459  1603.25462441
0.37900002 25799.51830618  1764.68713574
0.38000002 25963.80515891  1928.98099566
0.38100002 26129.79119654  1796.68452779
0.38200002 26298.17694193  1510.83033689
0.38300002 26468.23170834  1524.57021863
0.38400002 26640.79947709  2153.90873976
0.38500002 26813.83673820  1707.77334276
0.38600002 26989.61743492  1723.42210295
0.38700002 27165.57874608  2055.34778530
0.38800002 27342.90956528  1595.45884872
0.38900002 27521.55509647  1932.01325930
0.39000002 27701.76527810  2274.59205475
0.39100002 27881.97048246  2295.24391886
0.39200002 28063.46603423  1654.34140109
0.39300002 28245.04750693  2336.99534144
0.39400002 28428.08380805  1684.36404543
0.39500002 28610.46052199  2549.19215328
0.39600002 28793.26441713  2229.03067046
0.39700002 28975.78790311  2421.79646768
0.39800002 29159.59515818  2617.80277935
0.39900002 29342.10203321  1760.52620540
0.40000002 29524.54013261  1953.49129043
0.40100002 29706.65813078  2149.57388419
0.40200002 29889.38617696  1806.81348000
0.40300002 30070.61104924  2368.96285070
0.40400002 30251.20716006  2389.08919866
0.40500002 30431.37194084  2594.57889461
0.40600002 30610.81586670  2055.66943693
0.40700002 30789.39903649  3014.89809650
0.40800002 30967.01504521  2279.79175565
0.40900002 31143.12208046  2489.89272831
0.41000002 31318.78396456  2123.88343519
0.41100002 31492.94058845  5060.28593352
0.41200002 31665.15925047  2550.15372107
0.41300002 31836.48448750  2767.86409249
0.41400002 32006.33209037  2789.35197384
0.41500002 32175.03385243  3814.67219430
0.41600002 32340.95541376  2629.80491408
0.41700002 32506.05419427  2038.12969455
0.41800002 32670.17074159  2258.65236124
0.41900002 32830.58244494  2481.99215045
0.42000002 32989.98291160  3333.30803134
0.42100002 33147.85875254  2098.25955846
0.42200002 33303.58183444  2747.04607778
0.42300002 33456.91318435  2127.85977935
0.42400002 33607.92898991  2785.25724702
0.42500002 33757.39576278  2157.09769146
0.42600002 33903.15161009  2605.79635623
0.42700002 34048.04586823  3278.82697248
0.42800002 34190.05013534  3520.20772875
0.42900002 34330.16749504  2214.29590836
0.43000002 34467.85720096  2674.01648836
0.43100002 34601.72401429  2242.19182238
0.43200002 34733.99901435  2481.57067718
0.43300002 34863.21962746  3177.43398742
0.43400002 34990.38030447  2511.43466537
0.43500002 35114.33385334  2755.77305140
0.43600002 35236.60045368  3464.63890379
0.43700002 35355.19317177  3484.25445219
0.43800002 35470.16402406  3269.99457634
0.43900002 35583.62467269  3287.92707557
0.44000002 35693.42402695  3541.68016691
0.44100002 35801.03534836  2848.33050730
0.44200002 35905.48198640  3578.87908660
0.44300002 36007.22579080  3597.12202697
0.44400002 36105.37275563  2892.04049478
0.44500002 36199.95448244  2663.95477661
0.44600002 36292.34508824  2676.74203884
0.44700002 36381.79908968  2933.82841763
0.44800002 36467.19577007  2947.27890181
0.44900002 36550.85538180  2467.18285520
0.45000002 36631.03149147  2725.89833762
0.45100002 36706.99498867  2488.73437818
0.45200002 36780.68897091  2999.09752082
0.45300002 36850.64702584  3011.43501767
0.45400002 36918.01117608  3275.55069684
0.45500002 36982.09739302  3035.49069788
0.45600002 37042.67791815  2793.20326080
0.45700002 37100.08129724  2548.77570592
0.45800002 37153.65813278  2558.02948368
0.45900002 37204.34889272  2823.81021479
0.46000002 37252.50415284  3348.81401953
0.46100002 37296.07966163  4135.38950888
0.46200002 37337.36839312  2852.38839358
0.46300002 37374.96110421  3381.68664098
0.46400002 37408.81702137  2870.19162200
0.46500002 37440.34495080  2878.78825971
0.46600002 37467.74197638  3674.46162978
0.46700002 37491.87005702  3947.89410412
0.46800002 37513.44444353  2902.97803585
0.46900002 37530.97055507  3968.90032431
0.47000002 37544.88546251  3183.05554038
0.47100002 37556.10162393  3190.76654520
0.47200002 37563.70033181  2931.65913135
0.47300002 37568.79105585  3472.48352188
0.47400002 37569.02908122  2944.47279380
0.47500002 37567.26989769  3755.22447696
0.47600002 37562.40487288  2956.34921564
0.47700002 37553.14798210  3769.58517311
