# SAXS profile: number of points = 501, q_min = 0, q_max = 0.5, delta_q = 0.001
#    q    intensity    error
0.00000000 1664650.74656091 349.57665678
0.00100000 1664581.93558306 499.37459253
0.00200000 1664375.44820738 823.86587295
0.00300000 1664031.45456558 998.41890831
0.00400000 1663549.82811585 1372.42866035
0.00500000 1662931.01376270 1496.63797163
0.00600000 1662174.77005680 2094.34029554
0.00700000 1661281.72111615 2192.89196301
0.00800000 1660251.30974004 2689.60723533
0.00900000 1659084.97007976 3981.80409840
0.01000000 1657781.76999777 3282.40804633
0.01100000 1656343.02335571 4472.12635777
0.01200000 1654768.17220206 3872.15769272
0.01300000 1653058.55754464 3818.56543635
0.01400000 1651213.47831863 4086.75354001
0.01500000 1649234.73533142 3958.16354105
0.01600000 1647121.17448191 4620.17510096
0.01700000 1644874.84678472 5773.51097121
0.01800000 1642495.46016149 5149.22349931
0.01900000 1639983.55053875 5903.94104834
0.02000000 1637339.95974077 7220.66954909
0.02100000 1634566.16385419 7012.28916086
0.02200000 1631660.42750148 6192.15160369
0.02300000 1628625.75399345 7035.66357750
0.02400000 1625461.79671382 8533.67482186
0.02500000 1622170.03075398 6326.46340887
0.02600000 1618750.83317862 7867.12940908
0.02700000 1615204.77913510 7462.24642138
0.02800000 1611532.17080918 7711.18179095
0.02900000 1607735.41755586 10128.73359565
0.03000000 1603814.79806713 8203.51306919
0.03100000 1599770.66205926 9214.67943746
0.03200000 1595603.95905161 8688.06395719
0.03300000 1591317.43165245 13796.72276846
0.03400000 1586909.23525329 10830.65603033
0.03500000 1582382.68403589 9399.35357722
0.03600000 1577737.47052937 8756.44336611
0.03700000 1572975.40363762 8965.96021539
0.03800000 1568097.79642740 11008.04704037
0.03900000 1563105.93672742 11254.36326563
0.04000000 1557998.83524415 11498.03193691
0.04100000 1552780.34032967 12717.27157696
0.04200000 1547450.81964033 10979.16407470
0.04300000 1542010.26452929 14248.17550562
0.04400000 1536462.56987300 12445.34739396
0.04500000 1530807.19555510 12675.08416814
0.04600000 1525044.38769860 13977.03246301
0.04700000 1519177.58689815 13125.69496125
0.04800000 1513206.92116222 13346.48566564
0.04900000 1507135.05669381 13564.21614162
0.05000000 1500961.51219539 13778.82732358
0.05100000 1494689.73393384 16322.01265490
0.05200000 1488317.79390292 15381.76511680
0.05300000 1481851.53014411 13203.29774909
0.05400000 1475288.88570647 12171.13387467
0.05500000 1468633.98061682 16037.48381647
0.05600000 1461885.18330856 14998.94268066
0.05700000 1455047.63548010 13924.80652153
0.05800000 1448119.94012248 15379.03448218
0.05900000 1441104.26939726 14266.93293338
0.06000000 1434003.08525816 14433.24172743
0.06100000 1426818.02535774 17250.23073270
0.06200000 1419549.64878732 18780.64273133
0.06300000 1412201.01850844 17624.26953501
0.06400000 1404770.33250625 17805.46479722
0.06500000 1397263.66160574 22132.65743515
0.06600000 1389679.23509234 20949.41544921
0.06700000 1382019.88693647 14096.60350646
0.06800000 1374288.30240028 15646.27305521
0.06900000 1366485.66473555 20087.34021208
0.07000000 1358611.30040492 15916.13212957
0.07100000 1350670.08308028 17504.68509660
0.07200000 1342660.85919448 17642.56451631
0.07300000 1334588.56708650 23702.29406204
0.07400000 1326452.67517284 16414.85262453
0.07500000 1318255.13693245 21039.35297161
0.07600000 1309996.53543291 18156.55283229
0.07700000 1301682.12379126 16752.64971870
0.07800000 1293310.12278171 21456.01594315
0.07900000 1284882.28259530 15418.58811433
0.08000000 1276403.53762101 21711.62519345
0.08100000 1267872.91970392 17154.32140844
0.08200000 1259292.35261066 17246.00957828
0.08300000 1250663.95083320 17334.20317208
0.08400000 1241988.91371538 22169.50315043
0.08500000 1233271.18457656 23863.79854185
0.08600000 1224509.66310279 19175.82222452
0.08700000 1215708.42207188 16047.35192490
0.08800000 1206865.49115664 19333.98607633
0.08900000 1197987.47075911 22641.96426083
0.09000000 1189072.60097800 21100.09429554
0.09100000 1180124.03955317 26057.14001753
0.09200000 1171142.44026855 21238.66915221
0.09300000 1162131.65382067 18024.66279778
0.09400000 1153089.37001410 23004.13401292
0.09500000 1144020.51398009 18121.28579319
0.09600000 1134925.86176590 18164.48927144
0.09700000 1125808.49017714 24824.07837545
0.09800000 1116669.03832539 24873.80399821
0.09900000 1107509.51965850 21596.43664886
0.10000000 1098329.76185196 18303.66634203
0.10100000 1089132.32023053 19996.47033990
0.10200000 1079919.44919491 20021.70752982
0.10300000 1070692.54306861 21713.64579486
0.10400000 1061453.86904675 26748.63875837
0.10500000 1052205.95682991 25095.11325110
0.10600001 1042945.43562417 16739.27502941
0.10700001 1033680.22837814 18420.18253651
0.10800001 1024407.00560148 21773.77192877
0.10900001 1015130.41862827 25124.47904355
0.11000001 1005850.29450118 23446.37146843
0.11100001 996569.07206941 23439.30567844
0.11200001 987289.08272825 18408.00581406
0.11300001 978008.96927727 18396.34957822
0.11400001 968733.39311066 20052.78218156
0.11500001 959462.56461345 18364.11435143
0.11600001 950197.42182684 21678.75519986
0.11700001 940941.17431176 24981.98935450
0.11800001 931691.86062512 21619.91064407
0.11900001 922454.12812805 18264.59259723
0.12000001 913227.85469174 18232.59497777
0.12100001 904016.15791980 16543.49646927
0.12200001 894817.93979284 19811.27012035
0.12300001 885636.50927675 18120.12383352
0.12400001 876471.90749844 19720.61884790
0.12500001 867326.12935774 24588.69692592
0.12600001 858201.88691489 19618.49605937
0.12700001 849098.55254573 22823.77016803
0.12800001 840016.73544582 24381.48689540
0.12900001 830959.76791368 17824.08786183
0.13000001 821927.84110448 19381.05940677
0.13100001 812921.21385448 19315.00895165
0.13200001 803943.54045206 17642.54182690
0.13300001 794995.31922303 23969.11000455
0.13400001 786075.61637505 17509.83518027
0.13500001 777188.24293754 15854.64090344
0.13600001 768331.99528580 22104.91254664
0.13700001 759509.93988526 20438.41344605
0.13800001 750721.00266827 17217.78700811
0.13900001 741970.01504140 18697.64526079
0.14000001 733254.09287869 20160.82223450
0.14100001 724576.34386472 20063.51990787
0.14200001 715936.23358601 18428.19952168
0.14300001 707338.28567007 22917.76153669
0.14400001 698776.77619603 19757.91427892
0.14500001 690260.78604296 22675.06789114
0.14600001 681784.83889659 19543.36332892
0.14700001 673355.17137325 17938.18261164
0.14800001 664967.50028070 19320.63163218
0.14900001 656624.85225203 19206.27783454
0.15000001 648328.81002118 20558.50753578
0.15100001 640079.68825033 21890.72637107
0.15200001 631878.96505896 21752.43439859
0.15300001 623726.68426332 15848.89579502
0.15400001 615621.81176398 18607.17013866
0.15500001 607568.78528680 18482.24332066
0.15600001 599564.22885359 14119.73825588
0.15700001 591615.01135525 15423.40407397
0.15800001 583713.02340413 18098.02314485
0.15900001 575867.14148192 13820.81204792
0.16000001 568071.79414682 16462.72137146
0.16100001 560334.03704786 21785.78838880
0.16200001 552648.39920937 13512.25399853
0.16300001 545019.15575335 16088.96623736
0.16400001 537445.14102437 17292.29822882
0.16500001 529927.99256527 23751.37374811
0.16600001 522467.14112775 15705.36300380
0.16700001 515063.15547026 14277.55134375
0.16800001 507715.93140100 15444.71936246
0.16900001 500429.25353472 19141.41985152
0.17000001 493199.97700827 18975.87001143
0.17100001 486029.94802321 15047.48790136
0.17200001 478919.83915791 12427.97041303
0.17300001 471869.25589784 13547.36697659
0.17400001 464879.64250808 12203.09119214
0.17500001 457950.06160377 14507.85863678
0.17600001 451079.59258124 13173.78012352
0.17700001 444272.85622938 20165.54589668
0.17800001 437526.44617556 12922.34419814
0.17900001 430841.54968578 12795.99463007
0.18000001 424219.67773560 17276.34719183
0.18100001 417660.87444584 17103.21361645
0.18200001 411161.61357610 15800.94155613
0.18300001 404727.50850503 17872.76761988
0.18400001 398354.94445670 12159.78525398
0.18500001 392046.11055351 16407.13050177
0.18600001 385800.22996546 12986.03635414
0.18700001 379617.04559135 11775.72131059
0.18800001 373497.03456501 10588.64143019
0.18900001 367442.35396553 11519.31834108
0.19000001 361447.05384720 12426.55029841
0.19100001 355520.49436928 10238.99072163
0.19200001 349653.73537259 14171.46656427
0.19300001 343853.09780331 10006.12561889
0.19400001 338115.08195312 11867.83993736
0.19500001 332441.00799247 12705.89592589
0.19600001 326829.76228975 13520.94790488
0.19700001 321282.96794435 13358.94643844
0.19800001 315799.47904761 11311.93787407
0.19900001 310380.23674444 11173.68905087
0.20000001 305022.61425428 16553.57805792
0.20100001 299730.10867279 15439.09862742
0.20200001 294499.66047366 11657.76961084
0.20300001 289333.16403878 9738.95476185
0.20400001 284229.66704881 10488.07520983
0.20500001 279188.05518210 10352.29357547
0.20600001 274210.03991730 9365.64435607
0.20700001 269294.12476575 10082.37250781
0.20800001 264440.55849647 9119.23309082
0.20900001 259651.24044998 9814.81735297
0.21000001 254921.46157497 9681.91756830
0.21100001 250253.84954880 8753.88007104
0.21200001 245647.61664477 8633.28589511
0.21300001 241102.63501428 11609.09242476
0.21400001 236619.52869720 9157.17619350
0.21500001 232197.87432487 9027.85378057
0.21600001 227835.27874136 11124.05801048
0.21700001 223533.67785602 10964.32741723
0.21800001 219292.12241259 7924.12121804
0.21900001 215109.15351833 8518.32288209
0.22000001 210985.32043152 10491.24555451
0.22100001 206922.93477702 8957.69427005
0.22200001 202918.15372880 8145.13507581
0.22300001 198971.61866677 7353.99137366
0.22400001 195081.40015075 7900.79707971
0.22500001 191252.48578145 7780.15148949
0.22600001 187478.51250419 6383.64365264
0.22700001 183763.05211743 7541.63601554
0.22800001 180103.39477620 7423.86228375
0.22900001 176499.54049490 6698.15787854
0.23000001 172951.93119148 7790.62010895
0.23100001 169461.46949381 5897.25941728
0.23200001 166024.01384337 8123.55538155
0.23300001 162642.49576117 6279.62705833
0.23400001 159315.34260006 10670.14557529
0.23500001 156040.75004062 7733.37993777
0.23600001 152820.77187919 6519.33443671
0.23700001 149653.58253248 6945.42309384
0.23800001 146538.90756247 5778.76209305
0.23900001 143476.78740594 5681.68105002
0.24000001 140466.04436095 7108.98684137
0.24100001 137508.02542284 5490.69571485
0.24200001 134600.03851424 6378.02312669
0.24300001 131742.68493478 4821.78249670
0.24400001 128934.91691298 5686.03010483
0.24500001 126176.95913250 6983.89501835
0.24600001 123468.40920248 5031.95525508
0.24700001 120808.93730611 5842.32048450
0.24800001 118196.81487869 5739.04661793
0.24900001 115632.38129149 5637.07885464
0.25000001 113115.83448760 4684.69250693
0.25100001 110645.37798210 5018.87458271
0.25200001 108222.31170738 5749.85169304
0.25300001 105845.30207124 4435.97681967
0.25400001 103512.78710957 7126.85572967
0.25500001 101225.43204717 4275.76245197
0.25600001 98982.93660468  4960.53010264
0.25700001 96784.24966509  4120.10570318
0.25800001 94628.72921185  5146.85682535
0.25900001 92516.79791228  4690.60187609
0.26000001 90447.93629889  3541.03687365
0.26100001 88418.88358081  3822.34851806
0.26200001 86434.04955460  4091.78809953
0.26300001 84488.85356259  4684.06226315
0.26400001 82584.27207992  5252.35995282
0.26500001 80720.67594590  3864.90614717
0.26600001 78895.78025234  4107.70899321
0.26700001 77111.20565932  4029.83179845
0.26800001 75365.18471570  3345.08388190
0.26900001 73656.73524771  3281.40771057
0.27000001 71986.77229563  3804.14116198
0.27100001 70353.84936966  3444.52462814
0.27200001 68758.22093827  3097.21420874
0.27300001 67198.33199229  4142.77736338
0.27400001 65673.29502211  3250.82825744
0.27500001 64185.81319344  3985.93918795
0.27600001 62731.25666755  3649.07737305
0.27700001 61312.93971133  3323.77461905
0.27800001 59927.53869759  3260.35789715
0.27900001 58576.20786769  2952.24101625
0.28000001 57257.48738197  3137.42416958
0.28100001 55971.31181980  4735.17320407
0.28200001 54717.80152308  2787.32494151
0.28300001 53495.82947752  2278.92244360
0.28400001 52305.28525651  2459.65615560
0.28500001 51145.57986798  2632.97457623
0.28600001 50015.58148546  3229.75632729
0.28700001 48915.96763430  2324.48689201
0.28800001 47845.11611451  2696.31164626
0.28900001 46804.72416502  3257.60895608
0.29000001 45791.44222463  2198.67620249
0.29100001 44807.68113327  2355.09183184
0.29200001 43850.77532860  2698.13833369
0.29300001 42921.17096754  2460.67084805
0.29400001 42018.26451554  3160.82409780
0.29500001 41142.84425388  2009.41660848
0.29600001 40292.27480754  2154.02511318
0.29700001 39467.04067950  2117.01216226
0.29800001 38667.51567267  1907.66197602
0.29900001 37892.75202298  2557.76088263
0.30000001 37142.00930821  2180.05033955
0.30100001 36416.09389523  2474.47369732
0.30200001 35712.42066443  1623.12959604
0.30300001 35032.41870705  1757.22620553
0.30400001 34375.74445913  1729.95942181
0.30500001 33740.14877437  1703.54019227
0.30600001 33126.92533658  1830.59398076
0.30700001 32535.57324666  1803.77226619
0.30800001 31965.12269942  1629.74185799
0.30900001 31415.30557447  1899.05531189
0.31000001 30886.69708271  1584.95093584
0.31100001 30376.48768005  1421.61969073
0.31200001 29887.06788837  2245.11664607
0.31300001 29416.19402733  1524.05308471
0.31400001 28965.67250178  1642.35370861
0.31500001 28532.77125935  1622.94410607
0.31600002 28118.02826061  2139.21969135
0.31700002 27720.68500682  1454.50441118
0.31800002 27341.28040893  1308.28032951
0.31900002 26979.31688889  1554.00872638
0.32000002 26633.60586021  1667.13063776
0.32100002 26304.80952443  1524.62683223
0.32200002 25992.33318737  1511.19432307
0.32300002 25694.86330221  1623.40154030
0.32400002 25413.20418676  1610.56189160
0.32500002 25146.14982808  1229.64678482
0.32600002 24894.59458923  1709.51189139
0.32700002 24657.10208137  1334.44242783
0.32800002 24434.62918181  1567.60370939
0.32900002 24224.66165782  1199.12080884
0.33000002 24029.92359258  1193.08576287
0.33100002 23846.10183008  1425.04311285
0.33200002 23677.61654179  1537.50610295
0.33300002 23520.48166719  1885.40189973
0.33400002 23376.47015305  1409.60121698
0.33500002 23243.88397180  1522.93934995
0.33600002 23123.26413227  1285.76916296
0.33700002 23013.15095610  1166.76680873
0.33800002 22915.91103866  1398.32895780
0.33900002 22828.13911902  1280.65866523
0.34000002 22751.86255609  1396.50938983
0.34100002 22685.69278753  1512.90892365
0.34200002 22630.52823399  1397.20887934
0.34300002 22583.86866299  1281.86044602
0.34400002 22547.61930389  1283.52328966
0.34500002 22520.42216123  1402.57195863
0.34600002 22503.46424354  1288.43590628
0.34700002 22493.20678772  1526.38908491
0.34800002 22493.02523952  2237.26886141
0.34900002 22500.97413693  1535.69155758
0.35000002 22517.00393654  1422.62437609
0.35100002 22540.94368151  1309.17807103
0.35200002 22571.86748639  1792.77066002
0.35300002 22610.64247645  1440.75020684
0.35400002 22656.88801586  1327.12727839
0.35500002 22709.83984017  1576.51715637
0.35600002 22769.08240750  1341.21286274
0.35700002 22835.08282397  1716.74160802
0.35800002 22907.86586960  1480.30636261
0.35900002 22986.39943251  1489.51875378
0.36000002 23071.41864411  1499.18085450
0.36100002 23161.29604777  1383.42427846
0.36200002 23257.85070351  1519.66803695
0.36300002 23357.87268799  1913.00986376
0.36400002 23463.87693219  1798.50625204
0.36500002 23574.20806876  1682.49130956
0.36600002 23690.01022850  1956.20268728
0.36700002 23809.73234275  2234.30538888
0.36800002 23935.22704090  1987.22231920
0.36900002 24063.84249808  1469.09765410
0.37000002 24195.55358172  1346.48262060
0.37100002 24331.60242980  1357.70347990
0.37200002 24471.67483171  1369.19027169
0.37300002 24614.56964074  1518.96516448
0.37400002 24761.80113043  1532.13651752
0.37500002 24911.00695531  1545.47894472
0.37600002 25064.30139700  1700.86357337
0.37700002 25219.00807044  1572.90960787
0.37800002 25377.53426913  1875.52675901
0.37900002 25538.14819603  1746.80941936
0.38000002 25701.24944762  1762.59177062
0.38100002 25866.03005932  2074.97302966
0.38200002 26033.10744300  1495.60209345
0.38300002 26201.86917558  1811.07328321
0.38400002 26373.08021865  1675.35000026
0.38500002 26544.64028853  1844.32169462
0.38600002 26719.07252739  1861.25068043
0.38700002 26893.67134791  1721.73292126
0.38800002 27069.60468317  1737.46265890
0.38900002 27246.64906431  2390.89356866
0.39000002 27425.45009128  1608.50272406
0.39100002 27604.13919213  1623.12346139
0.39200002 27784.09311728  2456.80855029
0.39300002 27964.21424399  2148.49068215
0.39400002 28145.72735482  1667.63442478
0.39500002 28326.57425303  2019.11830842
0.39600002 28507.79409461  2206.93098439
0.39700002 28688.82213578  2397.81186771
0.39800002 28870.97796974  2419.09935870
0.39900002 29051.94102611  2091.73985298
0.40000002 29232.96527845  2285.87182825
0.40100002 29413.37781074  2128.35211923
0.40200002 29594.62615899  2325.69380689
0.40300002 29774.29830359  2165.18707522
0.40400002 29953.31845371  3275.39552810
0.40500002 30131.89250842  2018.53557478
0.40600002 30309.86137490  2035.45883707
0.40700002 30486.92088930  2238.95957619
0.40800002 30663.18492695  3386.13567192
0.40900002 30837.65630383  2465.47073831
0.41000002 31011.94972591  2103.07547031
0.41100002 31184.61334612  2312.65103533
0.41200002 31355.41221000  2525.20824198
0.41300002 31525.37788282  2740.81648300
0.41400002 31693.81076351  2564.82175757
0.41500002 31861.22501524  2584.58269570
0.41600002 32025.77521242  2804.49726824
0.41700002 32189.51796675  2220.11115936
0.41800002 32352.38290750  2846.68630692
0.41900002 32511.53882377  2457.87245154
0.42000002 32669.64682298  2063.08829463
0.42100002 32826.42229805  3116.86894489
0.42200002 32980.99632490  2929.70204237
0.42300002 33133.10601443  2739.44533508
0.42400002 33283.06452296  2546.15455666
0.42500002 33431.41840464  2563.52128474
0.42600002 33576.24188593  2365.61423417
0.42700002 33720.10193634  2814.27984097
0.42800002 33861.14541615  2832.65425402
0.42900002 34000.40202290  2193.02603440
0.43000002 34137.17623825  2427.66540322
0.43100002 34270.19102556  2220.70848369
0.43200002 34401.67321154  2904.70541526
0.43300002 34530.19084644  3371.87329594
0.43400002 34656.57416253  3165.87819977
0.43500002 34779.96427411  2729.53172558
0.43600002 34901.52106426  3202.91273985
0.43700002 35019.41175474  2300.77546132
0.43800002 35133.96422521  2313.57165387
0.43900002 35246.90070507  2791.55466813
0.44000002 35356.19878627  2572.69392660
0.44100002 35463.49298267  2821.47563541
0.44200002 35567.55892710  2599.81084298
0.44300002 35669.00775264  3088.22283758
0.44400002 35766.97108160  2387.44543284
0.44500002 35861.25860184  2639.03014558
0.44600002 35953.39667582  3374.94550590
0.44700002 36042.70149957  2664.27662111
0.44800002 36128.13019712  3406.52155773
0.44900002 36211.70974574  2444.29052368
0.45000002 36291.92722944  3191.69369145
0.45100002 36367.91234343  4438.34023274
0.45200002 36441.73608537  2971.45930123
0.45300002 36511.90448655  2486.46081337
0.45400002 36579.51622766  2746.20731094
0.45500002 36643.85987120  3258.37217417
0.45600002 36704.73584430  2767.72073751
0.45700002 36762.54333427  3535.82158547
0.45800002 36816.55343947  3802.22973666
0.45900002 36867.62442697  2798.25282663
0.46000002 36916.37306624  3829.15097778
0.46100002 36960.64931463  2817.51043079
0.46200002 37002.49080379  2826.80541893
0.46300002 37040.73735185  2835.83898606
0.46400002 37075.34416547  3620.40752935
0.46500002 37107.59882785  3112.58553720
0.46600002 37135.90618912  3121.64442221
0.46700002 37160.92888590  2869.56706457
0.46800002 37183.43505630  3139.02573623
0.46900002 37201.90868810  3671.82856155
0.47000002 37216.95514914  2892.31580650
0.47100002 37229.21973489  3162.99465859
0.47200002 37237.97430368  3170.44128248
0.47300002 37244.09828650  4236.88882189
0.47400002 37245.73032287  3184.51009354
0.47500002 37245.15752634  2925.23481077
0.47600002 37241.68623268  3197.57133150
0.47700002 37233.88719850  3203.60380640
