# SAXS profile: number of points = 501, q_min = 0, q_max = 0.5, delta_q = 0.001
#    q    intensity    error
0.00000000 1664650.74656090 324.60689558
0.00100000 1664581.92992462 599.24950900
0.00200000 1664375.42545933 1048.55655124
0.00300000 1664031.40592933 1098.26076704
0.00400000 1663549.74419387 1497.19482666
0.00500000 1662930.87591897 1646.30163232
0.00600000 1662174.56010412 2617.92503875
0.00700000 1661281.45286084 3189.66052206
0.00800000 1660250.95083060 2913.74054173
0.00900000 1659084.51502150 3484.07763048
0.01000000 1657781.21178797 3282.40694107
0.01100000 1656342.33829947 3875.84124037
0.01200000 1654767.37309066 3549.47617090
0.01300000 1653057.60931892 3471.42113268
0.01400000 1651212.38209381 5944.36483906
0.01500000 1649233.48442068 3958.16053886
0.01600000 1647119.75346209 5040.18667091
0.01700000 1644873.23285575 5329.38951352
0.01800000 1642493.64231488 5617.32850948
0.01900000 1639981.55894475 7379.91734825
0.02000000 1637337.74447804 5673.37554126
0.02100000 1634563.74526625 8630.49696630
0.02200000 1631657.73840307 7317.98528921
0.02300000 1628622.84409293 6449.34675617
0.02400000 1625458.63585833 7314.56419489
0.02500000 1622166.59803730 8224.38502766
0.02600000 1618747.09336725 7867.11123359
0.02700000 1615200.76862574 10175.76530840
0.02800000 1611527.87710659 7010.14658690
0.02900000 1607730.79326453 10852.18335280
0.03000000 1603809.85189343 7457.71615410
0.03100000 1599765.40669277 11518.31145818
0.03200000 1595598.36076828 9477.85469950
0.03300000 1591311.53048824 8927.25809759
0.03400000 1586903.00172657 11663.73760086
0.03500000 1582376.06125790 11108.28046299
0.03600000 1577730.45708781 8756.40444150
0.03700000 1572968.02252105 10759.10177163
0.03800000 1568089.97285812 12842.65747206
0.03900000 1563097.74913042 10316.44562202
0.04000000 1557990.24102730 9581.64042632
0.04100000 1552771.32696304 10760.70579479
0.04200000 1547441.32189876 11977.19638715
0.04300000 1542000.37702718 12212.64355294
0.04400000 1536452.26442878 12445.26391986
0.04500000 1530796.41128087 10562.49572862
0.04600000 1525033.14633326 16127.22627218
0.04700000 1519165.88624152 12031.79437861
0.04800000 1513194.70889341 13346.37795342
0.04900000 1507122.47320702 13564.10289024
0.05000000 1500948.32891821 13778.70630109
0.05100000 1494676.06947123 13990.16866197
0.05200000 1488303.72179566 14198.41816759
0.05300000 1481836.94559587 13203.16780076
0.05400000 1475273.74647104 13388.10987356
0.05500000 1468618.31594297 13570.03387235
0.05600000 1461868.99147218 19998.36873655
0.05700000 1455030.96030616 15190.52393467
0.05800000 1448102.73472386 15378.85176084
0.05900000 1441086.48102433 14266.75682848
0.06000000 1433984.67981493 20993.53669328
0.06100000 1426799.14825784 14596.15596878
0.06200000 1419530.14850444 18780.38474258
0.06300000 1412180.99188955 14912.63197160
0.06400000 1404749.71294042 16435.57241004
0.06500000 1397242.50420970 22132.32230198
0.06600000 1389657.46240315 13966.05815060
0.06700000 1381997.52298692 15506.01293358
0.06800000 1374265.41674676 25602.56591242
0.06900000 1366462.21498262 15782.63932198
0.07000000 1358587.11896019 15915.84884393
0.07100000 1350645.45661010 21880.45742192
0.07200000 1342635.59681437 14701.86047385
0.07300000 1334562.78369146 19257.74187100
0.07400000 1326426.13061719 16414.52413564
0.07500000 1318228.01244975 16530.58005095
0.07600000 1309968.82549995 15130.14064383
0.07700000 1301653.72494429 16752.28422552
0.07800000 1293281.10173400 18390.45812910
0.07900000 1284852.77721486 18501.88085970
0.08000000 1276373.37262755 17058.73092541
0.08100000 1267842.07018563 17153.90401444
0.08200000 1259260.80748852 17245.57756781
0.08300000 1250631.81672556 22061.14628241
0.08400000 1241956.28928093 20585.42646108
0.08500000 1233237.78901162 17499.64504760
0.08600000 1224475.80015373 25567.05590762
0.08700000 1215673.87873116 17651.58554805
0.08800000 1206830.30765402 20944.54097297
0.08900000 1197951.59943371 16172.34735197
0.09000000 1189036.11996807 22722.48131999
0.09100000 1180086.93135979 26056.32066858
0.09200000 1171104.74086242 21237.98547344
0.09300000 1162093.27732218 24578.27397035
0.09400000 1153050.44189357 18074.06652612
0.09500000 1143980.85871895 23062.65519578
0.09600000 1134885.64443592 21466.36297359
0.09700000 1125767.70744272 19858.54329289
0.09800000 1116627.50002265 26531.07064797
0.09900000 1107467.49569371 18273.21453820
0.10000000 1098287.01537248 21630.76378499
0.10100000 1089089.04936143 21661.98221060
0.10200000 1079875.63067771 21689.30306235
0.10300000 1070648.05137008 18372.32142576
0.10400000 1061408.75574765 21732.34529633
0.10500000 1052160.31701437 23421.08975869
0.10600001 1042899.14304641 26781.65125360
0.10700001 1033633.39430078 23442.80648591
0.10800001 1024359.52956873 26797.24655464
0.10900001 1015082.36445263 21773.51774229
0.11000001 1005801.67659318 18421.25857388
0.11100001 996519.89604247 20089.84204991
0.11200001 987239.20848071 20080.44644583
0.11300001 977958.66853955 16723.09401936
0.11400001 968682.44348509 23393.68211164
0.11500001 959411.16304208 23371.25703221
0.11600001 950145.45328626 16675.05349043
0.11700001 940888.68340794 19984.47657675
0.11800001 931638.73328955 24944.62825868
0.11900001 922400.58583411 18263.53245976
0.12000001 913173.79745662 16574.10520456
0.12100001 903961.52002380 18196.74625529
0.12200001 894762.86574056 16508.37565064
0.12300001 885580.94441617 23060.52887908
0.12400001 876415.73336023 16432.79577478
0.12500001 867269.45850125 18030.53289185
0.12600001 858144.67104015 21251.95377977
0.12700001 849040.99149229 27712.69926831
0.12800001 839958.62221874 24379.80015890
0.12900001 830901.29246558 17822.83356341
0.13000001 821868.77939360 16149.72227630
0.13100001 812861.87583994 20923.06567038
0.13200001 803883.57988139 19244.97380957
0.13300001 794935.12919262 19173.83622004
0.13400001 786014.98589096 19100.16505764
0.13500001 777127.12087451 17438.73341463
0.13600001 768270.46783115 20524.34651585
0.13700001 759447.99998205 23580.86151136
0.13800001 750658.62199749 17216.35630736
0.13900001 741907.30943047 15580.05423277
0.14000001 733191.14582668 17057.69281211
0.14100001 724512.95011196 18518.55187825
0.14200001 715872.42264851 16891.01060906
0.14300001 707274.18668714 21387.97241424
0.14400001 698712.44042165 21275.79481442
0.14500001 690196.14745082 25696.00378173
0.14600001 681719.89852371 19541.50181304
0.14700001 673290.00664955 19431.15050860
0.14800001 664901.97683239 16346.61587164
0.14900001 656558.95930609 16249.83500951
0.15000001 648262.72075548 16151.46644970
0.15100001 640013.31475048 16051.53469133
0.15200001 631812.35179812 17400.11298958
0.15300001 623659.80581221 15847.19641350
0.15400001 615554.76908125 14311.64905652
0.15500001 607501.56649683 24166.41345573
0.15600001 599496.76614568 18353.59436175
0.15700001 591547.37463468 21029.51016079
0.15800001 583645.21150379 13919.93895137
0.15900001 575799.15499900 20728.77055837
0.16000001 568003.65013721 21947.66207728
0.16100001 560265.75718939 14975.90439660
0.16200001 552579.99078155 13510.58141239
0.16300001 544950.68362868 18768.10243017
0.16400001 537376.56170662 17290.09168917
0.16500001 529859.37982650 13193.49918056
0.16600001 522398.40233362 14394.68865592
0.16700001 514994.32259743 14275.64329642
0.16800001 507647.00111643 16729.50771170
0.16900001 500360.31171195 12759.18855112
0.17000001 493131.10895640 15178.57625041
0.17100001 485961.02485697 15045.35404003
0.17200001 478850.85162426 18639.27027967
0.17300001 471800.27748654 17239.58295349
0.17400001 464810.73084304 14641.53871302
0.17500001 457881.27155164 20549.71243775
0.17600001 451010.80526961 17961.50616817
0.17700001 444204.11544173 14232.30053095
0.17800001 437457.70764970 12920.31400569
0.17900001 430773.00059742 13957.04587860
0.18000001 424151.11255117 11515.70324971
0.18100001 417592.45171038 14820.35681126
0.18200001 411093.30807639 16926.76775963
0.18300001 404659.44445324 14519.18155286
0.18400001 398286.93458601 12157.70925258
0.18500001 391978.30234416 13123.43418246
0.18600001 385732.51417461 12983.75704051
0.18700001 379549.54633061 12843.95725464
0.18800001 373429.79444853 12704.08220736
0.18900001 367375.37155064 13611.25815905
0.19000001 361380.27055581 11388.89976468
0.19100001 355453.91176041 12284.48777088
0.19200001 349587.38386659 13156.72181349
0.19300001 343787.03431207 11004.62348833
0.19400001 338049.29785717 13843.11940139
0.19500001 332375.51391915 13680.57679939
0.19600001 326764.48356654 10621.48004026
0.19700001 321217.96049802 11448.20865316
0.19800001 315734.88860310 14137.03030530
0.19900001 310316.07405680 13964.22399250
0.20000001 304958.78053508 9194.50766768
0.20100001 299666.61720579 9079.89893047
0.20200001 294436.56454161 9862.15319544
0.20300001 289270.43497708 11507.17844727
0.20400001 284167.26698617 13107.21580926
0.20500001 279126.13058149 12074.99697970
0.20600001 274148.47287094 11066.00363050
0.20700001 269233.01558720 8400.07048338
0.20800001 264379.84173988 14918.95517460
0.20900001 259590.97224908 13901.09722106
0.21000001 254861.67609426 8873.00967267
0.21100001 250194.54750460 11138.66178147
0.21200001 245588.75309114 10200.52934186
0.21300001 241044.40012695 10058.78329283
0.21400001 236561.79714592 10680.76564609
0.21500001 232140.76040047 8273.49709182
0.21600001 227778.59411654 8155.61294793
0.21700001 223477.57751491 8769.26055629
0.21800001 219236.48313130 9362.49445479
0.21900001 215054.13739716 9935.50161751
0.22000001 210930.91302654 6992.36009745
0.22100001 206869.06791015 6888.74028713
0.22200001 202864.98542781 8821.58430845
0.22300001 198919.03919742 7352.04803638
0.22400001 195029.47125837 7898.69395946
0.22500001 191201.12783919 9074.40595635
0.22600001 187427.77606166 7020.10768436
0.22700001 183712.99395383 8796.17856647
0.22800001 180053.97169731 8658.79590840
0.22900001 176450.88057616 6696.31123454
0.23000001 172903.92148201 5991.12116268
0.23100001 169414.16731199 7074.73596153
0.23200001 165977.32374645 6961.08928714
0.23300001 162596.50851545 6848.56526257
0.23400001 159270.06764984 6175.69716520
0.23500001 155996.26802424 6074.49496416
0.23600001 152776.98935075 5974.34445113
0.23700001 149610.61718125 6409.31914319
0.23800001 146496.63568388 5777.09510144
0.23900001 143435.34691179 7745.50909960
0.24000001 140425.22424957 7106.92093543
0.24100001 137468.02489145 5988.10744752
0.24200001 134560.85153406 6376.16625155
0.24300001 131704.29156119 6748.52821882
0.24400001 128897.23693261 5684.36841762
0.24500001 126140.14471248 6050.94302809
0.24600001 123432.41371429 5030.48825889
0.24700001 120773.79803581 5840.62114931
0.24800001 118162.43736478 4854.70396879
0.24900001 115598.87520775 5201.94963044
0.25000001 113083.10811679 6386.36883302
0.25100001 110613.48072810 4181.18976933
0.25200001 108191.28855586 4516.44555444
0.25300001 105815.18236631 6450.49382223
0.25400001 103483.43582913 3958.24160773
0.25500001 101197.02914083 6606.14237486
0.25600001 98955.31412164  5340.61855582
0.25700001 96757.43235151  5616.76921375
0.25800001 94602.89125633  5512.98374880
0.25900001 92491.85231447  3967.90065203
0.26000001 90423.79969357  3894.10111805
0.26100001 88395.68779135  3821.34576403
0.26200001 86411.79712194  3749.84011354
0.26300001 84467.50202048  3344.91323828
0.26400001 82563.72217190  3610.09892279
0.26500001 80701.05157561  3219.97211023
0.26600001 78877.05328734  5054.44181383
0.26700001 77093.43321939  3409.07177828
0.26800001 75348.22257706  3648.36110983
0.26900001 73640.71874421  3280.69417530
0.27000001 71971.64506752  4095.90651462
0.27100001 70339.69495611  4017.80356603
0.27200001 68744.93727092  3378.12637736
0.27300001 67186.05332420  3313.61630676
0.27400001 65661.87264488  3250.26284974
0.27500001 64175.35776850  2656.85993735
0.27600001 62721.72220791  3648.52275350
0.27700001 61304.37669300  2812.03189199
0.27800001 59919.74136909  2507.64129498
0.27900001 58569.40155287  3443.88097430
0.28000001 57251.61070891  3137.10215727
0.28100001 55966.37777163  3787.80462686
0.28200001 54713.78777019  3251.64056108
0.28300001 53492.70462274  2506.66825726
0.28400001 52303.15928571  3353.94024794
0.28500001 51144.36117961  2632.91183815
0.28600001 50015.25491854  2583.78819139
0.28700001 48916.54862408  3169.79250087
0.28800001 47846.55148138  2281.56291538
0.28900001 46807.14696537  3054.16648406
0.29000001 45794.84570324  2198.83962052
0.29100001 44811.90745726  2159.03780349
0.29200001 43855.89597224  2698.45340690
0.29300001 42927.22820258  2461.01810935
0.29400001 42025.21604788  2045.57748796
0.29500001 41150.75784493  2192.51248176
0.29600001 40300.98482600  1974.94985489
0.29700001 39476.75458676  2293.99431763
0.29800001 38678.07617224  1908.18297829
0.29900001 37904.23299383  2558.53584820
0.30000001 37154.34025225  2180.77410434
0.30100001 36429.31460154  1650.24802957
0.30200001 35726.48349542  1948.52250208
0.30300001 35047.35533906  1757.97542703
0.30400001 34391.52463369  2045.43602442
0.30500001 33756.86000760  2324.15992155
0.30600001 33144.50319929  1831.56533350
0.30700001 32553.98916628  1503.99437069
0.30800001 31984.29438050  2520.20259503
0.30900001 31435.42560458  1754.09683178
0.31000001 30907.61880485  1586.02453406
0.31100001 30398.21688705  1707.16394120
0.31200001 29909.61539800  1825.53346225
0.31300001 29439.55431476  1802.58399604
0.31400001 28989.81610489  1506.74576339
0.31500001 28557.74881772  1895.09230127
0.31600002 28143.73487007  1472.05812208
0.31700002 27747.22263996  1455.89684085
0.31800002 27368.60005462  1571.50508954
0.31900002 27007.40354780  1814.89760435
0.32000002 26662.46974970  1925.69696885
0.32100002 26334.47588703  1399.15077013
0.32200002 26022.67978304  1639.03856374
0.32300002 25725.96462080  1875.42290966
0.32400002 25444.98878108  1240.44326181
0.32500002 25178.67518211  1231.23727471
0.32600002 24927.82837174  1467.25204744
0.32700002 24691.05462023  1579.23992829
0.32800002 24469.29530488  1449.07173657
0.32900002 24260.02798603  1320.95858639
0.33000002 24065.97219939  1672.82580679
0.33100002 23882.81066757  1427.23683308
0.33200002 23714.96130538  1303.01861063
0.33300002 23558.46203505  1534.36270500
0.33400002 23415.07696700  1411.92920797
0.33500002 23283.15234958  1290.81802739
0.33600002 23163.13381542  1639.25505775
0.33700002 23053.70084476  1168.82268818
0.33800002 22956.97423584  1634.30707325
0.33900002 22869.78529586  1399.63092639
0.34000002 22794.07335882  1515.69197978
0.34100002 22728.48431936  1165.97130080
0.34200002 22673.89412083  1516.54348009
0.34300002 22627.79826058  1517.87277921
0.34400002 22592.11281809  1402.97027245
0.34500002 22565.40011467  1990.94534641
0.34600002 22548.92688114  1525.77320967
0.34700002 22539.14928386  1411.85237801
0.34800002 22539.55529176  1415.93493049
0.34900002 22547.92117222  1657.27228465
0.35000002 22564.40381636  1782.02387580
0.35100002 22588.80874428  1550.49590564
0.35200002 22620.18009012  1317.51245175
0.35300002 22659.34376081  1323.53233176
0.35400002 22706.03351789  1692.73487893
0.35500002 22759.40109254  1336.88728350
0.35600002 22819.02378610  1466.35053795
0.35700002 22885.42405140  1720.52626168
0.35800002 22958.56537673  1854.47820614
0.35900002 23037.43594866  1741.63024021
0.36000002 23122.77565906  1377.30819737
0.36100002 23213.02043499  1890.70060398
0.36200002 23309.88423155  1903.83488479
0.36300002 23410.17394410  1789.47378105
0.36400002 23516.49015287  1416.28068654
0.36500002 23627.13885231  1945.69497665
0.36600002 23743.13847050  2222.00171901
0.36700002 23863.15134308  1580.69521984
0.36800002 23988.84733149  1460.56103896
0.36900002 24117.72414371  1606.24050406
0.37000002 24249.61239668  1754.33829194
0.37100002 24385.91056556  2041.10081102
0.37200002 24526.15090817  1372.23820831
0.37300002 24669.21305731  1660.73150169
0.37400002 24816.61771219  2233.49569990
0.37500002 24965.97993044  1408.08133478
0.37600002 25119.34894170  1704.59909993
0.37700002 25274.23636718  1433.04926991
0.37800002 25432.82883574  1879.61330415
0.37900002 25593.50176037  1604.71263639
0.38000002 25756.71614084  2060.79495605
0.38100002 25921.56963457  1633.83661147
0.38200002 26088.69995979  1948.43464880
0.38300002 26257.51828310  1512.43312476
0.38400002 26428.71192136  1831.50982292
0.38500002 26600.31682756  2156.22178419
0.38600002 26774.74194213  1865.12861205
0.38700002 26949.37581121  1882.14449582
0.38800002 27125.22718179  1899.30849725
0.38900002 27302.27828085  1916.62002612
0.39000002 27480.98243215  2256.46357441
0.39100002 27659.62753331  1789.02479361
0.39200002 27839.45390931  1969.36306285
0.39300002 28019.48948828  2318.33267010
0.39400002 28200.90349940  2005.08433380
0.39500002 28381.62984214  2528.80333874
0.39600002 28562.75898635  2041.09485387
0.39700002 28743.57721029  2230.78913298
0.39800002 28925.57135851  1904.31508061
0.39900002 29106.39091214  2095.66024496
0.40000002 29287.19714752  2290.11248945
0.40100002 29467.42142967  2309.95127532
0.40200002 29648.46073929  2329.92439759
0.40300002 29827.93480326  1988.33022819
0.40400002 30006.76673807  2916.65786513
0.40500002 30185.07029963  2389.75212885
0.40600002 30362.77748752  2409.74194947
0.40700002 30539.55214927  2055.92274810
0.40800002 30715.54776551  2449.71862811
0.40900002 30889.68716939  3039.54536149
0.41000002 31063.67861154  2298.09105257
0.41100002 31235.99634400  2702.53853173
0.41200002 31406.54195721  2918.45304966
0.41300002 31576.11495454  2549.13988107
0.41400002 31744.16913244  2766.50447098
0.41500002 31911.22788824  2588.63892895
0.41600002 32075.38849763  2407.57877471
0.41700002 32238.78704745  2223.50924802
0.41800002 32401.24284875  2850.98549335
0.41900002 32559.95846287  3282.04396857
0.42000002 32717.63663272  3719.01393227
0.42100002 32873.97024768  3537.56810598
0.42200002 33028.10831264  3562.57707196
0.42300002 33179.73012042  2743.30021635
0.42400002 33329.27220959  3187.11180607
0.42500002 33477.15218766  2567.02815139
0.42600002 33621.47397804  2368.80106137
0.42700002 33764.83766990  3034.78375358
0.42800002 33905.35077995  2836.35225390
0.42900002 34044.09598490  2854.59758361
0.43000002 34180.34680048  2430.73547790
0.43100002 34312.79814124  2668.16330990
0.43200002 34443.75153081  2237.12176794
0.43300002 34571.67381062  2925.80089324
0.43400002 34697.53534185  2490.41571718
0.43500002 34820.31228048  3188.14794348
0.43600002 34941.31545573  2748.48400400
0.43700002 35058.63188695  2994.35789136
0.43800002 35172.54619837  2779.33473231
0.43900002 35284.88287122  2561.68261785
0.44000002 35393.57093417  2809.54179390
0.44100002 35500.21206683  2824.39700588
0.44200002 35603.64441773  2839.03474041
0.44300002 35704.41473451  2615.70554741
0.44400002 35801.73851434  2628.74277499
0.44500002 35895.34649666  2401.39879443
0.44600002 35986.87973805  3136.79652102
0.44700002 36075.45888280  2666.69804699
0.44800002 36160.20071235  2922.46756007
0.44900002 36243.13331956  2691.05277651
0.45000002 36322.67186932  3194.39752894
0.45100002 36397.90304899  3454.88912115
0.45200002 36471.03115825  2726.02735312
0.45300002 36540.45358141  2488.40500683
0.45400002 36607.34704168  4497.21279721
0.45500002 36671.00832548  3511.61592368
0.45600002 36731.15377112  3525.08899448
0.45700002 36788.20364802  4043.75953664
0.45800002 36841.47782514  4058.45738956
0.45900002 36891.81487746  2800.08888191
0.46000002 36939.80271070  3576.14246991
0.46100002 36983.33114022  2562.94496949
0.46200002 37024.40552285  3599.88311960
0.46300002 37061.87091160  2579.50633770
0.46400002 37095.68794241  3104.90922794
0.46500002 37127.19671440  2854.71029067
0.46600002 37154.72919004  3383.49557405
0.46700002 37178.93837757  3914.94239671
0.46800002 37200.68216440  2878.77492574
0.46900002 37218.36981088  3411.06375484
0.47000002 37232.61320548  3156.58109717
0.47100002 37244.09419644  2900.57019350
0.47200002 37252.07821730  3435.94559723
0.47300002 37257.41152089  2649.00208469
0.47400002 37258.19562789  2654.64656431
0.47500002 37256.82806165  2926.15141465
0.47600002 37252.53061834  3998.12803812
0.47700002 37243.94320166  2937.42993954
