# SAXS profile: number of points = 501, q_min = 0, q_max = 0.5, delta_q = 0.001
#    q    intensity    error
0.00000000 1682732.95097188 328.13292544
0.00100000 1682663.62276088 656.23882846
0.00200000 1682455.59183594 757.10504030
0.00300000 1682109.01193621 1312.04507605
0.00400000 1681623.77525293 1387.33966730
0.00500000 1681000.33220373 2269.35053830
0.00600000 1680238.39519056 2469.95054149
0.00700000 1679338.63692756 2821.28902729
0.00800000 1678300.53405628 3398.55872495
0.00900000 1677125.42042544 3270.39470963
0.01000000 1675812.43613273 4147.63595852
0.01100000 1674362.87730837 4822.16529660
0.01200000 1672776.19054270 3914.29645749
0.01300000 1671053.69627011 3860.13420863
0.01400000 1669194.79925408 4882.39500426
0.01500000 1667201.15718581 4001.28295542
0.01600000 1665071.62617459 5519.71268752
0.01700000 1662808.39553912 7183.33259096
0.01800000 1660411.05810835 6151.82324711
0.01900000 1657880.21028622 6963.09719740
0.02000000 1655216.70666293 6256.71943421
0.02100000 1652421.90261272 5998.29177844
0.02200000 1649494.20919345 7397.98186434
0.02300000 1646436.56708830 8890.75786697
0.02400000 1643248.65470806 6778.40100975
0.02500000 1639932.01310372 7035.30865752
0.02600000 1636486.75112532 7290.54880972
0.02700000 1632913.81985789 7544.06219327
0.02800000 1629213.29931169 9213.20163012
0.02900000 1625387.67748524 10971.36732677
0.03000000 1621437.13213283 9047.61961318
0.03100000 1617362.21782373 7763.33900277
0.03200000 1613163.68211935 10380.70877255
0.03300000 1608844.44680623 10666.63917406
0.03400000 1604402.55378122 15161.60483279
0.03500000 1599841.26885725 9503.05757584
0.03600000 1595160.38238181 8853.14053136
0.03700000 1590361.78502322 9971.56885326
0.03800000 1585446.61792415 12057.32208732
0.03900000 1580416.32482822 12327.24790454
0.04000000 1575269.76801133 10656.70047442
0.04100000 1570011.05301071 10880.17710184
0.04200000 1564640.27137935 11101.12324045
0.04300000 1559157.62011022 10290.44077039
0.04400000 1553566.81669756 14681.20709962
0.04500000 1547867.46423058 14952.40039923
0.04600000 1542059.88000560 15220.13172319
0.04700000 1536147.20209648 11060.26036948
0.04800000 1530129.84636182 11246.45489404
0.04900000 1524010.55778292 12573.08768695
0.05000000 1517788.66120110 13933.30055865
0.05100000 1511467.57571795 16505.22669572
0.05200000 1505045.71489965 19144.18238567
0.05300000 1498528.28591949 14565.69561816
0.05400000 1491913.90629088 19693.26448141
0.05500000 1485206.26090179 14970.87980827
0.05600000 1478403.97620816 17696.49642100
0.05700000 1471512.15809757 14082.37201034
0.05800000 1464529.39684606 15553.30292073
0.05900000 1457457.54543364 19675.67778232
0.06000000 1450299.71031760 15924.29156325
0.06100000 1443056.96903786 18788.60261489
0.06200000 1435730.17174143 17637.94598430
0.06300000 1428322.47066840 15083.08599547
0.06400000 1420831.91850798 15238.42303865
0.06500000 1413264.45314195 19587.84623682
0.06600000 1405618.56320502 16951.76066540
0.06700000 1397896.98967172 17110.25995432
0.06800000 1390102.70498656 17265.07640410
0.06900000 1382236.44228637 14513.48332351
0.07000000 1374297.55643567 20490.77752601
0.07100000 1366291.29143988 14755.94663869
0.07200000 1358216.16091945 22308.70148819
0.07300000 1350077.31718271 25475.96016893
0.07400000 1341874.13503743 15096.08472664
0.07500000 1333608.64873824 16723.45323905
0.07600000 1325281.42860547 16837.70133979
0.07700000 1316897.56818315 15407.70227019
0.07800000 1308455.62513935 17055.71987354
0.07900000 1299957.31112951 17159.43731175
0.08000000 1291407.24799675 17259.65867915
0.08100000 1282805.10220535 23667.75524614
0.08200000 1274151.62837527 17449.50736942
0.08300000 1265450.40368548 20728.07858518
0.08400000 1256701.64004641 22432.12532776
0.08500000 1247909.58784107 19317.64132665
0.08600000 1239073.23107414 17786.89706719
0.08700000 1230196.32269890 17862.45144437
0.08800000 1221277.56115660 21195.27306928
0.08900000 1212322.61264806 22912.89845526
0.09000000 1203330.72602921 18068.01170008
0.09100000 1194304.37605342 21425.82151301
0.09200000 1185244.74737961 16534.16500283
0.09300000 1176155.07675006 18242.16609763
0.09400000 1167033.56749288 23282.32076569
0.09500000 1157884.91685739 23342.96102103
0.09600000 1148709.83628708 20056.47468438
0.09700000 1139511.96689276 18425.90937091
0.09800000 1130291.28453208 16784.82636448
0.09900000 1121049.97868446 18497.32551808
0.10000000 1111787.86888144 20212.30440679
0.10100000 1102508.03975775 20242.04856197
0.10200000 1093212.48874578 23646.18724380
0.10300000 1083902.01435380 25363.30832899
0.10400000 1074579.48907892 22002.01607398
0.10500000 1065247.35519537 18631.17711895
0.10600001 1055902.48426121 22031.40637077
0.10700001 1046552.00026800 16954.14320216
0.10800001 1037193.39191723 20349.73530711
0.10900001 1027830.97570013 37310.26617395
0.11000001 1018464.87983396 23740.41746638
0.11100001 1009097.34185828 22038.68698362
0.11200001 999730.45833539 23723.60489314
0.11300001 990363.19305855 22015.77481821
0.11400001 981000.23282920 16922.25481308
0.11500001 971641.74919004 20287.88067840
0.11600001 962288.84761117 20265.80408504
0.11700001 952944.24453366 20240.53670712
0.11800001 943606.51296800 23580.72786968
0.11900001 934280.11164543 16817.04280173
0.12000001 924964.65289992 18466.92016503
0.12100001 915663.85926464 20107.97929670
0.12200001 906376.34553883 18394.90879932
0.12300001 897105.33412567 20023.39200108
0.12400001 887850.78874569 21641.36399536
0.12500001 878614.82615121 19926.98519608
0.12600001 869400.54919731 24843.12186401
0.12700001 860206.78183754 19819.16518754
0.12800001 851034.53499385 16467.51902823
0.12900001 841886.68331255 21341.82842786
0.13000001 832763.98237616 19636.57563000
0.13100001 823666.36288717 21201.17318009
0.13200001 814597.52344109 19501.46563049
0.13300001 805558.27363649 27525.92750781
0.13400001 796547.27925660 20969.10811503
0.13500001 787568.26917045 16066.39344858
0.13600001 778620.52258949 16000.65249366
0.13700001 769707.25942815 23899.41153218
0.13800001 760826.61736186 22208.53000805
0.13900001 751983.99957581 15791.66473580
0.14000001 743176.51695779 18861.82088992
0.14100001 734407.11420414 17207.15949734
0.14200001 725675.20708328 18678.88071132
0.14300001 716985.77141040 17035.58273224
0.14400001 708332.69037736 21568.73143939
0.14500001 699724.98769151 21453.56913463
0.14600001 691157.56439239 18288.03001655
0.14700001 682636.13654551 19700.87983012
0.14800001 674156.93669266 16574.14907054
0.14900001 665722.71351085 23966.01881713
0.15000001 657335.38290359 20844.10597536
0.15100001 648994.87030321 19236.20886345
0.15200001 640703.00688124 16174.54817195
0.15300001 632459.50066500 17531.77818574
0.15400001 624263.48328058 20319.77733969
0.15500001 616119.53315871 17300.63730757
0.15600001 608024.57627208 15750.87739169
0.15700001 599984.46875148 17063.55909664
0.15800001 591991.99625375 14119.00977705
0.15900001 584055.56726787 19624.26798648
0.16000001 576170.26797397 15305.96389121
0.16100001 568342.29330995 16572.86205523
0.16200001 560566.92984857 16447.03449816
0.16300001 552848.10663688 19040.08969142
0.16400001 545184.78005260 13493.32394332
0.16500001 537578.34746349 16062.84178056
0.16600001 530028.31889758 15932.65201829
0.16700001 522535.60538238 14484.68766509
0.16800001 515099.92783205 14363.56216579
0.16900001 507724.86275167 18125.77845610
0.17000001 500407.78786599 16686.09847430
0.17100001 493150.10880946 16540.25543052
0.17200001 485952.28048611 20176.73963859
0.17300001 478814.39355824 19995.29001926
0.17400001 471738.03849553 14859.74891438
0.17500001 464721.93422208 18402.98946432
0.17600001 457765.09828048 12153.66393335
0.17700001 450872.36848609 13242.12208787
0.17800001 444040.39670431 13114.73373610
0.17900001 437270.35137453 14167.56005372
0.18000001 430563.36591957 16365.71431164
0.18100001 423919.84859788 16202.21737875
0.18200001 417336.25061980 12601.46868273
0.18300001 410818.33806831 20409.45599936
0.18400001 404362.03463797 16831.57048694
0.18500001 397970.23144644 13324.04397828
0.18600001 391641.57765659 13182.65612671
0.18700001 385376.18428780 13041.13069242
0.18800001 379173.92113392 13974.45552363
0.18900001 373037.75383624 17010.52237864
0.19000001 366961.37988669 12616.13283660
0.19100001 360953.91568737 12474.56791558
0.19200001 355007.10172071 12332.94729653
0.19300001 349126.49052742 11175.53948986
0.19400001 343309.04381204 14058.50600842
0.19500001 337556.06050132 9924.14864771
0.19600001 331866.43616210 12748.64974762
0.19700001 326241.28033906 9689.36648397
0.19800001 320680.26912125 11486.76778277
0.19900001 315184.15731598 11346.63019962
0.20000001 309749.91365564 14008.44050713
0.20100001 304381.36182005 10145.03126894
0.20200001 299075.13388175 10017.52208283
0.20300001 293833.52325201 11688.69810743
0.20400001 288655.32762781 9763.76691850
0.20500001 283539.85127107 8761.38181840
0.20600001 278488.20306373 8647.05911386
0.20700001 273499.35582297 11093.13439654
0.20800001 268572.97273269 8419.76309317
0.20900001 263711.78137238 8306.92150591
0.21000001 258910.52382330 10652.87400630
0.21100001 254171.95766872 11315.73609034
0.21200001 249495.41879504 8768.51690808
0.21300001 244880.60826566 9432.80147633
0.21400001 240328.30337400 11625.88222535
0.21500001 235838.00106658 12989.95771288
0.21600001 231407.11597216 11298.45297152
0.21700001 227037.95024027 8166.55545625
0.21800001 222729.35634347 8048.32567200
0.21900001 218479.94595625 7209.83855745
0.22000001 214290.38914129 9945.21743028
0.22100001 210162.68422735 7698.25948725
0.22200001 206093.28667769 6893.82076534
0.22300001 202082.77541885 9505.97420520
0.22400001 198129.28976375 10030.29576859
0.22500001 194237.08919246 7901.56516199
0.22600001 190401.12728874 7131.47455983
0.22700001 186623.93493902 8935.55442743
0.22800001 182903.21276698 7539.27078679
0.22900001 179238.91473753 11749.11141667
0.23000001 175631.63683939 8519.89110600
0.23100001 172081.78353589 7186.13562031
0.23200001 168585.74642954 6481.27932801
0.23300001 165146.34720438 8115.29188543
0.23400001 161761.87466350 9123.37016251
0.23500001 158430.61613268 6169.28848399
0.23600001 155154.54332859 5515.74427621
0.23700001 151931.79194875 5966.36175202
0.23800001 148762.45572878 6399.76114815
0.23900001 145646.07006872 6816.23640162
0.24000001 142581.91131569 7216.07087301
0.24100001 139570.87635670 5573.06535654
0.24200001 136610.74010543 5975.35405486
0.24300001 133701.68450421 6361.52644963
0.24400001 130842.87012940 4808.47570471
0.24500001 128034.63351512 5196.92602022
0.24600001 125276.16782771 6962.22335637
0.24700001 122567.82698992 5471.42805566
0.24800001 119907.30756086 5374.24577912
0.24900001 117295.08061673 5278.27887745
0.25000001 114731.24653077 5615.52112711
0.25100001 112214.38204118 5090.04461019
0.25200001 109745.62993919 5414.30090920
0.25300001 107323.34416339 4497.92156669
0.25400001 104946.34430455 5619.87700339
0.25500001 102615.05606932 4334.46017344
0.25600001 100329.22450651 4254.46096649
0.25700001 98087.92454057  4555.20343119
0.25800001 95890.55741847  4470.41799836
0.25900001 93737.31203789  4386.90641094
0.26000001 91627.74791190  4663.39445063
0.26100001 89558.65671540  4575.55198809
0.26200001 87534.42465350  3798.55653757
0.26300001 85550.49205854  3387.79964582
0.26400001 83607.72555819  4985.11087229
0.26500001 81706.57553481  4890.13877715
0.26600001 79844.88263553  3517.56647096
0.26700001 78024.13530101  4077.54150378
0.26800001 76242.47771935  4922.21459448
0.26900001 74499.07288238  3922.37637287
0.27000001 72794.78499255  4142.75140997
0.27100001 71128.28153748  4062.84763369
0.27200001 69499.51645208  3699.80693341
0.27300001 67907.20295478  3628.28202558
0.27400001 66350.28107367  3831.72891334
0.27500001 64831.75862692  4831.26288152
0.27600001 63346.57884416  3158.46057065
0.27700001 61898.17199922  3613.61545233
0.27800001 60483.37834177  4556.21310612
0.27900001 59103.28670579  2978.80579095
0.28000001 57756.52852664  2921.32535114
0.28100001 56442.77509988  3103.78834964
0.28200001 55162.24735752  3044.12876450
0.28300001 53914.05517856  2756.08663117
0.28400001 52697.61730494  2703.38789570
0.28500001 51512.85042370  2209.90138777
0.28600001 50358.19799524  3251.88078946
0.28700001 49234.61902280  2552.32277095
0.28800001 48140.32640523  2504.25989813
0.28900001 47077.13752174  2252.64113704
0.29000001 46041.57740383  2411.65793857
0.29100001 45036.07492485  1972.58017508
0.29200001 44058.08843952  1936.35307857
0.29300001 43107.91626966  2091.16511723
0.29400001 42184.98127229  2240.02261159
0.29500001 41290.05566074  1833.27855812
0.29600001 40420.53041419  1980.80818671
0.29700001 39577.00667407  2299.81996670
0.29800001 38759.72972930  2607.56094098
0.29900001 37967.56674443  2391.95681813
0.30000001 37200.03852150  1679.58181876
0.30100001 36457.90321070  2312.16033108
0.30200001 35738.57040883  1624.31810198
0.30300001 35043.42554516  2077.37436466
0.30400001 34372.03787238  1887.02496853
0.30500001 33722.34276511  1702.64116682
0.30600001 33095.36690562  2438.46674905
0.30700001 32490.87370912  1801.29412371
0.30800001 31907.72980777  1626.81568127
0.30900001 31345.82038775  1457.58071704
0.31000001 30805.50557062  2011.90766407
0.31100001 30284.06584174  1700.75321819
0.31200001 29783.85216124  1398.35192518
0.31300001 29302.73054310  2070.23801089
0.31400001 28842.54166414  2044.21523723
0.31500001 28400.13296830  1750.01627637
0.31600002 27976.56142283  1463.31411451
0.31700002 27570.79318798  1709.66496654
0.31800002 27183.37432889  1300.72452322
0.31900002 26813.79023757  1673.18059005
0.32000002 26461.07366690  2038.56121182
0.32100002 26125.61470304  2018.98759985
0.32200002 25806.77635926  1375.37221119
0.32300002 25503.43659715  1611.30720050
0.32400002 25216.34583658  1475.15630129
0.32500002 24944.26358399  1341.75200172
0.32600002 24687.91848944  1695.31944295
0.32700002 24446.32104655  1443.31086293
0.32800002 24219.95883741  1553.83153279
0.32900002 24006.51595875  1307.15485585
0.33000002 23808.63846172  1300.30885116
0.33100002 23622.03265594  1999.84137935
0.33200002 23451.13966220  1288.52292976
0.33300002 23291.96482370  1166.92749293
0.33400002 23146.28186693  1512.03093456
0.33500002 23012.36303718  1391.78778240
0.33600002 22890.69558670  2198.53696174
0.33700002 22780.07241346  1501.43464387
0.33800002 22682.31462841  1384.07490417
0.33900002 22594.65304645  1267.56009593
0.34000002 22518.57329821  1727.73761813
0.34100002 22452.99862252  1497.39054905
0.34200002 22398.87138151  1843.87517945
0.34300002 22353.32764163  1960.83399359
0.34400002 22318.71556073  1270.49294346
0.34500002 22293.27284963  1157.02091569
0.34600002 22278.35034472  1275.54700940
0.34700002 22270.43923521  1278.76868145
0.34800002 22273.02971555  2215.38700558
0.34900002 22283.71184664  1286.88442009
0.35000002 22302.87261128  1526.52018818
0.35100002 22330.21510974  1532.74603773
0.35200002 22364.73914701  1184.21299392
0.35300002 22407.38690346  1546.78199121
0.35400002 22457.71925010  1315.46096738
0.35500002 22515.05823637  1322.53458344
0.35600002 22578.81749555  1209.09573415
0.35700002 22649.57103549  1216.28202221
0.35800002 22727.36985604  1346.25581719
0.35900002 22810.97532109  1724.50981596
0.36000002 22901.38322294  1736.15394437
0.36100002 22996.84846808  1748.22050335
0.36200002 23099.14474125  2012.39758518
0.36300002 23205.13262830  1520.40036182
0.36400002 23317.23876463  1404.28077112
0.36500002 23433.81032329  1286.51624769
0.36600002 23555.96951653  1815.45865663
0.36700002 23682.32673901  1437.99094771
0.36800002 23814.58951645  1581.76511061
0.36900002 23950.00706067  1462.14800031
0.37000002 24088.79014649  1876.75772921
0.37100002 24231.88901569  2163.42315380
0.37200002 24379.26502143  1364.01994256
0.37300002 24529.57416187  1513.72009323
0.37400002 24684.33765146  1527.34346454
0.37500002 24841.14374361  1681.24868821
0.37600002 25002.14131514  1838.03250585
0.37700002 25164.66219733  1569.52005560
0.37800002 25331.05994136  1584.07790847
0.37900002 25499.73234027  1598.83329348
0.38000002 25670.85280612  1467.08930737
0.38100002 25843.86903145  1777.02451879
0.38200002 26019.16955479  1943.24177026
0.38300002 26196.25196452  1659.79460310
0.38400002 26375.87440144  1523.20681884
0.38500002 26555.99966736  1691.35169894
0.38600002 26738.82040158  2328.28289677
0.38700002 26921.99214765  2193.60402411
0.38800002 27106.54907468  2214.33409882
0.38900002 27292.23951618  2235.23452227
0.39000002 27479.62409006  1772.84803216
0.39100002 27667.01598984  2114.86680246
0.39200002 27855.68047674  2298.92941866
0.39300002 28044.52125811  2154.66067034
0.39400002 28234.75524060  1840.20025999
0.39500002 28424.39599681  2026.09104264
0.39600002 28614.37468333  2044.78331175
0.39700002 28804.14027918  2235.48943298
0.39800002 28995.09089748  2429.49878141
0.39900002 29184.98908618  2801.75908502
0.40000002 29374.58388354  2120.25756517
0.40100002 29563.78950830  2317.50556936
0.40200002 29753.78488287  2338.20129580
0.40300002 29942.10973855  2721.73790419
0.40400002 30129.86672416  2013.42843924
0.40500002 30317.07549983  2030.94098396
0.40600002 30503.72755494  2048.47792101
0.40700002 30689.23591002  1878.18132668
0.40800002 30873.99322830  2651.76740402
0.40900002 31057.04745004  2101.00935954
0.41000002 31239.74505944  2311.11644900
0.41100002 31420.80642199  2524.34770755
0.41200002 31599.92855593  2153.37723348
0.41300002 31778.20577954  3552.16801035
0.41400002 31954.70999958  2188.09887090
0.41500002 32130.22614364  3207.88193018
0.41600002 32302.91596646  2424.65698733
0.41700002 32474.65980988  2443.39351987
0.41800002 32645.46366686  3077.65123303
0.41900002 32812.46426808  2273.90388153
0.42000002 32978.33265071  3332.13088892
0.42100002 33142.71206016  2727.31390466
0.42200002 33304.91958134  2535.83669708
0.42300002 33464.51641087  4469.52102363
0.42400002 33621.92224407  3643.77599586
0.42500002 33777.53005584  2374.22270013
0.42600002 33929.55209119  2825.14428875
0.42700002 34080.48983608  2187.96755116
0.42800002 34228.56098130  2643.12960422
0.42900002 34374.69708129  2438.88487349
0.43000002 34518.29960060  2454.76899242
0.43100002 34657.98010160  2470.42093871
0.43200002 34796.03315468  2486.00270654
0.43300002 34931.01095599  2728.81070519
0.43400002 35063.71720613  2516.69842173
0.43500002 35193.22391072  2761.96434340
0.43600002 35320.98374149  2546.81965337
0.43700002 35444.91263843  2328.73087070
0.43800002 35565.25765607  2341.97232764
0.43900002 35683.93909488  3061.68211943
0.44000002 35798.84805596  2604.90330224
0.44100002 35911.54605193  3095.21630090
0.44200002 36020.91527642  3351.02590697
0.44300002 36127.58620165  2646.70709056
0.44400002 36230.61844310  3143.91206439
0.44500002 36329.81139851  2673.51094752
0.44600002 36426.83677895  2686.66147396
0.44700002 36520.90200932  2945.04567760
0.44800002 36610.73893914  3205.45339973
0.44900002 36698.75445426  2724.88264737
0.45000002 36783.32007236  2986.07006499
0.45100002 36863.38673854  3499.07283505
0.45200002 36941.15978486  2510.15192634
0.45300002 37015.09662948  3781.09229990
0.45400002 37086.43552537  3796.72401685
0.45500002 37154.33946558  4320.30679781
0.45600002 37218.66047711  2806.47322628
0.45700002 37279.70428107  2561.11580549
0.45800002 37336.82779859  2570.64071577
0.45900002 37390.95681597  2837.97375684
0.46000002 37442.46666281  2848.06136169
0.46100002 37489.36837693  3637.21869231
0.46200002 37533.77768373  2867.39308205
0.46300002 37574.42869811  2876.69839747
0.46400002 37611.31139334  3410.40582223
0.46500002 37645.67598686  2894.57616382
0.46600002 37675.86330586  3167.03321959
0.46700002 37702.69908425  3176.07552139
0.46800002 37726.86027564  2654.08474618
0.46900002 37746.90606195  3459.50410455
0.47000002 37763.22879523  3201.56668900
0.47100002 37776.72736963  3744.42939435
0.47200002 37786.58619208  3485.24594262
0.47300002 37793.76543903  2687.13685008
0.47400002 37796.04774342  3500.85908817
0.47500002 37796.16932590  2968.51127956
0.47600002 37793.21382306  2974.51503493
0.47700002 37785.72048607  3251.08354472
