# SAXS profile: number of points = 501, q_min = 0, q_max = 0.5, delta_q = 0.001
#    q    intensity    error
0.00000000 1700912.83420644 382.70538770
0.00100000 1700842.86913050 612.30344743
0.00200000 1700632.92561199 994.87029299
0.00300000 1700283.16237925 1224.20392052
0.00400000 1699793.45490015 1529.81416754
0.00500000 1699164.28335324 2140.94708177
0.00600000 1698395.33848880 1783.31517802
0.00700000 1697487.28534099 2240.68330977
0.00800000 1696439.62037439 3206.27101788
0.00900000 1695253.71023319 2797.16874146
0.01000000 1693928.62785673 3074.48059231
0.01100000 1692465.72232088 4874.30149251
0.01200000 1690864.44161558 3297.18580571
0.01300000 1689126.09826269 3547.16496280
0.01400000 1687250.05054612 4935.20661663
0.01500000 1685238.03852362 6066.85720884
0.01600000 1683088.91202092 6437.81537627
0.01700000 1680804.83122418 5445.80789746
0.01800000 1678385.33312029 5740.07809756
0.01900000 1675831.14906273 7541.24051106
0.02000000 1673142.99343853 5797.44073452
0.02100000 1670322.43872139 6063.27072746
0.02200000 1667367.76868966 5752.41906333
0.02300000 1664281.81719206 7788.83925899
0.02400000 1661064.43181271 9343.48785499
0.02500000 1657717.11705131 6465.09705177
0.02600000 1654239.99984479 8039.60676696
0.02700000 1650634.02911853 8319.19588779
0.02800000 1646899.27645974 7880.41339925
0.02900000 1643038.21320934 8872.40675870
0.03000000 1639051.04480568 9908.06402128
0.03100000 1634938.34316841 13341.09749412
0.03200000 1630700.82521079 15336.74196749
0.03300000 1626341.49139856 9123.77618736
0.03400000 1621858.34345687 8514.75669602
0.03500000 1617254.74162764 10479.81120968
0.03600000 1612530.29828529 9844.49792598
0.03700000 1607687.06045352 9163.81666839
0.03800000 1602726.06339132 9375.94790475
0.03900000 1597648.95736876 10544.48360695
0.04000000 1592454.47959711 9793.59550335
0.04100000 1587146.63322470 10998.92667823
0.04200000 1581725.70786811 14282.98380468
0.04300000 1576191.91457408 12483.44054288
0.04400000 1570548.78597306 11661.32527742
0.04500000 1564796.03396112 14036.22107682
0.04600000 1558934.18191436 14287.63244143
0.04700000 1552966.03365449 11181.35596233
0.04800000 1546892.33446796 12506.62510608
0.04900000 1540715.54087977 13866.44051337
0.05000000 1534435.26566925 12912.27336188
0.05100000 1528054.74260698 20262.00683085
0.05200000 1521572.45482217 19354.40252728
0.05300000 1514993.58253004 18407.17288584
0.05400000 1508316.86167348 14932.33762692
0.05500000 1501545.94731303 16396.88250956
0.05600000 1494679.43042418 15335.41167177
0.05700000 1487722.45815825 12943.18599015
0.05800000 1480673.51192468 17035.14955011
0.05900000 1473534.71182543 15914.17563100
0.06000000 1466309.04808619 18783.41978352
0.06100000 1458997.63322390 13568.67862307
0.06200000 1451601.25877556 23319.97531229
0.06300000 1444123.08204376 18022.65690656
0.06400000 1436561.25266604 16807.76744224
0.06500000 1428921.73625278 19804.85619089
0.06600000 1421202.81298220 17139.70672651
0.06700000 1413407.41276206 17300.10754183
0.06800000 1405538.61440456 16002.05787404
0.06900000 1397597.05656048 23479.63164951
0.07000000 1389582.18550398 16278.95606550
0.07100000 1381499.01222283 16412.20903392
0.07200000 1373346.29982818 19549.58549389
0.07300000 1365129.22984632 22729.40274194
0.07400000 1356847.04674807 18317.43598953
0.07500000 1348501.91312927 19984.79928931
0.07600000 1340094.30058749 20121.51686663
0.07700000 1331629.55601823 17138.07318953
0.07800000 1323105.74794604 23518.20577266
0.07900000 1314525.03634937 17351.73129367
0.08000000 1305892.11323040 19039.90790408
0.08100000 1297206.39913043 27124.58707845
0.08200000 1288468.88500205 20853.86988233
0.08300000 1279682.98124550 19348.80758451
0.08400000 1270848.79129819 17823.65513458
0.08500000 1261970.88116626 16279.42513128
0.08600000 1253048.00352959 21257.96037797
0.08700000 1244084.12364238 19706.29344386
0.08800000 1235077.86245948 18137.11926200
0.08900000 1226035.19021610 21516.91859894
0.09000000 1216954.73091040 18272.57614298
0.09100000 1207839.49932566 20001.82304854
0.09200000 1198690.43140321 21738.25199491
0.09300000 1189511.11409126 21803.73974590
0.09400000 1180299.41923035 21865.04776884
0.09500000 1171060.12690951 21922.24660615
0.09600000 1161793.92319407 23665.74332794
0.09700000 1152504.62293283 20330.18250431
0.09800000 1143192.39468501 23766.97100297
0.09900000 1133858.75901669 17007.88218500
0.10000000 1124504.30138996 22147.11325739
0.10100000 1115131.56192725 17061.51369992
0.10200000 1105742.85799519 29042.33753129
0.10300000 1096339.08241731 17102.89049024
0.10400000 1086922.93204652 18830.94068361
0.10500000 1077497.01074256 17132.20327687
0.10600001 1068057.87748248 25713.49461030
0.10700001 1058612.75776374 20579.43297935
0.10800001 1049159.72131937 17153.76225086
0.10900001 1039702.52502678 25732.63870554
0.11000001 1030241.58101555 20584.22775758
0.11100001 1020778.80975686 18863.99329230
0.11200001 1011316.50675272 23998.54183502
0.11300001 1001853.59532510 22271.20647262
0.11400001 992395.07086726 25678.22366773
0.11500001 982940.76424433 17103.17010321
0.11600001 973492.02472129 17084.78583841
0.11700001 964051.46931066 22182.82535354
0.11800001 954617.80609747 23855.90009795
0.11900001 945195.24331119 22117.56973526
0.12000001 935783.61619183 22079.81546411
0.12100001 926386.81684663 22038.74341099
0.12200001 917002.95309832 18610.57580990
0.12300001 907635.92080737 18570.23181464
0.12400001 898285.12721162 20211.41631457
0.12500001 888953.11037721 20161.45749337
0.12600001 879642.58811636 26811.50734924
0.12700001 870352.67714118 16710.77218863
0.12800001 861084.33331002 28325.37047919
0.12900001 851840.59331587 23255.24929359
0.13000001 842622.02119119 21524.78054590
0.13100001 833428.52626116 33003.77119566
0.13200001 824264.21455573 21377.29341224
0.13300001 815129.21877012 18022.50787664
0.13400001 806023.04411509 17954.16415412
0.13500001 796948.81831504 21135.08365820
0.13600001 787906.08198612 21048.91197273
0.13700001 778897.77999864 17735.50328686
0.13800001 769922.36146667 17658.17019292
0.13900001 760985.27195641 19176.82975765
0.14000001 752083.41890958 17497.22156611
0.14100001 743219.91103972 18996.70182212
0.14200001 734394.18135985 18903.30711978
0.14300001 725611.34261595 23509.80860966
0.14400001 716864.72913247 15591.80859410
0.14500001 708163.94920792 26364.94507270
0.14600001 699503.74122842 24678.49315473
0.14700001 690889.81854602 16871.53016483
0.14800001 682318.45536723 19824.76365600
0.14900001 673792.36084340 18192.39460110
0.15000001 665313.50342045 18083.22187619
0.15100001 656881.56613019 28456.11078746
0.15200001 648499.01660802 20836.27438682
0.15300001 640165.00889081 19224.15612416
0.15400001 631878.77573939 22036.77334385
0.15500001 623644.88976297 16052.62022007
0.15600001 615460.72660613 17392.92095475
0.15700001 607331.45081704 17272.50727644
0.15800001 599250.55372860 21438.18957150
0.15900001 591225.86868439 15608.36366999
0.16000001 583252.81002519 21128.33404047
0.16100001 575337.62695542 13980.70499497
0.16200001 567475.22823752 13874.76998538
0.16300001 559669.90004098 20651.82028644
0.16400001 551920.51594997 15026.03675611
0.16500001 544228.77496233 14906.42684997
0.16600001 536593.56182437 21506.67097332
0.16700001 529016.37207858 19996.81980871
0.16800001 521496.53927600 18507.91305278
0.16900001 514038.02590520 15729.56433542
0.17000001 506637.85688481 14294.78780700
0.17100001 499297.61631814 15458.25493117
0.17200001 492017.72403704 14044.64659587
0.17300001 484798.43125380 17714.53551457
0.17400001 477641.13391669 13791.88839318
0.17500001 470544.59593955 12422.37791948
0.17600001 463507.83742589 17228.58713081
0.17700001 456535.73596749 14627.40567126
0.17800001 449625.01537005 15694.16190276
0.17900001 442776.73301602 15541.46406294
0.18000001 435992.03595139 14204.62120225
0.18100001 429271.51319490 14062.93543655
0.18200001 422611.45331937 16240.95891825
0.18300001 416017.68775520 16074.92421423
0.18400001 409486.18085982 13635.89046680
0.18500001 403019.78243555 14617.52819950
0.18600001 396616.90288486 14462.63604696
0.18700001 390277.99925175 11005.84009887
0.18800001 384002.85589787 14152.42592276
0.18900001 377794.39218501 12920.56882319
0.19000001 371646.47072323 14906.74064503
0.19100001 365567.89962328 17898.20521125
0.19200001 359550.77946286 13531.69422448
0.19300001 353600.53490851 14405.68647288
0.19400001 347713.94884433 11187.69683273
0.19500001 341892.39300484 15077.45524400
0.19600001 336134.97384548 11919.34673583
0.19700001 330442.63929885 10795.56153607
0.19800001 324815.15810129 11634.87951304
0.19900001 319253.05998863 9577.59225230
0.20000001 313753.54877892 10405.63693704
0.20100001 308320.40284755 9342.10864781
0.20200001 302950.39750665 10147.32404408
0.20300001 297645.52976307 10929.54436948
0.20400001 292404.88267466 12588.03079413
0.20500001 287227.42803964 12425.45912431
0.20600001 282114.32298289 9635.61515694
0.20700001 277064.87688883 8644.42456755
0.20800001 272078.56668751 10235.59616262
0.20900001 267158.08618009 15989.41221372
0.21000001 262298.28329824 10792.26337648
0.21100001 257501.90387338 10645.12920936
0.21200001 252768.08697334 8075.94076058
0.21300001 248096.69040543 11945.85620777
0.21400001 243488.51174790 10208.25633764
0.21500001 238942.90178319 8515.92542217
0.21600001 234457.45825217 9921.06781499
0.21700001 230034.33561233 7522.12313017
0.21800001 225672.54620000 9637.34654113
0.21900001 221370.59464279 8766.27596234
0.22000001 217129.11737517 10076.96281385
0.22100001 212950.45031726 7091.25033086
0.22200001 208830.31231330 7683.91170490
0.22300001 204770.03794661 8944.35568045
0.22400001 200767.11150187 6775.89033360
0.22500001 196826.48052299 8006.90160630
0.22600001 192942.65530993 8540.60704116
0.22700001 189118.22968161 8408.19688926
0.22800001 185350.95232525 8276.84716750
0.22900001 181640.71453837 6893.26544272
0.23000001 177988.21693296 6784.02120923
0.23100001 174393.89832921 8496.47112842
0.23200001 170853.86420752 7165.61140375
0.23300001 167371.22772839 8224.62251955
0.23400001 163944.04376761 6356.93059774
0.23500001 160570.84866010 7389.47080483
0.23600001 157253.36381388 7267.46455239
0.23700001 153989.84800887 6596.92540072
0.23800001 150780.57706299 5946.03233772
0.23900001 147624.72674365 5845.93945556
0.24000001 144521.73565668 6791.79928844
0.24100001 141472.49500514 5648.99699276
0.24200001 138474.76679037 7066.36768357
0.24300001 135528.81826488 6944.49697639
0.24400001 132633.68299838 5361.71688884
0.24500001 129789.74780835 7662.78707309
0.24600001 126996.20308732 6587.29336575
0.24700001 124253.38683687 5546.67145079
0.24800001 121559.09685665 6810.34872357
0.24900001 118913.58555618 4905.18563624
0.25000001 116317.04688485 4817.27072463
0.25100001 113768.18374713 5160.52505891
0.25200001 111267.85117659 4644.87666711
0.25300001 108814.58574271 4560.41950423
0.25400001 106407.28609347 7326.14199414
0.25500001 104046.28510037 3995.37753688
0.25600001 101731.32764683 5490.44001287
0.25700001 99461.34390830  4234.06961050
0.25800001 97235.96418983  4533.14086501
0.25900001 95055.19085603  6302.15945194
0.26000001 92918.57044670  5092.86708715
0.26100001 90823.02993709  3926.27976996
0.26200001 88773.10804926  4202.51913390
0.26300001 86763.88908554  3779.43518740
0.26400001 84796.28804101  4381.84839186
0.26500001 82870.82138958  3637.20052290
0.26600001 80985.49658145  4216.51007904
0.26700001 79141.41350408  3817.78196810
0.26800001 77337.19215064  3432.61143604
0.26900001 75571.57736918  3672.77883394
0.27000001 73845.45781107  3001.81800207
0.27100001 72157.77935387  3532.84504435
0.27200001 70508.36182313  3176.04930862
0.27300001 68895.76661140  5380.07066929
0.27400001 67319.05861681  2776.91129936
0.27500001 65781.31102231  4357.35424833
0.27600001 64277.41551907  4273.16278594
0.27700001 62810.55586274  4452.64051584
0.27800001 61377.96521261  3596.13515200
0.27900001 59980.29530427  3274.92427861
0.28000001 58616.59357485  3211.89639695
0.28100001 57286.29029714  2665.53121368
0.28200001 55989.69196028  2376.76253621
0.28300001 54725.71509865  2797.57868825
0.28400001 53494.09201474  2515.55979606
0.28500001 52294.46828100  3365.14919316
0.28600001 51125.47202147  2421.04684217
0.28700001 49987.76594177  2375.41874999
0.28800001 48879.87677042  2118.94275829
0.28900001 47803.62277503  2287.40345806
0.29000001 46755.11455372  3265.37735500
0.29100001 45737.06204042  2203.61175341
0.29200001 44747.17460941  2359.96610061
0.29300001 43785.26167886  2510.20917087
0.29400001 42850.98414585  3223.46543496
0.29500001 41944.96597205  2607.29920824
0.29600001 41065.03470534  3293.00528890
0.29700001 40211.16773193  1797.43928270
0.29800001 39383.86445095  2296.27632551
0.29900001 38582.16502634  2257.05676089
0.30000001 37805.41664709  2048.29757091
0.30100001 37054.49198215  2517.85284938
0.30200001 36326.57044081  2146.35551611
0.30300001 35622.99334235  1624.40857331
0.30400001 34943.64973963  1758.53925640
0.30500001 34286.25209205  1731.11295008
0.30600001 33651.90164342  2169.53820166
0.30700001 33040.21975320  2137.04151481
0.30800001 32450.31404716  1504.07212729
0.30900001 31881.95329141  2075.51525753
0.31000001 31335.32627066  1461.79303973
0.31100001 30807.93866474  1730.17391733
0.31200001 30301.95486241  1564.94453296
0.31300001 29815.49025844  2106.46448649
0.31400001 29350.06867599  2080.18621590
0.31500001 28902.67263835  1917.98144709
0.31600002 28474.40224096  1895.54104693
0.31700002 28064.15286103  1874.12421680
0.31800002 27672.43753166  1853.77667802
0.31900002 27298.84627894  1572.41362012
0.32000002 26942.41094377  1556.73257804
0.32100002 26603.38311839  1541.93215855
0.32200002 26281.12587075  1909.98091309
0.32300002 25974.56321588  1767.30936489
0.32400002 25684.50453419  1752.96751746
0.32500002 25409.61991146  1491.03656701
0.32600002 25150.76899324  1357.00980529
0.32700002 24906.58430679  1225.40400592
0.32800002 24678.09887618  1461.43708465
0.32900002 24462.57125651  1574.16653490
0.33000002 24262.89946364  1927.44482466
0.33100002 24074.51820101  1318.80216950
0.33200002 23902.14145449  1313.30322441
0.33300002 23741.47299348  1308.39263863
0.33400002 23594.59072132  1185.62823989
0.33500002 23459.49603802  2010.00971572
0.33600002 23336.89273936  1297.64798222
0.33700002 23225.44071642  2001.80083015
0.33800002 23126.95320997  1176.00562642
0.33900002 23038.82487180  1527.47416134
0.34000002 22962.21080184  1409.42056576
0.34100002 22896.33891289  1761.87336279
0.34200002 22841.99395288  1175.22064453
0.34300002 22796.33450800  1411.54909959
0.34400002 22761.71899359  1649.08661919
0.34500002 22736.33877680  1770.02405760
0.34600002 22721.64111016  1419.19377095
0.34700002 22713.97050831  1659.93704336
0.34800002 22716.90207006  1545.99884360
0.34900002 22728.02525733  1312.54352078
0.35000002 22747.88690706  2036.04971405
0.35100002 22775.85149528  1563.33452068
0.35200002 22810.94137194  1328.62334314
0.35300002 22854.34629345  1334.92243023
0.35400002 22905.57451882  1585.63847117
0.35500002 22963.71680201  1594.14129590
0.35600002 23028.48873619  1479.81075628
0.35700002 23100.20795126  1488.57747089
0.35800002 23179.07335055  1622.65110676
0.35900002 23263.80718971  1381.87021252
0.36000002 23355.27348220  1391.15693086
0.36100002 23451.97006801  1782.81884902
0.36200002 23555.44684625  2436.92886891
0.36300002 23662.76902043  1679.58342463
0.36400002 23776.12160120  1952.61407899
0.36500002 23894.06709136  1574.14121454
0.36600002 24017.52415244  1586.59772066
0.36700002 24145.34231031  1466.10525453
0.36800002 24278.94635074  1478.22371859
0.36900002 24415.72846858  1897.10219187
0.37000002 24555.92977581  1366.53755676
0.37100002 24700.37995367  2343.07815340
0.37200002 24849.32438692  1390.31976531
0.37300002 25001.00628427  1542.81217089
0.37400002 25157.21672762  1839.62156035
0.37500002 25315.43610858  1998.90692982
0.37600002 25477.93857881  1728.93299386
0.37700002 25641.91305479  2035.45515471
0.37800002 25809.71349699  1907.46696636
0.37900002 25979.80700742  1480.84906957
0.38000002 26152.38075386  1793.53035706
0.38100002 26326.71537616  1961.07712127
0.38200002 26503.48944215  1979.41320276
0.38300002 26681.84591207  2305.31159601
0.38400002 26862.85248600  1551.32980456
0.38500002 27044.35106075  2192.21520084
0.38600002 27228.42832034  2370.91550831
0.38700002 27412.84453745  1914.51315320
0.38800002 27598.57804413  2254.52794723
0.38900002 27785.56447162  2113.09227818
0.39000002 27974.13039327  1968.81939035
0.39100002 28162.59821150  1987.15302395
0.39200002 28352.46693101  1838.51580524
0.39300002 28542.42677939  2698.97200413
0.39400002 28733.72875601  2723.95761512
0.39500002 28924.26425667  1889.91151607
0.39600002 29115.17971922  2600.71355163
0.39700002 29305.86427740  2099.47221630
0.39800002 29497.79328158  2824.70881847
0.39900002 29688.40365329  2493.82602503
0.40000002 29878.72155976  2336.36674306
0.40100002 30068.79823686  2538.40806742
0.40200002 30259.35816887  2743.76743196
0.40300002 30448.36359561  2398.72219771
0.40400002 30636.70446525  2419.53384978
0.40500002 30824.48025506  2628.09531107
0.40600002 31011.55733135  3029.20906365
0.40700002 31197.58308562  2100.22139283
0.40800002 31382.61527509  2310.38824602
0.40900002 31566.01713395  2135.44116029
0.41000002 31748.92937362  2544.51806521
0.41100002 31930.22598031  2762.60328271
0.41200002 32109.36783160  2387.01051770
0.41300002 32287.78728392  3208.11469654
0.41400002 32464.30254651  2020.90292928
0.41500002 32639.82147852  2036.72495677
0.41600002 32812.43098228  2257.65942071
0.41700002 32983.99473364  2068.09656779
0.41800002 33154.56440280  2083.76447145
0.41900002 33321.22703873  2519.08488349
0.42000002 33486.82504834  2114.69310201
0.42100002 33650.78794527  2769.12347123
0.42200002 33812.43650485  3432.63871663
0.42300002 33971.52816422  3240.88394044
0.42400002 34128.31342780  2393.24809253
0.42500002 34283.25742997  2628.84030430
0.42600002 34434.47353641  3087.73938833
0.42700002 34584.63687253  2886.43393016
0.42800002 34731.87095100  2905.49480209
0.42900002 34877.09095220  2474.52972032
0.43000002 35019.66606425  2490.42367017
0.43100002 35158.32834532  3189.56369863
0.43200002 35295.16448954  2750.90525067
0.43300002 35428.95638896  2306.42517022
0.43400002 35560.45248794  3248.44748871
0.43500002 35688.57338226  3501.04921471
0.43600002 35814.85958009  2347.66415673
0.43700002 35937.41244565  2597.19692053
0.43800002 36056.18801114  2611.73010235
0.43900002 36173.27161049  2387.43603943
0.44000002 36286.57969723  3360.50030501
0.44100002 36397.50345379  2654.47005268
0.44200002 36505.11488268  2425.76499891
0.44300002 36609.88236767  2925.86193748
0.44400002 36710.95083391  2695.50169272
0.44500002 36808.26119229  2954.96734856
0.44600002 36903.15229632  3216.66342235
0.44700002 36995.16861683  4226.32826308
0.44800002 37082.71833502  2747.27331805
0.44900002 37168.51235714  3010.64964361
0.45000002 37250.75974770  3528.01962290
0.45100002 37328.52489904  3037.04892972
0.45200002 37403.88704397  3558.23194313
0.45300002 37475.29379754  3062.48115427
0.45400002 37544.10079680  3074.86200099
0.45500002 37609.37479381  3344.22576516
0.45600002 37671.10664502  3615.29627606
0.45700002 37729.36045282  3369.60934174
0.45800002 37783.68284669  2601.40668729
0.45900002 37834.98904571  2610.61436788
0.46000002 37883.54864030  3143.57701516
0.46100002 37927.42404471  2628.37061087
0.46200002 37968.86718173  5273.87590150
0.46300002 38006.45753330  3438.82444060
0.46400002 38040.18010882  3183.96322601
0.46500002 38071.39673356  2927.30983358
0.46600002 38098.31935739  2935.66613722
0.46700002 38121.87308318  2943.77117901
0.46800002 38142.67997476  3220.00519609
0.46900002 38159.35773836  4035.35227209
0.47000002 38172.18957799  3236.23838581
0.47100002 38182.19694372  4054.94950761
0.47200002 38188.48197515  3522.31480192
0.47300002 38192.13173436  3258.55283402
0.47400002 38190.72341720  3265.30700694
0.47500002 38187.21256370  2726.56710628
0.47600002 38180.50914474  3004.99711467
0.47700002 38169.17221885  3010.40275559
