# SAXS profile: number of points = 501, q_min = 0, q_max = 0.5, delta_q = 0.001
#    q    intensity    error
0.00000000 1700912.83420644 433.73277272
0.00100000 1700842.86031103 612.30344425
0.00200000 1700632.89001932 994.87027216
0.00300000 1700283.08194978 1224.20386261
0.00400000 1699793.31680578 1529.81404326
0.00500000 1699164.07677432 1835.09727555
0.00600000 1698395.02122449 2318.30929835
0.00700000 1697486.87415660 2036.98433365
0.00800000 1696439.08285661 2290.19285855
0.00900000 1695253.02408111 3051.45557379
0.01000000 1693927.78805020 2794.98097097
0.01100000 1692464.71329602 3046.43661657
0.01200000 1690863.21454060 3956.62009550
0.01300000 1689124.65148603 3901.87811702
0.01400000 1687248.37529556 4175.93991398
0.01500000 1685236.12672972 4853.48026110
0.01600000 1683086.73203104 4721.05849439
0.01700000 1680802.34539812 4991.98318977
0.01800000 1678382.56593985 6218.40768662
0.01900000 1675828.06191334 7541.22661889
0.02000000 1673139.64610500 5797.42913600
0.02100000 1670318.70229534 6063.25716423
0.02200000 1667363.66210069 8053.36685383
0.02300000 1664277.32765299 7189.67838272
0.02400000 1661059.54638043 7474.76829954
0.02500000 1657711.90214350 10344.12274180
0.02600000 1654234.29250519 9379.50886751
0.02700000 1650627.90241413 9012.42875996
0.02800000 1646892.71460755 9313.17872820
0.02900000 1643031.13072998 9611.73255609
0.03000000 1639043.49173754 8383.70784560
0.03100000 1634930.24726707 10986.73176717
0.03200000 1630692.24771307 10493.50509734
0.03300000 1626332.34875335 9123.72489711
0.03400000 1621848.73944958 11069.11815748
0.03500000 1617244.47948810 10479.74471102
0.03600000 1612519.47457281 8949.48349747
0.03700000 1607675.62582029 10996.50178917
0.03800000 1602714.04208650 12188.64085415
0.03900000 1597636.26171688 13420.14521991
0.04000000 1592441.06089017 10772.86427613
0.04100000 1587132.66145752 12998.61710004
0.04200000 1581711.05893574 12242.44416412
0.04300000 1576176.46675900 13523.59471253
0.04400000 1570532.69218676 11661.20578106
0.04500000 1564779.28088577 11876.67529377
0.04600000 1558916.66341215 13188.43558556
0.04700000 1552947.75491350 13417.46922647
0.04800000 1546873.25258182 18191.23029677
0.04900000 1540695.68196872 15021.78359842
0.05000000 1534414.62890840 14085.92694931
0.05100000 1528033.28268927 14302.39219223
0.05200000 1521550.25271108 15725.22259458
0.05300000 1514970.51146905 13498.38788646
0.05400000 1508292.96033249 17420.78450424
0.05500000 1501521.12318468 13874.05582544
0.05600000 1494653.75191055 20446.86428027
0.05700000 1487695.87588567 18120.13661411
0.05800000 1480646.07983708 19655.57762760
0.05900000 1473506.32410520 17240.02479724
0.06000000 1466279.74616999 20124.69045638
0.06100000 1458967.44210903 14925.23763025
0.06200000 1451570.07512208 15089.07163621
0.06300000 1444090.89940711 15249.60061074
0.06400000 1436528.25005392 19608.61153027
0.06500000 1428887.62106560 28291.97622053
0.06600000 1421167.73332088 24280.65185984
0.06700000 1413371.32243762 15858.02697989
0.06800000 1405501.51712497 17456.32965981
0.06900000 1397558.94208302 17609.24349469
0.07000000 1389542.96825092 19238.22329633
0.07100000 1381458.80917030 16411.73142163
0.07200000 1373304.91967023 18045.22748983
0.07300000 1365086.86771648 16667.71143579
0.07400000 1356803.55224509 16790.44474590
0.07500000 1348457.37038246 16909.65621719
0.07600000 1340048.63929076 17025.31876035
0.07700000 1331582.75504777 23369.27844684
0.07800000 1323057.84718160 20381.70709166
0.07900000 1314476.05170251 15773.71336028
0.08000000 1305841.94918737 20625.77455499
0.08100000 1297155.09009400 20741.51086376
0.08200000 1288416.29497255 22457.09707518
0.08300000 1279629.32069218 22572.66227639
0.08400000 1270794.00436319 30784.98620070
0.08500000 1261914.76605531 19534.44149558
0.08600000 1252990.82255492 21256.99030269
0.08700000 1244025.72792825 21347.48249368
0.08800000 1235018.37520764 24731.24412501
0.08900000 1225974.35875728 16550.65462060
0.09000000 1216892.64620959 23254.81956147
0.09100000 1207776.24725331 16667.31299515
0.09200000 1198626.00484019 23409.16697445
0.09300000 1189445.35835743 16771.18034095
0.09400000 1180232.49294704 21863.80795939
0.09500000 1170991.91860928 21920.96974671
0.09600000 1161724.48030722 20283.71037966
0.09700000 1152433.93645741 23717.09152730
0.09800000 1143120.35393562 16975.33805408
0.09900000 1133785.49330722 18707.46151924
0.10000000 1124429.68450263 22145.64367773
0.10100000 1115055.79040569 25590.53159338
0.10200000 1105665.82723316 22207.29918453
0.10300000 1096260.75392693 22232.16913546
0.10400000 1086843.29313425 22253.11747382
0.10500000 1077415.96079624 20557.09749919
0.10600001 1067975.65096903 25711.51500690
0.10700001 1058529.33451788 17148.17602614
0.10800001 1049074.88625295 18867.61271720
0.10900001 1039616.42888920 29161.24220283
0.11000001 1030154.12307620 20582.48034787
0.11100001 1020690.07252344 20577.11283071
0.11200001 1011226.41061668 20568.34616024
0.11300001 1001762.39167173 17130.13770409
0.11400001 992302.49653095 18828.94075822
0.11500001 982846.87638498 18811.69009981
0.11600001 973396.85462076 17083.11560306
0.11700001 963955.11771104 25593.00958053
0.11800001 954520.04495722 25557.27540743
0.11900001 945096.26156897 20414.08021143
0.12000001 935683.27678910 23775.71318316
0.12100001 926285.26507863 16951.02114947
0.12200001 916900.10707414 23683.53088149
0.12300001 907531.64741030 27008.14309940
0.12400001 898179.60775079 18524.95528271
0.12500001 888846.34919301 20159.03614960
0.12600001 879534.54749055 21781.67409503
0.12700001 870243.30300053 23392.14108704
0.12800001 860973.73741829 19991.81112505
0.12900001 851728.69013390 18269.58126446
0.13000001 842508.93841267 16555.30142014
0.13100001 833314.22190581 18149.58460864
0.13200001 824148.71200385 24662.65136932
0.13300001 815012.46829564 22934.45193904
0.13400001 805904.87395827 19583.48936046
0.13500001 796829.43297051 19506.38543881
0.13600001 787785.48432722 17807.89171287
0.13700001 778775.98678023 22568.92916109
0.13800001 769799.37019244 19260.38115045
0.13900001 760861.03201848 19173.69891106
0.14000001 751958.05197958 19084.69625929
0.14100001 743093.37637535 17410.67862961
0.14200001 734266.55795172 15750.01841092
0.14300001 725482.44137143 20371.54791459
0.14400001 716734.80951305 24942.37254758
0.14500001 708032.81848633 20157.69529319
0.14600001 699371.50997769 21589.59953149
0.14700001 690756.44218037 18401.75248782
0.14800001 682184.05001466 18296.17708458
0.14900001 673656.81602625 19704.46279844
0.15000001 665176.86877011 24106.01086162
0.15100001 656743.85256578 17968.51265404
0.15200001 648360.24401963 16367.85513263
0.15300001 640025.19140672 20698.41566683
0.15400001 631737.97906103 20563.07218883
0.15500001 623503.05193406 18966.96373494
0.15600001 615317.94584694 15939.81213944
0.15700001 607187.73631173 23024.56004763
0.15800001 599105.66256968 18575.27194470
0.15900001 591079.99903946 17023.10477584
0.16000001 583106.13779359 19714.81944939
0.16100001 575189.86167586 13977.11429850
0.16200001 567326.76128785 15258.25396512
0.16300001 559520.46378125 17893.46527644
0.16400001 551770.34260883 19118.84327399
0.16500001 544077.47697085 17611.78876102
0.16600001 536441.54601127 20156.79204304
0.16700001 528863.56729832 17325.57128272
0.16800001 521342.78060448 21145.66417974
0.16900001 513883.50195934 18345.64188619
0.17000001 506482.67106158 20786.04980188
0.17100001 499141.58365014 15453.42415954
0.17200001 491861.07377835 14040.17501402
0.17300001 484641.07157449 12649.13256544
0.17400001 477482.94732718 17547.49914297
0.17500001 470385.77515326 18627.27757579
0.17600001 463348.36384785 15992.46953352
0.17700001 456375.54548819 23151.93251610
0.17800001 449464.41775082 13274.93220527
0.17900001 442615.50673774 14340.74309567
0.18000001 435830.28437859 14199.35133576
0.18100001 429109.09132306 15229.08237042
0.18200001 422448.52951159 13915.45521945
0.18300001 415854.35104809 22955.16126224
0.18400001 409322.21839203 13630.43051637
0.18500001 402855.32800325 17983.46269164
0.18600001 396452.05132101 13344.57667791
0.18700001 390112.92483988 19802.13300042
0.18800001 383837.25070069 14146.32254293
0.18900001 377628.47308411 11838.65319053
0.19000001 371480.19202964 12771.48960542
0.19100001 365401.26592435 12628.26834703
0.19200001 359384.08158087 20808.33930675
0.19300001 353433.39681665 15427.36850003
0.19400001 347546.61629223 14232.03460969
0.19500001 341724.87127053 11051.38285912
0.19600001 335967.31566761 13898.96850598
0.19700001 330274.80863578 13732.82719206
0.19800001 324647.11759812 10659.78861010
0.19900001 319084.95278264 11487.05884305
0.20000001 313585.40326443 12290.98046184
0.20100001 308152.25360499 14939.22196083
0.20200001 302782.11911743 12907.60234803
0.20300001 297477.25175234 10013.08476725
0.20400001 292236.62562611 11682.15966157
0.20500001 287059.28241241 8870.13224581
0.20600001 281946.26607363 11380.76156801
0.20700001 276897.08192069 10367.02723715
0.20800001 271910.80630442 11081.72543477
0.20900001 266990.56942693 10933.26433486
0.21000001 262130.98450919 9126.09065710
0.21100001 257334.76529551 9001.57051557
0.21200001 252601.23297120 8877.67075246
0.21300001 247930.08637525 8754.41176378
0.21400001 243322.22472009 8631.85633003
0.21500001 238777.04865116 8510.01441626
0.21600001 234291.88780610 10676.68183210
0.21700001 229869.36697179 10523.42011751
0.21800001 225507.84981377 8148.72653830
0.21900001 221206.38157109 8029.79203069
0.22000001 216965.40825957 7192.40362388
0.22100001 212787.13915298 8502.97448260
0.22200001 208667.67027377 9073.91407091
0.22300001 204608.09197316 6874.83221538
0.22400001 200605.85710396 11509.76159559
0.22500001 196665.73096801 8667.05917360
0.22600001 192782.72199086 7220.67719362
0.22700001 188958.91361414 7754.87418145
0.22800001 185192.40551079 6361.35943012
0.22900001 181482.90319144 8139.50859306
0.23000001 177831.28481584 7394.22517233
0.23100001 174237.53562447 6669.81317914
0.23200001 170698.52885622 9545.46218508
0.23300001 167216.73715904 8803.96162780
0.23400001 163790.54987111 5773.61715602
0.23500001 160418.35219934 6814.57192373
0.23600001 157101.76558948 9494.44565246
0.23700001 153839.29794342 6041.26951598
0.23800001 150631.07488387 5400.12429001
0.23900001 147476.29664870 7963.72039571
0.24000001 144374.50699016 6784.88027693
0.24100001 141326.35707178 5130.14700437
0.24200001 138329.87190083 6050.54888315
0.24300001 135385.11180191 5450.60485897
0.24400001 132491.14908064 4869.04995904
0.24500001 129648.49413076 5740.83559168
0.24600001 126856.08441968 4700.01815008
0.24700001 124114.77021384 6002.19057148
0.24800001 121421.72635920 7256.16271049
0.24900001 118777.55008648 6235.82167454
0.25000001 116182.48305690 5249.12483284
0.25100001 113635.02807794 4724.94469101
0.25200001 111136.20421013 5482.90489410
0.25300001 108684.41301319 4969.05159805
0.25400001 106278.68489259 6910.77181210
0.25500001 103919.09042111 4389.54258707
0.25600001 101605.76544254 5483.66342038
0.25700001 99337.49750496  4613.23360240
0.25800001 97113.57053546  4150.14863319
0.25900001 94934.55092612  4813.18195969
0.26000001 92799.70160565  3996.41933874
0.26100001 90705.78473571  4634.15876142
0.26200001 88657.58568017  4896.55868881
0.26300001 86650.06893804  4117.61147077
0.26400001 84684.31935018  4039.44222414
0.26500001 82760.67671339  3632.36627283
0.26600001 80877.09885578  4534.77914743
0.26700001 79035.00947576  4130.36979065
0.26800001 77232.59832113  4986.13678356
0.26900001 75468.91013752  3973.43830677
0.27000001 73744.83063764  3897.04575946
0.27100001 72059.07166111  2940.01026290
0.27200001 70411.60011201  3460.02619324
0.27300001 68801.01723417  2827.72194214
0.27400001 67226.39127028  2773.08877113
0.27500001 65690.65200408  2991.55243384
0.27600001 64188.83054684  2667.04603544
0.27700001 62724.04018259  4969.62593886
0.27800001 61293.70655250  3078.17008875
0.27900001 59898.14706752  2515.72229590
0.28000001 58536.57634784  3700.97521475
0.28100001 57208.48727470  3387.88677675
0.28200001 55913.99834180  2610.90427614
0.28300001 54652.33386208  2793.82743926
0.28400001 53422.83364393  2740.59149565
0.28500001 52225.60399392  2464.52636912
0.28600001 51058.76406192  2857.50386598
0.28700001 49923.46081966  2372.36297044
0.28800001 48817.83035555  3386.00487373
0.28900001 47743.89985569  2699.91766464
0.29000001 46697.73736410  2242.19196567
0.29100001 45682.09943103  2200.96365477
0.29200001 44694.55271851  1964.32568496
0.29300001 43735.07803976  2507.33214271
0.29400001 42803.18443805  2651.65740146
0.29500001 41899.60271463  2046.37669345
0.29600001 41021.97886725  2741.29386757
0.29700001 40170.60978370  3052.56478197
0.29800001 39345.89298210  2999.92775243
0.29900001 38546.57457620  2081.51512565
0.30000001 37772.27749132  2387.58577325
0.30100001 37023.82973991  2348.05139326
0.30200001 36298.40081987  1979.71487444
0.30300001 35597.41574202  2110.21490509
0.30400001 34920.61041048  1757.37980210
0.30500001 34265.71910646  2201.91521402
0.30600001 33633.88434678  2013.49258174
0.30700001 33024.82263749  1830.89625370
0.30800001 32437.43867356  1954.51795981
0.30900001 31871.66582511  1630.23578414
0.31000001 31327.56542639  1753.71719560
0.31100001 30802.75185279  1585.72574046
0.31200001 30299.34195211  2133.83125800
0.31300001 29815.48140882  1685.17108901
0.31400001 29352.61984904  1664.29362424
0.31500001 28907.82097762  1644.27693506
0.31600002 28482.17687787  1489.76033213
0.31700002 28074.60205426  1606.99029767
0.31800002 27685.48579787  1324.75055815
0.31900002 27314.40781247  2097.74661932
0.32000002 26960.54807996  1427.96549667
0.32100002 26624.13592382  1543.13499121
0.32200002 26304.48100641  1274.45216511
0.32300002 26000.57615541  1263.62806099
0.32400002 25713.08165808  1504.21534822
0.32500002 25440.85215238  1368.46350208
0.32600002 25184.47713254  1729.41812658
0.32700002 24943.00500526  1349.91549481
0.32800002 24717.09148521  1463.74622707
0.32900002 24504.11567049  2547.20294457
0.33000002 24306.97749925  1689.57808598
0.33100002 24121.18185954  1681.72887888
0.33200002 23951.34588719  1196.36978372
0.33300002 23793.20476696  1788.05942291
0.33400002 23648.85089173  1426.02577630
0.33500002 23516.35259030  1659.31391735
0.33600002 23396.18736670  1300.94506013
0.33700002 23287.33972685  1416.80181608
0.33800002 23191.31460331  1179.27840343
0.33900002 23105.60792457  1296.22466595
0.34000002 23031.57793210  1295.87179372
0.34100002 22968.12750269  1296.09149636
0.34200002 22916.20103559  1650.65403877
0.34300002 22873.01543489  1298.27241757
0.34400002 22840.90492650  1418.42026311
0.34500002 22817.85546709  1894.79480772
0.34600002 22805.53827030  1543.13682014
0.34700002 22800.31876901  1904.28271378
0.34800002 22805.69430976  1193.87815366
0.34900002 22819.11727170  1198.00371350
0.35000002 22841.20156905  1322.84825152
0.35100002 22871.52124608  1328.37801689
0.35200002 22908.91945258  1455.63281096
0.35300002 22954.67223310  1340.78246864
0.35400002 23008.08586897  2082.80707194
0.35500002 23068.48080587  1478.22832006
0.35600002 23135.40088433  1858.35116405
0.35700002 23209.34372266  1370.97599863
0.35800002 23290.41949594  2006.70263882
0.35900002 23377.26642044  1641.08418045
0.36000002 23470.86219649  2160.61032184
0.36100002 23569.71615041  1663.78634186
0.36200002 23675.24454129  1418.02883897
0.36300002 23784.59701101  1688.23077581
0.36400002 23900.01366127  1308.52580994
0.36500002 24019.93617600  1978.04183779
0.36600002 24145.36012325  2259.64363417
0.36700002 24275.09768819  1741.98109262
0.36800002 24410.68752249  1486.24478021
0.36900002 24549.37355090  1907.48641526
0.37000002 24691.40882795  1374.07696636
0.37100002 24837.74483274  1801.73009551
0.37200002 24988.37731956  1398.09977726
0.37300002 25141.90107545  1692.55286058
0.37400002 25299.89220067  2276.99040592
0.37500002 25459.86216639  2010.31081189
0.37600002 25623.95431231  1593.93815350
0.37700002 25789.65554083  1754.72824612
0.37800002 25959.03524039  1918.50259032
0.37900002 26130.67823567  1936.28334899
0.38000002 26304.82998683  2104.64954695
0.38100002 26480.71927572  1669.07981502
0.38200002 26658.97528705  2450.49312447
0.38300002 26838.80144695  1545.91503658
0.38400002 27021.15594454  1560.47182972
0.38500002 27204.11243403  2362.67727683
0.38600002 27389.51719638  2066.95001315
0.38700002 27575.25625786  1925.85598829
0.38800002 27762.33597764  2429.89857156
0.38900002 27950.48635363  2125.63458790
0.39000002 28140.25511813  2145.55385313
0.39100002 28329.93118585  2165.54004244
0.39200002 28520.95894503  2185.70379230
0.39300002 28711.94759339  2036.25141979
0.39400002 28904.34361383  2055.09892831
0.39500002 29095.87046977  1901.12426657
0.39600002 29287.83092858  1918.49945587
0.39700002 29479.43185970  2287.89881503
0.39800002 29672.26508148  2308.65069404
0.39900002 29863.86507342  1971.01518823
0.40000002 30054.95102959  1988.58592909
0.40100002 30245.76934803  2188.58397372
0.40200002 30437.16519412  2575.89741242
0.40300002 30626.76101386  2412.77634699
0.40400002 30815.88841362  2433.68490277
0.40500002 31004.24514545  2076.97448070
0.40600002 31191.99630557  2475.55290409
0.40700002 31378.46717286  2880.54342295
0.40800002 31564.04052085  2711.03556879
0.40900002 31747.90649076  2147.74597586
0.41000002 31931.28133791  3149.70174041
0.41100002 32112.94156795  2183.03787123
0.41200002 32292.49233703  2600.67599359
0.41300002 32471.26013379  3024.69802478
0.41400002 32647.91078604  2845.26555982
0.41500002 32823.73018389  3891.58163500
0.41600002 32996.51596483  2889.50503996
0.41700002 33168.22733438  2703.54233813
0.41800002 33338.93286131  2933.49284147
0.41900002 33505.69802603  3166.28861349
0.42000002 33671.19740187  2338.96983835
0.42100002 33835.18920475  3212.65136722
0.42200002 33996.84020586  3019.93945859
0.42300002 34155.77608809  3910.15343185
0.42400002 34312.42686538  3062.38424285
0.42500002 34467.20245230  3303.68151160
0.42600002 34618.21430445  2660.75607752
0.42700002 34768.06707178  2455.32101296
0.42800002 34915.00440665  2471.45870404
0.42900002 35059.85191767  3844.31294494
0.43000002 35202.06201109  2503.39475855
0.43100002 35340.27918897  2290.05019997
0.43200002 35476.65646247  2304.20894643
0.43300002 35609.98035284  3245.49376315
0.43400002 35740.86650158  3031.71914466
0.43500002 35868.43038017  3049.53409543
0.43600002 35994.10634554  3539.12067414
0.43700002 36115.97171426  2847.38334489
0.43800002 36234.04814269  3579.01827490
0.43900002 36350.44313463  3118.86816875
0.44000002 36462.90216099  2894.42531071
0.44100002 36572.97782731  3637.18281729
0.44200002 36679.73673415  2437.36862149
0.44300002 36783.63006063  2694.76886595
0.44400002 36883.78456403  2954.39128359
0.44500002 36980.03129273  2721.36063180
0.44600002 37073.98728695  3977.29754463
0.44700002 37164.90810973  2497.48194333
0.44800002 37251.36023940  3010.65507723
0.44900002 37336.07676621  2772.20383127
0.45000002 37417.21472133  3796.91204379
0.45100002 37493.72690918  3304.69724639
0.45200002 37567.82574881  3829.10082092
0.45300002 37637.93528720  2819.45786599
0.45400002 37705.49634899  2573.40024778
0.45500002 37769.44180939  2841.77293642
0.45600002 37829.78823281  2852.55531689
0.45700002 37886.65100894  2863.09435244
0.45800002 37939.49257126  3918.20128100
0.45900002 37989.32138372  3407.64228962
0.46000002 38036.37099138  2893.23669658
0.46100002 38078.79895120  3166.63307086
0.46200002 38118.59655298  3971.00498411
0.46300002 38154.61112524  2655.56106018
0.46400002 38186.70155761  3462.57932785
0.46500002 38216.27651993  3472.71321196
0.46600002 38241.50191739  2946.69906991
0.46700002 38263.33672281  4834.95545745
0.46800002 38282.38221968  4039.74857520
0.46900002 38297.34199261  2969.95901229
0.47000002 38308.32658869  4059.72510265
0.47100002 38316.47879802  2712.80682748
0.47200002 38320.91244434  2990.75575347
0.47300002 38322.67489434  2997.21654555
0.47400002 38319.36703080  4095.38254553
0.47500002 38313.87654045  4650.53855490
0.47600002 38305.26741796  3837.03881912
0.47700002 38291.96940371  3294.64120365
