# SAXS profile: number of points = 501, q_min = 0, q_max = 0.5, delta_q = 0.001
#    q    intensity    error
0.00000000 1682732.95097188 277.65093691
0.00100000 1682663.55658161 858.15843424
0.00200000 1682455.32053082 832.81541003
0.00300000 1682108.41147547 1110.19159112
0.00400000 1681622.70442605 1639.58219912
0.00500000 1680998.65988576 1815.47862454
0.00600000 1680235.97768825 2646.37177260
0.00700000 1679335.34767465 2619.76325125
0.00800000 1678296.22051503 2718.83999202
0.00900000 1677119.96866611 3521.95208475
0.01000000 1675805.72058169 3871.11138170
0.01100000 1674354.75357658 3917.99029396
0.01200000 1672766.53012789 4240.46333979
0.01300000 1671042.38649220 4211.02699969
0.01400000 1669181.67620309 5257.92251313
0.01500000 1667186.10438631 4001.24682870
0.01600000 1665054.55661102 4245.88930916
0.01700000 1662789.12137547 6734.29624366
0.01800000 1660389.47371846 5678.53225564
0.01900000 1657856.23893804 5968.28272948
0.02000000 1655190.10469395 7820.77359846
0.02100000 1652392.67469962 5452.89607373
0.02200000 1649462.19802128 6259.70932588
0.02300000 1646401.59108112 7705.15979699
0.02400000 1643210.67190230 8010.65239079
0.02500000 1639890.87575529 7035.13217829
0.02600000 1636442.33299815 9278.62845249
0.02700000 1632866.03363655 8915.44895199
0.02800000 1629162.04157399 7795.54072643
0.02900000 1625332.83306138 9508.19750997
0.03000000 1621378.55502623 9047.29275291
0.03100000 1617299.78396452 10868.25504832
0.03200000 1613097.26014338 11178.76452767
0.03300000 1608773.99470292 9025.22252635
0.03400000 1604328.03658840 8422.72258072
0.03500000 1599762.53629130 12094.20533285
0.03600000 1595077.27367803 13279.01891704
0.03700000 1590274.19695992 12690.38867864
0.03800000 1585354.48951748 10201.75661218
0.03900000 1580319.59854762 10430.10983343
0.04000000 1575168.34004474 10656.01431419
0.04100000 1569904.78723790 10879.44068000
0.04200000 1564529.11531320 13118.57724051
0.04300000 1559041.45287450 12347.60887992
0.04400000 1553445.65689228 12582.91040520
0.04500000 1547741.13426933 11747.35575494
0.04600000 1541928.40857908 13044.71494299
0.04700000 1536010.38266847 12165.20279651
0.04800000 1529987.73175251 14619.03345709
0.04900000 1523863.01009475 11428.97310770
0.05000000 1517635.55276009 15092.88627502
0.05100000 1511308.94034277 14145.85234058
0.05200000 1504881.47796313 14356.56996880
0.05300000 1498358.39862941 15777.71467309
0.05400000 1491738.19080693 13537.52471288
0.05500000 1485024.76358376 18711.31289402
0.05600000 1478216.63140578 17694.25390361
0.05700000 1471318.96676214 15360.57073001
0.05800000 1464330.09006293 15551.18628259
0.05900000 1457252.36962069 18361.38071480
0.06000000 1450088.44802453 13268.30991930
0.06100000 1442839.77135415 14760.25155072
0.06200000 1435506.83210959 21704.86431606
0.06300000 1428093.01280342 21935.50970226
0.06400000 1420596.35541533 23546.38569220
0.06500000 1413022.79548947 20983.38949458
0.06600000 1405370.59424988 14123.97513305
0.06700000 1397642.67103740 14255.95591175
0.06800000 1389842.09673322 18700.32628689
0.06900000 1381969.58460678 15961.74944952
0.07000000 1374024.41531682 16096.69677922
0.07100000 1366011.92916920 19178.80838383
0.07200000 1357930.46294440 16356.27319240
0.07300000 1349785.38981605 20975.66594057
0.07400000 1341575.84365346 16602.00184325
0.07500000 1333304.07304805 19759.56728875
0.07600000 1324970.54406898 16833.75155157
0.07700000 1316580.48048656 18484.79081276
0.07800000 1308132.18627378 21701.91398802
0.07900000 1299627.63836489 17155.08563105
0.08000000 1291071.34731500 20392.47288747
0.08100000 1282462.86649286 18929.15279756
0.08200000 1273803.30449493 25374.16301623
0.08300000 1265095.83970708 23910.31249262
0.08400000 1256340.96080247 17620.18280232
0.08500000 1247542.68642721 16093.30141041
0.08600000 1238700.24567125 21014.55065448
0.08700000 1229817.34619212 17856.94870523
0.08800000 1220892.51699898 17928.80745413
0.08900000 1211931.77664293 21269.40367910
0.09000000 1202933.83676632 16420.04764320
0.09100000 1193901.65166664 21418.59663717
0.09200000 1184836.04016167 18181.30989056
0.09300000 1175740.71527047 19893.53383722
0.09400000 1166613.56817296 18286.66854054
0.09500000 1157459.23684134 18334.15517332
0.09600000 1148278.54047963 16707.45354936
0.09700000 1139075.13758322 28465.48902645
0.09800000 1129849.04687274 18456.08504843
0.09900000 1120602.29128551 16809.03515969
0.10000000 1111334.79446913 20204.06751359
0.10100000 1102049.83714961 18547.49963155
0.10200000 1092748.96548802 16882.97231090
0.10300000 1083433.40175221 23662.18660736
0.10400000 1074105.81584424 16917.16739542
0.10500000 1064768.95183389 16929.82713070
0.10600001 1055419.03758778 20327.37162042
0.10700001 1046063.82794093 25419.35221514
0.10800001 1036700.57387399 20340.06621665
0.10900001 1027333.71916669 22036.30931328
0.11000001 1017963.17377872 25423.63146180
0.11100001 1008591.16315359 16944.33233861
0.11200001 999220.05118884 22017.81486448
0.11300001 989848.64600997 22004.33643678
0.11400001 980481.63712377 20295.97084409
0.11500001 971119.11952990 18587.22082304
0.11600001 961762.32381395 23630.50140890
0.11700001 952413.98685642 30343.91105029
0.11800001 943072.67928073 18517.23292981
0.11900001 933742.65464096 25211.05286279
0.12000001 924423.82815196 18456.12259843
0.12100001 915119.77010204 25120.03887266
0.12200001 905829.04017580 18383.80123645
0.12300001 896555.04729430 25013.88699803
0.12400001 887297.56093521 19964.19606170
0.12500001 878058.91328280 24892.97136454
0.12600001 868841.67499189 24827.15203283
0.12700001 859645.38337103 28058.82663554
0.12800001 850470.70735606 21393.59165181
0.12900001 841320.65819635 24608.63041210
0.13000001 832195.69235296 22893.70457572
0.13100001 823096.15018958 24445.95681295
0.13200001 814025.50907029 22735.73354010
0.13300001 804984.42507631 22652.26278954
0.13400001 795971.86136466 17730.27404780
0.13500001 786991.36595061 17660.08708457
0.13600001 778042.40382894 17587.64936782
0.13700001 769127.64486927 17513.03729947
0.13800001 760245.86929159 20606.46525886
0.13900001 751402.41404474 22091.23201470
0.14000001 742594.20063571 17276.45489256
0.14100001 733824.02055924 15630.45237509
0.14200001 725091.66140099 17108.53855769
0.14300001 716401.86642569 20116.56535808
0.14400001 707748.55669155 20011.59138440
0.14500001 699140.74108076 18373.41954232
0.14600001 690573.30793106 18272.57058985
0.14700001 682052.22998546 18169.87226400
0.14800001 673573.30879002 15054.36416170
0.14900001 665139.60369327 19455.33432595
0.15000001 656752.85049808 22313.17914847
0.15100001 648412.99825158 23654.10729234
0.15200001 640122.11336185 17628.96383384
0.15300001 631879.77338974 17515.70814491
0.15400001 623685.01312368 14500.67723943
0.15500001 615542.33710371 20165.16791517
0.15600001 607448.83869934 17166.50499182
0.15700001 599410.35921928 22729.64189436
0.15800001 591419.74767514 18336.97014215
0.15900001 583485.21033988 28007.29141828
0.16000001 575602.01047034 19461.10489261
0.16100001 567776.22681878 16556.35555557
0.16200001 560003.18388914 19168.90988941
0.16300001 552286.79272582 20379.38361365
0.16400001 544626.10377200 16175.39604566
0.16500001 537022.45991683 17383.41784820
0.16600001 529475.43732651 18568.70446373
0.16700001 521985.63956112 14469.44261181
0.16800001 514553.12591014 19565.88353656
0.16900001 507181.53281205 16813.06860660
0.17000001 499867.87650909 12821.61163789
0.17100001 492613.70420533 16522.26441925
0.17200001 485419.74369642 18894.96441566
0.17300001 478285.74745072 17476.56203717
0.17400001 471213.29694329 16080.15451759
0.17500001 464201.37150577 12254.91678652
0.17600001 457248.72670815 13353.94969421
0.17700001 450360.34018225 14429.54598096
0.17800001 443532.90402781 14290.63084275
0.17900001 436767.42802659 15330.53744785
0.18000001 430065.09163705 15179.14812632
0.18100001 423426.47490070 15027.40630407
0.18200001 416847.87081540 12586.72205384
0.18300001 410335.12279117 14722.82490124
0.18400001 403884.07230006 15690.89695011
0.18500001 397497.58720401 12199.20152761
0.18600001 391174.25818483 10972.43846046
0.18700001 384914.45475367 11940.04695056
0.18800001 378717.89939495 10736.65295511
0.18900001 372587.56409984 18051.86833354
0.19000001 366517.01028394 15751.06926117
0.19100001 360515.52791815 14535.98677249
0.19200001 354574.70378155 11291.43197546
0.19300001 348700.41242971 11161.90072930
0.19400001 342889.18683044 12035.41102647
0.19500001 337142.51695507 11894.38856025
0.19600001 331459.29983479 12733.00960487
0.19700001 325840.84015732 9677.47341001
0.19800001 320286.48460954 15296.88322786
0.19900001 314796.92146252 10388.29889921
0.20000001 309369.56155758 9327.49272179
0.20100001 304007.86269010 12896.01414481
0.20200001 298708.68177496 14553.08766391
0.20300001 293474.13193480 9878.33974782
0.20400001 288303.08385140 8865.32024746
0.20500001 283194.69310177 10500.85971656
0.20600001 278150.28763935 9500.22352338
0.20700001 273168.72844289 11079.72414937
0.20800001 268249.81528367 13455.41137067
0.20900001 263396.08599508 10786.07023137
0.21000001 258602.33350799 9003.24066669
0.21100001 253871.32764532 9687.73032092
0.21200001 249202.37989298 8758.21805538
0.21300001 244595.39402779 10206.96627532
0.21400001 240050.62582445 11612.44957325
0.21500001 235568.14858318 12975.09423739
0.21600001 231145.12917267 8276.15174131
0.21700001 226783.88736713 9640.58350778
0.21800001 222483.04200466 7308.56827541
0.21900001 218241.70351613 7922.17421221
0.22000001 214059.98707069 8515.30668830
0.22100001 209940.37820399 9088.31940218
0.22200001 205879.01923148 7575.31887082
0.22300001 201876.68477350 7461.36262204
0.22400001 197931.11664194 10020.26325382
0.22500001 194047.09467780 7236.01650271
0.22600001 190219.21347270 7772.35743004
0.22700001 186450.12167768 7014.25390921
0.22800001 182737.52031626 8160.14435562
0.22900001 179081.44959583 6796.14133356
0.23000001 175482.28955881 7296.55394492
0.23100001 171940.55812675 7180.23804695
0.23200001 168452.69050246 7653.64835495
0.23300001 165021.45780388 5792.25344286
0.23400001 161645.14656625 8546.98752892
0.23500001 158322.06694213 6165.06157831
0.23600001 155054.06816014 7165.82409894
0.23700001 151839.50221078 6504.80458237
0.23800001 148678.26233059 5863.12755233
0.23900001 145570.05439238 5240.52220600
0.24000001 142513.87258431 6697.43975889
0.24100001 139510.93840547 6077.09676440
0.24200001 136558.76367446 4977.56717138
0.24300001 133657.81242267 5381.06378268
0.24400001 130806.86675541 7210.72887099
0.24500001 128006.60234087 6612.82138974
0.24600001 125256.03425595 5568.88354646
0.24700001 122555.63739558 5926.79090482
0.24800001 119902.89516376 4926.21068085
0.24900001 117298.44995643 7037.90733033
0.25000001 114742.39386532 4752.05646674
0.25100001 112233.24992145 4666.65875251
0.25200001 109772.09361472 4999.02137972
0.25300001 107357.39281705 4908.38023181
0.25400001 104987.91652680 4818.94559657
0.25500001 102664.14931367 4336.53387218
0.25600001 100385.73448713 4643.84429709
0.25700001 98151.79367883  4178.32205460
0.25800001 95961.68366873  4846.54506300
0.25900001 93815.72608712  4024.69483957
0.26000001 91713.29321868  3590.57559940
0.26100001 89651.19506568  4227.95055935
0.26200001 87634.15467350  3802.88432200
0.26300001 85657.11753911  4070.42641806
0.26400001 83721.26670304  3993.50461070
0.26500001 81826.93467664  4244.36330252
0.26600001 79971.87384899  3202.87369921
0.26700001 78157.80516220  5027.11026592
0.26800001 76382.74851174  3698.45285795
0.26900001 74645.81486357  3627.78677404
0.27000001 72947.90471281  3261.86571359
0.27100001 71287.65465000  3490.24373683
0.27200001 69665.07344430  3993.89884957
0.27300001 68078.86760241  4197.06238631
0.27400001 66528.01125823  3293.13671313
0.27500001 65015.38720469  4037.45573649
0.27600001 63536.04165099  3431.89945220
0.27700001 62093.36094480  3366.08125612
0.27800001 60684.26378303  3301.52752737
0.27900001 59309.64234111  2740.10560584
0.28000001 57968.26160056  4398.05221579
0.28100001 56659.94329076  3115.73042902
0.28200001 55384.59449840  3056.39899205
0.28300001 54141.40428718  3690.27829088
0.28400001 52930.06928085  2489.03662574
0.28500001 51750.17504147  2442.09087579
0.28600001 50600.36266139  2396.18028725
0.28700001 49481.38986048  2137.59614315
0.28800001 48391.58559446  3146.66300222
0.28900001 47332.95349545  2676.67864686
0.29000001 46301.68281487  2223.17540559
0.29100001 45300.39793746  2380.98902830
0.29200001 44326.55808431  1948.15232002
0.29300001 43380.37500314  2678.30447947
0.29400001 42461.27020426  1878.91129548
0.29500001 41570.08732273  2030.28316095
0.29600001 40704.22870707  1994.71082221
0.29700001 39864.23053732  1960.12430831
0.29800001 39050.32709326  2802.25160487
0.29900001 38261.41355128  1893.94006045
0.30000001 37497.06820856  1692.99270976
0.30100001 36758.07096904  1665.14069373
0.30200001 36041.61344926  2129.51883146
0.30300001 35349.17978957  1773.11494219
0.30400001 34680.48669002  1586.63234118
0.30500001 34033.40505399  2343.20004890
0.30600001 33408.86881613  1846.17417818
0.30700001 32806.58615312  1818.79722244
0.30800001 32225.60154219  1941.75371285
0.30900001 31665.88444936  1914.20280559
0.31000001 31127.44053215  1742.51420349
0.31100001 30607.80509096  1862.17894990
0.31200001 30109.31358008  1554.99557347
0.31300001 29629.78731844  1395.56304877
0.31400001 29170.93609250  1516.15947519
0.31500001 28730.02717103  2315.06569905
0.31600002 28307.58027733  1615.23060710
0.31700002 27902.99795720  1464.07037214
0.31800002 27516.46943011  1579.99574949
0.31900002 27147.67601463  1433.39736144
0.32000002 26795.72895142  1419.23585111
0.32100002 26460.88420765  1533.67292129
0.32200002 26142.51067846  1646.58611305
0.32300002 25839.56305046  1506.96338846
0.32400002 25552.65896094  1370.26140166
0.32500002 25280.74448259  1359.85131011
0.32600002 25024.44466944  1595.68378991
0.32700002 24782.67059795  1341.23819627
0.32800002 24556.17242706  1211.84716666
0.32900002 24342.34203412  1204.94598775
0.33000002 24144.07633112  1198.75344661
0.33100002 23956.89064498  1908.88513699
0.33200002 23785.38279382  2138.54386826
0.33300002 23625.32536888  1420.35462844
0.33400002 23478.84446630  1297.79318933
0.33500002 23343.90509449  1294.18615973
0.33600002 23221.12586104  1760.74195180
0.33700002 23109.30999535  1523.13469392
0.33800002 23010.26150129  1170.07185275
0.33900002 22921.12313896  1519.67053608
0.34000002 22843.60467318  1635.83060812
0.34100002 22776.45981476  1635.80542137
0.34200002 22720.48908312  1402.76306243
0.34300002 22673.21789524  1520.91952844
0.34400002 22636.68147134  1757.17248243
0.34500002 22609.19240410  1525.44228375
0.34600002 22592.19076940  1528.70066081
0.34700002 22582.03873016  1296.66072530
0.34800002 22582.35451286  1891.49810358
0.34900002 22590.62627521  1660.41110987
0.35000002 22607.35182166  2023.47112063
0.35100002 22632.16311448  1314.47609595
0.35200002 22663.99707739  1800.08805313
0.35300002 22703.92426548  1446.69412272
0.35400002 22751.47030706  2180.72853222
0.35500002 22805.90692224  1339.61903606
0.35600002 22866.62036484  1469.40909424
0.35700002 22934.38670179  1724.20727391
0.35800002 23009.00811598  1610.74568945
0.35900002 23089.46639033  1371.51436855
0.36000002 23176.52832253  1631.51178854
0.36100002 23268.69479760  1768.88626230
0.36200002 23367.52833129  1781.30676907
0.36300002 23470.06247683  1922.19820790
0.36400002 23578.57570601  1807.29791347
0.36500002 23691.56385171  1430.73360878
0.36600002 23810.02324674  1835.03857855
0.36700002 23932.68990597  1717.40990900
0.36800002 24061.13342453  1731.31893757
0.36900002 24192.75316904  1611.23743738
0.37000002 24327.55000354  2030.74233274
0.37100002 24466.69990484  1638.29030323
0.37200002 24610.01559023  1790.00956875
0.37300002 24756.25944986  1805.47408720
0.37400002 24906.91692815  1681.21697229
0.37500002 25059.62988900  1837.37215050
0.37600002 25216.37621099  1568.58475651
0.37700002 25374.75869376  1438.74888609
0.37800002 25536.76935401  1451.76540655
0.37900002 25701.03663877  1611.45507359
0.38000002 25867.89084545  1774.02003822
0.38100002 26036.51614053  1491.89244553
0.38200002 26207.41958964  1957.30122478
0.38300002 26379.94787927  1975.33059078
0.38400002 26555.06826108  1840.26631767
0.38500002 26730.67621368  1547.70622609
0.38600002 26908.96216168  2030.68492573
0.38700002 27087.55744932  2049.44469371
0.38800002 27267.48168666  1591.05763179
0.38900002 27448.58970470  1926.89108856
0.39000002 27631.33849540  1782.63588749
0.39100002 27814.06420138  1799.01375778
0.39200002 27998.06468501  1650.48599138
0.39300002 28182.26132765  1832.12889571
0.39400002 28367.85761743  2185.03433650
0.39500002 28552.73096210  2374.44521930
0.39600002 28738.00519269  2053.61794837
0.39700002 28923.07374377  1726.70758431
0.39800002 29109.33084541  2613.29030046
0.39900002 29294.42059279  2636.49797826
0.40000002 29479.32765857  2127.81797121
0.40100002 29663.81418000  1967.60088778
0.40200002 29849.07792106  2706.56526873
0.40300002 30032.68309174  2911.96909054
0.40400002 30215.77984864  1835.60871278
0.40500002 30398.23948811  2776.87930881
0.40600002 30580.20737920  2240.30609875
0.40700002 30761.04447308  1882.57601095
0.40800002 30941.16406564  3037.18480859
0.40900002 31119.52182060  2679.39095571
0.41000002 31297.57345822  2508.34414366
0.41100002 31474.01443550  2528.62243956
0.41200002 31648.50746570  3137.00020864
0.41300002 31822.25453008  2371.39451994
0.41400002 31994.15250393  3186.61774038
0.41500002 32165.22947080  2809.95457971
0.41600002 32333.41148884  2224.70048290
0.41700002 32500.64229516  2037.79036846
0.41800002 32666.98430322  2258.43206682
0.41900002 32829.52556190  2481.91225008
0.42000002 32990.96119445  2291.71722796
0.42100002 33151.05562130  3147.69288040
0.42200002 33308.88139006  2747.48321165
0.42300002 33464.16307981  2341.15296000
0.42400002 33617.26443511  2357.41078022
0.42500002 33768.69493766  3020.94759227
0.42600002 33916.50012954  2389.58712986
0.42700002 34063.30356174  3280.29628844
0.42800002 34207.29359661  2421.36339198
0.42900002 34349.38634939  2215.53552452
0.43000002 34488.89828956  3121.59033211
0.43100002 34624.60091734  2243.67424577
0.43200002 34758.70308394  2709.09344674
0.43300002 34889.80979280  2952.72474269
0.43400002 35018.65874560  2513.46435057
0.43500002 35144.37711368  3677.50779545
0.43600002 35268.31833185  3467.75756431
0.43700002 35388.55133226  2790.03351925
0.43800002 35505.26097119  2571.82370033
0.43900002 35620.38989152  2586.04042868
0.44000002 35731.74627616  3545.48269227
0.44100002 35840.87500856  2851.50015081
0.44200002 35946.86587357  2627.53628555
0.44300002 36050.11942224  2881.12568076
0.44400002 36149.84149442  3136.90264434
0.44500002 36245.77065111  2667.32638862
0.44600002 36339.53543094  2923.87915934
0.44700002 36430.41409355  3427.37352035
0.44800002 36517.11747463  2705.37077632
0.44900002 36602.14042429  2717.70905530
0.45000002 36683.68987798  2729.81691164
0.45100002 36760.83801252  3738.57740305
0.45200002 36835.76314637  3253.88729174
0.45300002 36906.82727587  3016.02606792
0.45400002 36975.46891814  3785.36380989
0.45500002 37040.68462758  4053.73271776
0.45600002 37102.38922061  3052.04268193
0.45700002 37160.85965452  3318.83653304
0.45800002 37215.44462073  3074.74018029
0.45900002 37267.10992849  2828.57377763
0.46000002 37316.21287786  3354.54111564
0.46100002 37360.85580617  3365.83965910
0.46200002 37403.00757921  2857.40289944
0.46300002 37441.47130984  2866.51917934
0.46400002 37476.19533718  3136.75769839
0.46500002 37508.49555986  3146.21275668
0.46600002 37536.68632855  3155.33400233
0.46700002 37561.59972981  3164.18931121
0.46800002 37583.87912190  3437.23382800
0.46900002 37602.16471988  3446.23855992
0.47000002 37616.73898356  3454.90955570
0.47100002 37628.54051763  4262.56127187
0.47200002 37636.75996622  3204.39389540
0.47300002 37642.36330352  3211.64658928
0.47400002 37643.20375118  2950.28623383
0.47500002 37641.87987049  3493.91945518
0.47600002 37637.56990866  4039.45238191
0.47700002 37628.78821207  3237.58109122
