# SAXS profile: number of points = 501, q_min = 0, q_max = 0.5, delta_q = 0.001
#    q    intensity    error
0.00000000 1700912.83420644 280.65061764
0.00100000 1700842.89661058 663.32874543
0.00200000 1700633.03684726 1147.92733622
0.00300000 1700283.41044865 1530.25512392
0.00400000 1699793.90040019 1402.33002112
0.00500000 1699164.97125862 1835.09824159
0.00600000 1698396.32858509 1783.31621762
0.00700000 1697488.65411209 2240.68511655
0.00800000 1696441.40564431 2290.19599431
0.00900000 1695255.95501847 2542.88404123
0.01000000 1693931.40342655 2794.98693634
0.01100000 1692469.06294900 3960.37777973
0.01200000 1690868.42273840 3626.91292579
0.01300000 1689130.76714870 4256.60972095
0.01400000 1687255.46601288 4175.95746351
0.01500000 1685244.26031720 6066.87960729
0.01600000 1683095.95137498 5150.27384144
0.01700000 1680812.81232342 5445.83375622
0.01800000 1678394.26564171 7653.47819571
0.01900000 1675841.09280087 6535.78055683
0.02000000 1673154.00962275 5797.47890560
0.02100000 1670334.58105786 7716.94611436
0.02200000 1667381.10078206 6902.95807086
0.02300000 1664296.35935703 7189.76059969
0.02400000 1661080.25226080 6851.95635301
0.02500000 1657734.27243889 7758.19674934
0.02600000 1654258.50817606 7369.72199100
0.02700000 1650654.00585800 6932.74714213
0.02800000 1646920.70301392 9313.33700265
0.02900000 1643061.15042904 11830.04082626
0.03000000 1639075.55627385 9146.04202441
0.03100000 1634964.49736836 7847.82994847
0.03200000 1630728.68328258 9686.52882484
0.03300000 1626371.07198414 14100.63784415
0.03400000 1621889.69603171 9366.41342675
0.03500000 1617287.95360350 12226.69749385
0.03600000 1612565.32415062 11634.65935143
0.03700000 1607724.02611616 13746.04105901
0.03800000 1602764.99804785 10313.79323976
0.03900000 1597689.95231752 11503.36818941
0.04000000 1592497.54721872 11752.63244308
0.04100000 1587191.80130752 9999.30881187
0.04200000 1581772.99982584 12242.92358664
0.04300000 1576241.43410692 10403.19394800
0.04400000 1570600.55871772 13782.02054281
0.04500000 1564850.07479333 12956.95922133
0.04600000 1558990.50940178 14288.14868288
0.04700000 1553024.77266030 15654.49043647
0.04800000 1546953.43854878 13644.12996284
0.04900000 1540779.22242399 15022.59811790
0.05000000 1534501.33560121 12912.82934038
0.05100000 1528123.44137799 13111.29973780
0.05200000 1521643.70220741 13306.77479592
0.05300000 1515067.38431678 13499.25102357
0.05400000 1508393.29903560 14933.09435684
0.05500000 1501625.09757695 12613.65140806
0.05600000 1494761.29033534 16614.27251737
0.05700000 1487807.12838712 16827.09940752
0.05800000 1480761.09206577 17036.15715968
0.05900000 1473625.04249649 15915.15120229
0.06000000 1466402.22153492 17442.85524007
0.06100000 1459093.74127756 16283.48691361
0.06200000 1451700.31115891 19205.99601439
0.06300000 1444225.00349793 18023.92888637
0.06400000 1436666.10931138 15408.24474296
0.06500000 1429029.72395948 15562.13442188
0.06600000 1421313.91249977 19997.88768454
0.06700000 1413521.57140517 15859.71277338
0.06800000 1405655.95784160 21822.80976700
0.06900000 1397717.43740867 23481.65404785
0.07000000 1389705.73398214 20720.51346398
0.07100000 1381625.66849969 20890.18108616
0.07200000 1373476.34824411 21055.39340496
0.07300000 1365262.53838385 15154.41488613
0.07400000 1356983.59836336 21372.49267583
0.07500000 1348641.77268573 16911.96862218
0.07600000 1340237.52796946 20123.66742587
0.07700000 1331775.93143194 15581.77912836
0.07800000 1323255.55573642 17248.63697792
0.07900000 1314678.35609530 17353.75511441
0.08000000 1306048.67145208 17455.34131281
0.08100000 1297366.54130850 22340.65288952
0.08200000 1288632.37218564 17647.82116521
0.08300000 1279849.86229500 17738.71992392
0.08400000 1271019.18506071 19446.59444423
0.08500000 1262144.74264554 24422.50191671
0.08600000 1253225.47130836 19625.51180214
0.08700000 1244265.01024321 16424.29890646
0.08800000 1235262.19147863 18139.82613378
0.08900000 1226223.06557535 16554.01216280
0.09000000 1217146.26040840 24921.07085254
0.09100000 1208034.58874975 18337.96591876
0.09200000 1198889.00799647 18396.95269212
0.09300000 1189713.25023088 20129.94913986
0.09400000 1180505.18047456 26915.51937978
0.09500000 1171269.40440851 25299.42032436
0.09600000 1162006.89453552 18597.92122129
0.09700000 1152721.03724148 27112.00007053
0.09800000 1143412.40404010 20375.60999801
0.09900000 1134082.45599590 18712.36140383
0.10000000 1124731.40890394 20447.61797547
0.10100000 1115362.31099878 17065.04416088
0.10200000 1105977.37459267 27339.76198589
0.10300000 1096577.11417956 20527.92454309
0.10400000 1087164.56108638 25684.26396398
0.10500000 1077742.24617071 23990.54352850
0.10600001 1068306.70363721 18860.95574019
0.10700001 1058865.03212385 20584.33719314
0.10800001 1049415.63834447 24021.12509218
0.10900001 1039961.93756720 17159.37277748
0.11000001 1030504.58029699 27452.64331130
0.11100001 1021045.33986432 27445.70002751
0.11200001 1011586.53472000 24004.94959899
0.11300001 1002127.15545994 17136.37516516
0.11400001 992672.11864388 20548.31382343
0.11500001 983221.38547674 18818.85820417
0.11600001 973776.04562914 17089.77040557
0.11700001 964338.89293591 18775.67912970
0.11800001 954908.74160040 28976.70712862
0.11900001 945489.60810385 25528.22062122
0.12000001 936081.36570005 23785.82862287
0.12100001 926687.98170930 25437.58629624
0.12200001 917307.46563650 23694.05295365
0.12300001 907943.80238672 20265.30662406
0.12400001 898596.38310601 18533.55127482
0.12500001 889267.53840284 23530.02017489
0.12600001 879960.39450228 18439.57093573
0.12700001 870673.73673682 21732.01749310
0.12800001 861408.72023801 21668.73737882
0.12900001 852168.00492144 18279.00456709
0.13000001 842952.69694107 21533.22765833
0.13100001 833762.33908963 18159.34460136
0.13200001 824601.05040785 18095.87090425
0.13300001 815469.23113408 21308.21201407
0.13400001 806366.11400343 19594.69749409
0.13500001 797294.91311155 21144.26209263
0.13600001 788255.01241917 17818.50539589
0.13700001 779249.74661216 16130.47051548
0.13800001 770277.28360320 19272.33854455
0.13900001 761343.01822008 19185.84496392
0.14000001 752443.82100408 19097.02507771
0.14100001 743583.34767905 22173.65647356
0.14200001 734760.37395778 17336.67184122
0.14300001 725980.18141761 17249.28992409
0.14400001 717236.33307426 23399.83647032
0.14500001 708538.06697920 18620.38127858
0.14600001 699880.60256654 18518.84161752
0.14700001 691269.20850788 15346.17715285
0.14800001 682700.37614762 16784.18953944
0.14900001 674176.66364128 21236.56590666
0.15000001 665700.17096520 16585.92054217
0.15100001 657270.81039033 16484.35270240
0.15200001 648890.41782906 17870.44295027
0.15300001 640558.72822982 19235.97951647
0.15400001 632274.71989996 14700.38793140
0.15500001 624043.07060611 21903.91281199
0.15600001 615861.02561731 17404.23340534
0.15700001 607733.73289778 14403.29014947
0.15800001 599654.78311700 17162.12070284
0.15900001 591632.27661003 14199.17530885
0.16000001 583661.10781074 16914.49970276
0.16100001 575747.72535903 16788.80446397
0.16200001 567887.09132689 16661.80804607
0.16300001 560083.65911365 19289.28213048
0.16400001 552335.93717699 19138.44112670
0.16500001 544645.73741089 24411.02310323
0.16600001 537012.20725707 20178.23464036
0.16700001 529436.51699301 14675.98094397
0.16800001 521918.22174390 14553.69030050
0.16900001 514461.09588946 20990.01370340
0.17000001 507062.18449751 20809.83303441
0.17100001 499723.31199442 19339.29308741
0.17200001 492444.50758554 17890.50980542
0.17300001 485226.36992938 17730.17239452
0.17400001 478070.29719374 15059.21507279
0.17500001 470974.67076174 16163.85146392
0.17600001 463939.10515934 13549.34220610
0.17700001 456967.84396041 13421.14621101
0.17800001 450057.97050248 14500.86849450
0.17900001 443210.40455194 17950.02223220
0.18000001 436426.45588590 16588.57037178
0.18100001 429706.62636509 12904.09059929
0.18200001 423047.05335402 11612.64216312
0.18300001 416453.80040445 13792.95052096
0.18400001 409922.80541572 14787.96590397
0.18500001 403456.82909920 12382.09067001
0.18600001 397054.35647373 17819.80036041
0.18700001 390715.57735064 13221.81576221
0.18800001 384440.61046393 14168.55936806
0.18900001 378232.25400796 14013.50567310
0.19000001 372084.36754302 12792.26116055
0.19100001 366005.87156952 11595.06655919
0.19200001 359988.53942178 11463.83557957
0.19300001 354038.18448434 11332.76282085
0.19400001 348151.37904025 14256.79964539
0.19500001 342329.57147245 12077.38785227
0.19600001 336571.68388466 10940.26310167
0.19700001 330878.93164798 11792.52568122
0.19800001 325250.86537435 10679.61266927
0.19900001 319688.33998119 15345.04104430
0.20000001 314188.04665834 12314.60107078
0.20100001 308754.23883004 11226.30465444
0.20200001 303383.38399049 12009.43182287
0.20300001 298077.58408885 12769.64430592
0.20400001 292835.85007976 11706.11366024
0.20500001 287657.55629714 11555.20458263
0.20600001 282543.40486330 11404.86507639
0.20700001 277492.87430165 10389.33370495
0.20800001 272505.16917932 15377.46742368
0.20900001 267583.35786528 10957.53902256
0.21000001 262722.30094313 9146.67733972
0.21100001 257924.45748157 8201.99813565
0.21200001 253189.12897727 8089.39305325
0.21300001 248516.06515917 8775.10267562
0.21400001 243906.36983316 11798.97119849
0.21500001 239358.97061558 9306.27721751
0.21600001 234871.71137767 8409.58202347
0.21700001 230446.81878967 9796.29472991
0.21800001 226083.00050428 8912.19230125
0.21900001 221779.04532119 9514.32149413
0.22000001 217535.44823905 7932.43049510
0.22100001 213354.61951584 12078.00558188
0.22200001 209232.33467369 9098.46850350
0.22300001 205169.65953616 6893.70088639
0.22400001 201164.47063854 7468.23132560
0.22500001 197221.38871594 6685.80539362
0.22600001 193335.15011018 10532.89947608
0.22700001 189508.16493441 10369.88727559
0.22800001 185738.23206627 7656.13028783
0.22900001 182025.30208936 8163.83518478
0.23000001 178370.03799772 6798.57431980
0.23100001 174772.83529743 6690.30445159
0.23200001 171229.93928848 8976.72999174
0.23300001 167744.27069500 8242.95385180
0.23400001 164314.20038855 7529.69858893
0.23500001 160937.87962654 5697.20120824
0.23600001 157617.22932519 6163.62204428
0.23700001 154350.58510359 6612.37937859
0.23800001 151137.98141277 6501.95626791
0.23900001 147978.81858209 6925.40903721
0.24000001 144872.39876778 5760.85120949
0.24100001 141819.68969715 5148.05497952
0.24200001 138818.52710479 6071.92266278
0.24300001 135868.99422730 5967.36650874
0.24400001 132970.22434849 6841.31836635
0.24500001 130122.56794190 6722.13217786
0.24600001 127325.17925235 6132.61754879
0.24700001 124578.69412340 5097.76040468
0.24800001 121880.46562373 5462.68272768
0.24900001 119231.13165237 6259.63470788
0.25000001 116630.58855338 4391.14186677
0.25100001 114077.71036680 5174.56518704
0.25200001 111573.25959705 5927.88756284
0.25300001 109115.92112889 4988.78015003
0.25400001 106704.40014280 4489.58784842
0.25500001 104339.15308452 5208.61076841
0.25600001 102019.98188488 5899.30573160
0.25700001 99745.64085222  4632.18778034
0.25800001 97515.89120416  3788.49255253
0.25900001 95330.62069387  3717.89438297
0.26000001 93189.61885897  4013.21112605
0.26100001 91089.57946852  3937.80270675
0.26200001 89034.99700856  5268.64619728
0.26300001 87021.23220891  5513.66553365
0.26400001 85049.02952825  5071.04862557
0.26500001 83118.89007037  4311.37703196
0.26600001 81228.77914030  3903.85531021
0.26700001 79379.96059965  3829.28948053
0.26800001 77570.87171314  4381.97875043
0.26900001 75800.48870661  3069.91993789
0.27000001 74069.58260890  3914.20727820
0.27100001 72376.92325645  3838.87219119
0.27200001 70722.58671812  3475.30807579
0.27300001 69105.03278902  3408.26037845
0.27400001 67523.34722447  3342.40584579
0.27500001 65980.51785289  3004.75292522
0.27600001 64471.56602584  2946.67306467
0.27700001 62999.62996054  2889.79316305
0.27800001 61561.98137275  2834.00594662
0.27900001 60159.07911716  3537.35401950
0.28000001 58790.25808022  3221.41234397
0.28100001 57454.76918060  3159.43790677
0.28200001 56152.90028493  2622.05980291
0.28300001 54883.79196728  3039.46454301
0.28400001 53646.81507878  3440.10217975
0.28500001 52441.95244632  3374.63979965
0.28600001 51267.54541747  3752.01548897
0.28700001 50124.68919209  2165.38667559
0.28800001 49011.37021396  2337.10729928
0.28900001 47929.76617327  2501.93391267
0.29000001 46875.92214404  2250.74750828
0.29100001 45852.56034600  2410.01068586
0.29200001 44857.14918336  2168.61897992
0.29300001 43889.90729571  1935.54500336
0.29400001 42950.26500948  2850.82397495
0.29500001 42038.90695461  2613.13858000
0.29600001 41153.34926225  2016.71997606
0.29700001 40294.11291325  1981.26162573
0.29800001 39461.50911301  1769.84876750
0.29900001 38654.33320463  1913.38958421
0.30000001 37872.13428486  2222.90502708
0.30100001 37115.68955837  2353.87714322
0.30200001 36382.40030378  2480.37025813
0.30300001 35673.43145902  1952.05026185
0.30400001 34988.62508604  1920.87560816
0.30500001 34325.81825973  2678.44372561
0.30600001 33686.05093893  2016.61553493
0.30700001 33069.07547525  2138.90790300
0.30800001 32473.71801241  1505.15690113
0.30900001 31899.89203387  1631.67955478
0.31000001 31348.01947263  2047.33924869
0.31100001 30815.19032605  1730.58117065
0.31200001 30303.83657154  1565.04171384
0.31300001 29812.03658007  2106.22048410
0.31400001 29341.26090723  3050.02421572
0.31500001 28888.59716183  1369.31957030
0.31600002 28454.98311295  1623.64141330
0.31700002 28039.54007675  1604.98334999
0.31800002 27642.57538441  1587.23675373
0.31900002 27263.72055558  1832.12210808
0.32000002 26902.07330924  1554.40186941
0.32100002 26557.83035111  2052.38922671
0.32200002 26230.44788277  1525.03831212
0.32300002 25918.75926055  1511.58211165
0.32400002 25623.58531197  1374.06482742
0.32500002 25343.64718746  1611.09572799
0.32600002 25079.66323129  1353.17329372
0.32700002 24830.60541524  1465.99901313
0.32800002 24597.00248654  1699.40698227
0.32900002 24376.62363726  1206.64292718
0.33000002 24171.94481271  1440.16454014
0.33100002 23978.70992930  1432.96777323
0.33200002 23801.45215722  1545.54736902
0.33300002 23635.92450152  1302.57586096
0.33400002 23484.28116981  1416.10222160
0.33500002 23344.59659021  1294.22449625
0.33600002 23217.13981738  1525.71441535
0.33700002 23101.07582126  1522.59197948
0.33800002 22997.97921784  1286.39202847
0.33900002 22905.23597336  1284.98379896
0.34000002 22824.14154183  1167.45489515
0.34100002 22753.77058085  1400.72218329
0.34200002 22694.99901454  1751.48663190
0.34300002 22644.92194050  1285.32583021
0.34400002 22606.04530339  1169.86289986
0.34500002 22576.27040229  1288.87933831
0.34600002 22557.32222921  1643.75214869
0.34700002 22545.44503591  1176.87228661
0.34800002 22544.32059444  1416.23428682
0.34900002 22551.35812273  1539.13026477
0.35000002 22567.06482585  1306.97162129
0.35100002 22591.11873439  1431.37335080
0.35200002 22622.24624548  1796.77199315
0.35300002 22661.77508760  1203.34031415
0.35400002 22709.18052571  1209.26392027
0.35500002 22763.56305764  1580.24662231
0.35600002 22824.62812815  1833.38834123
0.35700002 22892.69854336  1598.13936101
0.35800002 22967.96417637  1484.18991538
0.35900002 23049.16620892  1493.58604108
0.36000002 23137.16213205  1252.87738879
0.36100002 23230.46627390  1387.55581626
0.36200002 23330.60404272  1524.42174036
0.36300002 23434.62163314  1663.38952231
0.36400002 23544.72523962  1933.61065189
0.36500002 23659.54703532  1818.47287127
0.36600002 23779.90935811  1439.99247939
0.36700002 23904.61788577  1847.34895772
0.36800002 24035.29061565  1729.45941817
0.36900002 24169.27613667  1475.53437804
0.37000002 24306.59182501  1893.72665879
0.37100002 24448.29841327  2182.74418573
0.37200002 24594.46613461  2064.09066812
0.37300002 24743.56908205  1943.36000776
0.37400002 24897.17654012  1820.60612074
0.37500002 25052.95911066  2260.77913724
0.37600002 25212.99177369  1853.53317805
0.37700002 25374.63575250  1726.49029839
0.37800002 25540.08788035  1742.34487774
0.37900002 25707.98066143  1611.89046383
0.38000002 25878.41010085  1922.63656952
0.38100002 26050.72387853  1940.51851364
0.38200002 26225.45042746  2109.31307781
0.38300002 26401.91285604  2129.05035357
0.38400002 26580.95226228  2916.59512515
0.38500002 26760.71819400  1859.33478820
0.38600002 26943.01027834  1720.44600283
0.38700002 27125.92858866  2368.09367798
0.38800002 27310.00022367  1912.24630625
0.38900002 27495.42970439  1769.33098530
0.39000002 27682.62010657  1623.58574617
0.39100002 27869.71651838  1802.61334981
0.39200002 28058.29225866  1819.44004771
0.39300002 28247.00297596  1669.39795497
0.39400002 28437.15514437  2190.37197877
0.39500002 28626.66289932  2040.50862814
0.39600002 28816.61477103  1887.63244001
0.39700002 29006.33695152  2424.34975727
0.39800002 29197.34147933  2271.69926143
0.39900002 29387.30086464  1939.56194896
0.40000002 29576.88770047  1779.04987947
0.40100002 29766.29096681  1974.39817337
0.40200002 29956.38160103  2716.29503037
0.40300002 30144.83523656  2922.84336302
0.40400002 30332.84103361  2395.53623413
0.40500002 30520.19143385  2602.15164494
0.40600002 30707.05340933  2811.99854919
0.40700002 30892.75854816  2079.70060400
0.40800002 31077.75134436  2478.60617591
0.40900002 31261.01283605  2499.31809466
0.41000002 31444.00948985  3101.63724304
0.41100002 31625.33060551  2345.33462883
0.41200002 31804.66258355  2167.32883445
0.41300002 31983.36142370  2582.01689008
0.41400002 32160.11201977  2402.36048171
0.41500002 32335.99481968  3026.64925853
0.41600002 32509.03563698  2440.12833053
0.41700002 32681.11223398  2868.74816783
0.41800002 32852.28226981  3097.14905774
0.41900002 33019.61928706  2704.30694775
0.42000002 33185.81417577  2514.82111740
0.42100002 33350.64333753  2322.20540563
0.42200002 33513.13957923  3189.61321059
0.42300002 33673.12487339  2569.93301211
0.42400002 33830.91552439  2803.73725694
0.42500002 33986.86853803  3257.64150374
0.42600002 34139.21328178  2623.94005718
0.42700002 34290.53951142  2641.74328914
0.42800002 34439.01649808  3102.61114333
0.42900002 34585.45934059  2453.83845649
0.43000002 34729.43338425  2694.30956963
0.43100002 34869.45076151  2259.54051642
0.43200002 35007.81614667  2501.13354312
0.43300002 35143.14290627  3202.94619626
0.43400002 35276.28378235  3452.66643881
0.43500002 35406.01149324  2547.10858753
0.43600002 35534.07798242  3260.96249098
0.43700002 35658.36446644  3045.58105341
0.43800002 35779.02580298  4240.88812940
0.43900002 35898.01626753  3316.97686031
0.44000002 36013.22863711  3573.41278086
0.44100002 36126.16161301  2634.68109129
0.44200002 36235.82874788  2889.44512129
0.44300002 36342.67773612  3388.59143270
0.44400002 36446.07824530  2676.05342198
0.44500002 36545.46531696  2933.87009468
0.44600002 36642.66634452  4913.78178967
0.44700002 36737.01431027  2962.47297438
0.44800002 36826.89908777  2976.35012533
0.44900002 36915.15215398  2740.95017733
0.45000002 36999.93004504  2753.34992479
0.45100002 37080.10032592  2765.43401337
0.45200002 37158.05323305  3029.86780422
0.45300002 37232.05145134  3042.60338880
0.45400002 37303.52810448  3564.35227931
0.45500002 37371.51690019  3067.45425254
0.45600002 37435.98923413  2822.86090198
0.45700002 37496.98939995  2833.64762325
0.45800002 37554.18906331  2844.16664351
0.45900002 37608.31162755  3373.46571287
0.46000002 37659.80072324  2864.59287778
0.46100002 37706.62529204  3135.68310790
0.46200002 37751.09430424  2621.81362369
0.46300002 37791.68863946  3156.36198476
0.46400002 37828.44374128  3166.24089121
0.46500002 37862.85394728  4763.90450943
0.46600002 37892.83776354  2654.39341114
0.46700002 37919.56213609  3992.93008218
0.46800002 37943.59372707  3737.06472330
0.46900002 37963.48009747  3479.35311584
0.47000002 37979.59883746  2951.58466355
0.47100002 37992.81244385  3496.85862307
0.47200002 38002.46235277  3235.52979807
0.47300002 38009.45152077  3242.96655746
0.47400002 38011.33959836  3249.96968970
0.47500002 38011.23505793  2985.40254295
0.47600002 38008.02781745  3535.31687501
0.47700002 38000.10931750  3541.99035737
