# SAXS profile: number of points = 501, q_min = 0, q_max = 0.5, delta_q = 0.001
#    q    intensity    error
0.00000000 1664650.74656090 274.66737318
0.00100000 1664581.98093380 798.99936982
0.00200000 1664375.62908667 898.76286817
0.00300000 1664031.86631265 1597.47064857
0.00400000 1663550.56239935 1621.96185997
0.00500000 1662932.15754894 1795.96680124
0.00600000 1662176.39502545 2443.39940016
0.00700000 1661283.94776514 2591.60306622
0.00800000 1660254.22439054 3586.14927609
0.00900000 1659088.62310594 3484.08625746
0.01000000 1657786.29536996 2735.34750547
0.01100000 1656348.48308186 3279.57013929
0.01200000 1654774.68062213 3872.17292243
0.01300000 1653066.17048917 3471.43911113
0.01400000 1651222.33342081 4829.82553937
0.01500000 1649244.86973244 5541.46300906
0.01600000 1647132.68459299 4620.20738682
0.01700000 1644887.84202002 4885.31710995
0.01800000 1642509.98876352 4681.15367862
0.01900000 1639999.79873483 5903.99954185
0.02000000 1637357.90172363 7220.74867324
0.02100000 1634585.92578677 7551.78731952
0.02200000 1631682.09802764 6192.23384334
0.02300000 1628649.36346052 6449.45177287
0.02400000 1625487.49380689 7314.69405566
0.02500000 1622197.92436275 6959.22941335
0.02600000 1618780.83027361 8522.88146121
0.02700000 1615237.13193589 10175.99439727
0.02800000 1611566.92465011 7010.31644372
0.02900000 1607772.66739370 11575.96373674
0.03000000 1603854.53718298 12678.47069920
0.03100000 1599813.06107852 7679.10304652
0.03200000 1595648.96006054 8688.30898770
0.03300000 1591365.25695389 8115.96318461
0.03400000 1586959.96515905 11664.15628211
0.03500000 1582436.33335936 9399.67225421
0.03600000 1577794.03462645 11383.78448592
0.03700000 1573035.01285959 10759.55998556
0.03800000 1568160.51628427 12843.23522275
0.03900000 1563171.82226294 11254.83764150
0.04000000 1558067.98287619 11498.54224646
0.04100000 1552852.84090010 11739.56802153
0.04200000 1547526.63920746 12976.01147175
0.04300000 1542089.62319662 12213.35038264
0.04400000 1536545.42017104 10371.68206784
0.04500000 1530893.54807833 15844.74895884
0.04600000 1525134.48815185 15053.07809783
0.04700000 1519271.26126300 13126.50430780
0.04800000 1513304.34039465 17796.45987108
0.04900000 1507236.41150282 11304.27361246
0.05000000 1501066.60384045 11483.16005411
0.05100000 1494798.75572926 12825.37392161
0.05200000 1488430.96298416 14199.63204859
0.05300000 1481968.63825974 16805.52514130
0.05400000 1475409.93089473 14606.55899702
0.05500000 1468759.11382860 14805.09255804
0.05600000 1462014.47712079 13750.24679896
0.05700000 1455181.24542771 24054.14710973
0.05800000 1448257.75370204 14098.78989060
0.05900000 1441246.30347117 16862.58253819
0.06000000 1434149.40050766 13122.46762771
0.06100000 1426968.74903046 14597.89098476
0.06200000 1419704.63497543 16099.45131317
0.06300000 1412360.50365763 18982.12605667
0.06400000 1404934.30272410 19177.35412905
0.06500000 1397432.22605226 16601.49562208
0.06600000 1389852.27515082 20952.02402821
0.06700000 1382197.32653387 14098.41339044
0.06800000 1374470.49104857 15648.34727307
0.06900000 1366672.41159503 22960.09758976
0.07000000 1358802.58526613 15918.37303183
0.07100000 1350866.10877194 14589.35465807
0.07200000 1342861.56254687 17645.20175849
0.07300000 1334794.00968283 16297.83562187
0.07400000 1326662.71425161 19402.44310521
0.07500000 1318469.88067730 19539.72454751
0.07600000 1310216.00900417 15132.99561344
0.07700000 1301906.25677534 15232.30391849
0.07800000 1293538.93772312 18394.12455704
0.07900000 1285116.09960081 16963.53331038
0.08000000 1276641.97265347 20164.56090400
0.08100000 1268116.26829023 15597.83083179
0.08200000 1259540.25299789 17249.40457424
0.08300000 1250916.78658358 18913.86270081
0.08400000 1242246.60641500 34845.01894552
0.08500000 1233533.40879799 22277.61440872
0.08600000 1224776.78028073 17581.67150642
0.08700000 1215980.26179695 20866.22227227
0.08800000 1207142.07118548 22561.48637003
0.08900000 1198268.63772606 21029.61557985
0.09000000 1189358.61570270 24352.11880047
0.09100000 1180414.78097060 19547.66969125
0.09200000 1171437.88267891 26146.49476993
0.09300000 1162431.74881909 18029.31727142
0.09400000 1153394.12973242 18079.45383324
0.09500000 1144329.90337764 19774.02165980
0.09600000 1135239.85959353 19821.28888026
0.09700000 1126127.14405892 18209.47677551
0.09800000 1116992.14117125 19904.80089155
0.09900000 1107837.25086725 19941.07145329
0.10000000 1098661.64042047 18309.19709864
0.10100000 1089469.05421563 23336.42823885
0.10200000 1080260.76447863 28373.05031359
0.10300000 1071038.07694401 25062.29217944
0.10400000 1061803.76546288 18395.75110207
0.10500000 1052560.40380572 18409.28232871
0.10600001 1043304.07962325 18419.53439245
0.10700001 1034043.08697005 21776.94843636
0.10800001 1024774.14415444 18430.56384999
0.10900001 1015501.69146212 23458.09017685
0.11000001 1006225.80224247 25130.49059389
0.11100001 996948.56539108 20098.48402439
0.11200001 987672.61654591 18415.15680243
0.11300001 978396.58915283 21749.75720086
0.11400001 969124.91225408 23404.36773292
0.11500001 959857.90411158 16701.52831798
0.11600001 950596.66648883 18351.26951076
0.11700001 941344.03840662 16661.79026448
0.11800001 932098.54312937 28284.53162341
0.11900001 922864.45948696 18272.71715852
0.12000001 913641.69630451 19899.11708286
0.12100001 904433.54815694 19861.36165316
0.12200001 895238.90023145 24775.73773112
0.12300001 886061.08258314 16480.73691253
0.12400001 876899.63254150 24662.80332728
0.12500001 867757.16149013 16400.61112497
0.12600001 858636.06251808 16357.01776177
0.12700001 849536.00995058 19573.31059168
0.12800001 840457.22345083 19515.41764828
0.12900001 831403.34254018 22697.31232112
0.13000001 822374.12399350 17775.61752797
0.13100001 813370.55891546 27378.05430363
0.13200001 804395.46753356 25676.30453406
0.13300001 795450.24434548 15988.55066509
0.13400001 786533.23234490 20705.48831765
0.13500001 777648.22134905 17450.42690983
0.13600001 768794.45800505 20538.34491400
0.13700001 759974.79359583 17304.62686615
0.13800001 751188.07198009 17228.49924329
0.13900001 742439.31202737 17150.34891661
0.14000001 733725.77612614 20173.79116600
0.14100001 725049.98027822 15443.56530829
0.14200001 716411.84109924 18440.44165964
0.14300001 707815.79162057 21404.35054820
0.14400001 699256.33701913 22813.23907135
0.14500001 690741.92175264 18152.69855996
0.14600001 682267.66844962 15044.00279900
0.14700001 673839.74956400 14959.24314605
0.14800001 665453.37521080 19334.74872894
0.14900001 657112.00839723 16263.52297516
0.15000001 648817.21617272 20573.99489558
0.15100001 640569.37861735 16065.48077377
0.15200001 632369.77617565 17415.46445766
0.15300001 624218.50185057 14419.44807319
0.15400001 616114.57116566 17189.59734672
0.15500001 608062.38164583 17074.39248241
0.15600001 600058.62725716 19783.93387437
0.15700001 592109.95992088 15436.30738368
0.15800001 584208.62496169 15326.71399927
0.15900001 576363.13839813 16599.25916936
0.16000001 568568.30352625 13730.92517829
0.16100001 560830.54298139 14991.00112153
0.16200001 553145.17771932 17581.72030377
0.16300001 545515.99968408 18787.57191604
0.16400001 537942.03487129 15976.87918994
0.16500001 530424.68955130 14528.33293271
0.16600001 522963.67089603 20960.38491912
0.16700001 515559.22208587 19488.13951497
0.16800001 508211.67993561 14171.48336413
0.16900001 500924.55323723 14050.93438176
0.17000001 493694.86026155 15195.92851640
0.17100001 486524.16190547 13807.55636689
0.17200001 479413.15538213 13684.84916662
0.17300001 472361.60631340 16027.23005909
0.17400001 465371.11948382 15880.79020237
0.17500001 458440.60855385 16943.96569237
0.17600001 451568.87644012 11989.15423572
0.17700001 444760.85971747 13062.62706686
0.17800001 438013.07627206 12936.71681872
0.17900001 431326.80011954 16304.15381462
0.18000001 424703.21184120 13836.83129537
0.18100001 418142.84634563 14839.89031779
0.18200001 411641.75210467 14689.43661775
0.18300001 405205.95019068 17893.89560572
0.18400001 398831.38237781 15494.59993735
0.18500001 392520.63893322 15331.85688104
0.18600001 386272.53822529 10834.94520910
0.18700001 380087.31227185 13934.00152620
0.18800001 373964.98033934 14842.67077093
0.18900001 367907.97636793 15728.06673284
0.19000001 361910.20848297 12442.47355554
0.19100001 355980.96863677 11277.47761927
0.19200001 350111.53217483 12162.87520247
0.19300001 344308.21470616 13025.18037781
0.19400001 338567.45296823 11883.71816074
0.19500001 332890.52340478 11744.37822070
0.19600001 327276.18853740 11605.21419396
0.19700001 321726.26357053 9555.27047960
0.19800001 316239.62549996 11327.70392074
0.19900001 310817.19065698 11189.41939246
0.20000001 305456.36755761 9209.50991711
0.20100001 300160.41924379 12732.80558610
0.20200001 294926.49661454 13470.76836954
0.20300001 289756.40318477 8866.54635653
0.20400001 284649.15939966 13129.44309788
0.20500001 279603.93525305 11231.69061000
0.20600001 274622.10500979 10232.42011633
0.20700001 269702.35640786 10939.12809299
0.20800001 264844.71068469 11624.03490142
0.20900001 260051.49247361 9010.78464016
0.21000001 255317.59318069 8080.80220617
0.21100001 250645.79124648 9564.64384612
0.21200001 246035.30654553 9432.99409890
0.21300001 241486.12942308 10077.21665723
0.21400001 236998.55447951 11464.80561496
0.21500001 232572.53357532 7535.35044409
0.21600001 228205.45317130 10399.32299268
0.21700001 223899.39183408 11714.41673461
0.21800001 219653.00085580 7215.60141927
0.21900001 215465.41791105 9243.46686543
0.22000001 211336.88417905 7706.39984597
0.22100001 207269.61186675 8972.70192197
0.22200001 203260.06604724 8158.85943692
0.22300001 199308.68197234 9375.48084330
0.22400001 195413.54367905 6595.20741103
0.22500001 191579.42507594 8442.90566234
0.22600001 187800.41142784 10231.36689841
0.22700001 184079.81421642 8813.74192148
0.22800001 180414.97377284 6816.98010638
0.22900001 176805.98065370 7319.76794522
0.23000001 173253.15915925 7804.18892340
0.23100001 169757.21099207 8270.57171067
0.23200001 166314.38529419 6975.22564912
0.23300001 162927.45044983 6290.62915938
0.23400001 159594.91319171 6188.29305169
0.23500001 156314.92151210 6086.90333157
0.23600001 153089.30594052 7619.25511703
0.23700001 149916.59562618 5887.22498869
0.23800001 146796.37337864 5788.91525800
0.23900001 143728.63818097 5691.65434118
0.24000001 140712.19481401 5086.74608313
0.24100001 137748.46629461 5500.29651931
0.24200001 134834.83290877 4914.72989200
0.24300001 131971.78830920 8211.28505702
0.24400001 129158.07709338 6645.18338080
0.24500001 126394.40719995 5596.74461556
0.24600001 123679.92882439 7331.74652754
0.24700001 121014.77264629 6302.44965756
0.24800001 118396.75416925 5306.54277290
0.24900001 115826.41230331 5646.53786691
0.25000001 113303.90471871 5119.07065737
0.25100001 110827.53925071 5446.06553643
0.25200001 108398.68701634 5347.84947696
0.25300001 106015.68350351 6058.79659887
0.25400001 103677.18146980 4362.21761672
0.25500001 101383.94125620 4282.45788127
0.25600001 99135.40868622  4968.17124137
0.25700001 96930.66554845  6377.06878815
0.25800001 94769.27255104  4049.96505409
0.25900001 92651.40071247  3613.40479875
0.26000001 90576.52928688  5319.10693405
0.26100001 88541.48707448  3479.68060667
0.26200001 86550.74701347  5804.52612311
0.26300001 84599.51168273  3685.15490327
0.26400001 82689.01364685  5587.71036159
0.26500001 80819.41153893  4514.57254219
0.26600001 78988.46217594  3163.48805984
0.26700001 77198.05298690  3724.03425231
0.26800001 75446.03611034  3653.09724133
0.26900001 73731.68468393  4479.20005651
0.27000001 72055.86595608  3514.88530767
0.27100001 70417.03626264  3160.31673702
0.27200001 68815.45687027  3099.79240141
0.27300001 67249.79321571  4422.34661115
0.27400001 65718.90293556  2981.99536182
0.27500001 64225.59552006  3988.40967055
0.27600001 62765.23021109  3129.47452643
0.27700001 61341.13263652  3325.30295760
0.27800001 59949.96015900  3010.68714167
0.27900001 58592.92384252  2953.08350143
0.28000001 57268.51653845  2413.86808634
0.28100001 55976.69556365  3314.94006817
0.28200001 54717.50668137  3019.58574913
0.28300001 53489.91916095  2734.40479693
0.28400001 52293.81117878  2459.11658707
0.28500001 51128.57006726  2851.44048761
0.28600001 49993.06244690  3873.96259237
0.28700001 48888.02005684  2956.74759299
0.28800001 47811.60842445  2694.42332030
0.28900001 46765.85205585  2441.17759287
0.29000001 45747.28766581  2595.92996147
0.29100001 44758.15586769  2548.52951574
0.29200001 43795.99802174  2502.28446542
0.29300001 42861.10467385  1890.17480559
0.29400001 41953.02150648  2413.34767640
0.29500001 41072.48363123  2370.70386742
0.29600001 40216.71094926  2149.98546912
0.29700001 39386.51865320  2288.75070728
0.29800001 38582.06092891  1730.40551458
0.29900001 37802.25673202  2381.54228686
0.30000001 37046.59522518  1839.91923896
0.30100001 36315.84674981  1809.61872921
0.30200001 35607.38342348  2427.53347982
0.30300001 34922.61217785  1910.96542884
0.30400001 34261.21577771  1880.94083524
0.30500001 33621.13623264  2623.45738443
0.30600001 33003.21865462  1671.77812010
0.30700001 32407.33249341  1796.66259849
0.30800001 31832.34409524  1622.97214053
0.30900001 31278.26549164  1890.77123849
0.31000001 30745.29051828  1721.12144470
0.31100001 30230.72406731  1697.75754400
0.31200001 29737.10316429  1535.77276563
0.31300001 29262.04759499  1791.71525907
0.31400001 28807.36957521  1633.37793225
0.31500001 28370.50784347  1882.66698963
0.31600002 27951.68793555  1594.92338912
0.31700002 27550.55823381  1839.82636597
0.31800002 27167.26442274  1559.94439701
0.31900002 26801.43093468  1415.11562036
0.32000002 26452.04071140  1273.66582056
0.32100002 26119.66824949  1640.05404704
0.32200002 25803.51556807  1375.19842732
0.32300002 25502.57096053  1611.25250958
0.32400002 25217.40174517  1352.28323262
0.32500002 24947.01289194  2195.83617873
0.32600002 24692.08368342  1574.49079063
0.32700002 24451.37212861  1323.30832226
0.32800002 24225.73150814  1434.64788785
0.32900002 24012.64583981  1545.21383296
0.33000002 23814.86229088  1300.64876561
0.33100002 23628.07776070  1294.34616102
0.33200002 23456.66313809  1405.99245508
0.33300002 23296.61071657  1400.59230261
0.33400002 23149.94074866  1977.58378210
0.33500002 23014.65525853  1159.93867996
0.33600002 22891.39144977  1157.15989258
0.33700002 22778.87405932  1501.35566035
0.33800002 22679.02306321  1383.87405285
0.33900002 22588.83515317  1728.04597105
0.34000002 22510.29496967  1381.68197067
0.34100002 22441.83114061  1266.39259124
0.34200002 22384.46760115  1151.68091262
0.34300002 22335.71626827  1498.27991823
0.34400002 22297.51413700  1730.84461686
0.34500002 22268.28832703  1502.44148458
0.34600002 22249.43670417  1158.08323530
0.34700002 22237.34145486  1276.86820681
0.34800002 22235.53560998  1280.43337874
0.34900002 22241.69930108  1517.99604919
0.35000002 22256.07495680  1757.67360296
0.35100002 22278.53980413  1176.30695737
0.35200002 22308.02499933  1181.20997966
0.35300002 22345.39491297  1423.84863129
0.35400002 22390.33024553  1311.51365625
0.35500002 22442.10131916  1797.61240081
0.35600002 22500.04698778  1566.34084524
0.35700002 22565.03150190  1696.43914866
0.35800002 22636.74655046  1340.88774543
0.35900002 22714.31543998  1349.23040104
0.36000002 22798.41202319  1234.53406953
0.36100002 22887.50253199  1491.34973562
0.36200002 22983.33484545  1251.44264161
0.36300002 23082.67882442  1260.31432351
0.36400002 23188.06893658  1650.41088474
0.36500002 23297.89121468  1534.86514593
0.36600002 23413.11656709  1417.78134088
0.36700002 23532.51233562  1688.69316519
0.36800002 23657.63822294  1440.39537143
0.36900002 23786.04164162  1452.13791101
0.37000002 23917.51189919  1597.21152029
0.37100002 24053.43539767  1610.61811052
0.37200002 24193.37153814  1488.98112185
0.37300002 24336.31375363  1638.32071950
0.37400002 24483.55640149  1514.92012411
0.37500002 24632.98554672  1528.23049571
0.37600002 24786.36624341  1962.33670845
0.37700002 24941.42505628  1697.01464122
0.37800002 25100.20496936  1712.33606413
0.37900002 25261.14013095  1583.87356124
0.38000002 25424.73895955  2470.14063063
0.38100002 25590.03934252  1759.57118855
0.38200002 25757.70398353  1627.75818035
0.38300002 25927.00646250  2090.75390018
0.38400002 26098.89127274  1657.93214664
0.38500002 26271.24049713  2281.65734527
0.38600002 26446.45274707  1688.73832017
0.38700002 26621.96419173  1859.27806723
0.38800002 26798.76501327  1563.70801261
0.38900002 26976.86402918  1735.96128252
0.39000002 27156.57241496  1911.27965711
0.39100002 27336.36069790  2732.54274482
0.39200002 27517.40246694  2108.79623796
0.39300002 27698.78890166  2128.09805214
0.39400002 27881.53448214  1651.98099633
0.39500002 28063.64698226  1833.67878070
0.39600002 28246.24959142  2186.68351572
0.39700002 28428.62975606  1866.90820453
0.39800002 28612.18207422  2739.90268524
0.39900002 28794.75556573  1900.45395738
0.40000002 28977.27930751  2265.87846281
0.40100002 29159.26042657  2109.96418444
0.40200002 29342.16881992  2483.22786488
0.40300002 29523.48968101  1968.03591538
0.40400002 29704.31839301  1804.53742787
0.40500002 29884.66079756  2001.97352168
0.40600002 30064.46530884  1835.43569407
0.40700002 30243.35057010  2221.07177111
0.40800002 30421.53370938  2426.26953595
0.40900002 30597.92398270  2258.12689692
0.41000002 30774.16952721  2276.67316950
0.41100002 30948.86221017  2295.16773026
0.41200002 31121.82715476  2699.19619703
0.41300002 31293.89375284  2332.02107296
0.41400002 31464.37715503  2350.38908485
0.41500002 31633.98833449  2171.35706217
0.41600002 31800.78490167  3580.45054173
0.41700002 31966.82732230  2204.75218489
0.41800002 32131.98855840  2019.49557659
0.41900002 32293.42297561  2644.83146703
0.42000002 32453.81615808  2459.35030499
0.42100002 32613.04209332  2270.84622856
0.42200002 32769.99801171  2703.03341408
0.42300002 32924.55380413  2512.80206540
0.42400002 33077.04151734  2530.39379598
0.42500002 33227.91839208  2760.24331163
0.42600002 33375.24957048  2351.45331991
0.42700002 33521.66027993  2367.29976115
0.42800002 33665.26576372  3682.81192274
0.42900002 33807.19632196  2834.73354593
0.43000002 33946.60730676  2194.64826638
0.43100002 34082.24537342  2208.52960485
0.43200002 34216.44844763  2444.59427518
0.43300002 34347.63923101  2459.63456189
0.43400002 34476.74573428  3149.45087207
0.43500002 34602.86809630  2941.93598496
0.43600002 34727.23967506  3186.91893600
0.43700002 34847.94520465  2747.41213013
0.43800002 34965.27284625  2302.46332604
0.43900002 35081.11589109  2546.88913439
0.44000002 35193.23771772  2560.83606389
0.44100002 35303.30204944  2574.66994048
0.44200002 35410.26570247  3529.51840116
0.44300002 35514.62501299  2365.27413796
0.44400002 35615.49093781  3090.53437259
0.44500002 35712.68584305  2628.09667574
0.44600002 35807.77334808  2641.00244845
0.44700002 35900.06246060  2894.98117402
0.44800002 35988.38492205  3635.72675905
0.44900002 36074.96210646  3165.57807486
0.45000002 36158.20124153  2446.10242992
0.45100002 36237.10298800  2948.25083883
0.45200002 36313.91216101  2714.28349311
0.45300002 36387.06386387  2477.95916657
0.45400002 36457.72999771  2488.24019027
0.45500002 36525.10004228  3747.47544194
0.45600002 36588.98111797  3260.62720686
0.45700002 36649.82346527  3021.41158967
0.45800002 36706.81166448  3032.71692345
0.45900002 36760.94507444  3043.80639642
0.46000002 36812.72359379  3309.27994430
0.46100002 36860.05430676  3320.72244988
0.46200002 36904.95441683  3588.26888801
0.46300002 36946.16976918  3085.74424537
0.46400002 36983.82043023  2837.58375700
0.46500002 37019.11820101  4657.74567281
0.46600002 37050.45052638  2854.92260062
0.46700002 37078.51133206  3123.49394265
0.46800002 37104.05855842  2871.29770763
0.46900002 37125.58884203  3140.82496490
0.47000002 37143.62485149  3149.03666416
0.47100002 37158.90387134  3683.19072630
0.47200002 37170.68116830  4219.61592622
0.47300002 37179.81844733  3436.53078197
0.47400002 37184.42371083  3709.14644096
0.47500002 37186.84440232  4248.22530588
0.47600002 37186.31464707  3192.81712693
0.47700002 37181.56919304  3199.10236500
