# SAXS profile: number of points = 501, q_min = 0, q_max = 0.5, delta_q = 0.001
#    q    intensity    error
0.00000000 1682732.95097188 328.13292544
0.00100000 1682663.60616169 706.71873137
0.00200000 1682455.52005931 832.81550880
0.00300000 1682108.85745801 1211.11842051
0.00400000 1681623.49519936 2396.31357171
0.00500000 1680999.89508479 1664.18996200
0.00600000 1680237.76092595 2293.52463704
0.00700000 1679337.79680712 2418.24652791
0.00800000 1678299.40733930 2945.41558424
0.00900000 1677123.99942598 3521.96054935
0.01000000 1675810.68720939 3871.12285461
0.01100000 1674360.76664110 3315.23446229
0.01200000 1672773.68528819 3914.29059519
0.01300000 1671050.76023827 4561.96877666
0.01400000 1669191.36211965 4882.38495064
0.01500000 1667197.21346660 4401.40083954
0.01600000 1665067.18237180 4245.92150486
0.01700000 1662803.39062706 5836.44016292
0.01800000 1660405.41564885 5205.37121229
0.01900000 1657873.95110107 5968.34649327
0.02000000 1655209.76859322 5735.30210762
0.02100000 1652414.27543429 7088.85756301
0.02200000 1649485.88850973 5690.72657390
0.02300000 1646427.43355238 6519.85293364
0.02400000 1643238.70354004 8627.00358696
0.02500000 1639921.27631000 7035.26259667
0.02600000 1636475.11886888 7290.49698802
0.02700000 1632901.32939141 8915.64166682
0.02800000 1629199.91808170 7795.72196553
0.02900000 1625373.30059995 10239.85226393
0.03000000 1621421.81275071 7539.61177585
0.03100000 1617345.87073353 9315.91264408
0.03200000 1613146.29696603 9582.08944531
0.03300000 1608825.94448496 10666.51650367
0.03400000 1604382.98821639 10107.61329213
0.03500000 1599820.63755730 9502.93502592
0.03600000 1595138.57605498 8853.01950624
0.03700000 1590338.78045989 9971.42461464
0.03800000 1585422.40129351 11129.66577216
0.03900000 1580390.83584184 11378.81454501
0.04000000 1575243.04774682 11625.29423108
0.04100000 1569983.05817647 10879.98309763
0.04200000 1564610.94977839 13119.26342253
0.04300000 1559126.99296116 14406.33408367
0.04400000 1553534.80035809 15729.54058414
0.04500000 1547834.04806662 11748.06097070
0.04600000 1542025.09780744 13045.53293390
0.04700000 1536110.97903289 12165.99951976
0.04800000 1530092.23678126 13495.41415633
0.04900000 1523971.45832462 12572.76511641
0.05000000 1517748.03604420 15094.00492133
0.05100000 1511425.46053263 16504.76679787
0.05200000 1505002.10274131 16750.67418411
0.05300000 1498483.12707621 16992.79945321
0.05400000 1491867.10579903 12307.90419681
0.05500000 1485157.88384188 12475.32680624
0.05600000 1478353.99578544 15167.91270456
0.05700000 1471460.54852539 12801.70736974
0.05800000 1464476.09820190 14256.67548167
0.05900000 1457402.64538290 20986.59907371
0.06000000 1450243.11358470 17250.64264202
0.06100000 1442998.84343855 14761.87885822
0.06200000 1435670.27016994 14923.79315601
0.06300000 1428260.83976743 13711.30470284
0.06400000 1420768.61953372 19393.49256361
0.06500000 1413199.46956449 18187.87802408
0.06600000 1405551.85034742 18363.53578399
0.06700000 1397828.40934694 15683.63548685
0.06800000 1390032.34985183 18702.88614272
0.06900000 1382164.20740369 18866.54231437
0.07000000 1374223.60221951 14635.48204900
0.07100000 1366215.47174121 17706.15334308
0.07200000 1358138.49096269 17845.94060727
0.07300000 1349997.94693940 17981.97349579
0.07400000 1341792.91467146 19623.72229672
0.07500000 1333525.68319110 15202.19350094
0.07600000 1325196.59233251 15306.02135900
0.07700000 1316811.03861140 18488.02784898
0.07800000 1308367.12922284 17054.56632921
0.07900000 1299867.02563402 23397.60755885
0.08000000 1291315.09650589 17258.42707441
0.08100000 1282711.03680743 17355.08114227
0.08200000 1274055.80198241 22206.79367061
0.08300000 1265352.84175568 19132.13586526
0.08400000 1256602.19475626 16021.67873518
0.08500000 1247808.08511846 17706.39755906
0.08600000 1238969.92495685 19402.26993579
0.08700000 1230091.22014616 27603.24827627
0.08800000 1221170.52506897 17932.89000283
0.08900000 1212213.87004657 16364.88801428
0.09000000 1203220.05068621 21351.14080241
0.09100000 1194191.97152500 19775.81997755
0.09200000 1185130.48292792 18185.82811502
0.09300000 1176039.04731553 19898.58161566
0.09400000 1166915.72331006 21617.11479027
0.09500000 1157765.24871597 18339.00240164
0.09600000 1148588.51072196 25067.94542490
0.09700000 1139388.65747900 18423.91545759
0.09800000 1130166.20501425 21817.85961363
0.09900000 1120923.22370377 20176.61897542
0.10000000 1111659.32986592 38735.77117081
0.10100000 1102377.80504480 20239.65745253
0.10200000 1093080.42832309 16888.09341195
0.10300000 1083768.20047644 18597.46319501
0.10400000 1074444.07513828 16922.49497955
0.10500000 1065110.25862245 22015.83008156
0.10600001 1055763.56893296 18639.50668657
0.10700001 1046411.49759041 18647.05376455
0.10800001 1037051.35664516 25433.68571867
0.10900001 1027687.31136489 20348.20972273
0.11000001 1018319.66137927 16955.02316003
0.11100001 1008950.42485047 18645.40472894
0.11200001 999581.95033276 18637.20634134
0.11300001 990213.31345711 20319.17814878
0.11400001 980848.72787815 27071.42616408
0.11500001 971488.70278349 25355.85633661
0.11600001 962134.27135911 27016.73161202
0.11700001 952788.22820217 28669.39913679
0.11800001 943449.03481885 28628.96230995
0.11900001 934121.18398071 16814.18210363
0.12000001 924804.30302716 16785.19889061
0.12100001 915502.20368940 25130.53667513
0.12200001 906213.13796703 21735.52313813
0.12300001 896940.92120379 16683.10192040
0.12400001 887684.96436289 16644.09386603
0.12500001 878447.86137743 23243.73150730
0.12600001 869232.17068986 18214.76099515
0.12700001 860037.22083992 21466.53004380
0.12800001 850863.58203601 19757.05330601
0.12900001 841714.69531588 18054.78106548
0.13000001 832590.79941436 19632.49197557
0.13100001 823492.06272894 17935.65797168
0.13200001 814422.16122030 27621.12889986
0.13300001 805381.80209711 17806.99248384
0.13400001 796369.80624515 19351.78720411
0.13500001 787389.86114434 17669.02931714
0.13600001 778441.19409879 17596.66402230
0.13700001 769526.77775167 19115.04606069
0.13800001 760645.24938613 19031.34503708
0.13900001 751801.69227730 23681.75442352
0.14000001 742993.35671180 18857.17228266
0.14100001 734223.11655601 23458.42968033
0.14200001 725490.54390715 18674.12748094
0.14300001 716800.25679913 20127.75216030
0.14400001 708146.49091322 21563.06166543
0.14500001 699537.97571880 15319.88239091
0.14600001 690969.89499218 16759.47559365
0.14700001 682447.97326855 21210.48400982
0.14800001 673968.12921106 22594.78259779
0.14900001 665533.31826765 20964.30051454
0.15000001 657145.41226697 16372.77871915
0.15100001 648804.47206549 17751.29119331
0.15200001 640512.13323865 20579.65581205
0.15300001 632268.25332343 17526.47680918
0.15400001 624071.85216638 15960.63837235
0.15500001 615927.54877622 15853.97585370
0.15600001 607832.16835063 14314.44824023
0.15700001 599791.83236546 15636.57380776
0.15800001 591799.10825564 18348.73221750
0.15900001 583862.49138768 15413.97050018
0.16000001 575977.05719183 18082.80056409
0.16100001 568148.90862893 19328.42678394
0.16200001 560373.52831698 15071.24675554
0.16300001 552654.50462384 14954.83160111
0.16400001 544991.13989075 17535.09075381
0.16500001 537384.68051375 20071.31876478
0.16600001 529834.75559286 14599.59737965
0.16700001 522342.12595253 15795.62663459
0.16800001 514906.48450880 19579.31999791
0.16900001 507531.71227174 22001.50076585
0.17000001 500214.87367071 16679.66575016
0.17100001 492957.35526689 15261.96043975
0.17200001 485759.86491990 17647.65672591
0.17300001 478622.27627368 13741.24620074
0.17400001 471546.21811309 14853.70657204
0.17500001 464530.58195624 14716.32953139
0.17600001 457574.10824289 18222.88972142
0.17700001 450681.73079534 13236.52305863
0.17800001 443850.32290391 20259.54894585
0.17900001 437080.68106863 14161.41473552
0.18000001 430374.29733367 12853.12899699
0.18100001 423731.41651391 15038.22868243
0.18200001 417148.44954051 17176.08822119
0.18300001 410631.27519887 13600.10847705
0.18400001 404175.62636718 12337.46157769
0.18500001 397784.58059258 13317.82838740
0.18600001 391456.64544605 12078.39536586
0.18700001 385192.19965810 13034.90465226
0.18800001 378990.74846331 15042.14351719
0.18900001 372855.44547075 12751.65683758
0.19000001 366780.00055069 11559.07226351
0.19100001 360773.39979490 11429.30184554
0.19200001 354827.63690243 11299.48663107
0.19300001 348948.13902860 14216.14785578
0.19400001 343131.76184740 11040.26495914
0.19500001 337379.88678469 10910.86605421
0.19600001 331691.32786633 10781.62712180
0.19700001 326067.38435233 18399.98336854
0.19800001 320507.55440286 10523.86604616
0.19900001 315012.65078745 11340.45596430
0.20000001 309579.67426476 13067.35866829
0.20100001 304212.33596821 11982.92448013
0.20200001 298907.54985210 12742.42945245
0.20300001 293667.28940525 11682.08532469
0.20400001 288490.55073689 10645.30182535
0.20500001 283376.44121196 10507.59893680
0.20600001 278326.17950686 11234.63676683
0.20700001 273338.83161212 12792.25792413
0.20800001 268413.90318448 12622.16439390
0.20900001 263554.30329590 10792.54923014
0.21000001 258754.67796100 9008.54453907
0.21100001 254017.75214453 8077.76490006
0.21200001 249342.81582195 10356.45434476
0.21300001 244729.59390178 10998.14846989
0.21400001 240178.97768768 10844.08135527
0.21500001 235690.34514447 9163.64105245
0.21600001 231261.22292532 7527.55316211
0.21700001 226894.01704979 8903.32164998
0.21800001 222587.09032758 8043.18488927
0.21900001 218339.48720759 8646.24410223
0.22000001 214151.77077632 7099.13153690
0.22100001 210025.94510057 9092.02359331
0.22200001 205958.45558255 7578.24173149
0.22300001 201949.98230202 8142.62367144
0.22400001 197998.26777183 8687.17440927
0.22500001 194108.13280192 8554.34581709
0.22600001 190274.08660331 6478.83295522
0.22700001 186498.92397689 6378.26350163
0.22800001 182780.25551154 6906.35228111
0.22900001 179118.03980344 6797.52993200
0.23000001 175512.81310756 7905.97504032
0.23100001 171965.03381273 9575.01353552
0.23200001 168471.08156926 7065.67749518
0.23300001 165033.81084563 5792.68703464
0.23400001 161651.51436125 6268.03776581
0.23500001 158322.43566710 7846.46028277
0.23600001 155048.45680871 6063.17019027
0.23700001 151827.94810225 5420.25800362
0.23800001 148660.86409480 5862.44145286
0.23900001 145546.74516297 6287.61968844
0.24000001 142484.82313057 5665.90925979
0.24100001 139476.05758204 5062.98112971
0.24200001 136518.15301170 5971.30429519
0.24300001 133611.45055500 4890.17932163
0.24400001 130754.89667987 5285.76694832
0.24500001 127949.00437797 7081.97772733
0.24600001 125192.79217967 5102.23248664
0.24700001 122486.86454282 5467.81389185
0.24800001 119828.63145247 5818.27947542
0.24900001 117218.74189847 4395.70302914
0.25000001 114657.41365648 6043.59255974
0.25100001 112142.88950851 4239.00142396
0.25200001 109676.52097099 4578.44658454
0.25300001 107256.56316584 5312.41782494
0.25400001 104881.99535825 4814.08381470
0.25500001 102553.03958763 3938.03690648
0.25600001 100269.76565074 4251.93961359
0.25700001 98030.84334771  4173.17319876
0.25800001 95835.82960436  3723.22215629
0.25900001 93685.02185645  5115.20243539
0.26000001 91577.88144440  5377.91134228
0.26100001 89511.18836654  4221.34784310
0.26200001 87489.47832843  4832.04411672
0.26300001 85507.92385269  5079.17091718
0.26400001 83567.64617189  4318.35832027
0.26500001 81668.98908774  4236.17066443
0.26600001 79809.64762955  3516.01419270
0.26700001 77991.36596150  3448.77836601
0.26800001 76212.15324305  3075.16052888
0.26900001 74471.19839535  3317.69204551
0.27000001 72769.40422467  3253.88406389
0.27100001 71105.27004144  3481.31418597
0.27200001 69478.93233370  2845.16241371
0.27300001 67889.07072169  3348.28912645
0.27400001 66334.60324601  3009.93276473
0.27500001 64818.42387166  4025.22431293
0.27600001 63335.67095706  3157.91670337
0.27700001 61889.67055574  3355.03919961
0.27800001 60477.38894919  2530.97884731
0.27900001 59099.66520050  3475.06047826
0.28000001 57755.22807154  3651.57446765
0.28100001 56443.89174156  2865.09208040
0.28200001 55165.74779548  2810.14332570
0.28300001 53919.83104248  2986.08038446
0.28400001 52705.74519658  2703.80485656
0.28500001 51523.30552378  3094.48987622
0.28600001 50371.02798826  2168.47285753
0.28700001 49249.83141830  2127.59281798
0.28800001 48157.80738657  2713.93336373
0.28900001 47096.93758087  2048.71688174
0.29000001 46063.68302404  2010.67985917
0.29100001 45060.43643188  2368.37665097
0.29200001 44084.74811804  1937.52477150
0.29300001 43136.76906960  2282.79792722
0.29400001 42216.09318057  2615.28709633
0.29500001 41323.33533448  2018.23179327
0.29600001 40456.03403594  1982.54804178
0.29700001 39614.66038879  2302.00802417
0.29800001 38799.56230170  2784.25672257
0.29900001 38009.54283587  1710.42950858
0.30000001 37244.21848559  2017.89185308
0.30100001 36504.21176383  1819.00495830
0.30200001 35786.92442101  1626.51579194
0.30300001 35093.83943421  2240.39081554
0.30400001 34424.57198243  1732.41666703
0.30500001 33776.90530758  2015.46803512
0.30600001 33151.88457946  1526.64435716
0.30700001 32549.45255671  1503.78477931
0.30800001 31968.27813140  1629.90273770
0.30900001 31408.35693349  1752.58639986
0.31000001 30869.92404081  1872.10663209
0.31100001 30350.43967511  2130.60096607
0.31200001 29852.10709115  2102.33474143
0.31300001 29372.92288410  2351.89004668
0.31400001 28914.51512258  1502.83199465
0.31500001 28473.97985892  2294.43340567
0.31600002 28052.17965548  1600.65744693
0.31700002 27648.21669142  1318.81999862
0.31800002 27262.62618419  1826.32341455
0.31900002 26894.74392070  1807.32687705
0.32000002 26543.67222834  1405.88566614
0.32100002 26209.92665416  1519.12742081
0.32200002 25892.72985559  1630.85366718
0.32300002 25591.04143828  1492.46960735
0.32400002 25305.52151189  1357.00865533
0.32500002 25035.04811400  1346.63530182
0.32600002 24780.32426097  1215.47496256
0.32700002 24540.15605775  1569.58845578
0.32800002 24315.32551975  1199.96137122
0.32900002 24103.31834215  1193.11431443
0.33000002 23906.92756958  1543.07271305
0.33100002 23721.72855818  1299.47635195
0.33200002 23552.28925237  1764.65535580
0.33300002 23394.37655626  1289.26415307
0.33400002 23250.06374890  1635.64206219
0.33500002 23117.46705729  1281.63243435
0.33600002 22997.08924234  1278.75320788
0.33700002 22887.68862366  1276.44645499
0.33800002 22791.24405722  1622.50874127
0.33900002 22704.69662776  1273.73354114
0.34000002 22629.83727930  1504.77110115
0.34100002 22565.37985329  1504.88525368
0.34200002 22512.28463390  1158.25709927
0.34300002 22467.88734839  1159.34304208
0.34400002 22434.30597897  1509.26800621
0.34500002 22409.88913132  1395.68796120
0.34600002 22395.95209479  1398.85123409
0.34700002 22389.01960701  1636.18963037
0.34800002 22392.50883181  1523.92226072
0.34900002 22404.08493041  1411.45741746
0.35000002 22424.08814951  1534.81678609
0.35100002 22452.31654246  1659.67531743
0.35200002 22487.61956524  1190.71951238
0.35300002 22531.10563273  1435.68211892
0.35400002 22582.13567991  1683.49829467
0.35500002 22640.18437809  1571.68167397
0.35600002 22704.53988257  1580.57661879
0.35700002 22776.02986432  1467.68743397
0.35800002 22854.42185061  1476.85280994
0.35900002 22938.64840992  1362.55578009
0.36000002 23029.56948378  1371.75637128
0.36100002 23125.58601898  1506.86325637
0.36200002 23228.37989424  1391.26387967
0.36300002 23334.83754480  1274.08219030
0.36400002 23447.41150630  1540.49500893
0.36500002 23564.37950856  1423.05294593
0.36600002 23686.89349791  1434.35990371
0.36700002 23813.61287049  1708.86494053
0.36800002 23946.17617054  1855.58927935
0.36900002 24081.89030724  1871.16296551
0.37000002 24220.90747741  1887.05099095
0.37100002 24364.24538085  1767.38244365
0.37200002 24511.77722621  1508.57740085
0.37300002 24662.29752736  1521.91045251
0.37400002 24817.13326467  1675.15657472
0.37500002 24974.08770490  1831.10019726
0.37600002 25135.16178172  1847.81150592
0.37700002 25297.77508297  1577.82230667
0.37800002 25464.17533795  1737.16612385
0.37900002 25632.82550027  1899.39245955
0.38000002 25803.95164163  2359.51344989
0.38100002 25976.83042578  1637.31969930
0.38200002 26152.11533272  1652.68300674
0.38300002 26329.02335487  1819.86218050
0.38400002 26508.43370857  1837.03454303
0.38500002 26688.38775863  1699.78349687
0.38600002 26871.00135508  2495.77872410
0.38700002 27053.88962809  2046.89738623
0.38800002 27238.19718685  1748.28376926
0.38900002 27423.61314153  2085.56587822
0.39000002 27610.63245631  2105.17277137
0.39100002 27797.65791810  1634.50236302
0.39200002 27985.94758364  2804.61186997
0.39300002 28174.42035852  2331.15165091
0.39400002 28364.27492595  1848.64170588
0.39500002 28553.37892680  1865.67786747
0.39600002 28742.90744424  2738.62435104
0.39700002 28932.15186487  1899.97450298
0.39800002 29122.56923832  2265.88160694
0.39900002 29311.88335110  2110.45570127
0.40000002 29500.91849376  2129.37639777
0.40100002 29689.51469840  1969.30560325
0.40200002 29878.85618034  2167.41233001
0.40300002 30066.45752554  2004.23015361
0.40400002 30253.57880601  2756.85749932
0.40500002 30440.05692562  2039.17951006
0.40600002 30625.96971946  2430.63020195
0.40700002 30810.78802390  3016.99250625
0.40800002 30994.73221767  2471.98498515
0.40900002 31176.90377227  3067.80747655
0.41000002 31358.82670349  2513.25328523
0.41100002 31539.03271643  1949.11231423
0.41200002 31717.28208003  2554.35143335
0.41300002 31894.64291966  3367.11761257
0.41400002 32070.25729534  3194.19777797
0.41500002 32244.84709351  3018.11783096
0.41600002 32416.56218272  2230.42166667
0.41700002 32587.33897437  2043.22625051
0.41800002 32757.15817502  2882.30248440
0.41900002 32923.10755802  2488.98704933
0.42000002 33087.91149781  2298.45188111
0.42100002 33251.28656187  2525.76784692
0.42200002 33412.40575819  2120.01724581
0.42300002 33570.85113723  2348.61685685
0.42400002 33727.17544632  2580.12904391
0.42500002 33881.67864584  2381.54330487
0.42600002 34032.54296470  2179.78448018
0.42700002 34182.30087066  2852.85496585
0.42800002 34329.15551334  3092.71376675
0.42900002 34474.14512489  2668.29895911
0.43000002 34616.50414166  2461.75280869
0.43100002 34754.98242496  2702.54756143
0.43200002 34891.75770425  3399.32965542
0.43300002 35025.46547526  2736.18949259
0.43400002 35156.89577844  2523.38631408
0.43500002 35285.14104968  3230.70766761
0.43600002 35411.54543646  2785.47229603
0.43700002 35534.14183626  3501.88984391
0.43800002 35653.17242688  3991.19457647
0.43900002 35770.51855314  2596.93977003
0.44000002 35884.05287878  3085.84927355
0.44100002 35995.36718979  3102.44084511
0.44200002 36103.39614504  2638.97786628
0.44300002 36208.67015532  3134.94681061
0.44400002 36310.25805367  3393.19377592
0.44500002 36408.05867038  2922.83908857
0.44600002 36503.64535122  2692.32649047
0.44700002 36596.24236777  3442.97464513
0.44800002 36684.62201537  3706.06411474
0.44900002 36771.19370534  2978.46683129
0.45000002 36854.28663521  2991.83113084
0.45100002 36932.85165707  4006.47593764
0.45200002 37009.15422222  3017.72657830
0.45300002 37081.60525294  4040.41189985
0.45400002 37151.47701662  4310.50032514
0.45500002 37217.85246407  3054.84147503
0.45600002 37280.67297934  3322.26733001
0.45700002 37340.20436034  3334.85380947
0.45800002 37395.74085912  4119.51500828
0.45900002 37448.30981639  2842.32684977
0.46000002 37498.33273338  2593.00983141
0.46100002 37543.70267705  3642.49020636
0.46200002 37586.52369343  3132.46103307
0.46300002 37625.63777610  3142.49341600
0.46400002 37660.93390829  3677.59037045
0.46500002 37693.74250103  3161.75127084
0.46600002 37722.41843629  2906.70109037
0.46700002 37747.65781987  3444.85141591
0.46800002 37770.28276719  3188.56742233
0.46900002 37788.73844434  3729.74866123
0.47000002 37803.48010470  2937.89759558
0.47100002 37815.40744623  3480.53026632
0.47200002 37823.68641863  4025.38601789
0.47300002 37829.24372045  2958.62529161
0.47400002 37829.98797668  3504.00280242
0.47500002 37828.48918184  3241.14510672
0.47600002 37823.96592455  3788.82684624
0.47700002 37814.96015325  3524.73260295
