# SAXS profile: number of points = 501, q_min = 0, q_max = 0.5, delta_q = 0.001
#    q    intensity    error
0.00000000 1664650.74656091 274.66737318
0.00100000 1664582.09797234 549.31210538
0.00200000 1664376.10485180 823.86619799
0.00300000 1664032.92570932 1198.10374919
0.00400000 1663552.44942089 1497.19726137
0.00500000 1662935.11071897 1795.96999066
0.00600000 1662180.65344959 2268.87668433
0.00700000 1661289.71700099 1993.54774325
0.00800000 1660261.79521691 2465.48886999
0.00900000 1659098.18568044 2737.51212340
0.01000000 1657798.08853874 3008.90366062
0.01100000 1656362.74095407 3577.74367623
0.01200000 1654791.62373665 3549.52818854
0.01300000 1653086.05547680 5554.36939138
0.01400000 1651245.37849584 4829.89294621
0.01500000 1649271.26693469 5145.72658197
0.01600000 1647162.66512582 5880.37097737
0.01700000 1644921.66768191 4441.28870197
0.01800000 1642547.85094538 5149.38774442
0.01900000 1640041.87555612 6888.17618815
0.02000000 1637404.45079403 5673.60667865
0.02100000 1634637.16041602 7012.59373613
0.02200000 1631738.19206977 7318.34612392
0.02300000 1628710.60610142 9967.70936305
0.02400000 1625554.03904199 8534.15909411
0.02500000 1622269.92279348 7592.22358542
0.02600000 1618858.55163940 8523.29066422
0.02700000 1615320.74803014 8141.21694295
0.02800000 1611656.64465345 7010.70672575
0.02900000 1607868.64748230 9406.03201964
0.03000000 1603956.99571056 9695.92048475
0.03100000 1599922.17441772 7679.62679057
0.03200000 1595764.94730542 10268.74790887
0.03300000 1591488.33009072 9739.90902917
0.03400000 1587090.07840562 10831.89028491
0.03500000 1582573.78352443 11109.66847336
0.03600000 1577939.03741944 13136.34309360
0.03700000 1573187.68717813 15244.18939376
0.03800000 1568321.05011189 9174.67856775
0.03900000 1563340.44555831 12194.05604006
0.04000000 1558244.72249594 11499.84658491
0.04100000 1553037.80652602 13697.79408868
0.04200000 1547720.06719825 10981.07438622
0.04300000 1542291.58668976 11197.03743911
0.04400000 1536756.13687300 13485.03572733
0.04500000 1531113.02033368 14790.55246366
0.04600000 1525362.84697932 12904.57028534
0.04700000 1519508.80125062 12034.51026560
0.04800000 1513551.01377030 16686.90070323
0.04900000 1507492.34329310 15828.67034136
0.05000000 1501331.99703856 19524.82353068
0.05100000 1495073.58986217 13993.88945300
0.05200000 1488715.35082182 14202.34510869
0.05300000 1482262.60305472 14407.59317334
0.05400000 1475713.77213704 13392.10310667
0.05500000 1469072.83762248 13574.23365286
0.05600000 1462338.15454634 13753.29098529
0.05700000 1455514.74026210 13929.27671451
0.05800000 1448601.38238961 24358.23338223
0.05900000 1441599.97081482 16866.72044631
0.06000000 1434513.30476976 15750.95682224
0.06100000 1427342.71639029 13274.28788276
0.06200000 1420088.89191117 21471.74504936
0.06300000 1412755.00458683 16274.93841378
0.06400000 1405339.08933508 17812.67379036
0.06500000 1397847.31966063 19374.16475678
0.06600000 1390277.65560093 18163.97842029
0.06700000 1382633.17513660 18333.71676031
0.06800000 1374916.70276843 19922.54395567
0.06900000 1367129.11839399 18661.31333978
0.07000000 1359269.71534535 20266.71240486
0.07100000 1351343.60571149 20432.31627536
0.07200000 1343349.39772984 20593.54723194
0.07300000 1335292.15004937 17786.09227204
0.07400000 1327171.18406951 19409.87947664
0.07500000 1318988.62869868 19547.41239355
0.07600000 1310745.01233410 27250.39008394
0.07700000 1302445.42903364 19810.19590447
0.07800000 1294088.34765562 23002.42145831
0.07900000 1285675.55345150 23142.16104758
0.08000000 1277211.40175257 21725.36696297
0.08100000 1268695.87629799 20286.44801381
0.08200000 1260129.86472961 20395.20281770
0.08300000 1251516.06261679 22076.74438067
0.08400000 1242855.78832851 19015.69445400
0.08500000 1234152.52781337 22288.79569866
0.08600000 1225405.40625744 17590.69543274
0.08700000 1216618.33130030 22483.10781818
0.08800000 1207789.67021278 17736.39214004
0.08900000 1198925.69047391 17804.04733979
0.09000000 1190024.80681278 24365.75906409
0.09100000 1181090.12600926 26078.47120748
0.09200000 1172122.22105162 16351.10575195
0.09300000 1163124.86944859 18040.06757289
0.09400000 1154096.13636915 26313.39314588
0.09500000 1145040.51681579 18137.44263887
0.09600000 1135958.91637005 18181.02331115
0.09700000 1126854.53680557 16564.76246980
0.09800000 1117727.98942128 28217.04441964
0.09900000 1108581.05764846 23280.20330531
0.10000000 1099413.53218833 19987.33895513
0.10100000 1090228.38328776 18348.54455370
0.10200000 1081027.80823818 25052.82063431
0.10300000 1071812.59281761 21736.36040484
0.10400000 1062585.60926339 16735.72413323
0.10500000 1053349.23114427 18423.07891951
0.10600001 1044100.01084289 25136.70894381
0.10700001 1034845.56999296 16764.49902278
0.10800001 1025583.24898008 18445.11560097
0.10900001 1016317.17570305 18446.15760719
0.11000001 1007047.32097874 16767.33868353
0.11100001 997776.19031716 23467.69710096
0.11200001 988505.96877640 18430.69465550
0.11300001 979235.30368576 18419.41692953
0.11400001 969969.01582864 18405.16294195
0.11500001 960707.40823593 21731.20259758
0.11600001 951451.15479172 18367.76540822
0.11700001 942203.24756122 25015.49740085
0.11800001 932962.33776011 21649.39206737
0.11900001 923732.65460207 18289.90742261
0.12000001 914513.75904094 21577.95316100
0.12100001 905309.64696168 18223.88405183
0.12200001 896118.60277822 18186.72790018
0.12300001 886944.16089578 18146.87838691
0.12400001 877785.97631476 23041.88296394
0.12500001 868646.37799355 18059.15904944
0.12600001 859528.09172472 19648.81310275
0.12700001 850430.38074303 19593.91689571
0.12800001 841353.97706685 17908.22024587
0.12900001 832301.93202120 27590.81034692
0.13000001 823274.67817015 17795.08300742
0.13100001 814272.45566621 17734.85492039
0.13200001 805298.74594856 24098.56610852
0.13300001 796354.38979829 24010.08598433
0.13400001 787438.22623439 20729.31228292
0.13500001 778553.75809526 20647.24663817
0.13600001 769700.24248929 15817.34072895
0.13700001 760880.77140322 17325.25598179
0.13800001 752093.82279940 20385.50402827
0.13900001 743344.78024716 20293.31345774
0.14000001 734630.26499056 21752.40317223
0.14100001 725953.66574063 21647.93933337
0.14200001 717314.31836499 18463.67142556
0.14300001 708716.83118997 18369.94113091
0.14400001 700155.55509433 24365.41446660
0.14500001 691639.27959508 22720.35140647
0.14600001 683162.93608205 15063.74345123
0.14700001 674732.30202297 16476.96359273
0.14800001 666343.33081852 22339.16121962
0.14900001 657999.13302572 17765.97742991
0.15000001 649701.14841026 16187.30487641
0.15100001 641449.85922258 17550.06897643
0.15200001 633246.54659434 15986.30982312
0.15300001 625091.41744469 18771.49615167
0.15400001 616983.28989955 18648.32081725
0.15500001 608926.65703621 15673.77289180
0.15600001 600918.38296517 16981.95430406
0.15700001 592964.82468156 18269.24711069
0.15800001 585058.36028735 20930.46382717
0.15900001 577207.40209984 16623.57396512
0.16000001 569407.08279055 16501.41803818
0.16100001 561663.69499930 13648.42843275
0.16200001 553972.06144019 17608.00280408
0.16300001 546336.75404494 18815.83869756
0.16400001 538756.27372813 16001.06208513
0.16500001 531232.31389426 15873.22228856
0.16600001 523764.27049056 18368.41383333
0.16700001 516352.80467698 16915.71867989
0.16800001 508997.91154997 15483.71720044
0.16900001 501703.15428298 15352.11724596
0.17000001 494465.56686515 16487.95510567
0.17100001 487286.96015971 16343.60541552
0.17200001 480167.84255803 16198.46293363
0.17300001 473107.91307932 17287.36396030
0.17400001 466108.85389459 20800.10858735
0.17500001 459169.59292699 13334.28560835
0.17600001 452288.79738179 14409.92176515
0.17700001 445471.76033865 14272.91587537
0.17800001 438714.68178921 16491.28566737
0.17900001 432018.95142319 12830.96346332
0.18000001 425385.67756333 12704.14386051
0.18100001 418815.46022424 13720.39512505
0.18200001 412304.38947794 12449.53162838
0.18300001 405858.34846413 12321.86004145
0.18400001 399473.55372591 15519.54829541
0.18500001 393152.20713979 16453.42064609
0.18600001 386893.58061885 13022.83853887
0.18700001 380697.45461306 15029.93621821
0.18800001 374564.14244989 16990.23030425
0.18900001 368496.13737886 15753.21061725
0.19000001 362487.20214948 11423.78471550
0.19100001 356546.66284168 15402.81656254
0.19200001 350665.77489324 13197.30706170
0.19300001 344850.86943468 14049.22508463
0.19400001 339098.23885840 15869.79832848
0.19500001 333409.60736469 11762.69150367
0.19600001 327783.38718537 10654.59950396
0.19700001 322221.33537889 16268.95599211
0.19800001 316722.61911545 9454.17062739
0.19900001 311287.98598918 12140.23202733
0.20000001 305914.81908222 11990.33190060
0.20100001 300606.41498756 10930.04976553
0.20200001 295360.01873206 9893.08429501
0.20300001 290177.39917059 8879.42883430
0.20400001 285057.53503215 14024.83138648
0.20500001 279999.57569044 9517.18602757
0.20600001 275004.99807207 10246.68671251
0.20700001 270072.37370352 13482.01353256
0.20800001 265201.88472517 9976.89537497
0.20900001 260395.76369073 10663.20702720
0.21000001 255648.88118526 11327.80246081
0.21100001 250964.02529351 12769.05021057
0.21200001 246340.52573543 8657.63818626
0.21300001 241778.28690024 10089.40838933
0.21400001 237277.68187028 9182.64672250
0.21500001 232838.52262615 9807.15903667
0.21600001 228458.18874345 9667.20871373
0.21700001 224138.91288322 7329.34279781
0.21800001 219879.50500877 8667.65049726
0.21900001 215678.67889439 9252.61576205
0.22000001 211537.03152808 9116.18880474
0.22100001 207456.63475032 6908.30626383
0.22200001 203433.94271396 8165.83884666
0.22300001 199469.36029809 7372.38790522
0.22400001 195561.14196230 7260.20773866
0.22500001 191713.95964800 7149.01389333
0.22600001 187922.00027658 9598.11661800
0.22700001 184188.29266780 6929.16389784
0.22800001 180510.50628160 7440.64342080
0.22900001 176888.57691177 7323.18743047
0.23000001 173322.84918361 7807.32811070
0.23100001 169814.15641031 7682.39279932
0.23200001 166358.54497892 7558.50084859
0.23300001 162958.95879439 11439.71944840
0.23400001 159613.72083910 5626.38392568
0.23500001 156321.17519187 6087.14684987
0.23600001 153083.08676140 9251.57678600
0.23700001 149897.90481010 7491.89763676
0.23800001 146765.39795730 8418.46362501
0.23900001 143685.34915482 7241.74193993
0.24000001 140656.77438527 7118.63968835
0.24100001 137681.00519354 5997.38486991
0.24200001 134755.35418293 5403.01618154
0.24300001 131880.35189346 7240.23166143
0.24400001 129055.00260038 4742.77156991
0.24500001 126279.64539860 7455.55061701
0.24600001 123553.67609306 4577.66391579
0.24700001 120877.00470272 5845.61222396
0.24800001 118247.70792857 5741.51773008
0.24900001 115666.20506038 5204.97947395
0.25000001 113132.64164474 4259.44415943
0.25100001 110645.41170531 4600.63643636
0.25200001 108205.64493642 5338.32574549
0.25300001 105812.02951656 5644.01392143
0.25400001 103463.06288390 4353.20857680
0.25500001 101159.39150652 4661.42498116
0.25600001 98900.57899868  4193.87925086
0.25700001 96685.79032922  4490.08831533
0.25800001 94514.49284727  4406.26586502
0.25900001 92386.78467739  3963.39325019
0.26000001 90302.25367005  4242.40007815
0.26100001 88257.79095658  3815.38448358
0.26200001 86257.68311551  3402.86575992
0.26300001 84297.33666839  4005.80962803
0.26400001 82377.83801108  4584.32690224
0.26500001 80499.41620142  4175.50491595
0.26600001 78659.87363221  3465.36089685
0.26700001 76860.91742836  3398.78992951
0.26800001 75100.58682421  4545.46323263
0.26900001 73378.07937366  3863.35606184
0.27000001 71694.28650677  3205.81017286
0.27100001 70047.70604144  4001.12515843
0.27200001 68438.56756245  4484.09515889
0.27300001 66865.31817762  3297.79764859
0.27400001 65327.22363474  5120.02139468
0.27500001 63826.94822496  3963.65367235
0.27600001 62359.70279552  3368.35950591
0.27700001 60928.91698480  2794.80955436
0.27800001 59531.10221153  2491.37674546
0.27900001 58167.82015094  3420.26798675
0.28000001 56837.33659931  3114.40200636
0.28100001 55539.58923985  2349.32473604
0.28200001 54274.63543518  3455.93757490
0.28300001 53041.55338839  2485.52730942
0.28400001 51840.06496134  3545.86061118
0.28500001 50669.64302101  3260.59168273
0.28600001 49529.19721038  3624.79446941
0.28700001 48419.29886495  2719.22795296
0.28800001 47338.41199821  2462.54430871
0.28900001 46288.17930140  2617.59666339
0.29000001 45265.38244083  2568.58424819
0.29100001 44272.23541618  1939.12400302
0.29200001 43306.26022479  2093.64124967
0.29300001 42367.85462291  2242.10697278
0.29400001 41456.31205705  2017.88608490
0.29500001 40572.53222325  2341.84667078
0.29600001 39713.75521924  3007.72139391
0.29700001 38880.68542706  2433.15340921
0.29800001 38073.51669638  1878.35703513
0.29900001 37291.30022083  2517.16288407
0.30000001 36533.40176376  1649.48316772
0.30100001 35800.52132025  1783.94006184
0.30200001 35090.16340255  2073.30240279
0.30300001 34403.71404778  1725.69037833
0.30400001 33740.82738766  2006.73580388
0.30500001 33099.31589433  1823.11040577
0.30600001 32480.36220597  1645.29282544
0.30700001 31883.42784965  1914.91876731
0.30800001 31307.77041405  2176.67284109
0.30900001 30752.96764339  1573.01436943
0.31000001 30219.60513964  1550.71911116
0.31100001 29704.82304952  1668.22294144
0.31200001 29211.15542223  1371.46381201
0.31300001 28736.15415800  1488.82021742
0.31400001 28281.86320303  1737.21352950
0.31500001 27845.40060668  1715.83366662
0.31600002 27427.18745242  2738.74193273
0.31700002 27026.80914133  1547.01462850
0.31800002 26644.47920799  1529.92606856
0.31900002 26279.78434142  1513.71564974
0.32000002 25931.76094053  1498.33721809
0.32100002 25600.73743669  1360.16724442
0.32200002 25286.30626552  1347.63375623
0.32300002 24987.00757764  1821.55293866
0.32400002 24703.86658870  1565.60761919
0.32500002 24435.52972013  1911.83593583
0.32600002 24182.80152739  1660.63305952
0.32700002 23944.47231885  1767.10214081
0.32800002 23721.31876650  1755.97070484
0.32900002 23511.00362348  1512.93315481
0.33000002 23315.97531134  1504.92969773
0.33100002 23132.11357573  1382.37517275
0.33200002 22963.78755770  1491.15361567
0.33300002 22807.04158736  1371.15940516
0.33400002 22663.63200990  1366.61707491
0.33500002 22531.82366334  1476.28515633
0.33600002 22412.16028129  1699.40213381
0.33700002 22303.32728176  1356.93449608
0.33800002 22207.39635684  1580.94462151
0.33900002 22121.20740951  1240.99979444
0.34000002 22046.66373485  1353.22428413
0.34100002 21982.46759105  1691.55096124
0.34200002 21929.42174174  1466.74944266
0.34300002 21885.03232196  1468.04803768
0.34400002 21851.34876797  1583.13029322
0.34500002 21826.73266553  1246.08822689
0.34600002 21812.63987317  2043.62632650
0.34700002 21805.31129057  1479.70849426
0.34800002 21808.40577234  1370.00411550
0.34900002 21819.58149144  1603.73931558
0.35000002 21839.19686600  1379.80052334
0.35100002 21866.79578481  1270.02355933
0.35200002 21901.50161035  1855.49530431
0.35300002 21944.18808510  1864.37830801
0.35400002 21994.55367906  1288.33104277
0.35500002 22051.80937031  1295.32334376
0.35600002 22115.43634562  1539.56617412
0.35700002 22185.93527986  1548.80021525
0.35800002 22263.39192325  1438.66045422
0.35900002 22346.71406205  1327.39487816
0.36000002 22436.71412904  2429.89625527
0.36100002 22531.61707249  1590.50692448
0.36200002 22633.37765472  1602.10371318
0.36300002 22738.71660081  1862.30097782
0.36400002 22850.18441022  1376.15242129
0.36500002 22966.04387878  1386.91945553
0.36600002 23087.48600773  1398.06278142
0.36700002 23212.97033004  1409.49162521
0.36800002 23344.36592899  1679.74392999
0.36900002 23478.94855771  2084.93073069
0.37000002 23616.78484080  1577.12896638
0.37100002 23758.97321662  1458.32584512
0.37200002 23905.30879880  1337.50209065
0.37300002 24054.54805041  1619.35225146
0.37400002 24208.22663940  1770.22665686
0.37500002 24364.04449113  1923.78504415
0.37600002 24523.87226322  1802.87255483
0.37700002 24685.30581630  2239.45104974
0.37800002 24850.54700142  1836.57976314
0.37900002 25017.99284220  1568.62822552
0.38000002 25187.99739068  1727.39294288
0.38100002 25359.77848437  1598.42691359
0.38200002 25533.91079189  1760.30789338
0.38300002 25709.69569922  1628.96639667
0.38400002 25888.14023081  1943.55221990
0.38500002 26066.88745864  1811.12742643
0.38600002 26248.60052891  1980.85073276
0.38700002 26430.53486393  1999.73436254
0.38800002 26613.80439628  1863.49867211
0.38900002 26798.27609852  1724.46914864
0.39000002 26984.52474596  1740.90669646
0.39100002 27170.67232691  1757.39916936
0.39200002 27358.06664569  1935.30972620
0.39300002 27545.79157279  2441.93453862
0.39400002 27734.84010557  2464.93403116
0.39500002 27923.29798972  2487.96596876
0.39600002 28112.16705527  2176.30351569
0.39700002 28300.82584125  2027.47125933
0.39800002 28490.63263695  2216.71377734
0.39900002 28679.32818921  1720.75977288
0.40000002 28867.98963719  1910.05062484
0.40100002 29056.13780351  2628.12778885
0.40200002 29245.11434522  1944.65397052
0.40300002 29432.50436523  2140.33181885
0.40400002 29619.26033475  2159.24418071
0.40500002 29805.53250977  2178.18841902
0.40600002 29991.25787042  2563.35293164
0.40700002 30176.00088760  2031.44847601
0.40800002 30360.00943619  2607.62133403
0.40900002 30542.26409055  2254.01919668
0.41000002 30724.18345486  2272.97519969
0.41100002 30904.55496865  2673.86222258
0.41200002 31082.98777335  2888.38677570
0.41300002 31260.68572023  2135.41754273
0.41400002 31436.74323478  3718.18098227
0.41500002 31611.73593613  2169.82965747
0.41600002 31783.96984152  3578.55733402
0.41700002 31955.27611492  2404.31508881
0.41800002 32125.68296026  2826.73897762
0.41900002 32292.39519354  2441.30519231
0.42000002 32457.97925249  3074.58223038
0.42100002 32622.20631930  2684.48148522
0.42200002 32784.24237060  2496.19233238
0.42300002 32943.78183562  3142.83693604
0.42400002 33101.08312251  2110.19414905
0.42500002 33256.74317655  2337.61658865
0.42600002 33408.90218380  2567.80834353
0.42700002 33560.02789140  2154.55389272
0.42800002 33708.30805973  3036.78161700
0.42900002 33854.71199926  2183.62902743
0.43000002 33998.62781918  2857.41481047
0.43100002 34138.69589283  2654.62511842
0.43200002 34277.21283358  3116.82711066
0.43300002 34412.78750393  2912.35434447
0.43400002 34546.06371001  2704.95691668
0.43500002 34676.31197653  3401.74636610
0.43600002 34804.69944348  2737.73778796
0.43700002 34929.46218974  2524.35235208
0.43800002 35050.72460176  2769.70838929
0.43900002 35170.38032802  3017.61877515
0.44000002 35286.33868475  3034.44883900
0.44100002 35400.07951758  2581.72792157
0.44200002 35510.66693800  2595.65232284
0.44300002 35618.56257956  2372.19638022
0.44400002 35723.00658925  2622.96188312
0.44500002 35823.62313598  3834.56080220
0.44600002 35922.06563929  2890.28953831
0.44700002 36017.59715772  2662.42090807
0.44800002 36109.10815718  3404.72796950
0.44900002 36198.84259482  2932.10638914
0.45000002 36285.09363179  3436.56138073
0.45100002 36367.07322970  2958.82521819
0.45200002 36446.76969547  2971.86974181
0.45300002 36522.76295908  2735.92030293
0.45400002 36596.18541601  3496.76568222
0.45500002 36666.24662198  2758.76852658
0.45600002 36732.74596092  3273.43881145
0.45700002 36796.15142816  3539.05401209
0.45800002 36855.69616144  3806.27220147
0.45900002 36912.25650070  2801.64040118
0.46000002 36966.30679742  3323.08630705
0.46100002 37015.90522556  3078.24282445
0.46200002 37063.05306382  2831.43207301
0.46300002 37106.46149072  2582.60984216
0.46400002 37146.21424096  3627.32799255
0.46500002 37183.51678914  3118.95353610
0.46600002 37216.75088748  3389.14358020
0.46700002 37246.71805844  3922.07959744
0.46800002 37274.01759614  2622.22726217
0.46900002 37297.29187754  3681.24288279
0.47000002 37317.08211988  3691.03276742
0.47100002 37333.94782099  2643.24363101
0.47200002 37347.31943612  3709.70941542
0.47300002 37357.93427648  2921.76417825
0.47400002 37363.97283180  2662.18319045
0.47500002 37367.78247919  4002.08969321
0.47600002 37368.63220036  2673.72576066
0.47700002 37365.05038060  2679.07423927
