# SAXS profile: number of points = 501, q_min = 0, q_max = 0.5, delta_q = 0.001
#    q    intensity    error
0.00000000 1664650.74656090 299.63713438
0.00100000 1664582.05676348 749.06194333
0.00200000 1664375.93687896 823.86611484
0.00300000 1664032.55141275 1397.78739298
0.00400000 1663551.76747485 1372.43026032
0.00500000 1662934.05695710 2394.62513680
0.00600000 1662179.12942259 2094.34578834
0.00700000 1661287.66508779 1993.54528096
0.00800000 1660259.10471093 2241.34988599
0.00900000 1659094.78997288 2737.50652048
0.01000000 1657793.89751700 3282.43205882
0.01100000 1656357.66960197 3279.58832860
0.01200000 1654785.57418509 4194.88161448
0.01300000 1653078.96835958 4512.90578266
0.01400000 1651237.15255337 4086.81213374
0.01500000 1649261.85519685 4354.05149160
0.01600000 1647151.98029571 4620.26151127
0.01700000 1644909.61560199 5773.63300976
0.01800000 1642534.36209052 5149.34545686
0.01900000 1640026.86941648 5412.08891328
0.02000000 1637387.86521503 5673.54920962
0.02100000 1634618.92123729 6473.09122158
0.02200000 1631718.24514660 9007.08512242
0.02300000 1628688.80142589 6449.60794722
0.02400000 1625530.35305272 6095.73910190
0.02500000 1622244.32429187 6959.42846905
0.02600000 1618830.91324565 6556.26549852
0.02700000 1615291.04730860 7462.64498036
0.02800000 1611624.73475964 7010.56791771
0.02900000 1607834.51248099 7958.78120220
0.03000000 1603920.58718484 11187.34660984
0.03100000 1599883.32962074 8447.38436909
0.03200000 1595723.73553511 11058.36599659
0.03300000 1591444.61958458 10551.27831426
0.03400000 1587043.88645973 11664.77310370
0.03500000 1582524.96500111 11109.32576732
0.03600000 1577887.54938373 13135.91445568
0.03700000 1573133.49434364 8966.86133245
0.03800000 1568264.15922606 13761.51863409
0.03900000 1563280.65852014 11255.62126259
0.04000000 1558182.02096832 12457.66583492
0.04100000 1552972.19512793 10762.09781124
0.04200000 1547651.50837584 14973.52903820
0.04300000 1542219.99330187 13232.24815674
0.04400000 1536681.48589116 14521.64071608
0.04500000 1531035.30790626 11620.55852696
0.04600000 1525281.99025428 11828.56238429
0.04700000 1519424.78013021 16409.78838859
0.04800000 1513463.76878245 13348.75106175
0.04900000 1507401.81842867 13566.61699735
0.05000000 1501238.20759937 13781.36738751
0.05100000 1494976.51742350 16325.14433076
0.05200000 1488614.82939370 15384.83497874
0.05300000 1482158.80513959 13206.03556943
0.05400000 1475606.50347682 15825.88048781
0.05500000 1468962.08078942 14807.13846510
0.05600000 1462224.02552741 20003.22560265
0.05700000 1455397.13379456 17726.73791708
0.05800000 1448480.26917637 14100.95607884
0.05900000 1441475.40323934 12973.27923508
0.06000000 1434385.21168311 17062.01289009
0.06100000 1427211.13027088 17254.98337132
0.06200000 1419953.86385503 14760.42110473
0.06300000 1412616.32242803 14917.22906230
0.06400000 1405196.87403694 13700.67016260
0.06500000 1397701.58503301 15220.97097301
0.06600000 1390128.46630808 15367.87091408
0.06700000 1382480.33576910 15511.43009325
0.06800000 1374760.23484739 15651.64600638
0.06900000 1366969.12283942 20094.44704654
0.07000000 1359106.16514087 24606.61827217
0.07100000 1351176.36057066 16051.97591542
0.07200000 1343178.75860274 20590.93133400
0.07300000 1335118.06498621 16301.79233731
0.07400000 1326993.56035085 20900.14955499
0.07500000 1318807.58498734 22551.61076033
0.07600000 1310560.43326264 15136.97371381
0.07700000 1302257.51285891 24378.26178378
0.07800000 1293896.92790328 16865.94724617
0.07900000 1285480.82901148 26223.81014183
0.08000000 1277013.37192948 15515.71319680
0.08100000 1268494.44075353 17162.73058864
0.08200000 1259925.18529552 23529.10393950
0.08300000 1251308.16626200 17343.13199834
0.08400000 1242644.51340813 20596.83377653
0.08500000 1233938.07049334 19101.36222795
0.08600000 1225187.86905953 19186.44293030
0.08700000 1216397.62645772 19267.73930786
0.08800000 1207565.74878195 20957.30455434
0.08900000 1198698.80238159 16182.43459224
0.09000000 1189794.99653457 25985.12394498
0.09100000 1180857.41378701 21184.58299862
0.09200000 1171886.57963675 19617.38226488
0.09300000 1162886.50737737 19676.04062944
0.09400000 1153854.96036983 23019.40754123
0.09500000 1144796.60738125 21430.59349747
0.09600000 1135712.38639483 21482.00079848
0.09700000 1126605.32267357 18217.20892407
0.09800000 1117476.35154682 23232.33444099
0.09900000 1108326.93566794 16624.90481676
0.10000000 1099156.96658022 18317.45170948
0.10100000 1089969.49581220 23347.14769836
0.10200000 1080766.60027165 25046.76713940
0.10300000 1071549.22953414 18387.78564378
0.10400000 1062320.16060511 18404.69764833
0.10500000 1053081.66536241 26790.39882729
0.10600001 1043830.32089038 16753.47743860
0.10700001 1034574.05819015 16760.10053137
0.10800001 1025309.90719877 25145.72665745
0.10900001 1016042.13339351 20117.63518804
0.11000001 1006770.57021535 28496.64233127
0.11100001 997497.84626969 20109.55752742
0.11200001 988226.08016027 31825.82240983
0.11300001 978954.06173016 20088.13829247
0.11400001 969686.53795250 18399.80292399
0.11500001 960423.45559368 21724.77958851
0.11600001 951166.02100142 18362.26090014
0.11700001 941917.05011124 25007.89885820
0.11800001 932675.09111764 19977.90139267
0.11900001 923444.37287699 19946.39939365
0.12000001 914224.82457851 18252.49948249
0.12100001 905019.88830452 16561.86473617
0.12200001 895828.26749294 19833.63877668
0.12300001 886653.21507340 19790.10069284
0.12400001 877494.71541762 16453.02668931
0.12500001 868354.68177229 24617.85638825
0.12600001 859236.11993465 18005.29374170
0.12700001 850138.20766552 26116.24697025
0.12800001 841061.92575476 19529.45883643
0.12900001 832009.79140232 21091.44920613
0.13000001 822982.70544552 19405.93310910
0.13100001 813980.69897043 20951.86417912
0.13200001 805007.27648211 20877.86469975
0.13300001 796063.30770516 16000.87323920
0.13400001 787147.62958412 17533.71427562
0.13500001 778263.96023922 19051.90264492
0.13600001 769411.10264397 17392.53879534
0.13700001 760592.46741135 22041.97074493
0.13800001 751806.41223578 20377.71376458
0.13900001 743058.28866701 21845.91471702
0.14000001 734344.95524380 15531.39653588
0.14100001 725669.59827842 18548.11580678
0.14200001 717031.50655473 21532.45715742
0.14300001 708435.48170947 21423.08997737
0.14400001 699875.86401969 21311.22106465
0.14500001 691361.02524062 22711.21075049
0.14600001 682886.36359909 16563.40953046
0.14700001 674457.59783050 19464.84719167
0.14800001 666070.62660631 14886.67920698
0.14900001 657728.26876852 19238.55276917
0.15000001 649432.44365121 16180.61009702
0.15100001 641183.33304921 17542.77681998
0.15200001 632982.47444389 18885.03301616
0.15300001 624829.71341158 17320.28047310
0.15400001 616723.99310881 20074.36692302
0.15500001 608669.90315481 18515.73932778
0.15600001 600664.28579960 16974.77351782
0.15700001 592713.50033476 16856.77274511
0.15800001 584809.97996399 16737.26241655
0.15900001 576962.02960395 18001.21617331
0.16000001 569164.61641120 13745.32613514
0.16100001 561424.38052331 16371.13570885
0.16200001 553736.06432261 13538.84741180
0.16300001 546104.00200928 14777.57499199
0.16400001 538526.94365826 14661.39673325
0.16500001 531006.30415216 17188.67487691
0.16600001 523541.88866401 19672.08739533
0.16700001 516134.13412378 14307.23887342
0.16800001 508783.03396431 16766.94567597
0.16900001 501491.99959033 15345.65591206
0.17000001 494258.38735175 19016.59235132
0.17100001 487083.69511561 12566.75992740
0.17200001 479968.46582955 18682.77341467
0.17300001 472912.79023685 12343.02440807
0.17400001 465917.96630495 15899.45135102
0.17500001 458982.84956935 14540.57736107
0.17600001 452106.53326196 13203.77192752
0.17700001 445293.74521313 17834.01533810
0.17800001 438541.16680927 11774.83088498
0.17900001 431850.02197613 11659.95114410
0.18000001 425221.30367247 17317.13841004
0.18100001 418655.71363112 14858.09197861
0.18200001 412149.44500809 15838.90391986
0.18300001 405708.09688121 11197.54400289
0.18400001 399328.14370482 14405.76346469
0.18500001 393011.73884118 13158.03363802
0.18600001 386758.06586898 15187.98996421
0.18700001 380566.92713997 16097.98177857
0.18800001 374438.69975188 12738.40516740
0.18900001 368375.60490546 17847.79890093
0.19000001 362371.91632354 16611.12942913
0.19100001 356436.50347922 10265.37178524
0.19200001 350560.81829384 11163.60978606
0.19300001 344751.17981351 11035.48578729
0.19400001 339003.99463844 13882.21423643
0.19500001 333320.65526999 11759.55327362
0.19600001 327699.72921431 10651.88020148
0.19700001 322143.11556686 12437.94627982
0.19800001 316649.79718953 13232.79564992
0.19900001 311220.74300797 12137.60955093
0.20000001 305852.98128796 10143.61460381
0.20100001 300550.20082635 9106.67151544
0.20200001 295309.16257361 8992.16442537
0.20300001 290132.15744084 9765.84888104
0.20400001 285017.78712012 8764.29736819
0.20500001 279965.46927466 9516.02675044
0.20600001 274976.39402294 11099.42266938
0.20700001 270049.43299485 8425.54270771
0.20800001 265184.50504446 10807.59501396
0.20900001 260383.93841029 9022.30389241
0.21000001 255642.88135374 11327.53660826
0.21100001 250963.60463033 9576.77160542
0.21200001 246345.73677929 7870.74666218
0.21300001 241788.96981272 7761.42629791
0.21400001 237294.15914264 8418.01069356
0.21500001 232860.51250765 7544.68096194
0.21600001 228485.78780464 9668.37656806
0.21700001 224172.08978250 8063.47045071
0.21800001 219918.29698457 7224.31639751
0.21900001 215723.09957937 9254.52140952
0.22000001 211586.90797615 8416.92759727
0.22100001 207512.07047381 9674.21318292
0.22200001 203494.78708681 8848.97123489
0.22300001 199535.53569979 8045.27317984
0.22400001 195632.93567920 7923.13426966
0.22500001 191791.15662516 6501.72051704
0.22600001 188004.58046370 8322.02314776
0.22700001 184276.41106556 6302.25355647
0.22800001 180603.83813052 9305.61319974
0.22900001 176987.09642818 7937.87165019
0.23000001 173426.70972025 6610.15935359
0.23100001 169923.18948754 6504.66000121
0.23200001 166472.74088144 6981.86708277
0.23300001 163078.28413752 6868.85765273
0.23400001 159738.09748973 6756.92184339
0.23500001 156450.52038176 7199.85328849
0.23600001 153217.46400472 7625.63354418
0.23700001 150037.19377262 8570.12491364
0.23800001 146909.56089789 7373.39121022
0.23900001 143834.31721670 6213.64279766
0.24000001 140810.43431617 5090.29744130
0.24100001 137839.31529787 5503.92412019
0.24200001 134918.32900934 5409.55065751
0.24300001 132047.95115485 7732.72838541
0.24400001 129226.99749973 5224.00162104
0.24500001 126456.08649632 5599.47577494
0.24600001 123734.53315708 5959.67407143
0.24700001 121062.09682602 5404.21225796
0.24800001 118437.00457902 4423.62233029
0.24900001 115859.82406202 6082.64105101
0.25000001 113330.16046395 4266.88074333
0.25100001 110846.94451258 5028.01764096
0.25200001 108411.02333385 4114.19853016
0.25300001 106021.25204166 4847.29187267
0.25400001 103676.13187537 3965.61223185
0.25500001 101376.08831218 5839.26296305
0.25600001 99120.85859945  4203.22020778
0.25700001 96909.54056891  4500.47927695
0.25800001 94741.67678487  5521.07147586
0.25900001 92617.22785870  3973.27926313
0.26000001 90535.92801790  3898.92992457
0.26100001 88494.68719421  4173.40964555
0.26200001 86497.60055227  4436.02965422
0.26300001 84540.22687241  3347.79314256
0.26400001 82623.50643202  4597.99835051
0.26500001 80747.89439667  4832.76170832
0.26600001 78911.03584752  4108.50327581
0.26700001 77114.71342102  3720.01395146
0.26800001 75356.84060337  3648.77839468
0.26900001 73636.70975625  2982.28688625
0.27000001 71955.19274237  3802.47234041
0.27100001 70310.72614385  4303.01664363
0.27200001 68703.78057682  3938.78792687
0.27300001 67132.50312948  4138.71901379
0.27400001 65596.28998644  3517.60121699
0.27500001 64097.74945181  3715.10573405
0.27600001 62632.12644042  3122.83797211
0.27700001 61202.96397861  3062.59646243
0.27800001 59806.70374910  3253.78387146
0.27900001 58444.75078452  2945.61557895
0.28000001 57115.53620926  2648.16196168
0.28100001 55818.89693231  3069.48128758
0.28200001 54554.98878535  3010.61719861
0.28300001 53322.85920016  2271.55390944
0.28400001 52122.12135117  2673.86495187
0.28500001 50952.49819361  2404.44850356
0.28600001 49812.73764892  2358.88230302
0.28700001 48703.37242859  2735.18152505
0.28800001 47622.83205621  2270.89485409
0.28900001 46572.96122723  2633.70108206
0.29000001 45550.41318819  2783.58588169
0.29100001 44557.26588159  2537.09083939
0.29200001 43591.37282545  2107.42501900
0.29300001 42652.78452116  2257.18546371
0.29400001 41741.09480953  2031.74788603
0.29500001 40856.96004711  1995.45402316
0.29600001 39997.77048105  2672.85113892
0.29700001 39164.11895290  2625.95430010
0.29800001 38356.34462300  2580.42320667
0.29900001 37573.37427831  2705.28307610
0.30000001 36814.61734775  1994.61606233
0.30100001 36080.80823425  2288.24496654
0.30200001 35369.35808702  1768.29114127
0.30300001 34681.83218413  1739.64078471
0.30400001 34017.66367965  2178.83146183
0.30500001 33374.76836724  1838.28232870
0.30600001 32754.32504386  1960.83776158
0.30700001 32155.91462776  2228.40498920
0.30800001 31578.60867073  1463.66858118
0.30900001 31022.03393204  2019.53450459
0.31000001 30486.81242160  1564.43085348
0.31100001 29970.17463310  1402.60423924
0.31200001 29474.45054892  1522.20807067
0.31300001 28997.35075235  1912.08539914
0.31400001 28540.85475235  1618.26654108
0.31500001 28101.99837593  1731.64522191
0.31600002 27681.48039965  1711.13079192
0.31700002 27278.53084905  1431.30458142
0.31800002 26893.72060411  1544.23751021
0.31900002 26526.38448318  1909.89977322
0.32000002 26175.55492754  1512.42363533
0.32100002 25841.77230232  1497.78919356
0.32200002 25524.38753208  1360.32229793
0.32300002 25222.12578828  1593.53398276
0.32400002 24935.90411921  1823.43807506
0.32500002 24664.43114447  1447.30888809
0.32600002 24408.50773672  1556.40856953
0.32700002 24166.86687978  2021.31684154
0.32800002 23940.27741706  1654.03384507
0.32900002 23726.50062910  1409.35420411
0.33000002 23527.99070033  1168.16479359
0.33100002 23340.58706518  1394.83354907
0.33200002 23168.59978137  1620.18025943
0.33300002 23008.08702319  1729.05782167
0.33400002 22860.87559771  1263.63495850
0.33500002 22725.25411448  1603.49400625
0.33600002 22601.68515013  1713.77285767
0.33700002 22488.94208447  1596.26518475
0.33800002 22388.91338031  1593.86681903
0.33900002 22298.68944883  1705.84982362
0.34000002 22219.99165487  1250.20788967
0.34100002 22151.53057243  1363.64828662
0.34200002 22094.26466448  1364.09996499
0.34300002 22045.58565447  1251.30750101
0.34400002 22007.53813630  1252.77916774
0.34500002 21978.56790945  1482.89404708
0.34600002 21959.97512823  1257.31843551
0.34700002 21948.25539188  1374.83878286
0.34800002 21946.77481568  1263.80508762
0.34900002 21953.42978647  1383.06614205
0.35000002 21968.42710630  1272.30151612
0.35100002 21991.36673925  1277.25864071
0.35200002 22021.39886795  1399.23975034
0.35300002 22059.41436389  1405.62594984
0.35400002 22105.07154273  2001.06169618
0.35500002 22157.59299948  1419.85862666
0.35600002 22216.40373002  1665.56386653
0.35700002 22282.12654897  1555.51532806
0.35800002 22354.80259192  1444.56741191
0.35900002 22433.27303393  1332.53648133
0.36000002 22518.38842747  1950.99326577
0.36100002 22608.42193038  1718.69231656
0.36200002 22705.31486769  1236.30445311
0.36300002 22805.73295249  1618.75100164
0.36400002 22912.35754889  1881.67745283
0.36500002 23023.23824773  1390.37342364
0.36600002 23139.74410575  1528.61156803
0.36700002 23260.33726202  1412.36774545
0.36800002 23386.71099667  2200.57267547
0.36900002 23516.41034799  1566.19300336
0.37000002 23649.29980347  1447.69195605
0.37100002 23786.50649212  1990.93068770
0.37200002 23928.00123440  1472.64890573
0.37300002 24072.33143652  1485.50364332
0.37400002 24221.07550606  1771.16623028
0.37500002 24371.90736010  1512.03320425
0.37600002 24526.88602624  1803.09411163
0.37700002 24683.41812486  1679.45984877
0.37800002 24843.80273577  2118.55537865
0.37900002 25006.45907593  1567.90505834
0.38000002 25171.61655800  2301.69272710
0.38100002 25338.55520071  2032.65899449
0.38200002 25507.91076541  1758.51545147
0.38300002 25678.97497160  2366.57444550
0.38400002 25852.61879754  1791.58656754
0.38500002 26026.75728791  1657.64425020
0.38600002 26203.72574340  2129.57689205
0.38700002 26380.99873800  1995.98645908
0.38800002 26559.68693536  2169.66092854
0.38900002 26739.55075477  2033.54293124
0.39000002 26921.25959522  2684.18431511
0.39100002 27102.92590144  1912.38254221
0.39200002 27285.84202067  1930.20055599
0.39300002 27469.16592116  2110.45611771
0.39400002 27653.81585217  1802.33753356
0.39500002 27837.95576783  1984.28958114
0.39600002 28022.49499192  2002.48758700
0.39700002 28206.92361254  1683.95341945
0.39800002 28392.47063577  1869.21839287
0.39900002 28577.06856180  2057.54903393
0.40000002 28761.62024113  1903.01269342
0.40100002 28945.67577549  2269.05163155
0.40200002 29130.65167529  2817.51676353
0.40300002 29314.08963136  2487.00748216
0.40400002 29496.99682028  1971.13690591
0.40500002 29679.44497883  2349.72177031
0.40600002 29861.33596325  2552.24850571
0.40700002 30042.41142735  2574.03393306
0.40800002 30222.71666652  2410.41288195
0.40900002 30401.38303083  2056.65365948
0.41000002 30579.75057682  2450.81422610
0.41100002 30756.68980520  2280.91622403
0.41200002 30931.76071082  2491.08946688
0.41300002 31106.04102872  3283.86490700
0.41400002 31278.80841870  2141.81650796
0.41500002 31450.61147281  1962.51824889
0.41600002 31619.62695632  2966.71163975
0.41700002 31787.93914748  2192.41426689
0.41800002 31955.34594139  2209.23294634
0.41900002 32119.14941335  2832.90911249
0.42000002 32281.88584276  3873.34225638
0.42100002 32443.25689237  2053.65825860
0.42200002 32602.60409770  3723.54359044
0.42300002 32759.47825283  2291.85320717
0.42400002 32914.26381240  2937.59818446
0.42500002 33067.46324497  2113.01100148
0.42600002 33217.18057449  2765.82867160
0.42700002 33365.97241110  2570.51463636
0.42800002 33511.89584415  4097.33213954
0.42900002 33656.11581443  2387.90153019
0.43000002 33797.97244530  2403.54292434
0.43100002 33936.00264350  3298.57961326
0.43200002 34072.62130112  2213.01685838
0.43300002 34206.21751924  2449.50735263
0.43400002 34337.71394927  2240.53594137
0.43500002 34466.27048833  3155.73187546
0.43600002 34593.03337380  2721.08813413
0.43700002 34716.18919308  2280.85373807
0.43800002 34836.03858525  2523.34857450
0.43900002 34954.16336670  2537.67238068
0.44000002 35068.82002866  3015.74332128
0.44100002 35181.34947914  2799.02829721
0.44200002 35290.76344392  3283.09987878
0.44300002 35397.64805181  3064.72851356
0.44400002 35501.00045195  2843.63027096
0.44500002 35600.68230339  3334.36006255
0.44600002 35698.26050768  2872.28217657
0.44700002 35793.05616092  2405.29348800
0.44800002 35883.89363067  2900.13642067
0.44900002 35973.01817164  2670.99672583
0.45000002 36058.71087774  2439.37190649
0.45100002 36140.22485390  2695.33809734
0.45200002 36219.60850028  2953.34701708
0.45300002 36295.30521917  2966.05248308
0.45400002 36368.48893846  3971.43918030
0.45500002 36438.43313096  2492.38894428
0.45600002 36504.82254545  3002.88684491
0.45700002 36568.25297365  3014.68691802
0.45800002 36627.86878622  2774.01177400
0.45900002 36684.60962813  2784.36200274
0.46000002 36739.00204940  3048.60253455
0.46100002 36788.83942299  2804.41336213
0.46200002 36836.39153886  3325.77376771
0.46300002 36880.27628603  3336.92755651
0.46400002 36920.51256793  3347.76763577
0.46500002 36958.45013059  3358.41452254
0.46600002 36992.43194365  2591.31998047
0.46700002 37023.11712267  3378.72982875
0.46800002 37051.26123499  3127.86762171
0.46900002 37075.40759202  2613.81635912
0.47000002 37096.12366891  2620.84126143
0.47100002 37114.07549744  3153.21200371
0.47200002 37128.57139837  2897.69949213
0.47300002 37140.32458608  3432.88036420
0.47400002 37147.58630769  3176.11877985
0.47500002 37152.71028270  2917.97400391
0.47600002 37154.90435002  4253.49365160
0.47700002 37152.77119807  3729.39534963
