# SAXS profile: number of points = 501, q_min = 0, q_max = 0.5, delta_q = 0.001
#    q    intensity    error
0.00000000 1682732.95097189 302.89193117
0.00100000 1682663.67795998 757.19867306
0.00200000 1682455.81297560 1287.07873768
0.00300000 1682109.51097289 1009.26574254
0.00400000 1681624.65469340 1765.70595452
0.00500000 1681001.71222335 1664.19176097
0.00600000 1680240.36810254 1764.25245833
0.00700000 1679341.35097462 2418.25164591
0.00800000 1678304.06514913 2718.85270033
0.00900000 1677129.88387764 2515.69493336
0.01000000 1675817.94999484 3594.62965795
0.01100000 1674369.52484200 3315.25180353
0.01200000 1672784.09385558 3588.12203864
0.01300000 1671062.98389416 4211.07890514
0.01400000 1669205.49973011 4131.28379498
0.01500000 1667213.43066274 4401.44365294
0.01600000 1665085.61428067 5095.16220747
0.01700000 1662824.18832253 5387.55061184
0.01800000 1660428.65566509 5205.44406974
0.01900000 1657899.82852133 7957.91953598
0.02000000 1655238.35970350 8863.80181717
0.02100000 1652445.80102055 7634.29994684
0.02200000 1649520.39815404 6829.01475862
0.02300000 1646465.09508951 7705.45699576
0.02400000 1643279.63124087 7394.75867777
0.02500000 1639965.57180850 8314.62582880
0.02600000 1636522.90412618 7290.70987135
0.02700000 1632952.79028670 12345.12365999
0.02800000 1629255.13097720 7087.26014477
0.02900000 1625432.34484546 8045.89047641
0.03000000 1621484.85058542 9047.88588216
0.03100000 1617412.92677820 9316.29888691
0.03200000 1613217.65824319 8783.97055371
0.03300000 1608901.72915901 10667.01895608
0.03400000 1604463.15416598 8423.43194803
0.03500000 1599905.26116822 11231.33545204
0.03600000 1595227.84705145 9738.86645632
0.03700000 1590432.78306514 9065.46728273
0.03800000 1585521.27381777 12057.88984542
0.03900000 1580494.70611416 14224.45301376
0.04000000 1575351.89369202 11626.09751419
0.04100000 1570096.94453357 9891.61120920
0.04200000 1564730.07532457 13120.26229028
0.04300000 1559251.38029601 12349.27150517
0.04400000 1553664.62700086 12584.68406316
0.04500000 1547969.27909244 12817.18622643
0.04600000 1542165.81200698 11959.49642807
0.04700000 1536257.41303334 12167.15927709
0.04800000 1530244.31564043 16870.94436491
0.04900000 1524129.33304345 11430.97052991
0.05000000 1517911.74887825 13934.43050357
0.05100000 1511595.03941686 12969.48604237
0.05200000 1505177.56375685 19145.85950321
0.05300000 1498664.61218579 18208.77588691
0.05400000 1492054.57256377 13540.39587746
0.05500000 1485351.46065373 17467.73399215
0.05600000 1478553.86187408 13905.79971983
0.05700000 1471666.54076245 14083.84945251
0.05800000 1464688.35865773 12962.49257937
0.05900000 1457621.18794661 17054.16869550
0.06000000 1450467.93691092 15926.13869133
0.06100000 1443230.02696708 18790.85582923
0.06200000 1435907.90043677 17640.12938143
0.06300000 1428504.82907200 17827.74110036
0.06400000 1421019.00396703 16625.92312395
0.06500000 1413456.36435159 16791.86239398
0.06600000 1405815.18071701 19779.82051816
0.06700000 1398098.28569450 19964.84445405
0.06800000 1390308.60942214 14389.69478109
0.06900000 1382447.12744552 14515.69551779
0.07000000 1374512.96171935 17566.27647338
0.07100000 1366511.32088194 16234.15525245
0.07200000 1358440.94399962 16362.42193700
0.07300000 1350307.03082369 17986.09049332
0.07400000 1342108.27320813 16608.59065930
0.07500000 1333847.60850511 21288.20882957
0.07600000 1325524.90051243 16840.79465052
0.07700000 1317145.75025963 23115.90900093
0.07800000 1308708.27958097 18609.83260837
0.07900000 1300214.69784062 17162.83481650
0.08000000 1291669.11430929 20401.91461759
0.08100000 1283071.41961717 20516.31296227
0.08200000 1274422.53128288 22213.18576262
0.08300000 1265725.70905196 15948.14468253
0.08400000 1256981.38794474 24039.77017284
0.08500000 1248193.57043920 24152.54672184
0.08600000 1239361.74508944 16173.67153280
0.08700000 1230488.90007599 19490.94509245
0.08800000 1221574.19514808 24462.02440667
0.08900000 1212623.64216539 16370.41993815
0.09000000 1203635.80350950 16429.62948969
0.09100000 1194613.62993947 16485.66886768
0.09200000 1185557.95328455 21500.09449303
0.09300000 1176472.20591401 26541.21421265
0.09400000 1167354.72653318 19961.76676187
0.09500000 1158209.75673201 25017.33192129
0.09600000 1149038.52287422 20062.21355246
0.09700000 1139844.11451967 21782.42205252
0.09800000 1130627.20211570 16789.81474084
0.09900000 1121389.54941553 20185.01283863
0.10000000 1112130.92407433 23588.29800891
0.10100000 1102854.43233360 20248.40832996
0.10200000 1093562.16417777 20274.64347750
0.10300000 1084254.95169952 18605.81584640
0.10400000 1074935.65666862 23702.33234462
0.10500000 1065606.61218868 25414.71889645
0.10600001 1056264.52369340 25429.56960447
0.10700001 1046916.99207325 25440.08410453
0.10800001 1037561.34511671 18660.54167012
0.10900001 1028201.74518754 18661.86255349
0.11000001 1018838.30538060 18660.02444136
0.11100001 1009473.33349616 20350.98336127
0.11200001 1000108.72162462 16951.84362958
0.11300001 990743.91618592 20330.06611729
0.11400001 981383.24560112 23700.40649719
0.11500001 972026.93078109 16913.26939200
0.11600001 962676.05324225 18584.46208301
0.11700001 953333.58160595 20248.80622693
0.11800001 943997.61650526 16850.35824824
0.11900001 934673.03947718 23553.76170425
0.12000001 925359.25346436 18474.79836567
0.12100001 916060.17697517 21793.07263687
0.12200001 906773.99272491 20075.97714473
0.12300001 897504.41861418 23371.01616182
0.12400001 888251.15396565 19985.65190590
0.12500001 879016.39395932 19936.09275440
0.12600001 869803.00587939 21540.67245567
0.12700001 860610.21225652 21480.83191024
0.12800001 851438.84418672 18122.87665263
0.12900001 842291.69368321 21352.09544124
0.13000001 833169.67784323 16371.78494130
0.13100001 824072.63224219 22843.29444253
0.13200001 815004.06199476 21137.13134425
0.13300001 805965.07493411 21059.86840085
0.13400001 796954.35284753 19365.99168722
0.13500001 787975.60252671 17682.17335438
0.13600001 779027.79284885 16009.02189788
0.13700001 770114.33164574 20723.77764178
0.13800001 761233.35256300 20633.23099420
0.13900001 752390.46216348 20540.26058570
0.14000001 743582.53411000 17299.44847192
0.14100001 734812.58643878 18781.81059518
0.14200001 726079.93086857 20246.73982721
0.14300001 717389.78246617 20144.30604181
0.14400001 708735.88164658 18498.00738352
0.14500001 700127.04950271 18399.33972887
0.14600001 691558.51663534 16773.75261228
0.14700001 683035.94169417 16679.73848306
0.14800001 674555.39151530 18091.57645398
0.14900001 666119.62972292 16486.46161349
0.15000001 657730.78780789 20856.64426547
0.15100001 649388.66716353 16286.66854095
0.15200001 641095.07316306 17655.75914803
0.15300001 632849.86140371 20466.36548358
0.15400001 624651.84793808 15975.47176492
0.15500001 616505.81774512 21639.35522408
0.15600001 608408.67757133 24357.64255613
0.15700001 600366.35513780 15651.55161715
0.15800001 592371.65902448 14128.06473456
0.15900001 584432.71562219 22442.21733918
0.16000001 576544.79889049 22277.69208069
0.16100001 568714.47519118 17965.69111935
0.16200001 560936.14898070 17829.35633701
0.16300001 553214.56287103 14969.98677799
0.16400001 545548.19671099 16202.78220724
0.16500001 537938.86259115 16073.61397308
0.16600001 530385.63787043 17272.00911271
0.16700001 522889.95849225 15812.19309137
0.16800001 515451.00985701 15680.02046020
0.16900001 508072.59763306 18138.19259195
0.17000001 500752.24534601 12844.29569963
0.17100001 493490.90784890 17824.89243322
0.17200001 486289.44553653 15143.05404911
0.17300001 479148.10162023 15006.91925144
0.17400001 472068.03600962 13630.96518351
0.17500001 465048.18081718 13504.99980874
0.17600001 458087.41796360 14594.66582561
0.17700001 451190.65323310 14456.14921236
0.17800001 444354.75652726 17896.38866442
0.17900001 437580.53638617 12996.14254452
0.18000001 430869.39415970 11698.10460400
0.18100001 424221.77391424 17371.88246237
0.18200001 417633.89471205 12610.45604652
0.18300001 411111.69090557 15885.35648700
0.18400001 404651.01327329 15720.69260832
0.18500001 398254.80444470 13333.57148271
0.18600001 391921.54571461 12092.73986433
0.18700001 385651.64378277 14137.98992902
0.18800001 379444.88700026 12908.71566564
0.18900001 373304.00482121 12766.99756809
0.19000001 367223.05435672 15781.41150663
0.19100001 361210.77170147 15604.30607481
0.19200001 355259.25054130 14398.65810479
0.19300001 349373.88755279 14233.49285147
0.19400001 343551.64928105 13063.55208122
0.19500001 337793.86022545 11917.36795191
0.19600001 332099.16077158 15701.64906328
0.19700001 326469.05574174 15513.81026199
0.19800001 320903.22373413 10536.85784927
0.19900001 315402.16702533 9462.06545794
0.20000001 309962.82306738 9345.37955715
0.20100001 304589.27510828 9229.05547197
0.20200001 299278.03974834 10024.31841515
0.20300001 294031.42425169 11696.57060957
0.20400001 288848.09253326 12434.91097130
0.20500001 283727.38873363 10520.61207152
0.20600001 278670.56807555 9517.99370252
0.20700001 273676.58116024 9392.58070940
0.20800001 268745.05379470 9267.67361819
0.20900001 263878.76821390 9143.39975083
0.21000001 259072.54512439 9019.61108488
0.21100001 254328.76905864 11322.71733375
0.21200001 249647.07479355 9571.46930007
0.21300001 245027.13239920 8651.90845404
0.21400001 240469.84332316 8530.66809519
0.21500001 235974.38698769 12232.91279978
0.21600001 231538.31349072 12812.17318275
0.21700001 227164.02313707 8913.91668934
0.21800001 222850.44767833 9516.82881806
0.21900001 218595.96812940 9377.76747615
0.22000001 214401.24577989 10661.10245049
0.22100001 210268.63616979 8402.33509864
0.22200001 206194.13933736 6897.19428696
0.22300001 202178.58826882 13586.40177410
0.22400001 198220.08990688 7358.92118577
0.22500001 194323.09364369 11198.84041625
0.22600001 190482.16585995 7134.50985966
0.22700001 186700.04957377 11493.25559527
0.22800001 182974.49101143 6913.69146982
0.22900001 179305.36193117 6804.63880709
0.23000001 175693.29021590 6696.55007327
0.23100001 172138.82122876 10183.73314551
0.23200001 168638.00873125 6483.28855229
0.23300001 165193.97356050 6378.13962082
0.23400001 161804.71476420 9696.14799083
0.23500001 158468.91906954 7292.74000050
0.23600001 155188.35204082 5516.94617599
0.23700001 151961.10089396 7052.51502606
0.23800001 148787.39075277 5867.43103186
0.23900001 145666.55030278 5768.39566483
0.24000001 142597.92938125 6701.39000825
0.24100001 139582.58900149 5066.84822042
0.24200001 136618.12054732 8465.54224015
0.24300001 133704.94992610 4893.60139878
0.24400001 130841.94301167 6250.97412308
0.24500001 128029.69936464 6141.58496905
0.24600001 125267.30671481 6961.73090000
0.24700001 122554.89877818 5926.75518528
0.24800001 119890.43843775 6269.07132248
0.24900001 117274.44091886 6596.68761376
0.25000001 114706.78062979 5614.32364353
0.25100001 112186.17331385 4664.70130707
0.25200001 109713.59514848 5412.72047272
0.25300001 107287.77691230 4905.19739250
0.25400001 104907.30427704 5617.78640982
0.25500001 102572.51393821 5120.42013805
0.25600001 100283.32902072 6185.47602665
0.25700001 98038.60120621  4552.91285543
0.25800001 95838.05385068  3723.30856826
0.25900001 93681.53074406  5845.72779502
0.26000001 91568.68519921  4301.89703421
0.26100001 89496.60676766  3517.21681239
0.26200001 87469.45597345  4830.93828200
0.26300001 85482.65064311  3385.11312564
0.26400001 83536.91921950  4980.88904415
0.26500001 81633.01630119  3257.15750454
0.26600001 79768.65900083  3194.73494416
0.26700001 77945.25822633  4700.09929346
0.26800001 76161.01957238  3380.40701368
0.26900001 74415.08094971  3013.81092108
0.27000001 72708.32147118  3251.15274844
0.27100001 71039.51273697  3767.93593388
0.27200001 69408.51287422  3694.96235772
0.27300001 67813.89211555  4459.44175656
0.27400001 66254.81530767  3552.91463901
0.27500001 64734.23762553  3751.99659034
0.27600001 63247.16323638  3416.29568389
0.27700001 61796.89611070  2576.93068977
0.27800001 60380.09093724  3537.66969544
0.27900001 58998.23624070  2725.71864332
0.28000001 57649.78464533  3158.92009915
0.28100001 56334.36370332  3336.12117641
0.28200001 55052.37026741  2336.97322846
0.28300001 53802.63982339  2521.19182145
0.28400001 52584.82347580  3821.60222698
0.28500001 51398.67353103  2866.50415850
0.28600001 50242.81794958  2811.83943964
0.28700001 49117.96462029  3395.03387525
0.28800001 48022.58395562  2498.13493562
0.28900001 46958.40147286  2655.49772898
0.29000001 45921.85713291  2405.38699048
0.29100001 44915.25294991  3147.66107572
0.29200001 43936.48238735  2703.41188926
0.29300001 42985.55432820  2085.22933917
0.29400001 42061.92905531  3722.48089760
0.29500001 41166.28584141  2193.33981346
0.29600001 40296.24474884  1974.71756740
0.29700001 39452.14796778  2468.91553670
0.29800001 38634.30115497  2079.29818659
0.29900001 37841.84593253  1873.17146233
0.30000001 37073.99589352  1841.28009322
0.30100001 36331.61208552  1974.98652647
0.30200001 35611.97906931  2104.13388292
0.30300001 34916.64277949  1910.63878335
0.30400001 34245.23834515  1723.39170131
0.30500001 33595.40098698  2004.63767180
0.30600001 32968.50763448  1518.19984844
0.30700001 32364.02020406  2093.30492590
0.30800001 31781.09645689  2062.27544672
0.30900001 31219.29085521  1887.20622155
0.31000001 30679.10181489  1431.18016742
0.31100001 30158.09111012  1693.67847693
0.31200001 29658.20351131  1531.69799286
0.31300001 29177.47183027  2885.94387537
0.31400001 28717.69606751  1492.60232378
0.31500001 28275.71316547  2010.40330125
0.31600002 27852.63419634  1324.39281874
0.31700002 27447.40786460  1571.08970056
0.31800002 27060.68234278  1424.33908255
0.31900002 26691.79824060  1281.20637621
0.32000002 26339.73602053  2282.86502899
0.32100002 26005.01663244  1507.25083538
0.32200002 25686.98028230  1368.98767897
0.32300002 25384.38261262  1727.15347474
0.32400002 25098.17881283  1712.95078509
0.32500002 24826.92004662  1699.65102687
0.32600002 24571.58849874  1566.80741481
0.32700002 24330.79774288  1436.49036676
0.32800002 24105.43429551  1189.60323881
0.32900002 23893.03545544  1419.24637326
0.33000002 23696.28872671  1647.12910739
0.33100002 23510.69913893  1522.08273433
0.33200002 23340.93705725  1515.64381959
0.33300002 23182.93152827  1161.46492457
0.33400002 23038.36037112  1504.98096251
0.33500002 22905.59542753  1500.77468348
0.33600002 22785.18928072  1497.32878449
0.33700002 22675.74077684  1494.55814538
0.33800002 22579.25928437  1377.78646678
0.33900002 22492.89995534  1147.13795205
0.34000002 22418.06175325  1261.35230428
0.34100002 22353.80261502  1261.42514130
0.34200002 22300.98932033  1606.34033682
0.34300002 22256.73236302  1148.44744432
0.34400002 22223.48589939  1495.08508469
0.34500002 22199.38944611  1843.43738691
0.34600002 22185.80505057  1501.20256984
0.34700002 22179.32556545  1273.53693428
0.34800002 22183.17531783  1393.54713947
0.34900002 22195.31624243  1747.88123687
0.35000002 22216.00646456  1520.57463448
0.35100002 22244.71777552  1526.87750043
0.35200002 22280.61610380  1887.61388572
0.35300002 22324.62411329  1541.06887553
0.35400002 22376.41646048  1668.16192614
0.35500002 22435.10376221  1677.24843670
0.35600002 22500.36709272  1927.83154381
0.35700002 22572.48284131  1575.78510179
0.35800002 22651.74781861  1585.73568115
0.35900002 22736.78061630  1596.12207487
0.36000002 22828.54368703  1854.24854881
0.36100002 22925.40537440  1618.30444203
0.36200002 23029.14355789  1379.33061873
0.36300002 23136.46328331  1515.90114613
0.36400002 23250.08426053  1782.11904298
0.36500002 23367.99674751  1539.48369865
0.36600002 23491.54036785  1422.53029436
0.36700002 23619.29383783  1564.54209793
0.36800002 23752.79127960  1709.13217748
0.36900002 23889.60434065  1591.04772445
0.37000002 24029.71946517  1470.97934674
0.37100002 24174.10712440  1348.91524144
0.37200002 24322.93240259  1769.12857211
0.37300002 24474.46603178  1373.01760942
0.37400002 24630.52672844  1524.01391352
0.37500002 24788.54015142  1398.07373077
0.37600002 24950.79407146  1693.16096590
0.37700002 25114.55945819  1708.79470648
0.37800002 25282.17774742  1581.02106033
0.37900002 25452.07547590  2176.15255628
0.38000002 25624.41464828  1903.76597648
0.38100002 25798.50329917  1773.90517089
0.38200002 25975.01229729  1939.94388532
0.38300002 26153.20621960  2259.63712442
0.38400002 26333.97090961  2129.10164891
0.38500002 26515.16626046  2149.31947890
0.38600002 26699.08736651  1704.87030456
0.38700002 26883.25127292  1721.06582803
0.38800002 27068.81066029  1579.46517686
0.38900002 27255.55805021  2391.67533221
0.39000002 27443.98905989  1609.59003462
0.39100002 27632.30884794  1787.25782096
0.39200002 27821.91858473  2132.13283175
0.39300002 28011.71262069  2814.33690034
0.39400002 28202.83544190  1838.11988701
0.39500002 28393.33467055  1855.22057527
0.39600002 28584.15937181  2383.06147973
0.39700002 28774.80309596  2576.78373933
0.39800002 28966.57500452  1907.01455577
0.39900002 29157.13273721  2099.31365654
0.40000002 29347.45213114  2294.82412812
0.40100002 29537.54294338  2671.67088581
0.40200002 29728.19137416  1976.77617908
0.40300002 29917.23501280  1994.28298044
0.40400002 30105.66435811  2560.48687497
0.40500002 30293.53360657  2213.85154086
0.40600002 30480.70234258  2791.27044927
0.40700002 30666.95196787  2064.49930430
0.40800002 30852.24216623  2839.17771987
0.40900002 31035.91554052  2290.45067542
0.41000002 31219.05403206  2502.05120395
0.41100002 31400.67429191  2328.67411583
0.41200002 31580.22956282  2152.03484553
0.41300002 31758.93235679  2366.67575137
0.41400002 31936.00979860  2783.22338583
0.41500002 32111.92999885  2805.29833762
0.41600002 32284.96021403  2423.30922849
0.41700002 32457.13013435  2238.56837144
0.41800002 32628.24036249  2255.75350435
0.41900002 32795.60638958  2685.96029058
0.42000002 32961.84115936  2497.84844142
0.42100002 33126.45775692  2306.59536291
0.42200002 33288.95436357  2323.40267990
0.42300002 33448.83327735  2765.54966642
0.42400002 33606.45770748  2142.41178037
0.42500002 33762.32751311  3020.37796245
0.42600002 33914.52423605  3692.78314643
0.42700002 34065.70704025  3280.52774343
0.42800002 34213.90420718  2201.66484006
0.42900002 34360.16760444  3102.72328171
0.43000002 34503.93950572  2899.88373318
0.43100002 34643.76393204  2469.40761010
0.43200002 34781.87471078  2259.08286952
0.43300002 34916.95997868  2955.02246303
0.43400002 35049.76941095  3201.79658742
0.43500002 35179.31394155  2760.87268897
0.43600002 35307.04966253  2314.37721505
0.43700002 35431.11322971  2793.38909941
0.43800002 35551.42479393  3043.37986371
0.43900002 35670.11731052  2354.22785406
0.44000002 35785.05389912  3314.05399865
0.44100002 35897.71397650  3570.02782415
0.44200002 36007.07688479  2631.93740962
0.44300002 36113.70298756  3367.24182614
0.44400002 36216.62212230  2417.45964123
0.44500002 36315.86455433  2915.43774459
0.44600002 36412.80628147  4150.51392069
0.44700002 36506.78237635  2698.58148115
0.44800002 36596.52236649  3204.20866765
0.44900002 36684.47434394  2723.82234912
0.45000002 36768.85215212  2984.89555917
0.45100002 36848.88946077  2498.35482384
0.45200002 36926.59297830  3010.99453415
0.45300002 37000.47085893  2771.70540340
0.45400002 37071.64577628  4554.25189946
0.45500002 37139.44449370  2794.37193614
0.45600002 37203.58872091  2550.30612769
0.45700002 37264.52068992  2816.07996200
0.45800002 37321.51941693  2569.58673364
0.45900002 37375.55359311  2836.80465217
0.46000002 37426.91802653  3623.30010587
0.46100002 37473.63362900  3895.38440036
0.46200002 37517.97754369  3126.74839668
0.46300002 37558.50230021  3659.70063758
0.46400002 37595.20622716  3408.94548622
0.46500002 37629.49711306  2893.33217015
0.46600002 37659.54176388  3693.27143583
0.46700002 37686.24975886  3174.68983015
0.46800002 37710.25812793  3448.79182055
0.46900002 37730.18121961  2659.97790206
0.47000002 37746.41413075  3733.49799863
0.47100002 37759.81102174  3208.07369646
0.47200002 37769.57264909  4019.62695970
0.47300002 37776.63160216  3491.69422448
0.47400002 37778.81144597  2960.91448742
0.47500002 37778.88388894  4315.85990003
0.47600002 37775.82535273  2973.14647531
0.47700002 37768.25681935  2978.78255653
