# SAXS profile: number of points = 501, q_min = 0, q_max = 0.5, delta_q = 0.001
#    q    intensity    error
0.00000000 1646666.22097351 246.99993315
0.00100000 1646598.12300286 642.17328322
0.00200000 1646393.77576017 1185.40355608
0.00300000 1646053.35031357 1580.21127259
0.00400000 1645576.71663695 1481.01910125
0.00500000 1644964.31363725 1628.51473496
0.00600000 1644215.89725295 2416.99746736
0.00700000 1643332.12119749 2760.79807835
0.00800000 1642312.39253361 2660.54618823
0.00900000 1641158.10686587 2954.08471864
0.01000000 1639868.44649747 3246.93966427
0.01100000 1638444.59173654 3244.12043289
0.01200000 1636886.06391378 5745.47033624
0.01300000 1635194.18684197 4807.47112135
0.01400000 1633368.24060080 5880.12592683
0.01500000 1631409.98593670 4306.92255466
0.01600000 1629318.34030441 5401.19053956
0.01700000 1627095.31751936 4832.47330981
0.01800000 1624740.59481429 5093.56199394
0.01900000 1622254.79229734 5840.11751579
0.02000000 1619638.58992398 5612.04796795
0.02100000 1616893.59995012 5869.32403393
0.02200000 1614017.96316560 7238.87089368
0.02300000 1611014.79342319 7539.54957641
0.02400000 1607883.72267355 7838.43350545
0.02500000 1604626.09091269 6883.84624440
0.02600000 1601242.27972791 7782.03783541
0.02700000 1597733.09775976 8052.57518153
0.02800000 1594098.63405475 11788.35993944
0.02900000 1590341.29460783 11450.45784692
0.03000000 1586461.40642251 8114.75046685
0.03100000 1582459.29949416 12153.28797933
0.03200000 1578335.83897300 10937.86786786
0.03300000 1574093.98109348 10436.24357577
0.03400000 1569731.54603036 9065.20009660
0.03500000 1565252.04111259 12678.54211848
0.03600000 1560655.08740059 11260.12697597
0.03700000 1555942.47209051 9755.75975119
0.03800000 1551115.65011597 10888.83236774
0.03900000 1546175.73743463 15770.99325219
0.04000000 1541121.74511552 12321.26892315
0.04100000 1535957.57577938 11611.83981129
0.04200000 1530683.42250059 14809.36279974
0.04300000 1525299.61839424 12080.37353843
0.04400000 1519809.73532403 16413.94590380
0.04500000 1514213.16687641 16716.91413907
0.04600000 1508510.44217240 17015.99857873
0.04700000 1502704.78497501 11901.42245051
0.04800000 1496796.29607913 11001.45328806
0.04900000 1490787.87977591 11180.90961876
0.05000000 1484678.56664114 12493.57072006
0.05100000 1478472.24153583 19604.54283602
0.05200000 1472166.84395004 15214.84504125
0.05300000 1465768.06456738 17809.08281472
0.05400000 1459273.81539169 14446.81144609
0.05500000 1452688.34683780 19524.13229229
0.05600000 1446010.13467733 17308.74211979
0.05700000 1439244.01355474 12521.42350241
0.05800000 1432388.70995017 17747.29694495
0.05900000 1425446.37935717 15394.82161609
0.06000000 1418419.40010029 16872.09955244
0.06100000 1411309.51655026 15750.21494073
0.06200000 1404117.07704916 17249.57909785
0.06300000 1396845.36493000 17432.63096939
0.06400000 1389492.44240751 21676.08311528
0.06500000 1382064.59062689 16418.92810469
0.06600000 1374559.42112117 15195.75511148
0.06700000 1366980.32248094 22309.11990693
0.06800000 1359329.81915629 16882.87714419
0.06900000 1351608.97475577 15611.08438932
0.07000000 1343817.11968484 20036.31419277
0.07100000 1335959.31811298 21642.54196712
0.07200000 1328034.14440322 20358.76438744
0.07300000 1320046.70424334 17583.02292438
0.07400000 1311996.04434956 19187.94304784
0.07500000 1303884.63675051 22296.42833352
0.07600000 1295712.78683527 19455.12840640
0.07700000 1287485.69277177 15063.58331174
0.07800000 1279201.64694380 21221.95631803
0.07900000 1270862.72401304 22875.53010518
0.08000000 1262472.90980550 19940.76054582
0.08100000 1254032.12331995 26221.81292890
0.08200000 1245541.88414916 18608.39662239
0.08300000 1237004.31388265 17144.88059506
0.08400000 1228420.95012769 26626.02534381
0.08500000 1219794.84319237 20455.96048064
0.08600000 1211125.79540829 18966.23084659
0.08700000 1202417.30201219 22220.67278462
0.08800000 1193667.56888503 19122.55535161
0.08900000 1184883.20930324 17595.51648461
0.09000000 1176062.55588105 19263.90557026
0.09100000 1167208.54429168 19328.97440157
0.09200000 1158321.85924630 17774.44976530
0.09300000 1149406.14408388 17827.29013248
0.09400000 1140459.46910222 21127.01265803
0.09500000 1131486.50130912 24440.10957703
0.09600000 1122488.16774816 24498.30541271
0.09700000 1113467.22854242 19641.56283489
0.09800000 1104424.34523486 19680.84275743
0.09900000 1095362.07350374 16430.43187516
0.10000000 1086279.41559140 24685.70088021
0.10100000 1077179.49038675 23073.18576926
0.10200000 1068064.40026196 26402.55321635
0.10300000 1058935.20314921 28082.96290856
0.10400000 1049794.51148260 21494.54363382
0.10500000 1040644.95424598 19855.50666120
0.10600001 1031482.61232896 18210.82637755
0.10700001 1022315.89812111 19873.82199469
0.10800001 1013141.18880847 21534.31698157
0.10900001 1003963.12990587 23191.54939235
0.11000001 994781.59338003 19875.73717127
0.11100001 985598.98130016 19869.67639834
0.11200001 976417.66151472 21515.36418436
0.11300001 967236.57315895 21501.67003364
0.11400001 958059.60910804 21484.48774583
0.11500001 948887.51728294 21463.83665163
0.11600001 939721.07808214 16492.10569698
0.11700001 930563.43666734 19765.16832565
0.11800001 921412.72472174 23026.10507529
0.11900001 912273.52107133 22989.29381383
0.12000001 903145.53592692 19670.51069907
0.12100001 894032.00241865 19632.94369798
0.12200001 884932.05763742 16326.99723260
0.12300001 875848.74960149 19548.94501214
0.12400001 866781.75381601 21127.80624475
0.12500001 857733.71909199 24316.75208207
0.12600001 848706.88996990 19401.44041897
0.12700001 839700.94502804 20958.93657562
0.12800001 830716.24656015 24111.54019277
0.12900001 821756.24669899 20831.52183565
0.13000001 812820.52835393 22360.69378899
0.13100001 803910.49733184 19100.91431698
0.13200001 795028.80570973 19032.99050591
0.13300001 786176.66592493 18962.58207606
0.13400001 777352.33434581 18889.66261517
0.13500001 768560.18680067 21950.07996993
0.13600001 759798.76860457 17175.25197413
0.13700001 751071.18876074 20211.32664258
0.13800001 742376.40024329 15478.54867498
0.13900001 733719.24431227 18489.72582861
0.14000001 725096.92342208 16869.38071898
0.14100001 716512.13469211 21366.39286422
0.14200001 707964.74726301 22778.76681755
0.14300001 699458.85338561 18129.97433490
0.14400001 690989.49140819 21040.63100586
0.14500001 682564.81734423 16442.98722547
0.14600001 674179.78884318 16352.23154980
0.14700001 665840.87341815 14781.66808723
0.14800001 657543.17105580 24983.35396295
0.14900001 649290.05173852 18991.73490940
0.15000001 641083.01273978 23232.84947788
0.15100001 632922.66552411 15873.70120034
0.15200001 624809.93591389 21509.08305879
0.15300001 616745.35342866 14246.81833650
0.15400001 608727.52290654 16983.49869056
0.15500001 600761.09926607 15463.59142488
0.15600001 592842.49002894 22338.30607855
0.15700001 584978.82754868 13863.99886724
0.15800001 577161.89380719 17894.90536211
0.15900001 569400.30935437 21864.97291125
0.16000001 561688.87457438 20347.18044189
0.16100001 554034.12356523 16155.63580578
0.16200001 546431.14494728 17368.31476204
0.16300001 538883.91124560 18559.16277944
0.16400001 531391.45398760 19727.90866064
0.16500001 523955.03511353 13046.48099027
0.16600001 516574.59976282 19410.29150251
0.16700001 509250.04175795 17966.34232150
0.16800001 501981.79532895 15270.28693491
0.16900001 494773.41703238 13878.39500307
0.17000001 487622.04155951 16259.75774358
0.17100001 480529.04986196 13637.41507906
0.17200001 473495.29537172 13515.92384465
0.17300001 466520.60608737 14611.42607267
0.17400001 459606.08637203 14477.59240444
0.17500001 452751.11000095 11952.62986852
0.17600001 445954.22366278 17760.12779617
0.17700001 439220.76984385 15245.35364133
0.17800001 432546.67354604 15098.04235324
0.17900001 425933.69158197 12650.23123750
0.18000001 419382.71499376 12524.86537490
0.18100001 412894.38350692 14653.62236285
0.18200001 406464.77939111 16736.18808201
0.18300001 400099.85622712 15459.85917493
0.18400001 393795.50971130 10927.82591073
0.18500001 387554.34588565 11894.04343713
0.18600001 381375.42289139 10697.58111749
0.18700001 375258.47743061 10582.28956350
0.18800001 369204.23095245 11513.63448623
0.18900001 363214.33365933 11386.76989822
0.19000001 357283.19896873 12283.39696092
0.19100001 351420.12231802 12145.08000117
0.19200001 345615.85196759 12006.69526469
0.19300001 339877.25480008 11868.51429844
0.19400001 334200.68917758 9775.37062037
0.19500001 328587.40417785 15456.75222294
0.19600001 323035.88858260 10500.28205458
0.19700001 317548.22644013 10374.30104806
0.19800001 312123.22093716 12111.94216086
0.19900001 306761.91226269 11043.42936337
0.20000001 301461.41013972 9997.96813980
0.20100001 296225.26662040 8975.62600281
0.20200001 291050.56461982 11521.23714501
0.20300001 285938.97934934 10499.67981797
0.20400001 280889.58006758 12956.03249299
0.20500001 275901.64157175 11935.50557855
0.20600001 270976.39527877 8413.81747111
0.20700001 266112.62402642 9963.25711450
0.20800001 261310.52338570 9011.29382492
0.20900001 256572.03086425 11314.82709598
0.21000001 251892.32972265 8769.63187386
0.21100001 247273.99142141 17299.28925764
0.21200001 242716.37550243 8530.26742030
0.21300001 238219.52273885 9176.21644971
0.21400001 233783.73331043 9047.43090684
0.21500001 229408.78871286 8919.41412684
0.21600001 225092.11632059 8792.09847916
0.21700001 220835.87793535 7221.33354991
0.21800001 216638.85616170 8539.90411367
0.21900001 212499.79490969 9116.24163266
0.22000001 208419.35931750 9672.74292328
0.22100001 204399.39760112 9529.10036673
0.22200001 200436.70235060 8715.99041385
0.22300001 196531.39292777 7263.80062608
0.22400001 192681.97952432 9104.22396303
0.22500001 188893.06397229 7684.17020576
0.22600001 185158.38835031 8196.03644790
0.22700001 181481.59220543 8068.67197101
0.22800001 177860.03315901 6720.44167072
0.22900001 174293.76788663 6614.44880410
0.23000001 170782.96594606 7692.91906485
0.23100001 167328.70353513 8734.55873761
0.23200001 163926.88481246 5729.24489515
0.23300001 160580.30786900 6763.64288733
0.23400001 157287.50739638 6098.82338774
0.23500001 154046.89441681 10361.19460852
0.23600001 150859.96351680 6435.68634802
0.23700001 147725.51100110 5801.18109140
0.23800001 144642.81674355 5185.44522552
0.23900001 141612.17770097 5607.84250221
0.24000001 138632.13068784 6515.01728984
0.24100001 135704.55812420 5911.29083150
0.24200001 132826.33084461 5809.82398596
0.24300001 129998.20859998 5233.72812580
0.24400001 127218.85166185 6545.41022762
0.24500001 124489.08258075 5053.01210098
0.24600001 121808.14029548 4964.29099258
0.24700001 119175.73352411 9310.00874332
0.24800001 116590.00408254 6531.95528773
0.24900001 114051.52681188 5987.70544089
0.25000001 111560.43427102 4620.27560391
0.25100001 109114.79561275 5361.90131008
0.25200001 106716.22766838 6074.82154742
0.25300001 104363.17277665 5566.73189927
0.25400001 102053.98804286 5855.34784098
0.25500001 99789.66091910  5364.69242482
0.25600001 97569.53649220  4137.43639070
0.25700001 95392.68379868  4799.20614898
0.25800001 93258.77963620  3623.10376029
0.25900001 91167.91965765  5688.87845581
0.26000001 89119.60290508  4186.83914258
0.26100001 87110.78043039  4108.14459948
0.26200001 85145.60373648  3358.99422634
0.26300001 83219.57970708  3625.04506357
0.26400001 81333.85202660  4202.92700235
0.26500001 79488.68069861  3171.59850995
0.26600001 77681.63482455  3733.37954633
0.26700001 75914.75303937  3662.12785991
0.26800001 74185.72449232  3292.73353741
0.26900001 72494.03563008  3523.21029835
0.27000001 70840.50143164  3743.56647531
0.27100001 69223.47244352  3389.18137122
0.27200001 67643.41181417  3046.99762936
0.27300001 66098.70305510  6248.31069549
0.27400001 64588.52952135  2930.70466573
0.27500001 63115.48380035  3919.47172949
0.27600001 61675.00645281  2818.85630333
0.27700001 60270.52074646  2513.28083407
0.27800001 58898.33742431  2711.38509165
0.27900001 57560.17218347  2659.28008073
0.28000001 56254.11532218  2845.33328766
0.28100001 54980.31156100  3023.36747583
0.28200001 53738.88417054  2281.21574101
0.28300001 52528.68629060  2685.26657027
0.28400001 51349.58477526  2853.75330896
0.28500001 50200.98788392  2584.34697859
0.28600001 49081.84351714  3169.46019514
0.28700001 47992.78565416  2695.27496991
0.28800001 46932.09968890  2441.40794138
0.28900001 45901.55935749  2196.38971922
0.29000001 44898.10350966  2743.72323535
0.29100001 43923.68554051  2501.01477306
0.29200001 42975.82965499  2077.66658302
0.29300001 42055.10776173  2040.09337409
0.29400001 41160.86759031  2732.05271563
0.29500001 40293.94408338  2146.86144239
0.29600001 39451.26892563  1757.55411384
0.29700001 38634.03985829  2417.71832878
0.29800001 37842.16713019  2376.10978659
0.29900001 37074.88367375  1668.36984430
0.30000001 36331.30783343  1968.43035160
0.30100001 35612.25496894  2419.85283970
0.30200001 34915.29716532  1745.59036442
0.30300001 34241.93681481  1717.57563194
0.30400001 33591.54564409  1536.81328597
0.30500001 32962.21292074  1664.26220916
0.30600001 32354.91165223  2532.90437861
0.30700001 31769.33159997  2201.61478411
0.30800001 31204.36694041  1446.32247616
0.30900001 30659.99527103  1710.82781712
0.31000001 30136.64688667  1546.46210821
0.31100001 29631.44123617  1525.42666706
0.31200001 29146.98262164  1778.98616854
0.31300001 28680.73807027  1621.03539248
0.31400001 28234.70537905  1334.08989232
0.31500001 27806.34424039  1318.02077940
0.31600002 27395.68508098  1302.66488728
0.31700002 27002.51139255  1932.02978161
0.31800002 26627.13087359  1783.75158168
0.31900002 26268.96827896  1513.09264451
0.32000002 25926.90988472  1498.05692407
0.32100002 25601.71360928  1236.56282588
0.32200002 25292.71792325  1838.14836211
0.32300002 24998.53650483  1457.91471800
0.32400002 24720.07573869  1928.16599892
0.32500002 24456.16725915  1195.90663560
0.32600002 24207.58422583  1306.12026875
0.32700002 23972.96729422  1297.41705140
0.32800002 23753.27157037  1758.33601126
0.32900002 23546.05196138  1282.08259001
0.33000002 23353.82404734  1623.32438640
0.33100002 23172.56695363  1153.99388894
0.33200002 23006.37643722  1953.58654768
0.33300002 22851.58274963  1259.35078497
0.33400002 22709.80153980  1369.40109770
0.33500002 22579.40815950  1479.40289267
0.33600002 22460.86741710  1930.17473290
0.33700002 22352.85158732  1699.93444372
0.33800002 22257.45396504  1471.32906404
0.33900002 22171.52965707  1243.82287267
0.34000002 22097.12461522  1469.34837087
0.34100002 22032.68221498  1243.30431627
0.34200002 21979.18871242  1470.07810665
0.34300002 21934.22897923  1244.98689582
0.34400002 21899.57001261  1359.96336219
0.34500002 21873.85595430  1248.77849557
0.34600002 21858.34688929  1251.49971042
0.34700002 21849.56688552  1140.54744544
0.34800002 21850.87032957  1487.06105071
0.34900002 21860.13159594  1147.65696314
0.35000002 21877.48175436  1382.21936271
0.35100002 21902.77388753  1156.46651603
0.35200002 21934.97335016  1161.45689390
0.35300002 21974.87503021  1866.98547099
0.35400002 22022.36451527  1524.49825578
0.35500002 22076.58154061  1296.77846112
0.35600002 22136.92299619  1185.43228259
0.35700002 22204.03274559  1669.29926088
0.35800002 22277.92260072  1439.59942665
0.35900002 22357.53630812  1328.03771961
0.36000002 22443.64918337  2430.64732169
0.36100002 22534.58205725  1223.62786367
0.36200002 22632.22801043  1848.48731031
0.36300002 22733.22114744  1613.60411348
0.36400002 22840.32798134  1500.60961945
0.36500002 22951.72726226  1260.04988638
0.36600002 23068.46460912  1650.89474795
0.36700002 23189.21828832  1792.06287421
0.36800002 23315.66382933  1935.78308113
0.36900002 23445.39399096  1691.58525658
0.37000002 23578.12448413  1705.75949660
0.37100002 23715.24688941  1455.64192303
0.37200002 23856.30387021  1334.76026477
0.37300002 24000.24698019  1750.33809518
0.37400002 24148.51332437  1630.02472661
0.37500002 24298.83557542  2055.68158706
0.37600002 24453.04012170  1797.66532970
0.37700002 24608.96054449  1534.86094187
0.37800002 24768.55633996  1548.90174409
0.37900002 24930.19076567  1421.02094096
0.38000002 25094.47629532  2294.63902115
0.38100002 25260.39665853  1736.90495652
0.38200002 25428.61632576  2045.22370797
0.38300002 25598.57203508  1769.37338289
0.38400002 25770.95223518  2232.40884313
0.38500002 25943.66245448  2403.42100364
0.38600002 26119.39397697  1971.10015985
0.38700002 26295.28826867  1836.46301969
0.38800002 26472.48850929  1699.13675547
0.38900002 26650.84191992  1559.07432618
0.39000002 26830.98713416  2360.45620496
0.39100002 27011.03149284  1747.07359973
0.39200002 27192.27880986  2564.77585886
0.39300002 27373.92700911  1617.79916288
0.39400002 27556.84688241  1959.29190617
0.39500002 27739.22288118  1977.25190065
0.39600002 27921.97754001  2494.13076193
0.39700002 28104.50631466  2181.19083842
0.39800002 28288.12648308  1862.34889525
0.39900002 28470.80499405  2220.72289475
0.40000002 28653.49877280  1895.85883613
0.40100002 28835.55378907  2260.41916862
0.40200002 29018.52318406  1929.58679055
0.40300002 29199.96202282  2300.37311715
0.40400002 29380.78800250  2141.85954686
0.40500002 29561.16151098  1980.30230345
0.40600002 29740.96989932  2178.82355806
0.40700002 29919.95274243  1831.10119460
0.40800002 30098.22384332  1846.52612028
0.40900002 30274.61772264  2606.64470943
0.41000002 30450.86558884  1877.29595250
0.41100002 30625.60306028  2649.72730233
0.41200002 30798.60482196  2480.36575686
0.41300002 30970.68994930  1923.27993698
0.41400002 31141.26935152  3101.67057438
0.41500002 31310.91883064  2149.18157037
0.41600002 31477.71301277  2362.71725069
0.41700002 31643.84478097  2777.69682649
0.41800002 31809.04845758  2399.03854835
0.41900002 31970.57342498  2215.56084333
0.42000002 32131.04837291  2637.79854117
0.42100002 32290.32367288  2657.17086095
0.42200002 32447.49973998  2264.67335166
0.42300002 32602.12362348  2073.49516071
0.42400002 32754.77802637  2088.11719813
0.42500002 32905.80064587  2312.94883700
0.42600002 33053.39324722  2117.06993780
0.42700002 33199.99355115  3197.15953048
0.42800002 33343.77708970  2360.23937314
0.42900002 33485.96282594  2591.81364555
0.43000002 33625.65588938  3043.45825877
0.43100002 33761.55049654  2625.29829102
0.43200002 33896.06849702  2201.54975321
0.43300002 34027.64481820  2658.23973917
0.43400002 34157.09672794  2674.50080054
0.43500002 34283.66306738  2690.58200503
0.43600002 34408.37979453  2932.11022314
0.43700002 34529.55860793  2495.45131885
0.43800002 34647.39866266  3194.14383408
0.43900002 34763.69728092  2523.84454220
0.44000002 34876.34813331  3922.01991519
0.44100002 34987.02495840  3943.38776994
0.44200002 35094.58125223  3031.64554514
0.44300002 35199.54429272  3047.57668929
0.44400002 35301.13343770  2827.62092236
0.44500002 35399.05182616  2841.83601528
0.44600002 35494.86948927  3331.90355686
0.44700002 35587.85934365  2630.65468735
0.44800002 35677.08523484  2883.42216533
0.44900002 35764.48371490  3138.33359471
0.45000002 35848.56166891  3152.70190539
0.45100002 35928.41681476  2679.54145303
0.45200002 36006.17943534  2935.94401030
0.45300002 36080.40827868  2948.49110427
0.45400002 36152.07432430  2960.85502748
0.45500002 36220.58454130  3220.73453005
0.45600002 36285.50061952  3979.79389657
0.45700002 36347.54783909  2497.07665489
0.45800002 36405.79589013  3007.84699900
0.45900002 36461.18780723  3018.98649352
0.46000002 36514.29249010  2777.45978990
0.46100002 36563.02931921  3040.58166229
0.46200002 36609.28964326  2796.76681485
0.46300002 36651.88649896  3061.16570548
0.46400002 36691.02856745  3326.95917304
0.46500002 36727.86604202  2567.27795802
0.46600002 36760.78286681  3862.63944280
0.46700002 36790.44511189  3615.76511697
0.46800002 36817.63394065  2849.13273753
0.46900002 36840.84258756  2857.00747808
0.47000002 36860.72173610  3385.47314831
0.47100002 36877.80170785  3133.13818160
0.47200002 36891.47872948  3402.68570189
0.47300002 36902.38704157  4460.39173312
0.47400002 36908.98542433  2892.74186974
0.47500002 36913.39780899  2635.61672848
0.47600002 36914.89892233  2905.38725739
0.47700002 36912.26766322  3969.91457535
