# SAXS profile: number of points = 501, q_min = 0, q_max = 0.5, delta_q = 0.001
#    q    intensity    error
0.00000000 1664650.74656091 349.57665678
0.00100000 1664582.08122107 749.06195434
0.00200000 1664376.03508871 748.96923951
0.00300000 1664032.77071469 1597.47151679
0.00400000 1663552.16762706 1746.72984238
0.00500000 1662934.67413349 1496.64126596
0.00600000 1662180.02810142 1919.81801062
0.00700000 1661288.87769611 2392.25608331
0.00800000 1660260.67616241 3137.89281043
0.00900000 1659096.76915610 2986.37431214
0.01000000 1657796.34819540 3008.90050190
0.01100000 1656360.63156986 4174.02897329
0.01200000 1654789.12451738 3549.52282771
0.01300000 1653083.13424802 5207.21210254
0.01400000 1651241.94898833 4086.82400492
0.01500000 1649267.34343248 6333.18688079
0.01600000 1647158.23777330 4620.27906350
0.01700000 1644916.68133212 7106.04038212
0.01800000 1642542.24507454 6553.74385275
0.01900000 1640035.63858870 5412.11785155
0.02000000 1637397.52673018 8252.48390803
0.02100000 1634629.55508697 6473.13333163
0.02200000 1631729.87250636 9007.14930545
0.02300000 1628701.49709451 5863.32565643
0.02400000 1625544.14049250 9753.26528768
0.02500000 1622259.19669271 7592.17338726
0.02600000 1618846.95357004 7867.59655420
0.02700000 1615308.31073552 8141.15425898
0.02800000 1611643.29987795 7711.71354357
0.02900000 1607854.30432260 9405.94811215
0.03000000 1603941.72787931 8204.16231521
0.03100000 1599905.89003915 9983.41321321
0.03200000 1595747.62482883 8688.84621739
0.03300000 1591469.91869870 8928.14665549
0.03400000 1587070.57303762 8332.12089289
0.03500000 1582553.20256374 10254.94522617
0.03600000 1577917.28117469 8757.44131523
0.03700000 1573164.74702261 10760.44736728
0.03800000 1568296.91277280 11009.44483718
0.03900000 1563315.04904271 11255.86887437
0.04000000 1558218.09259752 11499.65005625
0.04100000 1553009.92355179 10762.35926923
0.04200000 1547690.86942907 10980.86722803
0.04300000 1542261.10321852 13232.60087985
0.04400000 1536724.26952734 15559.33395157
0.04500000 1531079.74618701 15846.67610935
0.04600000 1525328.20001026 11828.92074097
0.04700000 1519472.71682486 12034.22447694
0.04800000 1513513.53464652 14461.62249642
0.04900000 1507453.36125813 12436.49080927
0.05000000 1501291.54636561 13781.85703740
0.05100000 1495031.68098417 17491.87148236
0.05200000 1488671.86286004 16568.91860576
0.05300000 1482217.59065722 15607.75195722
0.05400000 1475667.19893397 14609.10595073
0.05500000 1469024.64624620 12339.80760411
0.05600000 1462288.36985239 16253.33598936
0.05700000 1455463.33332009 15195.03790914
0.05800000 1448548.30231145 12819.65307404
0.05900000 1441545.31582021 19460.86267251
0.06000000 1434456.96168054 15750.33817509
0.06100000 1427284.78403245 14601.12402298
0.06200000 1420029.27931578 14761.20504848
0.06300000 1412693.62330154 16274.23130134
0.06400000 1405275.97479710 15071.58553455
0.06500000 1397782.59378544 19373.26765610
0.06600000 1390211.09342235 15368.78435687
0.06700000 1382564.91105027 15512.37902795
0.06800000 1374846.67026829 17075.59644403
0.06900000 1367057.17713855 17224.92123840
0.07000000 1359196.12864072 15922.98339268
0.07100000 1351268.11702838 16053.06598219
0.07200000 1343272.10544758 17650.59629246
0.07300000 1335213.09572372 17785.03926837
0.07400000 1327090.30452534 19408.69661326
0.07500000 1318905.96444023 15035.52869937
0.07600000 1310660.52952989 16651.94280833
0.07700000 1302359.23198578 18285.12447444
0.07800000 1294000.20647814 21467.46443222
0.07900000 1285585.60099479 16969.73072907
0.08000000 1277119.63116186 15517.00424654
0.08100000 1268602.15951972 21845.33021187
0.08200000 1260034.49183935 18824.91619144
0.08300000 1251418.88750366 18921.45446708
0.08400000 1242756.78708943 22183.20969080
0.08500000 1234051.47620487 22286.97070653
0.08600000 1225302.57519992 15990.19935712
0.08700000 1216513.66037791 19269.57728524
0.08800000 1207683.14002581 16122.57067652
0.08900000 1198817.34382707 17802.43839201
0.09000000 1189914.65132965 16242.33575364
0.09100000 1180978.20586232 24446.25000986
0.09200000 1172008.54471672 24524.27995051
0.09300000 1163009.34742210 19678.11908310
0.09400000 1153978.81597819 23021.87846074
0.09500000 1144921.46182083 16486.86982515
0.09600000 1135838.13133388 21484.37926411
0.09700000 1126731.82334331 19875.55029818
0.09800000 1117603.43044113 19915.69406685
0.09900000 1108454.77979823 23277.55147033
0.10000000 1099285.66441194 19985.01431885
0.10100000 1090098.70823044 20014.21322442
0.10200000 1080896.32379713 26719.75838106
0.10300000 1071679.44604972 16718.20014481
0.10400000 1062450.81914621 21753.68154542
0.10500000 1053212.75507927 26793.73374984
0.10600001 1043961.80433833 20106.70529765
0.10700001 1034705.79108343 25143.35190651
0.10800001 1025441.87890776 21795.76816193
0.10900001 1016174.18350118 18443.56229860
0.11000001 1006902.76382429 18441.42498747
0.11100001 997630.00221047 16760.18482609
0.11200001 988358.27767244 21778.47567378
0.11300001 979086.12296080 16742.37349087
0.11400001 969818.24749467 20075.23866837
0.11500001 960555.07941467 20056.39100259
0.11600001 951297.35445705 18364.79629262
0.11700001 942048.02392721 20009.10097054
0.11800001 932805.69665464 23310.81545730
0.11900001 923574.57257883 23274.08032523
0.12000001 914354.30970276 16595.53150284
0.12100001 905148.77547158 23189.91272002
0.12200001 895956.26196093 28101.66948031
0.12300001 886780.60256397 24741.17997720
0.12400001 877621.02956407 23037.55311153
0.12500001 868480.25974238 18055.70545084
0.12600001 859360.67313517 18007.90375414
0.12700001 850261.72400077 19590.03104418
0.12800001 841184.06345072 16276.91239489
0.12900001 832130.90148728 17849.20867817
0.13000001 823102.44254062 24260.94563742
0.13100001 814099.09873234 19342.99549766
0.13200001 805124.42992982 17668.45644771
0.13300001 796178.95951596 17603.51762478
0.13400001 787261.78303872 17536.25704395
0.13500001 778376.42839477 20642.54385429
0.13600001 769522.02707510 17395.04624222
0.13700001 760701.41027901 20470.47591586
0.13800001 751913.65015121 20380.62044841
0.13900001 743163.61538694 18727.72399092
0.14000001 734448.23425936 18640.29706459
0.14100001 725770.81270646 18550.70284768
0.14200001 717130.84484134 23073.68602105
0.14300001 708532.50081142 18365.16328727
0.14400001 699970.49137710 21314.10246782
0.14500001 691453.48161126 22714.24794241
0.14600001 682976.44249358 18071.55752089
0.14700001 674545.32625361 16472.39764422
0.14800001 666155.77992826 17866.29886058
0.14900001 657810.99588461 17760.89772686
0.15000001 649512.43338744 22067.18596553
0.15100001 641260.73468854 20469.04361709
0.15200001 633056.97454331 15981.52407647
0.15300001 624901.45947676 15878.74683461
0.15400001 616792.87323581 17208.52197537
0.15500001 608735.95461131 24215.51741724
0.15600001 600727.35229587 15561.84279566
0.15700001 592773.43373785 21073.09656396
0.15800001 584866.88550439 18133.79864096
0.15900001 577015.77908383 15233.21728683
0.16000001 569215.25322014 16495.85881696
0.16100001 561471.76917257 15008.14109843
0.16200001 553780.11248339 14893.91682832
0.16300001 546144.57258393 18809.21996773
0.16400001 538564.08854034 15995.35418478
0.16500001 531040.17140207 15867.48107062
0.16600001 523572.27849417 15738.58343460
0.16700001 516160.83677587 20811.60592142
0.16800001 508806.01755401 12898.23315400
0.16900001 501511.40973623 15346.24986255
0.17000001 494274.23206956 25356.26930248
0.17100001 487095.76121367 13823.77835602
0.17200001 479976.95497441 12455.40256977
0.17300001 472917.45263856 14811.77531612
0.17400001 465918.69822053 13453.40304647
0.17500001 458979.81433103 13328.77443766
0.17600001 452099.50240740 13203.56659140
0.17700001 445282.86849449 11889.05315033
0.17800001 438526.33563613 11774.43266796
0.17900001 431831.06112196 11659.43920101
0.18000001 425198.43736764 11544.13811982
0.18100001 418628.78785808 13714.27973804
0.18200001 412118.35815773 15837.70925214
0.18300001 405673.05554085 15675.20760658
0.18400001 399288.85052091 11080.26612539
0.18500001 392968.45378365 15349.34852992
0.18600001 386710.57138918 13016.67844791
0.18700001 380515.30546012 15022.74496931
0.18800001 374382.92671784 14859.25906347
0.18900001 368315.67863941 12596.39680462
0.19000001 362307.72839508 11418.12859986
0.19100001 356368.16501775 11289.74400120
0.19200001 350488.28914904 14205.29103043
0.19300001 344674.37921576 11033.02740004
0.19400001 338922.97362618 14870.24617053
0.19500001 333235.46869235 13715.97253953
0.19600001 327610.37811895 12585.15327017
0.19700001 322049.50682111 13390.81912644
0.19800001 316551.95860472 10393.98405199
0.19900001 311118.58577668 11200.26961728
0.20000001 305746.73142854 14749.22302118
0.20100001 300439.56116334 10013.65104684
0.20200001 295194.61645870 9887.54414560
0.20300001 290013.34383377 9761.84961483
0.20400001 284894.93788716 10512.62370492
0.20500001 279838.33472448 8647.00495170
0.20600001 274845.20735879 10240.73291025
0.20700001 269914.07589663 10105.58347925
0.20800001 265045.15326361 15787.41530042
0.20900001 260240.55518766 12296.36681388
0.21000001 255495.36550425 9703.71444057
0.21100001 250812.03625335 10368.57006887
0.21200001 246190.25741001 8652.35700571
0.21300001 241629.61988561 10858.83563102
0.21400001 237130.84268382 10706.45805334
0.21500001 232693.31079060 8293.18998866
0.21600001 228314.77020668 7431.64612159
0.21700001 223997.36687870 10254.59994054
0.21800001 219739.77456912 7218.45193589
0.21900001 215540.67644308 9957.97972250
0.22000001 211400.98247022 9811.12006034
0.22100001 207322.48352684 8974.99073625
0.22200001 203301.60799069 7480.48301973
0.22300001 199339.00072611 7367.56981522
0.22400001 195432.65359347 6595.85237067
0.22500001 191587.61789693 8443.26671998
0.22600001 187797.60323864 7033.95956193
0.22700001 184065.94155191 8183.57214839
0.22800001 180390.22557827 8055.32590413
0.22900001 176770.33582345 7928.14993661
0.23000001 173206.65358747 6601.77191370
0.23100001 169700.14418476 6496.12182661
0.23200001 166246.69117726 6391.35434458
0.23300001 162849.24247152 6859.21041730
0.23400001 159506.13733361 6747.10992832
0.23500001 156215.82220311 7189.05247780
0.23600001 152979.85707968 7069.96442933
0.23700001 149796.95186868 5882.52657811
0.23800001 146666.73310993 5258.00263069
0.23900001 143588.90892884 5686.12106253
0.24000001 140562.53910516 6097.60323480
0.24100001 137589.07001813 5493.93182569
0.24200001 134665.70248241 5399.42159644
0.24300001 131793.09951588 5788.35320454
0.24400001 128970.02580036 6161.54327408
0.24500001 126197.00042385 7916.33821107
0.24600001 123473.42004398 5032.15947194
0.24700001 120799.09937916 5392.47205138
0.24800001 118172.17703023 7061.96963341
0.24900001 115592.99000180 4334.73733013
0.25000001 113061.88379657 5108.13615159
0.25100001 110577.05236556 4597.79405488
0.25200001 108139.65777585 5335.07026877
0.25300001 105748.41784832 4834.81789276
0.25400001 103401.92235320 4746.14846056
0.25500001 101100.60954401 3882.26359017
0.25600001 98844.38346623  4191.49627920
0.25700001 96631.97013486  5235.52038962
0.25800001 94463.08897054  5137.84765220
0.25900001 92337.79792309  5041.64400514
0.26000001 90255.70287240  6006.96858890
0.26100001 88213.72513042  4853.51938633
0.26200001 86216.11480456  3401.22588998
0.26300001 84258.23497355  3336.62626283
0.26400001 82341.16322297  3927.67367159
0.26500001 80465.23139121  5136.90061509
0.26600001 78628.16409297  5038.49299350
0.26700001 76831.64313086  3397.49542002
0.26800001 75073.74500694  3332.14832981
0.26900001 73353.73806828  3862.07449205
0.27000001 71672.46180352  2913.48571019
0.27100001 70028.29012776  3714.30068415
0.27200001 68421.55434591  3082.04906136
0.27300001 66850.83987645  3571.84054363
0.27400001 65315.17791279  3233.10145969
0.27500001 63817.24578992  3170.44092089
0.27600001 62352.51145145  3367.97106544
0.27700001 60924.11720711  3048.64296933
0.27800001 59528.82080817  2989.53752247
0.27900001 58167.94289975  2443.05371741
0.28000001 56839.80481119  3833.27661789
0.28100001 55544.43802313  3524.29475937
0.28200001 54281.90656622  2995.54715564
0.28300001 53051.19979928  3615.96994946
0.28400001 51852.05010769  2660.01029642
0.28500001 50683.95426599  3044.07843730
0.28600001 49545.95846512  2346.24897417
0.28700001 48438.42924871  2929.55633963
0.28800001 47359.85762057  3284.87988005
0.28900001 46311.99306864  2216.02897323
0.29000001 45291.48498893  2174.67075468
0.29100001 44300.60829604  2328.44008226
0.29200001 43336.92638776  1904.65800490
0.29300001 42400.69624968  2056.85787243
0.29400001 41491.49719225  2019.59872143
0.29500001 40609.91185343  2704.62025747
0.29600001 39753.36038215  2125.21474663
0.29700001 38922.41742547  1913.81535541
0.29800001 38117.52323607  2564.35649710
0.29900001 37337.48417853  2016.22424109
0.30000001 36581.80190343  2642.66949461
0.30100001 35851.06531500  1786.45866922
0.30200001 35142.76972867  2715.30623163
0.30300001 34458.44091998  2042.69647444
0.30400001 33797.64796745  2319.36370157
0.30500001 33158.22001669  1521.96237082
0.30600001 32541.20112122  1648.37462083
0.30700001 31946.37357626  1623.51478201
0.30800001 31372.67998418  2035.77330055
0.30900001 30819.84857178  2006.37223701
0.31000001 30288.41179499  1412.95447713
0.31100001 29775.65113339  1811.55070072
0.31200001 29283.84054260  2062.31456785
0.31300001 28810.81849084  1492.68857668
0.31400001 28358.34150190  1473.92486935
0.31500001 27923.69068371  1588.29960129
0.31600002 27507.33391477  1438.77116853
0.31700002 27108.71225500  1810.31989010
0.31800002 26728.23192819  1662.62974582
0.31900002 26365.36956578  1265.53779908
0.32000002 26018.96269858  1378.09442458
0.32100002 25689.69979390  1488.97507056
0.32200002 25376.92712549  1352.46339519
0.32300002 25079.28237796  1218.85318128
0.32400002 24797.74633785  1571.55724858
0.32500002 24530.97534913  1799.34712706
0.32600002 24279.94414835  1548.21071193
0.32700002 24043.05784999  1301.21035246
0.32800002 23821.43837498  1293.14684342
0.32900002 23612.58962484  1519.47021431
0.33000002 23419.06724651  1162.75674385
0.33100002 23236.67275097  1504.34226513
0.33200002 23069.74876371  1152.33400532
0.33300002 22914.33969856  1377.61016791
0.33400002 22772.31120717  1373.17043082
0.33500002 22641.83362885  1711.72270340
0.33600002 22523.48141990  1252.41824366
0.33700002 22415.90696277  1250.13519052
0.33800002 22321.23750683  1362.04197717
0.33900002 22236.28044005  2041.29064107
0.34000002 22162.91793504  1813.81328970
0.34100002 22099.79217066  1360.46327046
0.34200002 22047.88466649  2382.16381161
0.34300002 22004.63419123  1476.07093145
0.34400002 21971.97647046  1478.16478706
0.34500002 21948.46325315  1480.86288582
0.34600002 21935.30474462  1370.07919924
0.34700002 21929.02491193  1488.10370100
0.34800002 21932.98034551  1837.10652075
0.34900002 21945.09909247  1497.75308400
0.35000002 21965.57824258  1272.13652417
0.35100002 21994.10075238  1161.28857473
0.35200002 22029.57144557  1749.69879494
0.35300002 22073.07178126  1523.70421723
0.35400002 22124.16205648  1884.97869649
0.35500002 22182.17829285  1658.33972772
0.35600002 22246.49856501  1786.95008187
0.35700002 22317.67358792  1198.45912844
0.35800002 22395.74162398  1206.01074357
0.35900002 22479.70219845  1456.68477146
0.36000002 22570.18957649  1711.04615284
0.36100002 22665.69292514  1353.82190254
0.36200002 22767.99233114  1487.66068938
0.36300002 22873.79324671  1373.80008747
0.36400002 22985.78036154  1636.01299473
0.36500002 23102.03820356  1395.13215320
0.36600002 23223.80827477  1534.16484730
0.36700002 23349.69631374  1546.68395709
0.36800002 23481.36502669  1429.66297737
0.36900002 23616.27150206  1310.70313045
0.37000002 23754.40068224  1718.51219876
0.37100002 23896.81119646  1733.47476631
0.37200002 24043.37992636  1614.27260472
0.37300002 24192.82333745  2578.71316169
0.37400002 24346.61161314  1506.44666492
0.37500002 24502.51614500  1520.13617365
0.37600002 24662.41088872  1534.12534201
0.37700002 24823.95627207  1970.52574222
0.37800002 24989.21343933  1988.89159185
0.37900002 25156.68923926  1577.32449002
0.38000002 25326.68600779  1736.90420870
0.38100002 25498.33979944  1461.05493972
0.38200002 25672.43200293  1769.85754613
0.38300002 25848.12662891  1786.62259723
0.38400002 26026.38110781  1653.32593820
0.38500002 26204.96749773  1972.44799700
0.38600002 26386.46518633  1991.25468962
0.38700002 26568.16390216  1700.89393360
0.38800002 26751.16148759  2185.30248545
0.38900002 26935.35785088  1733.29035982
0.39000002 27121.27399097  2226.92791290
0.39100002 27307.08596722  1926.78807713
0.39200002 27494.10440676  2269.08854419
0.39300002 27681.48199174  1799.57322954
0.39400002 27870.10591384  1816.43423899
0.39500002 28058.10976291  1833.31697877
0.39600002 28246.48168544  2523.11709609
0.39700002 28434.59323601  2376.56341526
0.39800002 28623.87794093  2227.08092871
0.39900002 28812.05151847  1901.59549031
0.40000002 29000.11275511  2093.22823784
0.40100002 29187.69382081  2288.02342702
0.40200002 29376.01069837  2663.66989628
0.40300002 29562.72890084  2149.80174753
0.40400002 29748.84479357  1807.24240684
0.40500002 29934.38511517  2369.90538185
0.40600002 30119.33521967  1838.78550228
0.40700002 30303.42522139  2040.02668256
0.40800002 30486.62508556  2431.46089890
0.40900002 30668.05078694  2640.51929787
0.41000002 30849.11577172  2092.03288518
0.41100002 31028.66520465  2109.32876056
0.41200002 31206.28531634  2319.87536034
0.41300002 31383.03208402  2533.55230019
0.41400002 31558.20627889  2160.94827734
0.41500002 31732.25718230  2178.10223620
0.41600002 31903.49716516  3392.45853180
0.41700002 32073.87375428  2413.23837562
0.41800002 32243.30795960  2634.43960167
0.41900002 32408.94019770  2245.93966212
0.42000002 32573.51701438  2468.42123631
0.42100002 32736.69415770  2279.45612221
0.42200002 32897.66280121  3548.50656620
0.42300002 33056.08637613  2733.07735109
0.42400002 33212.32034635  2329.01407465
0.42500002 33366.87133475  2771.78613312
0.42600002 33517.88419787  2790.86675998
0.42700002 33667.81302908  2593.76843867
0.42800002 33814.86034858  2611.18363985
0.42900002 33960.11664550  2409.47039018
0.43000002 34102.85653211  2204.74977928
0.43100002 34241.68010160  2440.74707330
0.43200002 34378.93888093  2679.49462336
0.43300002 34513.23208891  2246.81151546
0.43400002 34645.23773832  2486.66205651
0.43500002 34774.22336023  2274.23431553
0.43600002 34901.27120557  2516.55627953
0.43700002 35024.74067414  2531.23812847
0.43800002 35144.66270910  2777.13137888
0.43900002 35262.94670084  3723.76734808
0.44000002 35377.54335297  2574.24706407
0.44100002 35489.94518312  3529.47521572
0.44200002 35599.15119232  2365.56370883
0.44300002 35705.65222064  2615.79620565
0.44400002 35808.64168703  4063.38580800
0.44500002 35907.87466799  2642.46062205
0.44600002 36004.88996277  2896.95358369
0.44700002 36098.97743887  2425.85139886
0.44800002 36189.03833574  2924.79821691
0.44900002 36277.28574470  2938.46028458
0.45000002 36362.06055369  2705.88286434
0.45100002 36442.52107187  2717.88335035
0.45200002 36520.78441557  3722.38112797
0.45300002 36595.30752391  2741.35461654
0.45400002 36667.20656782  3753.80545029
0.45500002 36735.77774021  3266.54551147
0.45600002 36800.75487840  2522.69186647
0.45700002 36862.63807278  3038.95602675
0.45800002 36920.61987847  3050.38175893
0.45900002 36975.64180007  2806.45134564
0.46000002 37028.22989763  4096.80355004
0.46100002 37076.25306617  2826.32290519
0.46200002 37121.84024519  2835.92311994
0.46300002 37163.62934724  3362.56534271
0.46400002 37201.83880039  3113.79405517
0.46500002 37237.57976098  2602.90694866
0.46600002 37269.30319929  2610.71481285
0.46700002 37297.65392803  3403.78405880
0.46800002 37323.42808402  3675.98460622
0.46900002 37345.07100427  3685.95868282
0.47000002 37363.29217160  3431.63173215
0.47100002 37378.59596396  3175.68566362
0.47200002 37390.38225068  2918.13252107
0.47300002 37399.37880676  2659.09595919
0.47400002 37403.88375613  2665.02684394
0.47500002 37406.09831117  3472.03420981
0.47600002 37405.31020565  3479.25509369
0.47700002 37400.22059941  4290.55351053
