# SAXS profile: number of points = 501, q_min = 0, q_max = 0.5, delta_q = 0.001
#    q    intensity    error
0.00000000 1664650.74656091 349.57665678
0.00100000 1664582.07263324 599.24956038
0.00200000 1664376.00140658 823.86614678
0.00300000 1664032.69209629 1497.62947624
0.00400000 1663552.02593606 1746.72969361
0.00500000 1662934.46322664 1795.96929137
0.00600000 1662179.71023308 2268.87539684
0.00700000 1661288.46215207 1993.54623743
0.00800000 1660260.12677101 3362.02689866
0.00900000 1659096.08538247 2737.50865790
0.01000000 1657795.50338989 2735.36269870
0.01100000 1656359.61039033 5664.75011417
0.01200000 1654787.89013191 4194.88748540
0.01300000 1653081.68431622 4165.76602821
0.01400000 1651240.26154183 3715.29075317
0.01500000 1649265.42835682 4354.06092474
0.01600000 1647156.05071167 6720.39698733
0.01700000 1644914.19398011 5773.64907987
0.01800000 1642539.45572489 5149.36142541
0.01900000 1640032.54259332 5412.10763477
0.02000000 1637394.14411802 6189.35014475
0.02100000 1634625.80357344 7012.54501527
0.02200000 1631725.74872263 10133.01735993
0.02300000 1628697.00322779 7035.97137421
0.02400000 1625539.24132143 6095.77243291
0.02500000 1622253.92648155 9490.18590334
0.02600000 1618841.21125530 10490.09152873
0.02700000 1615302.14268708 8819.55010302
0.02800000 1611636.66693347 9113.80576946
0.02900000 1607847.15899180 10129.43756673
0.03000000 1603934.11199079 10441.61154901
0.03100000 1599897.73255004 8447.46041656
0.03200000 1595739.00372422 13428.14433481
0.03300000 1591460.74170516 11363.03021962
0.03400000 1587060.88282959 9998.48402316
0.03500000 1582542.87716783 15382.31747640
0.03600000 1577906.41005996 11384.59527471
0.03700000 1573153.25864216 10760.36878675
0.03800000 1568284.81028046 11009.35987768
0.03900000 1563302.26795858 14069.72106320
0.04000000 1558204.62495928 13416.14244259
0.04100000 1552995.84331172 12719.03654646
0.04200000 1547676.09312255 10980.76239013
0.04300000 1542245.58490523 12214.58559943
0.04400000 1536708.03928734 13484.61367100
0.04500000 1531062.89276111 11620.76789601
0.04600000 1525310.55765873 12904.12791767
0.04700000 1519454.31987721 16410.10741787
0.04800000 1513494.35483211 11124.18402560
0.04900000 1507433.41896942 18089.20186964
0.05000000 1501270.82506183 11484.72234652
0.05100000 1495010.10353191 16325.51109108
0.05200000 1488649.47709561 15385.19306275
0.05300000 1482194.40745476 15607.50783809
0.05400000 1475643.13353143 15826.27334516
0.05500000 1468999.67701991 18509.39679390
0.05600000 1462262.53715199 16253.04885888
0.05700000 1455436.61086740 18993.44865841
0.05800000 1448520.70621996 16665.23150320
0.05900000 1441516.79681580 12973.65177729
0.06000000 1434427.49933788 17062.51590176
0.06100000 1427254.41543791 13273.46668386
0.06200000 1419997.95408445 16102.77755202
0.06300000 1412661.34242958 16273.85942568
0.06400000 1405242.75585548 15071.22926138
0.06500000 1397748.27885038 17989.02119029
0.06600000 1390175.88016909 15368.39507433
0.06700000 1382528.69210727 18332.33131528
0.06800000 1374809.38082421 19920.98886063
0.06900000 1367018.90074499 15789.06904283
0.07000000 1359156.72579869 14475.01980760
0.07100000 1351227.70825973 18971.23791254
0.07200000 1343230.58352582 17650.05069438
0.07300000 1335170.59194686 22230.59139754
0.07400000 1327046.64323897 16422.20297969
0.07500000 1318861.27789415 24056.03083636
0.07600000 1310614.67281072 22706.40027094
0.07700000 1302312.26501697 18284.46505817
0.07800000 1293952.12868002 18400.00013272
0.07900000 1285536.44329925 24682.30086904
0.08000000 1277069.37866373 20171.31178225
0.08100000 1268550.67990131 20284.12632332
0.08200000 1259981.73608569 18824.12802045
0.08300000 1251365.14585816 18920.64189336
0.08400000 1242701.79432725 15844.44862139
0.08500000 1233995.25906149 22285.95542487
0.08600000 1225245.30885135 15989.45203124
0.08700000 1216455.06168896 22480.09059563
0.08800000 1207623.41670369 17733.95070715
0.08900000 1198756.31466593 17801.53210892
0.09000000 1189852.42319255 22738.08087534
0.09100000 1180914.75297312 17926.28679233
0.09200000 1171944.00715663 21253.20556840
0.09300000 1162943.53717549 18037.25510920
0.09400000 1153911.74491628 19731.89176542
0.09500000 1144853.08477996 18134.47371528
0.09600000 1135768.50951511 16525.43259027
0.09700000 1126661.02543253 18218.10963773
0.09800000 1117531.26467501 21573.94207891
0.09900000 1108381.46080416 19950.86723261
0.10000000 1099211.04000558 19983.65764708
0.10100000 1090022.84393757 18345.08532627
0.10200000 1080819.26014510 21708.25586109
0.10300000 1071601.10318700 25075.46699414
0.10400000 1062371.15281737 21752.05037726
0.10500000 1053131.72247480 26791.67228029
0.10600001 1043879.54042322 20105.12089457
0.10700001 1034622.36656098 21789.14806512
0.10800001 1025357.03971627 18441.04722716
0.10900001 1016088.06314940 18441.99921415
0.11000001 1006815.38216024 26821.56304323
0.11100001 997541.35089132 23462.17367741
0.11200001 988268.17961133 16751.14643301
0.11300001 978994.99733488 28459.38591242
0.11400001 969725.76960512 16727.77031331
0.11500001 960461.24379501 18383.22907187
0.11600001 951202.25823264 20032.32050173
0.11700001 941951.77930792 25008.82091841
0.11800001 932708.02881699 24973.25864777
0.11900001 923475.68935312 18284.81951044
0.12000001 914254.24472346 18253.08685571
0.12100001 905047.44093689 19874.84273924
0.12200001 895853.64222658 18181.35052554
0.12300001 886676.56825282 23089.05892513
0.12400001 877515.77411157 18098.76369382
0.12500001 868373.74874453 19694.71754955
0.12600001 859252.92129504 19642.52270643
0.12700001 850152.70602877 19587.51926999
0.12800001 841073.80310975 22784.69040007
0.12900001 832019.41763674 17846.81734947
0.13000001 822989.76120141 25874.79931178
0.13100001 813985.21164442 20951.98033535
0.13200001 805009.23661354 20877.91553576
0.13300001 796062.66040946 22401.20431998
0.13400001 787144.07122343 27097.43592939
0.13500001 778257.60304495 19051.74702080
0.13600001 769401.98310046 23716.81724734
0.13700001 760580.28892172 15744.01272306
0.13800001 751791.32080096 17242.33475565
0.13900001 743040.09854523 17164.22708583
0.14000001 734323.64697913 17084.04045266
0.14100001 725645.03077627 15456.23988450
0.14200001 717003.84347720 15379.73316798
0.14300001 708404.45363685 19891.99799638
0.14400001 699841.45120316 22832.32842250
0.14500001 691323.26788397 18167.97633701
0.14600001 682845.09469338 18068.08205794
0.14700001 674412.90351403 17966.36059720
0.14800001 666022.28910077 23816.95818190
0.14900001 657676.39635726 20716.80746269
0.15000001 649376.90086679 22062.58124793
0.15100001 641124.15764506 19002.92092925
0.15200001 632919.36569978 14525.50012822
0.15300001 624762.84379230 20204.83132169
0.15400001 616653.27512773 14337.18932331
0.15500001 608595.40553821 15665.24647784
0.15600001 600585.80379060 15558.17598146
0.15700001 592631.07248779 21068.03562129
0.15800001 584723.49513987 19523.91842422
0.15900001 576871.45747937 16613.89875959
0.16000001 569070.00120053 15117.34529547
0.16100001 561325.66431787 15004.23571548
0.16200001 553633.21320031 14889.96597192
0.16300001 545996.87161963 13431.52367592
0.16400001 538415.60433022 18656.10157079
0.16500001 530890.78662775 15863.01745335
0.16600001 523422.01727516 17045.23879732
0.16700001 516009.95031910 13003.45136200
0.16800001 508654.31806928 15473.26508626
0.16900001 501358.93159452 14063.11869526
0.17000001 494121.11624872 15209.04867630
0.17100001 486941.92127137 15075.72259446
0.17200001 479822.43574922 18677.08919352
0.17300001 472762.27891298 16040.82488104
0.17400001 465762.88534724 14671.53158132
0.17500001 458823.41078420 13324.23247844
0.17600001 451942.49124255 17998.61056379
0.17700001 445125.27308043 13073.32988783
0.17800001 438368.25334211 15301.24460562
0.17900001 431672.46679251 16317.22001548
0.18000001 425039.34960276 15001.76455284
0.18100001 418469.20349797 13709.05175416
0.18200001 411958.33876435 15831.55970656
0.18300001 405512.67777028 13430.58052220
0.18400001 399127.88889089 15506.11921593
0.18500001 392807.08175801 13151.18171855
0.18600001 386548.91701097 13011.23716128
0.18700001 380353.38049221 16088.94875494
0.18800001 374220.64153648 12730.98682656
0.18900001 368153.12567518 11541.60103523
0.19000001 362144.88619327 11412.99662763
0.19100001 356205.05994102 13336.31807433
0.19200001 350325.14659753 11156.10482054
0.19300001 344510.94574741 12030.32279396
0.19400001 338759.39857149 13872.19802702
0.19500001 333071.77111613 12730.00369362
0.19600001 327446.62459025 11611.25785668
0.19700001 321885.55358070 12428.00181107
0.19800001 316388.00510291 12277.43711824
0.19900001 310954.77025168 13060.10096779
0.20000001 305582.79298948 10134.65380847
0.20100001 300275.79421252 9098.35699465
0.20200001 295030.84275274 11678.79646235
0.20300001 289849.68779149 12417.16121188
0.20400001 284731.33509022 11382.13565822
0.20500001 279674.93978830 9506.15165273
0.20600001 274681.99424742 11940.42685434
0.20700001 269751.12550969 11782.72971922
0.20800001 264882.35002804 10795.28068569
0.20900001 260078.08511663 9011.70607529
0.21000001 255333.19710539 13738.20331969
0.21100001 250650.23949995 8767.74579219
0.21200001 246028.80343526 10218.80683377
0.21300001 241468.51480725 7751.13969175
0.21400001 236970.17699622 10699.20399720
0.21500001 232533.16844301 8287.48251512
0.21600001 228154.98662724 7426.44516583
0.21700001 223838.12517294 8051.45774314
0.21800001 219581.11801282 9377.21208810
0.21900001 215382.58683797 9239.91341223
0.22000001 211243.46915870 7702.99346709
0.22100001 207165.53798266 8968.19656332
0.22200001 203145.41139537 9513.30006548
0.22300001 199183.48434458 7361.82192948
0.22400001 195278.01195703 9226.88650128
0.22500001 191433.60784290 7787.51953530
0.22600001 187644.41905825 7667.15132529
0.22700001 183913.56162705 8805.78174712
0.22800001 180238.69168677 6810.31928744
0.22900001 176619.67042655 7312.05470145
0.23000001 173056.93300668 7795.34991594
0.23100001 169551.37098433 6490.42678823
0.23200001 166098.84742281 9288.24798716
0.23300001 162702.44126112 5710.85595836
0.23400001 159360.33313756 6740.94241053
0.23500001 156071.05714997 7182.39038974
0.23600001 152836.28624784 7606.66232633
0.23700001 149654.50308151 8013.99901906
0.23800001 146525.42002488 6828.81752325
0.23900001 143448.83399718 6713.40574861
0.24000001 140423.71653362 5583.94935208
0.24100001 137451.44785295 6486.33413099
0.24200001 134529.39293579 5884.31592535
0.24300001 131658.10579648 7228.03035013
0.24400001 128836.36119812 5681.68379760
0.24500001 126064.78394499 7442.86519619
0.24600001 123342.52886113 5940.79318363
0.24700001 120669.71168427 5386.69618441
0.24800001 118044.14410100 4849.84388982
0.24900001 115466.58348141 4329.99708539
0.25000001 112936.98165659 4677.28531658
0.25100001 110453.62628886 6262.72090686
0.25200001 108017.87795374 5329.06226096
0.25300001 105628.27563956 4426.88124149
0.25400001 103283.45301388 4740.71071763
0.25500001 100983.75087266 4265.55383867
0.25600001 98729.23951956  4186.61359991
0.25700001 96518.52893133  5602.90086956
0.25800001 94351.41053128  5864.88395612
0.25900001 92227.95574651  5395.33566645
0.26000001 90147.65330839  3882.20887341
0.26100001 88107.49416835  5886.46196391
0.26200001 86111.76481032  4076.53113901
0.26300001 84155.74725221  4332.33807354
0.26400001 82240.56072936  3922.87493241
0.26500001 80366.62678778  4489.27998479
0.26600001 78531.50638807  3774.22437561
0.26700001 76737.02993131  4318.76024890
0.26800001 74981.14917346  3328.03846355
0.26900001 73263.14940087  3857.30499849
0.27000001 71583.90730723  4364.82895461
0.27100001 69941.87071261  4280.44269017
0.27200001 68337.27085350  3358.09364866
0.27300001 66768.68660497  3293.03177920
0.27400001 65235.19742825  3498.23762764
0.27500001 63739.50415764  2902.69715671
0.27600001 62276.91877760  3105.12731720
0.27700001 60850.79952278  2537.47846019
0.27800001 59457.67542610  2737.13421778
0.27900001 58099.13849012  3416.22950490
0.28000001 56773.26308346  3110.89109789
0.28100001 55480.24183055  3754.90294481
0.28200001 54220.05526438  3452.46218236
0.28300001 52991.70658932  3386.17021133
0.28400001 51794.87696255  2435.65420445
0.28500001 50629.26942256  2823.59448934
0.28600001 49493.56288268  2556.83757954
0.28700001 48388.50980841  2090.38372267
0.28800001 47312.41279895  2461.19183030
0.28900001 46266.98736815  2415.13685493
0.29000001 45249.01345382  2172.63148383
0.29100001 44260.59860702  2714.06003505
0.29200001 43299.42136238  2093.31062485
0.29300001 42365.76645832  1868.33038925
0.29400001 41459.06977675  2568.38949425
0.29500001 40580.07050125  2702.63282332
0.29600001 39726.04772938  2654.69326518
0.29700001 38897.75193923  2086.47551279
0.29800001 38095.36919043  2392.00834470
0.29900001 37317.99919288  2183.10305613
0.30000001 36564.90203863  1650.90540520
0.30100001 35836.76665092  1785.74616675
0.30200001 35131.05679828  2075.71858919
0.30300001 34449.39913789  2042.16047757
0.30400001 33791.30782606  1700.54764685
0.30500001 33154.48058748  2282.68609652
0.30600001 32540.20989855  1648.32441045
0.30700001 31948.11925025  1918.80413301
0.30800001 31377.03875534  1599.75839668
0.30900001 30826.93870707  2006.83380484
0.31000001 30298.16008985  1837.43200564
0.31100001 29788.11855507  1812.30921869
0.31200001 29299.02429613  1925.82495816
0.31300001 28828.69643695  1765.18116641
0.31400001 28378.95028015  1609.08655707
0.31500001 27946.99436636  1854.56263396
0.31600002 27533.38205275  2487.50351933
0.31700002 27137.42983974  1682.79210404
0.31800002 26759.75899213  2048.72724544
0.31900002 26399.59739490  1267.18073495
0.32000002 26055.86787145  1380.04910716
0.32100002 25729.36645462  1367.00130446
0.32200002 25419.26936153  1477.87639066
0.32300002 25124.36971499  1465.25331116
0.32400002 24845.52789717  1574.58540504
0.32500002 24581.49212004  1202.03502159
0.32600002 24333.14785374  2148.37372574
0.32700002 24099.02231463  1897.07512644
0.32800002 23880.13004026  1414.18136795
0.32900002 23673.93003902  1640.60342939
0.33000002 23483.10734142  1632.31086860
0.33100002 23303.36857469  1392.60937197
0.33200002 23139.14424865  1155.80030995
0.33300002 22986.39894871  1266.78050605
0.33400002 22846.95423743  1722.08925720
0.33500002 22719.18094324  1374.05612852
0.33600002 22603.46174752  1485.38655908
0.33700002 22498.53172456  1596.94585744
0.33800002 22406.43691816  1595.11431974
0.33900002 22324.09794748  1366.23485909
0.34000002 22253.26968815  1252.08027830
0.34100002 22192.77893868  1366.18753617
0.34200002 22143.44215853  1481.06419891
0.34300002 22102.72815518  1482.65107487
0.34400002 22072.61657996  1370.70955453
0.34500002 22051.60206840  1373.37384186
0.34600002 22040.91093837  1147.22946868
0.34700002 22037.16139396  1265.37386717
0.34800002 22043.61706383  1153.98340795
0.34900002 22058.16940726  1621.27552822
0.35000002 22081.02927599  1278.82287109
0.35100002 22111.97617472  1401.01487679
0.35200002 22149.85828812  1641.96907267
0.35300002 22195.72035090  1885.74849033
0.35400002 22249.18732056  1895.63084950
0.35500002 22309.50242953  1429.59298340
0.35600002 22376.10362320  1318.06444635
0.35700002 22449.61216177  1808.31634528
0.35800002 22529.96353158  1455.88631237
0.35900002 22616.08357017  1465.52228476
0.36000002 22708.81402160  1352.65057127
0.36100002 22806.53774906  1362.23456428
0.36200002 22910.96167698  1497.00230688
0.36300002 23018.89904091  1759.56472603
0.36400002 23133.00461841  1266.53206285
0.36500002 23251.35301911  1787.09907770
0.36600002 23375.17084260  1544.16385901
0.36700002 23503.09476092  1946.05633839
0.36800002 23636.76357917  1700.78340390
0.36900002 23773.64997691  1319.43763622
0.37000002 23913.68661337  1863.11541230
0.37100002 24058.01112237  1745.16820948
0.37200002 24206.45365702  2031.52671940
0.37300002 24357.76452627  1366.47065465
0.37400002 24513.40530123  1930.43075892
0.37500002 24671.03938395  1808.88069332
0.37600002 24832.70429376  2106.43424150
0.37700002 24995.95967727  1558.99807892
0.37800002 25162.91496559  2002.71649698
0.37900002 25332.02716039  2165.88842482
0.38000002 25503.63437089  1603.28605068
0.38100002 25676.87060376  1471.28475529
0.38200002 25852.50437185  1930.79438048
0.38300002 26029.77997893  1799.17847738
0.38400002 26209.43340437  1664.95433589
0.38500002 26389.51217122  1986.33867523
0.38600002 26572.37989482  1696.77939857
0.38700002 26755.43181745  1557.16620555
0.38800002 26939.82173160  2043.52027426
0.38900002 27125.28427404  2697.60964885
0.39000002 27312.44742809  1922.25014106
0.39100002 27499.48021531  1616.96951327
0.39200002 27687.65556822  2121.84358500
0.39300002 27876.13544980  2306.47155639
0.39400002 28065.87676619  2161.77426033
0.39500002 28254.96807682  2181.84873826
0.39600002 28444.36785889  1863.24840487
0.39700002 28633.46170115  2393.18484237
0.39800002 28823.69122367  2242.62740191
0.39900002 29012.80209827  1914.84502921
0.40000002 29201.70196972  1756.48245670
0.40100002 29390.07380940  2303.88799508
0.40200002 29579.22754453  1966.87082876
0.40300002 29766.62699416  2525.40075384
0.40400002 29953.48357603  2183.60905615
0.40500002 30139.66368935  1835.50560565
0.40600002 30325.27607217  2406.76564950
0.40700002 30509.89662962  2427.36749086
0.40800002 30693.61331714  2447.96924610
0.40900002 30875.49994180  2848.26500459
0.41000002 31057.08006717  2872.00361529
0.41100002 31237.02788867  1930.44841499
0.41200002 31415.01228558  2335.39212397
0.41300002 31592.07476116  2354.24152275
0.41400002 31767.49025108  2570.78427038
0.41500002 31941.80181997  3189.06964481
0.41600002 32113.17603657  2611.28303315
0.41700002 32283.74364281  2429.02898678
0.41800002 32453.27556102  2447.62615879
0.41900002 32618.97598705  2260.49514301
0.42000002 32783.57644212  2691.36783555
0.42100002 32946.68104249  2711.18251146
0.42200002 33107.64238444  2310.74800972
0.42300002 33265.87228413  2538.85149303
0.42400002 33422.03729879  2343.72047664
0.42500002 33576.37217781  2360.08331221
0.42600002 33727.12809414  2808.28945383
0.42700002 33876.77332629  2174.88895061
0.42800002 34023.47317196  2408.35166260
0.42900002 34168.36761886  3746.56168695
0.43000002 34310.69144698  2440.00493788
0.43100002 34449.08133444  2678.76069151
0.43200002 34585.84784702  2920.25620135
0.43300002 34719.61412169  2260.24698643
0.43400002 34851.05325339  2501.43446580
0.43500002 34979.41173718  2973.94972683
0.43600002 35105.82110567  2531.30535078
0.43700002 35228.55124523  2545.96751914
0.43800002 35347.74916163  3724.23902816
0.43900002 35465.23528120  3979.19958712
0.44000002 35578.96699578  3059.61341180
0.44100002 35690.55131855  3076.16876393
0.44200002 35798.83135887  3330.36543914
0.44300002 35904.39258780  2630.35592564
0.44400002 36006.36593927  2403.42504035
0.44500002 36104.55889219  2656.93461479
0.44600002 36200.52987239  3155.41933587
0.44700002 36293.49643019  2682.81538326
0.44800002 36382.43474502  2695.39280582
0.44900002 36469.50629019  2707.86097038
0.45000002 36553.08688616  2967.37973405
0.45100002 36632.27859310  3477.13604885
0.45200002 36709.23943721  2993.27152557
0.45300002 36782.41201411  3757.32356531
0.45400002 36852.95098684  2515.21402406
0.45500002 36920.12188345  3535.47103912
0.45600002 36983.66027506  2788.75303521
0.45700002 37044.06398526  3053.91277968
0.45800002 37100.52540690  3831.55694299
0.45900002 37154.02329148  3332.71604720
0.46000002 37205.02541158  3601.81868080
0.46100002 37251.44632476  3097.83042319
0.46200002 37295.33405263  3885.24160907
0.46300002 37335.51283189  3118.26217951
0.46400002 37371.96499914  3649.37255513
0.46500002 37405.99755831  2614.67935325
0.46600002 37435.91659677  3146.86329827
0.46700002 37462.43590587  3681.80837533
0.46800002 37486.41498554  2900.88636115
0.46900002 37506.20785336  3701.86289058
0.47000002 37522.48341054  4241.54172576
0.47100002 37535.89881825  3720.55846721
0.47200002 37545.74173816  3729.41870361
0.47300002 37552.77026350  3738.00292920
0.47400002 37555.19917480  2943.38887483
0.47500002 37555.38586561  2949.60014569
0.47600002 37552.57369345  3761.64148517
0.47700002 37545.37671108  3768.80509289
