# SAXS profile: number of points = 501, q_min = 0, q_max = 0.5, delta_q = 0.001
#    q    intensity    error
0.00000000 1682732.95097189 277.65093691
0.00100000 1682663.43108892 555.27894545
0.00200000 1682454.82245964 908.52563290
0.00300000 1682107.29099705 1412.97017477
0.00400000 1681620.72000797 1261.21558793
0.00500000 1680995.55587396 1664.18566619
0.00600000 1680231.52132990 2293.51611999
0.00700000 1679329.27461248 2619.75377727
0.00800000 1678288.31485480 3625.10291314
0.00900000 1677109.99234861 4528.19717291
0.01000000 1675793.37700403 3041.56511060
0.01100000 1674339.82967815 4520.71773696
0.01200000 1672748.80913206 4566.60444915
0.01300000 1671021.59991738 4210.97461752
0.01400000 1669157.61663795 4131.16528432
0.01500000 1667158.51805131 5201.53480794
0.01600000 1665023.19737260 5094.97121172
0.01700000 1662753.79231381 7183.09670502
0.01800000 1660349.92793846 5678.39700906
0.01900000 1657812.18520582 5470.78045803
0.02000000 1655141.37799591 5735.06513419
0.02100000 1652339.05610766 7088.53487209
0.02200000 1649403.48563559 6259.48651237
0.02300000 1646337.62159749 5926.81570753
0.02400000 1643141.10001426 8626.49116842
0.02500000 1639815.50517452 8313.86499093
0.02600000 1636361.04911153 11266.34633844
0.02700000 1632778.61470238 8914.97164459
0.02800000 1629068.12445880 7795.09133302
0.02900000 1625232.34519571 8776.25506701
0.03000000 1621271.35634675 9046.69458425
0.03100000 1617185.63734971 9314.98969975
0.03200000 1612976.05282822 7984.23182924
0.03300000 1608645.40169390 12306.13789028
0.03400000 1604191.80003272 10106.40880652
0.03500000 1599618.63832473 11229.32335959
0.03600000 1594925.58355641 9737.02113760
0.03700000 1590114.49098795 9970.01831958
0.03800000 1585186.60676050 10200.67628659
0.03900000 1580143.37217304 12325.11887373
0.04000000 1574983.73225637 10654.76544245
0.04100000 1569711.45389466 14833.77392710
0.04200000 1564327.01487461 16143.85554247
0.04300000 1558830.39851803 13374.76544011
0.04400000 1553225.46942292 11532.69964607
0.04500000 1547511.78602719 11745.61500171
0.04600000 1541689.53755822 13042.69409406
0.04700000 1535762.26973767 13268.98662765
0.04800000 1529730.01741672 11243.51615115
0.04900000 1523595.52152943 13712.36033204
0.05000000 1517358.32359700 13929.35005926
0.05100000 1511021.79100251 14143.16462263
0.05200000 1504584.26179656 16746.02361418
0.05300000 1498051.00165533 15774.47778280
0.05400000 1491420.70987447 14765.06571631
0.05500000 1484697.09507527 14965.74741650
0.05600000 1477878.65590916 15163.03571720
0.05700000 1470970.46690744 15356.93239135
0.05800000 1463971.36852719 14251.76193806
0.05900000 1456882.94494876 14423.14182864
0.06000000 1449708.40590052 19897.24880056
0.06100000 1442449.01706182 13414.77648557
0.06200000 1435105.45361044 14917.92188760
0.06300000 1427680.91950739 15076.31121490
0.06400000 1420173.36460671 15231.36004773
0.06500000 1412589.00955541 15383.09503365
0.06600000 1404926.06211111 14119.50758485
0.06700000 1397187.45100640 17101.57520065
0.06800000 1389375.96636201 14380.04192496
0.06900000 1381492.67715627 15956.24116821
0.07000000 1373536.68111271 21942.24950830
0.07100000 1365513.22128666 19171.80652483
0.07200000 1357420.95232704 14863.76012430
0.07300000 1349264.99049549 20967.57893475
0.07400000 1341044.67271955 21121.45458517
0.07500000 1332762.16764198 16712.83836560
0.07600000 1324417.81802735 24475.24242456
0.07700000 1316017.04480820 23096.10021933
0.07800000 1307558.13909348 18593.47760987
0.07900000 1299042.93476056 15588.51594829
0.08000000 1290476.01147296 21950.99798490
0.08100000 1281857.21780050 20496.89787431
0.08200000 1273187.08348898 17436.29792658
0.08300000 1264469.13967350 20712.00547991
0.08400000 1255704.01248155 20813.29498383
0.08500000 1246895.54395206 19301.94392651
0.08600000 1238042.95523532 16156.46132439
0.08700000 1229149.91392453 22714.69147596
0.08800000 1220215.20681829 24434.81066409
0.08900000 1211244.68717841 17986.98444944
0.09000000 1202236.81385037 24615.79991993
0.09100000 1193195.04442852 19759.31086405
0.09200000 1184119.76851906 23125.86016579
0.09300000 1175015.03134184 16567.71272047
0.09400000 1165878.57469927 21597.90161135
0.09500000 1156715.00065615 18322.36647159
0.09600000 1147525.31628751 21705.44237790
0.09700000 1138312.83214336 21753.15924494
0.09800000 1129078.08530603 23473.53449718
0.09900000 1119822.63812894 25196.01054268
0.10000000 1110546.83185685 18507.26382324
0.10100000 1101253.14866203 20219.00876037
0.10200000 1091944.07798648 28679.91255731
0.10300000 1082620.58380532 21955.54647238
0.10400000 1073285.21975150 20285.09160762
0.10500000 1063940.36609188 28758.30944852
0.10600001 1054582.98383135 18618.66345562
0.10700001 1045220.35037598 18625.82752019
0.10800001 1035849.94260934 25404.22103806
0.10900001 1026476.14405131 25405.28576099
0.11000001 1017098.52176630 20321.62942142
0.11100001 1007719.70726238 18622.66106684
0.11200001 998342.25028979 20306.28232686
0.11300001 988964.29417526 23675.80631723
0.11400001 979591.24242769 25346.92459126
0.11500001 970223.02981423 18570.06966507
0.11600001 960860.35037200 25294.64991471
0.11700001 951506.62802938 18525.83492020
0.11800001 942159.82394744 20181.06437945
0.11900001 932824.81459160 26865.35592564
0.12000001 923500.94385638 18437.69721260
0.12100001 914192.11576174 21748.63145851
0.12200001 904896.96217181 20034.41968633
0.12300001 895618.49863687 24987.75728925
0.12400001 886356.97428332 19943.03286104
0.12500001 877114.33011260 23208.44626837
0.12600001 867893.52046141 24800.05851585
0.12700001 858693.68354270 21432.99535129
0.12800001 849515.71243951 18081.94279146
0.12900001 840362.69074191 19664.48789019
0.13000001 831234.98697180 17967.14509027
0.13100001 822132.67084583 17906.05041507
0.13200001 813059.73068933 17842.59663108
0.13300001 804016.28460252 21008.94650709
0.13400001 795001.80474856 20928.42349669
0.13500001 786019.75403640 20845.24485986
0.13600001 777069.11114147 19162.52518428
0.13700001 768153.14254756 17490.84788056
0.13800001 759270.40849884 22163.10426920
0.13900001 750426.13743679 22062.52948107
0.14000001 741616.92375727 18822.23841263
0.14100001 732846.52336272 23414.44752573
0.14200001 724113.97625841 17085.47007566
0.14300001 715424.21746373 21634.42935655
0.14400001 706771.05498825 18446.72540532
0.14500001 698163.72503034 18347.74355930
0.14600001 689597.04069578 21287.86165052
0.14700001 681076.62613314 22679.85272019
0.14800001 672599.00625905 19542.36504884
0.14900001 664166.42853628 16438.11988184
0.15000001 655781.26983281 16338.79110880
0.15100001 647443.28209305 25094.90279803
0.15200001 639154.24483172 17602.30873327
0.15300001 630913.91045492 21861.16802887
0.15400001 622721.66270428 23165.24694579
0.15500001 614581.34678046 17257.44503203
0.15600001 606490.59086748 18567.71031571
0.15700001 598455.22570516 17020.06742235
0.15800001 590467.55024606 16899.18208566
0.15900001 582536.56828014 13980.87829863
0.16000001 574656.65202762 18041.34644200
0.16100001 566834.89399674 17906.31514661
0.16200001 559065.53339923 20503.72940532
0.16300001 551353.50373852 14919.62651549
0.16400001 543696.88021418 20184.74763086
0.16500001 536097.65793669 18688.36523798
0.16600001 528555.34151940 17212.40550923
0.16700001 521070.50929568 18383.36843592
0.16800001 513642.85913776 14322.93180333
0.16900001 506276.46891861 14201.05562371
0.17000001 498968.12863734 14078.38641428
0.17100001 491719.36208344 17760.90419715
0.17200001 484531.00597457 15088.29623856
0.17300001 477402.83059014 13706.23591351
0.17400001 470336.36230515 13580.96310294
0.17500001 463330.49250669 14678.31069583
0.17600001 456384.20338906 15752.10152393
0.17700001 449502.22150555 12001.70988105
0.17800001 442681.29036703 16640.39049086
0.17900001 435922.48103098 15300.87980690
0.18000001 429227.12422150 12818.86867037
0.18100001 422595.37922374 11536.85439777
0.18200001 416024.03027841 12561.84618765
0.18300001 409518.46394663 16954.06520829
0.18400001 403074.72657782 14540.92144822
0.18500001 396695.68441323 13281.37214159
0.18600001 390379.95907558 10950.15836939
0.18700001 384127.62918185 17331.83944752
0.18800001 377938.92323203 19286.22416373
0.18900001 371816.52935097 13775.80306333
0.19000001 365754.03208666 13622.50956871
0.19100001 359760.62595286 13469.43847211
0.19200001 353827.96035295 12291.98392347
0.19300001 347962.01265284 12150.83405600
0.19400001 342159.00339004 12009.78158650
0.19500001 336420.89996739 13847.08489700
0.19600001 330746.15146533 10750.90416143
0.19700001 325136.29683849 11587.85816694
0.19800001 319590.57609888 11447.73497687
0.19900001 314109.86836463 11307.95579554
0.20000001 308691.23878504 16752.67432061
0.20100001 303338.47672523 10110.27190709
0.20200001 298048.14199101 10890.67962308
0.20300001 292822.47892809 9856.40510658
0.20400001 287660.58740790 8845.56348089
0.20500001 282561.13165605 11350.48119513
0.20600001 277525.90100086 8617.17963339
0.20700001 272553.42957866 10204.40088578
0.20800001 267643.57849788 13425.00253206
0.20900001 262799.09925438 9933.80642140
0.21000001 258014.65363687 10616.01342573
0.21100001 253293.04070155 10471.13479761
0.21200001 248633.32954819 8738.21878007
0.21300001 244035.64739705 10183.60804731
0.21400001 239500.25127122 10813.43685612
0.21500001 235027.10612554 9899.34217802
0.21600001 230613.23377813 9758.39944868
0.21700001 226261.35255416 8878.49589400
0.21800001 221969.96379946 9479.22775224
0.21900001 217737.90351505 7903.88627130
0.22000001 213565.57037239 8495.63879111
0.22100001 209455.24284684 9067.31789157
0.22200001 205403.24850400 7557.81288607
0.22300001 201410.11822068 6767.38029221
0.22400001 197473.84974429 6664.74274402
0.22500001 193599.19841504 10500.82101859
0.22600001 189780.50106005 8400.63427667
0.22700001 186020.59188101 6998.09499750
0.22800001 182317.20142812 6888.85578174
0.22900001 178670.17914268 9862.59435509
0.23000001 175080.24648027 7279.83699293
0.23100001 171547.69574803 10148.76216042
0.23200001 168068.86513293 9398.41138272
0.23300001 164646.71144651 7512.82979862
0.23400001 161279.23327530 6253.60256602
0.23500001 157965.07360585 6710.35664415
0.23600001 154705.98145490 10449.61601161
0.23700001 151500.39051168 7571.98987591
0.23800001 148347.75483104 5850.09398846
0.23900001 145248.39088503 7843.41347878
0.24000001 142200.80113696 5140.55920425
0.24100001 139206.54447073 5558.51758364
0.24200001 136262.93997028 5463.46283654
0.24300001 133370.45365229 5857.63060149
0.24400001 130528.06995867 5276.59747768
0.24500001 127736.02103520 6127.49721892
0.24600001 124993.73875435 5557.22188790
0.24700001 122301.57668350 5459.54264142
0.24800001 119656.96919445 5363.02561300
0.24900001 117060.75243083 5706.71195097
0.25000001 114512.74539001 6467.10760185
0.25100001 112011.41516944 5504.24120183
0.25200001 109558.10341176 7483.91439812
0.25300001 107151.29862338 4082.46467069
0.25400001 104789.54675694 5210.66045901
0.25500001 102473.38290712 5115.47151675
0.25600001 100202.53569059 5407.93110708
0.25700001 97976.07842955  4929.17673901
0.25800001 95793.41958716  6698.83414868
0.25900001 93654.79264794  4748.29821192
0.26000001 91559.55758417  3943.01253393
0.26100001 89504.71369382  4924.54958044
0.26200001 87494.66567088  4832.33061365
0.26300001 85524.72543090  3725.45721605
0.26400001 83595.70521524  4319.80827140
0.26500001 81708.27955888  3912.19261040
0.26600001 79860.00312692  3518.23260424
0.26700001 78052.55807196  3765.25557956
0.26800001 76284.11816798  4617.09647060
0.26900001 74553.72927699  3623.31141432
0.27000001 72862.09678185  3554.21324921
0.27100001 71208.17353929  2905.29361789
0.27200001 69591.84443869  3134.76478109
0.27300001 68011.84398158  3354.34430391
0.27400001 66467.07236367  3290.12023771
0.27500001 64960.49464488  2689.36460557
0.27600001 63486.89374472  4220.60889589
0.27700001 62050.17969400  2846.24187727
0.27800001 60646.71875149  3299.48488983
0.27900001 59277.84877822  2738.63674317
0.28000001 57942.02689876  2686.48220431
0.28100001 56639.24288553  2635.42409620
0.28200001 55369.33734389  2350.42848149
0.28300001 54131.44086447  2536.59943897
0.28400001 52925.44731893  3846.35706595
0.28500001 51750.74190452  2664.12831934
0.28600001 50605.89408785  2396.44222796
0.28700001 49492.03935440  2138.05620131
0.28800001 48407.16499779  2518.14084238
0.28900001 47353.37848803  2471.84647408
0.29000001 46326.97975244  3842.12824763
0.29100001 45330.35253262  2184.01648840
0.29200001 44361.08038305  2534.57044766
0.29300001 43419.58820835  2680.72550288
0.29400001 42504.98558436  2257.01484137
0.29500001 41618.37730990  2402.21285204
0.29600001 40756.79083777  1815.71511777
0.29700001 39921.07270866  2319.81364492
0.29800001 39111.34932172  2455.80174016
0.29900001 38326.72589133  1897.17302143
0.30000001 37566.55116812  2544.19479830
0.30100001 36831.50347373  2335.85406088
0.30200001 36118.96803356  1641.60717484
0.30300001 35430.48170846  1938.75605087
0.30400001 34765.65156081  1590.52863421
0.30500001 34122.35333201  1566.21609209
0.30600001 33501.67224900  1851.30249613
0.30700001 32903.12101902  1824.14911566
0.30800001 32325.69291572  2547.10309388
0.30900001 31769.48078693  1477.28092653
0.31000001 31234.61206926  2039.93261082
0.31100001 30718.48285877  2300.20010537
0.31200001 30223.45471619  2128.48689916
0.31300001 29747.22638553  1401.09442910
0.31400001 29291.70715920  1799.24319744
0.31500001 28854.00408393  1914.75180167
0.31600002 28434.88994863  2028.11862161
0.31700002 28033.43023845  3075.54777708
0.31800002 27650.07282885  1455.36165226
0.31900002 27284.44932971  1571.58435580
0.32000002 26935.57877008  1686.03263295
0.32100002 26603.72600500  1927.44004033
0.32200002 26288.33565688  1401.03691517
0.32300002 25988.36608507  1389.33811669
0.32400002 25704.32452371  1879.62881980
0.32500002 25435.36523102  1492.54730243
0.32600002 25181.92059617  1358.69059010
0.32700002 24942.96093071  1227.19373590
0.32800002 24719.19514945  1341.88157223
0.32900002 24508.27510767  1334.47564280
0.33000002 24312.65940958  1569.26067590
0.33100002 24128.19076326  1441.90074829
0.33200002 23959.44782983  1675.48426608
0.33300002 23801.97449529  1788.71846803
0.33400002 23658.08339360  1545.46437087
0.33500002 23525.84339842  1778.55384515
0.33600002 23405.59501372  1774.72932596
0.33700002 23296.33511645  1771.68636951
0.33800002 23199.82898444  2123.48044751
0.33900002 23113.26755562  1414.53204139
0.34000002 23038.13657657  1531.92096421
0.34100002 22973.53907500  1532.10539347
0.34200002 22920.10114662  1415.08711181
0.34300002 22875.29530472  1416.43835235
0.34400002 22841.05184475  1300.22693784
0.34500002 22815.99484947  1184.15018877
0.34600002 22801.45336141  1305.49727404
0.34700002 22793.64222835  1308.81099874
0.34800002 22796.38701753  1432.06910027
0.34900002 22806.97633129  1436.83957692
0.35000002 22826.08153974  2163.22784998
0.35100002 22853.29098692  1206.65382126
0.35200002 22887.42938225  1454.26733183
0.35300002 22929.63286531  1217.56356282
0.35400002 22979.51300468  1346.02503800
0.35500002 23036.15225610  1476.15670649
0.35600002 23099.27579858  1484.35953312
0.35700002 23169.23502620  1990.70076774
0.35800002 23246.09567610  1376.98254259
0.35900002 23328.83728119  1511.70872742
0.36000002 23418.13220286  1775.32868639
0.36100002 23512.57390004  1532.07938790
0.36200002 23613.57909677  1671.48727554
0.36300002 23718.35944448  1813.03148181
0.36400002 23829.04103938  1304.64005870
0.36500002 23944.22194836  1314.53784723
0.36600002 24064.93991957  1722.20750692
0.36700002 24189.69979202  1602.32579012
0.36800002 24320.31108188  1615.35513858
0.36900002 24454.07505689  1492.92135294
0.37000002 24591.08695661  1505.34345936
0.37100002 24732.36779886  1380.06618855
0.37200002 24877.79973307  1531.10425710
0.37300002 25026.18199360  1544.36576398
0.37400002 25178.94084812  1841.21013674
0.37500002 25333.69595765  2428.99488348
0.37600002 25492.52827866  1441.60254245
0.37700002 25652.99399508  2181.78724264
0.37800002 25817.04204605  1467.69890985
0.37900002 25983.40929498  1629.15983997
0.38000002 26152.28414678  2391.36497567
0.38100002 26322.81731187  1960.78675445
0.38200002 26495.80968858  1674.40277259
0.38300002 26670.43009114  2304.32526904
0.38400002 26847.41586202  2015.56984133
0.38500002 27024.93523775  2034.16697171
0.38600002 27205.13601532  2368.88733076
0.38700002 27385.75338058  1753.23601448
0.38800002 27567.49655105  2091.13254995
0.38900002 27750.42784667  1948.08012713
0.39000002 27935.16975171  1802.23756191
0.39100002 28119.69122274  1984.12550668
0.39200002 28305.48925388  1835.46953763
0.39300002 28491.49090955  2357.38606954
0.39400002 28678.79516324  2208.98430210
0.39500002 28865.45423801  1886.06886927
0.39600002 29052.53322497  2076.09412262
0.39700002 29239.19598371  1920.13809122
0.39800002 29427.19005496  1937.33914906
0.39900002 29613.90268690  2132.20109448
0.40000002 29800.38600893  2330.24129437
0.40100002 29986.49631706  2169.82297631
0.40200002 30173.30647644  2371.16940180
0.40300002 30358.45328127  2207.66682721
0.40400002 30543.09584153  2041.04247631
0.40500002 30726.93879004  2058.39772707
0.40600002 30910.37427314  2641.90981430
0.40700002 31092.57986709  2283.43917363
0.40800002 31274.10533389  1918.66645314
0.40900002 31453.72685893  2514.72558152
0.41000002 31633.12980197  2925.27381704
0.41100002 31810.77319203  2555.67763934
0.41200002 31986.47444652  2972.34327878
0.41300002 32161.37269269  2196.94347273
0.41400002 32334.41921462  2616.66299893
0.41500002 32506.61262372  2636.93654098
0.41600002 32675.77028735  2452.64343398
0.41700002 32844.00797372  2059.31939753
0.41800002 33011.37405438  2697.19444492
0.41900002 33174.77429153  2508.01305528
0.42000002 33337.12145201  2105.23931945
0.42100002 33498.03047862  3180.63814466
0.42200002 33656.59865536  2776.16467164
0.42300002 33812.59853788  2365.52950580
0.42400002 33966.46497593  2598.43469379
0.42500002 34118.42245806  2180.16729838
0.42600002 34266.83513232  2194.79089423
0.42700002 34414.18365428  2651.26883436
0.42800002 34558.61099714  2446.23139535
0.42900002 34701.06519548  2685.86257340
0.43000002 34841.02818085  2477.71983649
0.43100002 34976.95193542  2493.15725210
0.43200002 35111.31582415  2964.62409210
0.43300002 35242.62112430  2982.58316709
0.43400002 35371.62608757  3231.19819622
0.43500002 35497.46311696  2553.68761765
0.43600002 35621.42196404  2334.98432039
0.43700002 35741.57521259  2583.04376302
0.43800002 35858.26884382  3778.02738442
0.43900002 35973.11164237  3561.33822136
0.44000002 36084.32349885  2864.37373508
0.44100002 36193.19014344  2879.53034427
0.44200002 36298.80905401  3376.87836633
0.44300002 36401.64480176  2909.21959043
0.44400002 36500.98189159  3898.30505077
0.44500002 36596.34172929  3182.78399103
0.44600002 36689.63231864  2952.04795626
0.44700002 36779.73982128  2965.91835975
0.44800002 36865.76063114  2731.20000579
0.44900002 36950.01866105  2494.12637782
0.45000002 37030.76507554  3507.18392652
0.45100002 37106.93007585  3019.01997405
0.45200002 37180.95271080  4042.31337029
0.45300002 37250.97982991  3297.82940064
0.45400002 37318.52837287  3311.08658681
0.45500002 37382.57408950  2556.96818891
0.45600002 37443.11808153  3080.07103936
0.45700002 37500.29500797  3091.52446698
0.45800002 37553.58700699  3619.79042316
0.45900002 37603.80923135  2594.66295993
0.46000002 37651.48684880  3124.32052679
0.46100002 37694.52339895  2873.45365489
0.46200002 37735.07414742  3144.84122850
0.46300002 37771.94317557  3680.49831747
0.46400002 37804.92711399  3164.27254941
0.46500002 37835.49026622  3702.58125294
0.46600002 37861.89752879  3182.67125712
0.46700002 37884.87054041  3191.42164558
0.46800002 37905.19745011  2933.29384370
0.46900002 37921.44909195  2673.46228770
0.47000002 37933.96771894  4020.05241955
0.47100002 37943.63692665  2955.05058391
0.47200002 37949.68638498  2692.53037663
0.47300002 37952.97651936  4047.68513764
0.47400002 37951.49831749  4056.06657493
0.47500002 37947.81748252  2709.47429667
0.47600002 37941.12894529  3529.09427612
0.47700002 37929.84524694  4079.35504966
