# SAXS profile: number of points = 501, q_min = 0, q_max = 0.5, delta_q = 0.001
#    q    intensity    error
0.00000000 1682732.95097189 403.85590823
0.00100000 1682663.36113496 706.71862846
0.00200000 1682454.54439800 757.10456895
0.00300000 1682106.65957668 1110.19043487
0.00400000 1681619.59289960 1261.21474260
0.00500000 1680993.80266589 2118.05227519
0.00600000 1680229.00188242 2293.51268094
0.00700000 1679325.84996402 2418.22932445
0.00800000 1678283.80881416 2718.81988507
0.00900000 1677104.30940129 2767.22222880
0.01000000 1675786.38381834 3318.05718323
0.01100000 1674331.38041191 3315.17627756
0.01200000 1672738.73782083 5545.12915900
0.01300000 1671009.78350926 5614.59312022
0.01400000 1669143.92299903 4882.24619121
0.01500000 1667142.82025298 5201.48583081
0.01600000 1665005.38524712 5094.91670662
0.01700000 1662733.69330323 4489.38117331
0.01800000 1660327.41042038 5205.12666589
0.01900000 1657787.13345861 5470.69778727
0.02000000 1655113.69096394 6256.33003485
0.02100000 1652308.56011078 7088.40404425
0.02200000 1649370.05887083 6828.39235396
0.02300000 1646301.16201165 7112.02134362
0.02400000 1643101.44226306 8010.11989627
0.02500000 1639772.55973434 7674.13593004
0.02600000 1636314.71985561 6627.07491853
0.02700000 1632728.69376734 6857.46082790
0.02800000 1629014.59488287 7794.83519398
0.02900000 1625175.04340181 8044.61683420
0.03000000 1621210.15250891 9046.35306682
0.03100000 1617120.38693159 9314.61385732
0.03200000 1612906.69099467 13572.61042985
0.03300000 1608571.84114955 8203.71676806
0.03400000 1604113.96825743 8421.59872193
0.03500000 1599536.28852640 9501.24599260
0.03600000 1594838.70421573 15047.30386967
0.03700000 1590022.95678845 12688.38378198
0.03800000 1585090.28828579 9272.77861561
0.03900000 1580042.18995337 11376.30429450
0.04000000 1574877.56323529 10654.04720898
0.04100000 1569600.27292033 12855.02683126
0.04200000 1564210.67380767 11098.07524554
0.04300000 1558708.74238583 18517.46071909
0.04400000 1553098.53929379 11531.75718981
0.04500000 1547379.49281649 12812.30279584
0.04600000 1541551.84901037 15215.11745704
0.04700000 1535618.96006174 13267.74843199
0.04800000 1529580.97393986 16863.63102232
0.04900000 1523440.77926103 15996.12892682
0.05000000 1517197.81900707 12767.22024146
0.05100000 1510855.40913592 17677.00911036
0.05200000 1504411.90545260 15548.09776741
0.05300000 1497872.78381444 14559.32413740
0.05400000 1491236.37970393 23375.13134193
0.05500000 1484506.58763908 13716.84150967
0.05600000 1477681.92905715 13897.59919130
0.05700000 1470767.53176407 14075.24593599
0.05800000 1463762.04692010 14249.72419212
0.05900000 1456667.35134347 22287.01151649
0.06000000 1449486.41150988 15915.36154193
0.06100000 1442220.51059233 14753.91651283
0.06200000 1434870.54968037 14915.48006113
0.06300000 1427439.55013537 13703.42032201
0.06400000 1419925.50965484 13844.27436659
0.06500000 1412334.49071288 13982.11211211
0.06600000 1404664.85025513 16940.25888669
0.06700000 1396919.58423940 29922.01889473
0.06800000 1389101.36863913 18690.35978992
0.06900000 1381211.41676626 14502.72055505
0.07000000 1373248.73283606 17550.11962749
0.07100000 1365218.55761426 22116.54166924
0.07200000 1357119.46199958 16346.50468557
0.07300000 1348956.84543739 25454.81686610
0.07400000 1340729.68656454 19608.17258493
0.07500000 1332440.34019323 15189.82059019
0.07600000 1324089.32561934 16822.55567065
0.07700000 1315681.79067237 18472.17320717
0.07800000 1307216.06389025 17039.56219190
0.07900000 1298694.02754916 18701.19487386
0.08000000 1290120.47450449 17242.46095061
0.08100000 1281494.70419797 15762.38560118
0.08200000 1272817.91621847 19015.90056063
0.08300000 1264093.32906274 17520.33436307
0.08400000 1255321.40214334 25608.55780576
0.08500000 1246506.34592020 16079.93261725
0.08600000 1237647.13730549 16151.29590016
0.08700000 1228747.56216627 25951.14973156
0.08800000 1219806.15195385 19541.29547203
0.08900000 1210829.08815841 26153.90953266
0.09000000 1201814.71948787 24607.15753745
0.09100000 1192766.45307170 23044.24895599
0.09200000 1183684.86386786 19814.88555218
0.09300000 1174573.68660815 18217.63873538
0.09400000 1165430.87571479 19928.86891133
0.09500000 1156261.04107340 16650.15977406
0.09600000 1147065.21022538 25034.69938999
0.09700000 1137846.57968121 21744.24915997
0.09800000 1128605.64267263 21787.73295620
0.09900000 1119344.17879317 20148.19616570
0.10000000 1110062.55243887 20180.93815239
0.10100000 1100762.98275293 25262.51164232
0.10200000 1091447.96479120 20235.44621903
0.10300000 1082118.63712356 21945.36699319
0.10400000 1072777.56897629 32102.87026190
0.10500000 1063427.19832861 16908.49324896
0.10600001 1054064.23778236 21993.05135618
0.10700001 1044696.30904944 22001.30530391
0.10800001 1035320.37753737 25391.23345406
0.10900001 1025941.27190559 22006.44131812
0.11000001 1016558.58352682 23695.98169737
0.11100001 1007174.84668386 18612.59204288
0.11200001 997792.17839364 16912.57821997
0.11300001 988409.43956669 20282.16265481
0.11400001 979031.55419235 21954.78363649
0.11500001 969658.54196743 21933.67725212
0.11600001 960291.36305882 25279.67132298
0.11700001 950933.18843342 18514.67005075
0.11800001 941581.81484369 21849.40704252
0.11900001 932242.64259831 21814.47886430
0.12000001 922914.66071089 16750.90188095
0.12100001 913601.83869214 28422.15454063
0.12200001 904302.76247677 20021.26410446
0.12300001 895020.30476986 19976.85414366
0.12400001 885755.05962697 21590.28059569
0.12500001 876508.94363417 16566.01981528
0.12600001 867284.63812954 23130.48238890
0.12700001 858081.47707201 26360.26421792
0.12800001 848900.30462975 19711.46600249
0.12900001 839744.08185549 21287.51347836
0.13000001 830613.44330719 19585.86591636
0.13100001 821508.45524222 19519.04181664
0.13200001 812432.79492891 16208.03502288
0.13300001 803386.77748306 20992.49748528
0.13400001 794369.85487989 20911.78741561
0.13500001 785385.42750107 17624.04982407
0.13600001 776432.70693854 19146.83145589
0.13700001 767514.80565540 22242.58011670
0.13800001 758630.02543153 17399.18045374
0.13900001 749783.99158066 17320.01102229
0.14000001 740973.44728487 23507.38372373
0.14100001 732201.36481480 23393.83470916
0.14200001 723467.50959938 20173.89245669
0.14300001 714776.50634491 16983.09059181
0.14400001 706122.31413137 21501.42547952
0.14500001 697514.20454228 18330.67416007
0.14600001 688946.61805114 24306.03783147
0.14700001 680425.60138199 16615.99396963
0.14800001 671947.43461056 16519.82845928
0.14900001 663514.76148167 17914.89940524
0.15000001 655129.36951015 17806.41710344
0.15100001 646791.15352701 20645.57459474
0.15200001 638502.32850272 16118.99204366
0.15300001 630262.26344713 17470.87076719
0.15400001 622070.41045191 15909.45149809
0.15500001 613930.78004141 18675.77521023
0.15600001 605840.60087704 22828.07491842
0.15700001 597806.07147694 19835.20638776
0.15800001 589819.48331062 18287.35394319
0.15900001 581889.50112758 16758.41842348
0.16000001 574010.88697344 20793.54536212
0.16100001 566190.57476356 19261.80426270
0.16200001 558422.85970314 15018.78352069
0.16300001 550712.40976075 18966.53628753
0.16400001 543057.67360009 18816.94927858
0.16500001 535460.47379873 18666.15299788
0.16600001 527920.24572518 19836.60416967
0.16700001 520437.75746659 17049.54173959
0.16800001 513012.53131853 19507.30242445
0.16900001 505648.66876488 16762.25416104
0.17000001 498342.98368707 14060.74794867
0.17100001 491097.11981305 16471.39817633
0.17200001 483911.84156638 16324.76674614
0.17300001 476786.80608731 12444.13622655
0.17400001 469723.61955192 13563.27015510
0.17500001 462721.12748795 13437.42217687
0.17600001 455778.30564626 12100.91458642
0.17700001 448900.06073666 17978.44828164
0.17800001 442082.89312875 14243.91148938
0.17900001 435328.05246937 15280.01536340
0.18000001 428636.73582625 15128.73430559
0.18100001 422009.21032010 11520.85198594
0.18200001 415442.21555392 12544.27829122
0.18300001 408940.92520975 13544.12408276
0.18400001 402501.90188770 12286.37113554
0.18500001 396127.49582308 12157.15342114
0.18600001 389816.51661421 15308.09533065
0.18700001 383569.28764695 14061.65074948
0.18800001 377385.66431300 12838.66090651
0.18900001 371268.35603643 15871.72297046
0.19000001 365211.10352149 15694.94791540
0.19100001 359223.18808784 12414.75396691
0.19200001 353296.09622770 11250.71471598
0.19300001 347435.73225275 11121.41831493
0.19400001 341638.48057993 12990.80383792
0.19500001 335906.08750237 10863.20338317
0.19600001 330237.40244461 10734.36727373
0.19700001 324633.59102349 10605.77991994
0.19800001 319094.14172465 9524.96058062
0.19900001 313619.60634048 12231.16522532
0.20000001 308207.26305933 13009.42918857
0.20100001 302860.91080798 15600.36625303
0.20200001 297577.19550189 13591.83904695
0.20300001 292358.16758192 11630.00845610
0.20400001 287203.06419606 10597.79356975
0.20500001 282110.44087357 9588.93433853
0.20600001 277082.00914057 10324.07614858
0.20700001 272116.45686407 9339.03724102
0.20800001 267213.92614485 8377.15698063
0.20900001 262376.39725326 11570.79966584
0.21000001 257599.20882545 8968.31687921
0.21100001 252884.72134047 10454.25487442
0.21200001 248232.37887762 9517.22985609
0.21300001 243642.10046957 14077.64123066
0.21400001 239114.26871962 10796.00974309
0.21500001 234648.72433174 9883.40473612
0.21600001 230242.51566406 10492.15193487
0.21700001 225898.14463138 10341.61755017
0.21800001 221614.49898965 8736.04396322
0.21900001 217390.29972613 11478.20836825
0.22000001 213225.75948532 7068.43426115
0.22100001 209123.36721160 7660.18930316
0.22200001 205079.16663140 8231.87813782
0.22300001 201094.01885361 10135.13902947
0.22400001 197165.67912643 8650.64458073
0.22500001 193299.14588452 7863.40962642
0.22600001 189488.55533122 7097.29417555
0.22700001 185736.76539476 6352.19767689
0.22800001 182041.54725230 8129.06567698
0.22900001 178402.70199975 9232.34026509
0.23000001 174820.94490633 8480.56443847
0.23100001 171296.64613530 8941.68535114
0.23200001 167826.11933163 6452.07546285
0.23300001 164412.15345109 8079.21360269
0.23400001 161052.97083587 6244.82923951
0.23500001 157747.09828663 7817.94656084
0.23600001 154496.37031486 6041.58084691
0.23700001 151298.95152526 5941.51010742
0.23800001 148154.74328728 5842.48257788
0.23900001 145063.66151416 7311.20888613
0.24000001 142024.37642093 6674.43588560
0.24100001 139038.47683027 5551.80664244
0.24200001 136103.07948264 9425.81921543
0.24300001 133218.89477908 5850.97413546
0.24400001 130384.81752833 7666.62763332
0.24500001 127601.12407114 5179.32987105
0.24600001 124867.31860803 5551.60124793
0.24700001 122183.22493339 6363.30265555
0.24800001 119546.94552492 5804.60221456
0.24900001 116958.79651456 4824.55058446
0.25000001 114419.02753922 4307.87659065
0.25100001 111925.88857282 4230.79878821
0.25200001 109480.68201712 4985.75049493
0.25300001 107082.00847962 6119.73707414
0.25400001 104728.27654560 4807.02812087
0.25500001 102420.22213713 4326.23038775
0.25600001 100157.40973297 5405.49565904
0.25700001 97938.96904090  5685.35742182
0.25800001 95764.16376448  5952.70070125
0.25900001 93633.40423068  4382.04352533
0.26000001 91546.01658749  5017.63740657
0.26100001 89498.94071771  4924.23195128
0.26200001 87496.61053126  3796.91559366
0.26300001 85534.41447086  3387.16297332
0.26400001 83612.90131925  3988.33558165
0.26500001 81733.03454007  3261.14823246
0.26600001 79892.42694166  4479.56859059
0.26700001 78092.35034680  3453.24389574
0.26800001 76331.24778233  3695.95919252
0.26900001 74608.12513907  3928.11797446
0.27000001 72923.75947734  3260.78605934
0.27100001 71277.04608520  3489.72434147
0.27200001 69667.90323999  3423.48092722
0.27300001 68094.91097815  3918.18136311
0.27400001 66557.04453412  3294.57386035
0.27500001 65057.30023090  2962.70959273
0.27600001 63590.66838429  3434.85011534
0.27700001 62160.62108667  2592.09802199
0.27800001 60763.83322073  2797.26319470
0.27900001 59401.45812142  2993.83363101
0.28000001 58072.17486758  2937.29074382
0.28100001 56775.64424358  3362.25381124
0.28200001 55512.12548489  2592.13882220
0.28300001 54280.55440512  2774.82207252
0.28400001 53080.59797633  4765.31090887
0.28500001 51911.94052606  3117.83129557
0.28600001 50773.08835929  2404.35971306
0.28700001 49665.02924811  2360.08230158
0.28800001 48586.00353805  2316.82368837
0.28900001 47537.89733851  2274.68849532
0.29000001 46517.10615123  2436.56613553
0.29100001 45525.91776417  2392.84235095
0.29200001 44562.07244313  2546.05412956
0.29300001 43625.79831693  2116.28757653
0.29400001 42716.39152591  2646.28058030
0.29500001 41834.79686954  2786.19760340
0.29600001 40978.28019952  2190.69896317
0.29700001 40147.34428991  1794.58637471
0.29800001 39342.41997786  1764.50761954
0.29900001 38562.45643226  2429.43487024
0.30000001 37806.78673435  1877.67415205
0.30100001 37076.14825847  2015.45951474
0.30200001 36368.01885030  2148.80449550
0.30300001 35683.77911523  1789.89844516
0.30400001 35023.04191682  2082.99551662
0.30500001 34383.69874071  2367.31777037
0.30600001 33766.91781916  1554.96663919
0.30700001 33172.12978659  2298.82870304
0.30800001 32598.51244470  2115.31757268
0.30900001 32045.77688195  1490.12869556
0.31000001 31514.34536397  1470.14428083
0.31100001 31001.61245250  2031.22574406
0.31200001 30509.76230662  1575.67674893
0.31300001 30036.69446240  1556.20121378
0.31400001 29584.28185039  1537.64312198
0.31500001 29149.29054432  1934.34701211
0.31600002 28733.03315896  2732.51158280
0.31700002 28334.17566740  1621.84829199
0.31800002 27953.40617230  1872.59876815
0.31900002 27590.33112405  1721.63674366
0.32000002 27243.72208302  1574.14233649
0.32100002 26914.06181808  1949.92387105
0.32200002 26600.76762093  1417.68797749
0.32300002 26302.79688857  1406.14758825
0.32400002 26020.73832102  1649.06436918
0.32500002 25753.43659511  1385.27742005
0.32600002 25501.66094258  1375.94218131
0.32700002 25264.32200628  1491.60564188
0.32800002 25041.95280904  1730.14860150
0.32900002 24832.31499834  1843.79947594
0.33000002 24637.97447769  1345.60303982
0.33100002 24454.65402474  1217.84182810
0.33200002 24286.80590646  1577.06381622
0.33300002 24130.35651143  1813.39637771
0.33400002 23987.20364287  1687.49985619
0.33500002 23855.57088220  1322.55291234
0.33600002 23735.96051237  1439.82343287
0.33700002 23627.11249858  1317.68412645
0.33800002 23531.04907277  1435.86468242
0.33900002 23444.68836872  2032.65457783
0.34000002 23369.78209119  1553.97373375
0.34100002 23305.10697883  1434.66245356
0.34200002 23251.72286121  1435.56143744
0.34300002 23206.69919353  1436.95888212
0.34400002 23172.25128872  2158.49530977
0.34500002 23146.88329924  1321.45563014
0.34600002 23131.84328031  1324.41374974
0.34700002 23123.60229138  2051.98856452
0.34800002 23125.59575155  1452.74999392
0.34900002 23135.52438371  1336.07659644
0.35000002 23153.80412300  1340.95262929
0.35100002 23179.98559028  1468.68395656
0.35200002 23213.16028579  1352.05058488
0.35300002 23254.23267022  1358.27979460
0.35400002 23302.93901190  1489.05787339
0.35500002 23358.26819216  1372.06473859
0.35600002 23420.08476351  1254.14559849
0.35700002 23488.53885543  1639.73497516
0.35800002 23563.94790035  1522.70238544
0.35900002 23645.04461294  1276.83246958
0.36000002 23732.65464794  1413.63564106
0.36100002 23825.25681733  1681.82495840
0.36200002 23924.47515734  1302.68773402
0.36300002 24027.19918690  1836.63919284
0.36400002 24135.95000032  1717.87632264
0.36500002 24249.02540600  1863.78018099
0.36600002 24367.58674157  1475.57928503
0.36700002 24490.12957485  1622.22625988
0.36800002 24618.38607000  1635.15328022
0.36900002 24749.69023303  1373.60787300
0.37000002 24884.30919045  2215.69899527
0.37100002 25023.09989845  1675.54684857
0.37200002 25165.99367270  1689.64489522
0.37300002 25311.68262244  1845.98110110
0.37400002 25461.78429699  1861.89306492
0.37500002 25613.67082047  1877.99443352
0.37600002 25769.71013920  2331.64348385
0.37700002 25927.21009227  1617.08017006
0.37800002 26088.44552123  2224.69229721
0.37900002 26251.82522527  1795.62493047
0.38000002 26417.52853197  1660.73800984
0.38100002 26585.00613001  1523.32092341
0.38200002 26754.78296090  1690.76858931
0.38300002 26926.23928837  1550.95145648
0.38400002 27100.06364615  2660.54887450
0.38500002 27274.25418216  2210.85114874
0.38600002 27451.15839367  2230.95574834
0.38700002 27628.29787667  1929.56041512
0.38800002 27806.64420446  1622.51776620
0.38900002 27986.08071216  1800.90437915
0.39000002 28167.31205335  2312.81810227
0.39100002 28348.35316031  2000.25989376
0.39200002 28530.64946723  2018.25823893
0.39300002 28712.96492703  2036.32356910
0.39400002 28896.64497441  1712.12629585
0.39500002 29079.69273346  2418.26736229
0.39600002 29262.97264141  2613.91515504
0.39700002 29445.99100834  1933.71832113
0.39800002 29630.21063701  2305.37864784
0.39900002 29813.07095709  2683.17651326
0.40000002 29995.83413244  2165.09941026
0.40100002 30178.12334879  2001.71501657
0.40200002 30361.05620978  2018.85852832
0.40300002 30542.36512211  2406.12763832
0.40400002 30723.10203393  2053.07139069
0.40500002 30903.11403900  1881.99973415
0.40600002 31082.57462060  1897.59127050
0.40700002 31260.94907572  2104.48719149
0.40800002 31438.47676025  2314.50076875
0.40900002 31614.28364390  1944.27853622
0.41000002 31789.69396262  2155.81819822
0.41100002 31963.37894646  1975.33691249
0.41200002 32135.16760649  2986.16059132
0.41300002 32306.04344741  2608.06701109
0.41400002 32475.19785859  2223.73927873
0.41500002 32643.32378383  3259.10960101
0.41600002 32808.55578165  2052.17526138
0.41700002 32972.82223978  3101.09407859
0.41800002 33136.19134359  2290.87069709
0.41900002 33295.69519675  2936.68045551
0.42000002 33454.10516961  2323.88952572
0.42100002 33611.03062924  3191.36750947
0.42200002 33765.68802268  2570.91960787
0.42300002 33917.78385196  2372.88827072
0.42400002 34067.64509805  2171.81247791
0.42500002 34215.81867542  2842.30819205
0.42600002 34360.29235433  2420.85451254
0.42700002 34503.76757016  2436.65618127
0.42800002 34644.30454095  2452.29721314
0.42900002 34782.84885342  3140.89140030
0.43000002 34919.01837861  3160.52050322
0.43100002 35051.19150651  2725.58078070
0.43200002 35181.73644163  2970.57005722
0.43300002 35309.22432489  2528.49367373
0.43400002 35434.49472629  3236.94124664
0.43500002 35556.58889775  2790.48122893
0.43600002 35676.87926914  2338.61954692
0.43700002 35793.37155608  2821.94954721
0.43800002 35906.33025141  2837.31835092
0.43900002 36017.56789963  3328.02343164
0.44000002 36125.16542893  3345.55172892
0.44100002 36230.50510074  3122.70738262
0.44200002 36332.57751812  3380.01984669
0.44300002 36431.92521181  2911.63960091
0.44400002 36527.70724750  3413.51440405
0.44500002 36619.61907669  3184.80842203
0.44600002 36709.51544630  2461.37312732
0.44700002 36796.23137319  2967.24823856
0.44800002 36878.92614516  4719.21200782
0.44900002 36959.81197910  3243.22365487
0.45000002 37037.20603099  3758.35066011
0.45100002 37110.22618635  3522.50283655
0.45200002 37181.00586773  2779.09441529
0.45300002 37247.90705233  3551.21562667
0.45400002 37312.24686910  3565.18535731
0.45500002 37373.20049373  3067.59244191
0.45600002 37430.62776613  3335.63055147
0.45700002 37484.81659941  3090.24842691
0.45800002 37535.11761832  2584.29297050
0.45900002 37582.41057045  3111.82374272
0.46000002 37627.20641188  4423.26645939
0.46100002 37667.43936610  2871.38903897
0.46200002 37705.08818161  3142.34219799
0.46300002 37739.17901360  3939.97047576
0.46400002 37769.40767549  5005.39098943
0.46500002 37797.30000278  2906.23453496
0.46600002 37821.06540313  5033.79493841
0.46700002 37841.38795759  3984.69834079
0.46800002 37859.15021917  2929.73047857
0.46900002 37872.85937689  3204.04405514
0.47000002 37882.91136805  3746.99894101
0.47100002 37890.20016535  3219.15155863
0.47200002 37893.84091933  2688.56814066
0.47300002 37894.81462236  2694.32144735
0.47400002 37891.07593246  2969.71321696
0.47500002 37885.17237158  2975.50157910
0.47600002 37876.19183056  3794.05831550
0.47700002 37862.74901820  3800.66292659
