# SAXS profile: number of points = 501, q_min = 0, q_max = 0.5, delta_q = 0.001
#    q    intensity    error
0.00000000 1682732.95097189 353.37391970
0.00100000 1682663.39047033 656.23873787
0.00200000 1682454.65886387 1059.94646865
0.00300000 1682106.92106875 1312.04344517
0.00400000 1681620.05709000 1513.45810889
0.00500000 1680994.51851044 2723.21122777
0.00600000 1680230.02998264 2646.36240496
0.00700000 1679327.25531359 2015.19279013
0.00800000 1678285.65404778 2492.25430148
0.00900000 1677106.63438519 3773.49008867
0.01000000 1675789.23810089 3318.06283471
0.01100000 1674334.82487132 4822.08450558
0.01200000 1672742.85589018 4240.40332560
0.01300000 1671014.62348120 4912.78320971
0.01400000 1669149.52114737 4131.14524798
0.01500000 1667149.24874657 6001.73756274
0.01600000 1665012.66843697 5519.51724261
0.01700000 1662741.94833750 4938.34380809
0.01800000 1660336.66392878 4731.95970512
0.01900000 1657797.42625957 8454.76725542
0.02000000 1655125.06012193 5735.00859275
0.02100000 1652321.10976536 5997.92590039
0.02200000 1649383.82592584 6259.41190377
0.02300000 1646316.15605929 7704.75996107
0.02400000 1643117.79202501 7394.03040126
0.02500000 1639790.27311393 7034.70059294
0.02600000 1636333.82056966 7952.58273171
0.02700000 1632749.33845244 9600.56654982
0.02800000 1629036.73165677 9212.20313999
0.02900000 1625198.74303501 8776.07361534
0.03000000 1621235.47358839 11308.11794806
0.03100000 1617147.41056017 7762.30792786
0.03200000 1612935.46442837 8782.43400831
0.03300000 1608602.40770079 11485.42172047
0.03400000 1604146.32010101 12632.65285367
0.03500000 1599570.58964694 12956.52237445
0.03600000 1594874.91085924 13277.33424650
0.03700000 1590061.14898189 9969.68386519
0.03800000 1585130.53418291 13909.52108118
0.03900000 1580084.56204594 10428.55859245
0.04000000 1574922.06998879 11622.92541511
0.04100000 1569646.95926477 12855.40919244
0.04200000 1564259.53663735 13116.31682321
0.04300000 1558759.93785331 12345.37928085
0.04400000 1553152.07408168 14677.28778171
0.04500000 1547435.37942282 17083.68738262
0.04600000 1541610.06313261 11955.18659535
0.04700000 1535679.69923429 15479.65208821
0.04800000 1529644.19901333 20237.19369454
0.04900000 1523506.56785046 13711.55974889
0.05000000 1517266.13440883 16249.92105621
0.05100000 1510926.40341151 15320.79444430
0.05200000 1504485.58225271 14352.79312355
0.05300000 1497949.09218464 14560.06585479
0.05400000 1491315.44710995 20915.70012110
0.05500000 1484588.44009067 13717.59782635
0.05600000 1477766.56499322 15161.88566435
0.05700000 1470855.08401599 20474.30372521
0.05800000 1463852.52966126 18137.13368937
0.05900000 1456760.71406251 13110.84703892
0.06000000 1449582.74729567 19895.52413613
0.06100000 1442319.90344187 17437.64844750
0.06200000 1434972.96313105 16272.59416254
0.06300000 1427544.93599666 15074.87522896
0.06400000 1420033.92775271 22152.53030894
0.06500000 1412446.20762574 22373.14897536
0.06600000 1404779.77293232 15529.84111639
0.06700000 1397037.63128862 17099.74140722
0.06800000 1389222.69962518 17254.14673700
0.06900000 1381335.98196166 14504.02848966
0.07000000 1373376.53993887 21939.69125293
0.07100000 1365349.66826704 16220.35481874
0.07200000 1357253.94325999 17834.31764992
0.07300000 1349094.71044426 19467.43758387
0.07400000 1340870.97131893 22627.19870141
0.07500000 1332585.03798625 21268.05820315
0.07600000 1324237.50095022 15294.94385301
0.07700000 1315833.31587916 16934.77556941
0.07800000 1307371.08568116 17041.58290104
0.07900000 1298852.63395905 17144.85557242
0.08000000 1290282.52114263 15676.93336730
0.08100000 1281660.48518888 22070.19459045
0.08200000 1272987.20770239 19018.42977552
0.08300000 1264266.11785484 19115.70459910
0.08400000 1255497.89848267 17608.35885273
0.08500000 1246686.39773280 25731.60845718
0.08600000 1237830.88031201 19384.43249581
0.08700000 1228934.80345275 17844.13418405
0.08800000 1219997.08276847 19544.35418383
0.08900000 1211023.72388890 26158.11366464
0.09000000 1202013.06124527 26251.96649080
0.09100000 1192968.57889880 18109.26387848
0.09200000 1183890.54236741 19818.32861043
0.09300000 1174783.09669296 19877.33093012
0.09400000 1165644.05615114 16610.42858080
0.09500000 1156477.92756175 19983.93952757
0.09600000 1147285.74395931 21700.91086710
0.09700000 1138070.88208971 18402.60702855
0.09800000 1128833.69517308 20115.81739378
0.09900000 1119576.03963880 25190.46207639
0.10000000 1110297.93839770 18503.11601355
0.10100000 1101002.09970838 18529.86620958
0.10200000 1091690.97424267 21926.61424901
0.10300000 1082365.44230386 20261.88203306
0.10400000 1073028.07810855 21970.25093286
0.10500000 1063681.44286194 21986.29645840
0.10600001 1054322.22193395 21998.43419576
0.10700001 1044957.86874246 16928.31827023
0.10800001 1035585.81921194 23704.56051734
0.10900001 1026210.41363771 16932.47262196
0.11000001 1016831.29984862 18623.26613332
0.11100001 1007451.24244904 18617.69983686
0.11200001 998072.40182226 21992.52640950
0.11300001 988693.17604651 23669.31574892
0.11400001 979319.02399180 18582.57935519
0.11500001 969949.72141407 16877.12594731
0.11600001 960586.06422104 21915.77208725
0.11700001 951231.46192686 20204.15720284
0.11800001 941883.89014593 20175.15387714
0.11900001 932548.18551331 20143.04175586
0.12000001 923223.77607272 16756.51232503
0.12100001 913914.40293146 16724.63436151
0.12200001 904618.90762431 21697.28552156
0.12300001 895340.05642489 21649.32358435
0.12400001 886078.34647733 16613.96977926
0.12500001 876835.49632646 21543.84915990
0.12600001 867614.73388174 16528.06145931
0.12700001 858415.00947673 19777.88275040
0.12800001 849237.27807930 23005.83894742
0.12900001 840084.38693575 19657.97558082
0.13000001 830957.07439705 16328.30728153
0.13100001 821855.30897939 19527.28306182
0.13200001 812782.89780941 19458.02349081
0.13300001 803740.19972505 21001.73240890
0.13400001 794726.50892482 22530.49759023
0.13500001 785745.30143673 16029.20490506
0.13600001 776795.60767478 27137.35583367
0.13700001 767880.85577064 25432.21514234
0.13800001 758999.14440175 20572.67277913
0.13900001 750156.19797438 25205.24944057
0.14000001 741348.43980584 18815.42428962
0.14100001 732579.57898916 18724.73492208
0.14200001 723848.57430688 15526.55265120
0.14300001 715160.52083926 18536.96157450
0.14400001 706509.10631113 19976.54592324
0.14500001 697903.68727315 18340.90976672
0.14600001 689338.89923625 18239.90813425
0.14700001 680820.70197618 16625.64232660
0.14800001 672345.23414795 24043.06670745
0.14900001 663915.05234302 14938.08938251
0.15000001 655532.20296772 23756.48815645
0.15100001 647196.72065448 19182.91170534
0.15200001 638910.24513316 20528.18714479
0.15300001 630672.70499555 17482.24820745
0.15400001 622483.17868330 17367.28150484
0.15500001 614345.77068171 15813.26088362
0.15600001 606258.02634027 15705.11491355
0.15700001 598225.65992829 17013.53857135
0.15800001 590241.18638542 18300.42884764
0.15900001 582313.51669422 18168.18257841
0.16000001 574436.91899396 18034.44792309
0.16100001 566618.56485541 15145.71495353
0.16200001 558852.79045799 16396.74164606
0.16300001 551144.28162043 16269.77996150
0.16400001 543491.37365949 16141.69455973
0.16500001 535895.94412236 14678.19060249
0.16600001 528357.46167871 15882.42604792
0.16700001 520876.69285821 14438.70260775
0.16800001 513453.06376108 13016.03578091
0.16900001 506090.81613258 16776.91134697
0.17000001 498786.56303162 16632.03872965
0.17100001 491542.16650340 17754.50389249
0.17200001 484358.17482529 12569.09523027
0.17300001 477234.47330587 17438.14847810
0.17400001 470172.57710555 16044.63995145
0.17500001 463171.17486330 18341.57939081
0.17600001 456229.57366207 14535.47490337
0.17700001 449352.34054424 13197.47886511
0.17800001 442536.15141250 17823.14433996
0.17900001 435782.29250912 11766.12245350
0.18000001 429091.69767014 15144.79218463
0.18100001 422464.98752947 14993.28311565
0.18200001 415898.67184317 20549.55434649
0.18300001 409398.15879773 12429.32868825
0.18400001 402959.66924106 11182.13134969
0.18500001 396585.74691474 16597.11429246
0.18600001 390275.33132728 16420.83534137
0.18700001 384028.39240066 15161.44164828
0.18800001 377845.03094816 11783.09784682
0.18900001 371727.99542343 11653.67320713
0.19000001 365670.90843248 11524.11922375
0.19100001 359683.10639806 12430.64874447
0.19200001 353755.95686777 11265.35897876
0.19300001 347895.55292197 14173.26549577
0.19400001 342098.25097207 14008.92403928
0.19500001 336365.75865096 13844.81528031
0.19600001 330696.70671219 13680.92340319
0.19700001 325092.57271839 13517.34981243
0.19800001 319552.65112695 9538.64708692
0.19900001 314077.68163307 12249.03016258
0.20000001 308664.79162295 9306.24390726
0.20100001 303317.80796633 11947.68902047
0.20200001 298033.41397701 10890.14146143
0.20300001 292813.59980493 8960.09657753
0.20400001 287657.52969624 13268.20418437
0.20500001 282563.99950003 9604.35079697
0.20600001 277534.62709274 13787.92092569
0.20700001 272568.08884567 11905.77468355
0.20800001 267664.30873728 11747.78706580
0.20900001 262825.64643563 9106.90907949
0.21000001 258047.15960994 9800.63158528
0.21100001 253331.33331641 8861.53045832
0.21200001 248677.53013570 8739.77220979
0.21300001 244085.77163062 10185.69973168
0.21400001 239556.35496387 8498.26209411
0.21500001 235089.08306099 9901.95264667
0.21600001 230681.11165231 9010.40464714
0.21700001 226335.12819477 8881.39085027
0.21800001 222049.51329654 8753.19222801
0.21900001 217823.37762920 8625.80616196
0.22000001 213656.83541660 7082.72442895
0.22100001 209552.35179215 8373.71237355
0.22200001 205506.08596848 9623.85046096
0.22300001 201518.60969359 6771.02560588
0.22400001 197588.09476062 8002.31821621
0.22500001 193719.10585842 8537.20139888
0.22600001 189906.10646509 9052.82452328
0.22700001 186151.81448166 8276.31006323
0.22800001 182454.02926901 8147.48506230
0.22900001 178812.51183146 9870.45111988
0.23000001 175228.01102139 7285.98104284
0.23100001 171700.93375332 8365.26988808
0.23200001 168227.53445434 7643.41838942
0.23300001 164810.66618975 6363.34012254
0.23400001 161448.56280686 7398.38074053
0.23500001 158139.62902567 7277.58607196
0.23600001 154885.73885272 8809.90124263
0.23700001 151685.21754467 5956.67877472
0.23800001 148537.74029734 6390.09388983
0.23900001 145443.35990218 6806.74956538
0.24000001 142400.75139984 6177.34488792
0.24100001 139411.29805254 6578.81946629
0.24200001 136472.52896564 6466.75109093
0.24300001 133584.85643495 5378.12657447
0.24400001 130747.07784599 5285.45087194
0.24500001 127959.66187863 7554.73879469
0.24600001 125221.95905068 4639.47380230
0.24700001 122534.17381196 6837.40722216
0.24800001 119893.99251810 7164.86533183
0.24900001 117302.08568772 4838.71126353
0.25000001 114758.26981253 7345.10340683
0.25100001 112261.10178890 5092.16381805
0.25200001 109811.83865075 4584.09542135
0.25300001 107408.98233791 6138.42363102
0.25400001 105051.11197513 4420.02574547
0.25500001 102738.81374729 5523.23888837
0.25600001 100471.74188599 4260.50441625
0.25700001 98248.89650045  4182.45572191
0.25800001 96069.72605867  4105.53993737
0.25900001 93934.49160097  4029.78988035
0.26000001 91842.61540199  4314.76627574
0.26100001 89790.96894966  4234.54229603
0.26200001 87784.08893055  4155.69896661
0.26300001 85817.21152084  4757.70643184
0.26400001 83891.17640029  4335.07674561
0.26500001 82006.56788542  3926.47465615
0.26600001 80161.04636608  4815.67508832
0.26700001 78356.27681650  4724.88371562
0.26800001 76590.32027508  3399.46152627
0.26900001 74862.34435590  3638.31010787
0.27000001 73173.09686273  4461.72979234
0.27100001 71521.34780340  3501.68535416
0.27200001 69907.23477964  3721.51181961
0.27300001 68329.23882654  3369.99821841
0.27400001 66786.37148764  3305.92554509
0.27500001 65281.50388310  3513.45070526
0.27600001 63809.69374752  2916.42219075
0.27700001 62374.51828413  3121.22104265
0.27800001 60972.58722060  2551.70289595
0.27900001 59604.99707200  3004.09199461
0.28000001 58270.43185665  4420.97787420
0.28100001 56968.72799771  4096.62142420
0.28200001 55699.85013635  3310.24225028
0.28300001 54462.96014366  2320.12221193
0.28400001 53257.66152697  3187.47119325
0.28500001 52083.69652643  3575.02509878
0.28600001 50939.40102074  3947.29437193
0.28700001 49826.03536403  3228.72724441
0.28800001 48741.49868500  3380.71050881
0.28900001 47687.94371692  2489.31077985
0.29000001 46661.67941035  2444.13888321
0.29100001 45665.06658775  2200.14301234
0.29200001 44695.74789362  2160.81603420
0.29300001 43753.97440197  2122.50539871
0.29400001 42839.07342626  2464.31781550
0.29500001 41951.95114867  2607.73340684
0.29600001 41089.81948909  2379.71700836
0.29700001 40253.44406737  1979.26193849
0.29800001 39442.98664045  2653.52705185
0.29900001 38657.45776327  2087.50281804
0.30000001 37896.22384033  2224.31896361
0.30100001 37160.08723950  2188.35764113
0.30200001 36446.37367837  1822.13653831
0.30300001 35756.60480077  2445.75188416
0.30400001 35090.33991405  1926.45975248
0.30500001 34445.46532710  2055.36101337
0.30600001 33823.06938614  2492.08387035
0.30700001 33222.88140555  1995.36635168
0.30800001 32643.57664400  2118.24178871
0.30900001 32085.39095004  1790.36489978
0.31000001 31548.50080660  1913.25892200
0.31100001 31030.16215526  1887.87515491
0.31200001 30532.89279290  1863.57519985
0.31300001 30054.32685849  1981.78240688
0.31400001 29596.37785364  2097.64337969
0.31500001 29156.10989883  1520.19964210
0.31600002 28734.31457611  1366.31672279
0.31700002 28330.11530315  1486.48122034
0.31800002 27943.93876679  1871.96454662
0.31900002 27575.34113788  1323.61643729
0.32000002 27223.40649730  1572.96850189
0.32100002 26888.40005481  1558.45174097
0.32200002 26569.83424981  1673.50108947
0.32300002 26266.59799180  1914.83508427
0.32400002 25979.21383827  1646.43275496
0.32500002 25706.75908022  1634.17875211
0.32600002 25449.76065212  1997.29731055
0.32700002 25207.19450308  1488.23283393
0.32800002 24979.67127850  1479.29620316
0.32900002 24764.94988842  1716.21110854
0.33000002 24565.46556013  1341.64296510
0.33100002 24377.08064399  1335.37654091
0.33200002 24204.27013223  1450.80402043
0.33300002 24042.73439008  1324.99515498
0.33400002 23894.65406804  1320.77706616
0.33500002 23758.17827546  1317.15346597
0.33600002 23633.61937848  1672.55132262
0.33700002 23520.04212888  1311.71281165
0.33800002 23419.07597139  1548.11809040
0.33900002 23328.03017372  1308.70255472
0.34000002 23248.30473120  1426.98101198
0.34100002 23179.09111428  1307.99617352
0.34200002 23120.98981236  1308.53248040
0.34300002 23071.44941396  1547.63289998
0.34400002 23032.48763968  1430.31755016
0.34500002 23002.57202734  1790.75031714
0.34600002 22983.13328128  1435.52657274
0.34700002 22970.41329644  1558.77232012
0.34800002 22968.13460974  1442.85828452
0.34900002 22973.77108999  1326.73534328
0.35000002 22987.73297503  1573.39545800
0.35100002 23009.83111327  1700.88679645
0.35200002 23038.81448775  1585.87687038
0.35300002 23075.84701103  1592.92579462
0.35400002 23120.54349325  1600.51969913
0.35500002 23171.95459082  1732.33540726
0.35600002 23229.75756880  1368.34893440
0.35700002 23294.45243572  2376.73309459
0.35800002 23365.99567099  1384.08481913
0.35900002 23443.34896497  1519.12908488
0.36000002 23527.28426166  2038.40400498
0.36100002 23616.33283574  1538.84032047
0.36200002 23711.89781327  1549.33547651
0.36300002 23811.24346467  1820.13153665
0.36400002 23916.47949167  1833.19823987
0.36500002 24026.20265839  1582.84630611
0.36600002 24141.41735074  1860.57912335
0.36700002 24260.73217573  1607.03097544
0.36800002 24385.83958889  1484.73191370
0.36900002 24514.16033467  1768.69675193
0.37000002 24645.62013558  1371.52882551
0.37100002 24781.40440448  1797.64316066
0.37200002 24921.35027477  1673.21953671
0.37300002 25064.26208813  1968.54723765
0.37400002 25211.50720566  1701.77681700
0.37500002 25360.79206264  1573.38361410
0.37600002 25514.15568598  1875.67324411
0.37700002 25669.14632421  1455.44066553
0.37800002 25827.76990787  1761.97054658
0.37900002 25988.71727717  1777.62834597
0.38000002 26152.12734713  1793.51297843
0.38100002 26317.30969999  2111.17468415
0.38200002 26484.85866205  1521.55520222
0.38300002 26654.14991575  1842.33492945
0.38400002 26825.82671550  1859.02987945
0.38500002 26998.06112847  1875.82537607
0.38600002 27172.94102685  2050.60609174
0.38700002 27348.31961745  1910.00673257
0.38800002 27524.85735606  1606.07550281
0.38900002 27702.55686509  2268.83951474
0.39000002 27882.14405941  1962.34539187
0.39100002 28061.57332153  2310.02882527
0.39200002 28242.29164356  1831.37148839
0.39300002 28423.24241807  2351.73918909
0.39400002 28605.56851015  2372.83202033
0.39500002 28787.30479215  1709.96598567
0.39600002 28969.39694744  1897.64043695
0.39700002 29151.25340862  2088.39589314
0.39800002 29334.36924303  1931.22829061
0.39900002 29516.35316473  1948.07940117
0.40000002 29698.15213124  2679.51590299
0.40100002 29879.52093064  1981.90871723
0.40200002 30061.73459601  2180.67833091
0.40300002 30242.28349976  2015.95071361
0.40400002 30422.43104304  2217.79532812
0.40500002 30601.81960716  1863.65090238
0.40600002 30780.87673395  2442.92439774
0.40700002 30958.75045379  2273.61074105
0.40800002 31135.98183045  2101.21183339
0.40900002 31311.40515070  1925.65150801
0.41000002 31486.63557539  2717.61164528
0.41100002 31660.24151127  1956.60301810
0.41200002 31831.92620827  2760.78309086
0.41300002 32002.89035933  2583.59346113
0.41400002 32172.01870599  2403.24991121
0.41500002 32340.34762234  2421.64534471
0.41600002 32505.78875614  3049.85577456
0.41700002 32670.35557333  2458.11766981
0.41800002 32834.08731513  2889.07147975
0.41900002 32994.02155619  2702.21049349
0.42000002 33152.84022368  2721.68254713
0.42100002 33310.36755767  2951.96491284
0.42200002 33465.65004010  2335.73515523
0.42300002 33618.39508325  2138.13002861
0.42400002 33769.06164873  2368.05556033
0.42500002 33917.98550860  3684.51094039
0.42600002 34063.39223755  3272.64056430
0.42700002 34207.78547564  2635.36791792
0.42800002 34349.33694783  2210.37993734
0.42900002 34488.99728980  3336.81064591
0.43000002 34626.29865361  2462.44934544
0.43100002 34759.63977834  2477.66724081
0.43200002 34891.49800454  3852.54493473
0.43300002 35020.32099108  2507.80530501
0.43400002 35146.96408203  2752.00741804
0.43500002 35270.49569073  2768.02863298
0.43600002 35392.28746915  2551.96100890
0.43700002 35510.29496264  2333.02648961
0.43800002 35624.96953205  2815.08522583
0.43900002 35737.83498361  3066.30638690
0.44000002 35847.15256831  2608.41818025
0.44100002 35954.28982341  2860.52343391
0.44200002 36058.21259487  2396.06834048
0.44300002 36159.46502416  3612.33072710
0.44400002 36257.25666767  2662.18919699
0.44500002 36351.13046664  2918.26889216
0.44600002 36443.00529085  2932.20434466
0.44700002 36531.91826923  3191.42853125
0.44800002 36616.72349178  3205.97737726
0.44900002 36699.87129440  2972.68971573
0.45000002 36779.54095537  2736.94966990
0.45100002 36854.81534904  2748.63225900
0.45200002 36927.97090990  3512.95803915
0.45300002 36997.20851692  3275.36302523
0.45400002 37064.06728674  2782.58498343
0.45500002 37127.49229727  3555.32883089
0.45600002 37187.48246164  3313.96265663
0.45700002 37244.23855157  2814.54724073
0.45800002 37297.14869264  3338.28145195
0.45900002 37347.07332335  3350.03263588
0.46000002 37394.59759294  3878.75481916
0.46100002 37437.50740640  2594.41938623
0.46200002 37478.01556680  2863.13313492
0.46300002 37514.93071788  4177.66288274
0.46400002 37548.00726253  3404.66571990
0.46500002 37578.79188766  3152.10921293
0.46600002 37605.43188680  3161.11275423
0.46700002 37628.76595468  3434.00134378
0.46800002 37649.55499674  3972.96947933
0.46900002 37666.27455503  2921.01973019
0.47000002 37679.38665760  3460.66343159
0.47100002 37689.70577769  3468.96068420
0.47200002 37696.49263471  2674.56627920
0.47300002 37700.61603034  2680.51392681
0.47400002 37699.98318314  2954.73632203
0.47500002 37697.25735992  3229.90116369
0.47600002 37691.57972798  3775.56572031
0.47700002 37681.37397235  3512.28103444
