# SAXS profile: number of points = 501, q_min = 0, q_max = 0.5, delta_q = 0.001
#    q    intensity    error
0.00000000 1700912.83420644 280.65061764
0.00100000 1700842.69496211 561.27810267
0.00200000 1700632.22838141 1071.39833781
0.00300000 1700281.59706786 1224.20279350
0.00400000 1699790.68321862 1402.32736694
0.00500000 1699159.94229939 1529.24400860
0.00600000 1698389.08475775 1961.63947276
0.00700000 1697478.79770524 2648.06703447
0.00800000 1696428.53964490 2748.21435025
0.00900000 1695239.71578661 3560.00355533
0.01000000 1693911.33693206 3912.93535727
0.01100000 1692444.80397979 3046.40077980
0.01200000 1690839.59355210 3956.56482238
0.01300000 1689096.95859887 4256.52452340
0.01400000 1687216.30034751 4935.10789729
0.01500000 1685199.34926838 6066.71792751
0.01600000 1683044.94957399 5579.29425725
0.01700000 1680755.28629032 5445.64737187
0.01800000 1678329.87598291 7174.86054268
0.01900000 1675769.42169350 7038.23188870
0.02000000 1673074.70860204 7378.25979870
0.02100000 1670247.31484337 7716.54294443
0.02200000 1667285.48050383 5752.13516907
0.02300000 1664192.09802284 5991.09182559
0.02400000 1660966.92065920 6228.62623648
0.02500000 1657611.53879818 10343.49647449
0.02600000 1654126.02433057 11388.65819841
0.02700000 1650511.51706029 7625.36355807
0.02800000 1646767.71948818 8596.12788994
0.02900000 1642897.40969286 10350.25415629
0.03000000 1638900.79445749 8382.97794898
0.03100000 1634778.31758444 9416.32354256
0.03200000 1630530.85910157 10492.46656158
0.03300000 1626161.23732796 10781.44950051
0.03400000 1621667.50675246 9365.13028361
0.03500000 1617053.12123427 8732.08725790
0.03600000 1612317.67323586 10738.03620000
0.03700000 1607463.22032502 12827.55709144
0.03800000 1602490.68931653 12186.94225626
0.03900000 1597401.95375720 12459.73581632
0.04000000 1592195.63694878 12729.60470728
0.04100000 1586875.64174917 9997.31700656
0.04200000 1581442.33988165 15300.45534819
0.04300000 1575895.93917822 13521.18778578
0.04400000 1570240.17083412 11659.03380991
0.04500000 1564474.53703652 11874.36228785
0.04600000 1558599.42482524 13185.75174699
0.04700000 1552618.23377522 14532.50734401
0.04800000 1546531.02177507 15913.80495450
0.04900000 1540340.65574292 11552.55545581
0.05000000 1534046.54263219 12909.00225737
0.05100000 1527652.21747337 13107.25663651
0.05200000 1521155.96744551 14511.82860570
0.05300000 1514562.82042710 18401.93912605
0.05400000 1507871.91316440 17415.92140922
0.05500000 1501086.63424865 17652.77964225
0.05600000 1494205.61193374 16608.09615165
0.05700000 1487234.08186483 16820.61825105
0.05800000 1480170.63068947 15719.41283190
0.05900000 1473016.93935974 18560.01430279
0.06000000 1465776.34125212 16094.22497885
0.06100000 1458450.05190108 27127.17223305
0.06200000 1451038.74745433 19197.24352617
0.06300000 1443545.49409065 22172.85982593
0.06400000 1435968.54430690 18200.90215029
0.06500000 1428314.00027550 14140.30926418
0.06600000 1420579.93287693 17132.19479209
0.06700000 1412769.40644304 17292.29834412
0.06800000 1404885.45568423 20356.79120575
0.06900000 1396928.80163754 16134.52841431
0.07000000 1388898.66346846 16270.94860448
0.07100000 1380800.32955004 19386.43753490
0.07200000 1372632.42806764 22545.48868719
0.07300000 1364400.32818230 16659.32878769
0.07400000 1356102.90378639 18307.39005908
0.07500000 1347742.81513190 18437.12257520
0.07600000 1339320.22453438 17016.06425043
0.07700000 1330840.34667391 20242.08262203
0.07800000 1322301.70455014 15669.27593375
0.07900000 1313706.31042074 18917.37175735
0.08000000 1305058.45698853 25370.33759401
0.08100000 1296358.33534091 22323.29158194
0.08200000 1287606.04948349 20839.90488881
0.08300000 1278805.56298576 19335.54101980
0.08400000 1269957.20349241 22668.73714638
0.08500000 1261064.92896574 24401.60752102
0.08600000 1252128.11789762 21242.35451749
0.08700000 1243150.14587247 16409.58269607
0.08800000 1234130.04333633 19770.76422276
0.08900000 1225073.75653248 19846.19578800
0.09000000 1215979.53538721 19917.74572529
0.09100000 1206851.07094288 16654.54556146
0.09200000 1197688.55184493 25061.63412492
0.09300000 1188496.12599162 25136.69424595
0.09400000 1179271.71414715 16804.62271637
0.09500000 1170019.55501575 25272.42357621
0.09600000 1160740.96112940 20266.53813400
0.09700000 1151439.22100631 18618.77307899
0.09800000 1142114.85656423 28832.69090961
0.09900000 1132769.42136959 23788.15896734
0.10000000 1123403.21557928 20423.47141969
0.10100000 1114018.81876718 18748.93760165
0.10200000 1104618.87105013 17066.36236046
0.10300000 1095204.17744398 17085.18597183
0.10400000 1085777.25404370 18811.09181128
0.10500000 1076340.63942330 18825.19866923
0.10600001 1066891.24283120 22260.68682912
0.10700001 1057436.03174300 18843.51097239
0.10800001 1047973.21606304 17134.36288900
0.10900001 1038506.66354998 20562.43290607
0.11000001 1029036.08306536 18846.79674845
0.11100001 1019564.30011804 18841.54915312
0.11200001 1010093.36663569 20545.30004458
0.11300001 1000621.82713357 25665.95107435
0.11400001 991155.10904113 20516.91172318
0.11500001 981693.29165379 18789.61048702
0.11600001 972236.67128353 18769.02982299
0.11700001 962789.00193142 18745.50275042
0.11800001 953348.14726781 22122.44479928
0.11900001 943919.05331623 23786.76126396
0.12000001 934500.88355956 27137.90693690
0.12100001 925097.94813667 20315.15189809
0.12200001 915708.47279568 21963.26875472
0.12300001 906335.74846192 18543.63028720
0.12400001 896979.88745142 18500.21105037
0.12500001 887642.81378556 35230.54493923
0.12600001 878327.79614561 21751.78889657
0.12700001 869033.64292354 18353.99140350
0.12800001 859761.43911725 19963.66155717
0.12900001 850514.10830318 19902.03107232
0.13000001 841292.33735327 26450.23233312
0.13100001 832095.92570323 24713.25015831
0.13200001 822929.08697100 16417.43605899
0.13300001 813791.70598032 17992.93546747
0.13400001 804683.59213154 17924.32785978
0.13500001 795607.89971848 24345.60287924
0.13600001 786563.74120244 19396.66277262
0.13700001 777554.52832551 19314.45539435
0.13800001 768578.54978894 17627.34987064
0.13900001 759641.23197027 19142.95994840
0.14000001 750739.09598170 26992.82546902
0.14100001 741876.30244570 17382.16258610
0.14200001 733051.26929729 22013.53065527
0.14300001 724269.48838251 18773.06602436
0.14400001 715524.18127896 15562.65167691
0.14500001 706825.18245994 20123.31389389
0.14600001 698167.01184092 16934.04167105
0.14700001 689555.40714979 16838.94383700
0.14800001 680986.88688412 22830.08645988
0.14900001 672463.58427019 19669.56076793
0.15000001 663988.06638459 25566.86170246
0.15100001 655559.95652888 16441.44448553
0.15200001 647181.24775723 17823.37240427
0.15300001 638851.58210535 20660.46114023
0.15400001 630570.09076116 20525.05742287
0.15500001 622340.94584252 17475.33458397
0.15600001 614162.09477474 20248.92522037
0.15700001 606038.41950669 14363.11122020
0.15800001 597962.99046971 17113.70159499
0.15900001 589944.81914892 21238.01449181
0.16000001 581978.05978171 18271.20204929
0.16100001 574069.69999687 13949.89436842
0.16200001 566214.27255565 16612.72754100
0.16300001 558416.46917633 13737.04579023
0.16400001 550674.57367604 17717.95524448
0.16500001 542990.50605891 14872.51066310
0.16600001 535363.71085515 18775.20622612
0.16700001 527795.08766180 15960.52420446
0.16800001 520283.76267019 18464.87160901
0.16900001 512834.38790697 15692.73301093
0.17000001 505443.40326413 12964.62390591
0.17100001 498112.56261781 16706.69613911
0.17200001 490842.43550554 14011.09798315
0.17300001 483633.22279439 16409.67602435
0.17400001 476486.14927037 15009.31441085
0.17500001 469400.04871132 16109.81043260
0.17600001 462374.16457694 12276.03464930
0.17700001 455412.92602279 13375.47826902
0.17800001 448513.41770856 14451.10300113
0.17900001 441676.57192906 13117.79480589
0.18000001 434903.49655497 12988.39353812
0.18100001 428194.76779792 17534.57656960
0.18200001 421546.84447219 16200.04599832
0.18300001 414965.37020972 11453.04475882
0.18400001 408446.21063738 13601.25945676
0.18500001 401992.43978842 16823.38439992
0.18600001 395602.38229669 11096.64734767
0.18700001 389276.44974887 12075.35604171
0.18800001 383014.36541975 13030.14932720
0.18900001 376819.34633523 12887.22225355
0.19000001 370684.97839643 11682.13764613
0.19100001 364620.08489297 10501.05894109
0.19200001 358616.73994630 14534.73715681
0.19300001 352680.52811481 12315.60462371
0.19400001 346807.90392724 15216.19750383
0.19500001 341000.68492401 13033.04679367
0.19600001 335257.48564351 11888.23100271
0.19700001 329579.74327126 12725.07448906
0.19800001 323966.75325363 15472.65286661
0.19900001 318419.48987276 9552.58514764
0.20000001 312934.70423934 12265.47631234
0.20100001 307516.53118828 13976.62700307
0.20200001 302161.50576505 12881.14559957
0.20300001 296871.61133592 9992.69890987
0.20400001 291646.13590111 12555.36674398
0.20500001 286483.85170398 16819.46772854
0.20600001 281386.11491053 8737.03928095
0.20700001 276352.15662948 12071.06277216
0.20800001 271381.10029153 12761.69684446
0.20900001 266476.15246287 9233.39911931
0.21000001 261631.98625601 9108.71803209
0.21100001 256851.16137710 9801.44078150
0.21200001 252132.88926690 12083.46928936
0.21300001 247477.17300821 8738.41939203
0.21400001 242884.73031277 9399.63950749
0.21500001 238354.81947177 7722.69651600
0.21600001 233884.80446557 9135.54089434
0.21700001 229477.63148631 9755.09457570
0.21800001 225131.31294917 10353.78957207
0.21900001 220845.12804616 9474.25644114
0.22000001 216619.27182274 7899.02212050
0.22100001 212456.21130601 10612.18825652
0.22200001 208351.83701896 9757.11698896
0.22300001 204307.15092514 10983.55295310
0.22400001 200319.86176480 6760.79565426
0.22500001 196394.76572406 7323.56116016
0.22600001 192526.47037632 9833.28993947
0.22700001 188717.41905233 6454.13603680
0.22800001 184965.56006314 8259.63747522
0.22900001 181270.56114127 11256.90237922
0.23000001 177633.42973654 6770.49849460
0.23100001 174054.21226510 7268.50424794
0.23200001 170529.41109926 7152.00383975
0.23300001 167061.82624204 6450.25741627
0.23400001 163649.66071680 8076.11113834
0.23500001 160291.33803439 5674.31363479
0.23600001 156988.59098738 8371.41701035
0.23700001 153740.02128379 6037.37092137
0.23800001 150545.17146652 5397.04465235
0.23900001 147403.98404916 7429.16114747
0.24000001 144315.34587118 6782.10000001
0.24100001 141280.41704114 5641.32731929
0.24200001 138296.93355163 6049.10815968
0.24300001 135365.09490359 4954.36270783
0.24400001 132483.90917618 5842.54067104
0.24500001 129653.68492889 6219.48756025
0.24600001 126873.68990468 5170.73747667
0.24700001 124144.58632756 5079.99671284
0.24800001 121463.55891139 5443.99696795
0.24900001 118831.52819818 7129.89202919
0.25000001 116248.16034637 5252.09213292
0.25100001 113712.13698680 4728.15087960
0.25200001 111224.62342618 4643.07212459
0.25300001 108784.14693640 5802.54667211
0.25400001 106389.37999420 5290.21217050
0.25500001 104040.68044430 4794.19478170
0.25600001 101738.02918536 4706.40145279
0.25700001 99480.20629448  6929.79149835
0.25800001 97266.58325085  5290.32971332
0.25900001 95097.57764545  5934.08912585
0.26000001 92972.53826230  4367.85005423
0.26100001 90888.41011594  5000.68056119
0.26200001 88849.62835511  4907.16520624
0.26300001 86851.50164778  4471.11551639
0.26400001 84894.76833376  3712.02392104
0.26500001 82980.06919005  5297.44786776
0.26600001 81105.13733588  3897.91308481
0.26700001 79271.50607985  3505.38616473
0.26800001 77477.30541780  3751.45130585
0.26900001 75721.76860632  4293.42448315
0.27000001 74005.41918374  3309.15247540
0.27100001 72327.27691580  4721.52486050
0.27200001 70687.23357718  4052.49929276
0.27300001 69083.96755829  3691.15656132
0.27400001 67516.33668230  3342.05882394
0.27500001 65987.40635719  3824.63025346
0.27600001 64492.05904613  3215.57421622
0.27700001 63033.79840808  3679.91332522
0.27800001 61609.49482041  2836.19322829
0.27900001 60219.90119622  3035.08316393
0.28000001 58864.08160302  2729.23327269
0.28100001 57541.54502706  3894.41195175
0.28200001 56252.40653523  3820.66363270
0.28300001 54995.80751787  3279.95011561
0.28400001 53771.29056042  2298.72278026
0.28500001 52578.71484943  2481.18967118
0.28600001 51416.24182551  2213.46931536
0.28700001 50285.32675341  2606.79146228
0.28800001 49183.65950547  3411.37878477
0.28900001 48113.62586995  2511.53138929
0.29000001 47071.21374246  2260.12443483
0.29100001 46058.97315560  2017.38311971
0.29200001 45074.59058074  2179.13118478
0.29300001 44118.24698244  2334.73774083
0.29400001 43189.21653099  2484.45979855
0.29500001 42288.40063931  2065.36558499
0.29600001 41413.12365601  2213.94569545
0.29700001 40564.01925528  2175.85409585
0.29800001 39741.35915053  2673.60006342
0.29900001 38944.01227875  2453.47288971
0.30000001 38171.42154231  2757.50362276
0.30100001 37424.42242180  1864.85905756
0.30200001 36700.29092915  2168.43679220
0.30300001 36000.49090613  1805.78470934
0.30400001 35324.62350760  2100.93208258
0.30500001 34670.52923198  1750.51510380
0.30600001 34039.35239060  1881.01470216
0.30700001 33430.81443619  2162.30518010
0.30800001 32843.60216805  1978.99134233
0.30900001 32277.84730735  1651.01196794
0.31000001 31733.78973419  1628.41949731
0.31100001 31208.70213927  2044.79426098
0.31200001 30704.92391425  1874.07511984
0.31300001 30220.47419251  1565.72284204
0.31400001 29756.90343779  1546.61512941
0.31500001 29311.25328949  1667.22416604
0.31600002 28884.57106170  1510.80756092
0.31700002 28475.85097722  1494.12797152
0.31800002 28085.41446825  1747.05328972
0.31900002 27712.89753409  2261.37254586
0.32000002 27357.51689190  1975.89675108
0.32100002 27019.24674277  1827.04155126
0.32200002 26697.78765932  1552.20944801
0.32300002 26391.91316814  1539.17644885
0.32400002 26102.23094889  1399.73220091
0.32500002 25827.81507536  1515.57626039
0.32600002 25569.07185317  1254.16303379
0.32700002 25325.10572560  1370.59478677
0.32800002 25096.51651332  1362.36446344
0.32900002 24880.96678404  1724.25107978
0.33000002 24680.97230720  1347.95136639
0.33100002 24492.24108320  1585.62776281
0.33200002 24319.42613593  1822.13308952
0.33300002 24158.10923469  1452.38559597
0.33400002 24010.49871721  1568.48590298
0.33500002 23874.77272742  1203.28860244
0.33600002 23751.09661316  1560.80338785
0.33700002 23638.74301147  1677.87805841
0.33800002 23539.16958395  1436.36019603
0.33900002 23449.81526283  1435.12876205
0.34000002 23371.91732687  1434.56835346
0.34100002 23304.72194742  2032.40489729
0.34200002 23248.94494779  1555.00575648
0.34300002 23201.79639736  1556.37657604
0.34400002 23165.55427562  1798.22623581
0.34500002 23138.41618238  1561.14901376
0.34600002 23122.00864556  1564.55078910
0.34700002 23112.43732296  2171.64471372
0.34800002 23113.60101209  1572.99619138
0.34900002 23122.69846948  1213.94172714
0.35000002 23140.37841019  1462.00917720
0.35100002 23166.33366113  1223.18247524
0.35200002 23199.20360944  1596.91725609
0.35300002 23240.39157332  1604.28430629
0.35400002 23289.30032495  1860.23295156
0.35500002 23345.05856776  1620.61404253
0.35600002 23407.46182073  1629.51053183
0.35700002 23476.72759491  1638.91043103
0.35800002 23553.06291851  1775.66549753
0.35900002 23635.24809572  1403.93380338
0.36000002 23724.09343563  1413.12569243
0.36100002 23818.23105119  1939.99501101
0.36200002 23918.94544265  1562.86396925
0.36300002 24023.53817401  1574.02229572
0.36400002 24134.10815225  1849.87947749
0.36500002 24249.24179016  1730.66846854
0.36600002 24369.91200030  1609.87646300
0.36700002 24494.76030010  2028.16624892
0.36800002 24625.50299263  1635.62598625
0.36900002 24759.43250677  1786.39313998
0.37000002 24896.64426604  1524.04815094
0.37100002 25038.17608198  1816.26937902
0.37200002 25183.97910646  1549.94806753
0.37300002 25332.72031273  1563.28224455
0.37400002 25485.86543969  1433.57999889
0.37500002 25641.07842788  1735.38827021
0.37600002 25800.37361866  1604.91231698
0.37700002 25961.36639988  2208.01431691
0.37800002 26125.92404611  1782.31062286
0.37900002 26292.91416959  1498.69617866
0.38000002 26462.37828818  2419.71998530
0.38100002 26633.52452040  3510.03236282
0.38200002 26807.17043757  2002.09361898
0.38300002 26982.44366024  1865.02659415
0.38400002 27160.12523366  1568.49730655
0.38500002 27338.44770428  2374.34429560
0.38600002 27519.28046717  2076.74259884
0.38700002 27700.64056064  1934.61282841
0.38800002 27883.11011820  2277.77137347
0.38900002 28066.80186822  1970.28958449
0.39000002 28252.28580134  2154.09563298
0.39100002 28437.55994505  1839.34146439
0.39200002 28624.21062279  1687.39729616
0.39300002 28810.91312401  2213.54256019
0.39400002 28999.00160777  2061.82911200
0.39500002 29186.37355253  1907.03773827
0.39600002 29374.20900884  1749.23422935
0.39700002 29561.63389878  2294.27851558
0.39800002 29750.39752854  1780.56137644
0.39900002 29937.91090729  1975.90221350
0.40000002 30125.00719170  1812.01926843
0.40100002 30311.91659394  2193.37038866
0.40200002 30499.39414936  2765.53269552
0.40300002 30685.17088123  2231.42573221
0.40400002 30870.53024735  1875.38480138
0.40500002 31055.04155432  2458.62775635
0.40600002 31239.13007292  3242.15326823
0.40700002 31421.93374947  2692.23141122
0.40800002 31603.96784150  2520.57457463
0.40900002 31784.20693345  2150.20170093
0.41000002 31964.14658535  1970.58973036
0.41100002 32142.32822308  2383.67517397
0.41200002 32318.47895219  2202.34285255
0.41300002 32493.91373377  2623.23378002
0.41400002 32667.35174371  2643.60556512
0.41500002 32839.93007111  2868.89642695
0.41600002 33009.52379683  2890.64413586
0.41700002 33178.11830273  2496.32173938
0.41800002 33345.79388587  2095.78324503
0.41900002 33509.53557977  2533.32100987
0.42000002 33672.08760692  2551.67091976
0.42100002 33833.24263059  3212.46654000
0.42200002 33992.00951687  2588.15172725
0.42300002 34148.16684240  2171.82351409
0.42400002 34302.12179803  2405.43640507
0.42500002 34454.17198240  2421.78386340
0.42600002 34602.62294198  2437.92791490
0.42700002 34749.94218709  3346.41959119
0.42800002 34894.37018556  2694.54339341
0.42900002 35036.68912897  2711.83986709
0.43000002 35176.55423895  3183.83007504
0.43100002 35312.37701494  3203.53899460
0.43200002 35446.51798191  2762.70174243
0.43300002 35577.58695218  3474.15153051
0.43400002 35706.35888496  2562.82403042
0.43500002 35831.78051369  2812.07826797
0.43600002 35955.41388068  2828.25298988
0.43700002 36075.21772157  2607.15610829
0.43800002 36191.42343910  2859.84641568
0.43900002 36305.78492811  2635.80011069
0.44000002 36416.45498842  3131.63319514
0.44100002 36524.73626704  3148.06716804
0.44200002 36629.75503111  2677.45207088
0.44300002 36731.89683723  2935.61333435
0.44400002 36830.55020740  3195.97114571
0.44500002 36925.12100667  4199.49421111
0.44600002 37017.61338390  3723.04664252
0.44700002 37106.96801486  2493.58836877
0.44800002 37191.97239035  2504.87945920
0.44900002 37275.33872879  2516.08548344
0.45000002 37355.11071073  2779.78069528
0.45100002 37430.26373914  3299.10360232
0.45200002 37503.22134895  3822.51601715
0.45300002 37572.09662069  3582.12386158
0.45400002 37638.50772370  2825.71110128
0.45500002 37701.32717363  2836.64799098
0.45600002 37760.66204010  3365.04155718
0.45700002 37816.52291188  3117.59429661
0.45800002 37868.43822140  2607.24209511
0.45900002 37917.29076424  2877.92250540
0.46000002 37963.54179515  2625.17903955
0.46100002 38005.02633594  4740.74720983
0.46200002 38044.10048913  2906.37919461
0.46300002 38079.44616260  2915.36253638
0.46400002 38110.79095644  2658.22779520
0.46500002 38139.77373737  3998.95546590
0.46600002 38164.38632903  2940.75692796
0.46700002 38185.64789077  3216.75913078
0.46800002 38204.19658552  2956.43189289
0.46900002 38218.63788226  3233.29691809
0.47000002 38229.24387477  2970.98582854
0.47100002 38236.94905103  3519.32895746
0.47200002 38241.05823442  2984.52353136
0.47300002 38242.48984645  3534.75350404
0.47400002 38238.85222484  3541.87385520
0.47500002 38233.13006768  4094.76842433
0.47600002 38224.37618246  3281.94509458
0.47700002 38210.85866357  3013.69056564
