# SAXS profile: number of points = 501, q_min = 0, q_max = 0.5, delta_q = 0.001
#    q    intensity    error
0.00000000 1682732.95097189 302.89193117
0.00100000 1682663.25521927 555.27888741
0.00200000 1682454.11764258 984.23568999
0.00300000 1682105.70445724 1110.18980449
0.00400000 1681617.89060372 1261.21346588
0.00500000 1680991.14961228 1966.75972289
0.00600000 1680225.17125102 2293.50745213
0.00700000 1679320.65412903 2015.18486871
0.00800000 1678277.02219940 3625.07852100
0.00900000 1677095.71527983 2767.20804850
0.01000000 1675775.77891404 2765.03015460
0.01100000 1674318.58520971 3917.90565997
0.01200000 1672723.49141605 3587.99204640
0.01300000 1670991.95873083 4210.89992172
0.01400000 1669123.21625335 4131.08014336
0.01500000 1667119.12107919 6401.73771001
0.01600000 1664978.43477170 4670.26471831
0.01700000 1662703.32167899 6733.94875488
0.01800000 1660293.40346435 6151.38733663
0.01900000 1657749.30508538 5967.89776759
0.02000000 1655071.84335044 7298.86715934
0.02100000 1652262.54257517 6542.95996525
0.02200000 1649319.61799058 9673.25999899
0.02300000 1646246.14150387 7704.43229293
0.02400000 1643041.69370267 12938.95392789
0.02500000 1639707.81030060 8313.31897790
0.02600000 1636244.86563426 6626.79200892
0.02700000 1632653.53223068 8914.28869426
0.02800000 1628933.96990480 7794.44940344
0.02900000 1625088.72432284 8044.18955474
0.03000000 1621118.05449118 7538.19929988
0.03100000 1617022.31807941 9314.04898071
0.03200000 1612802.47707800 8781.70989216
0.03300000 1608461.29911422 11484.41420511
0.03400000 1603996.96725345 12631.47669994
0.03500000 1599412.71830749 11227.87780100
0.03600000 1594708.36534785 10620.75820404
0.03700000 1589885.69150318 13593.52329102
0.03800000 1584946.00014226 10199.12798293
0.03900000 1579890.73540811 9479.34485144
0.04000000 1574718.80114492 11621.42529097
0.04100000 1569434.06581936 14831.15260966
0.04200000 1564036.90247384 17149.66543125
0.04300000 1558527.22188977 12343.53617033
0.04400000 1552909.22893631 14674.99289498
0.04500000 1547182.33422242 11743.11446239
0.04600000 1541346.55963251 11953.14312561
0.04700000 1535405.62938651 18793.36577773
0.04800000 1529359.38682047 13488.95041937
0.04900000 1523210.80914636 11424.08160036
0.05000000 1516959.43370663 11604.74020824
0.05100000 1510608.48989035 15317.57080104
0.05200000 1504156.34839118 14349.65223236
0.05300000 1497608.61580814 14556.75642426
0.05400000 1490963.39203157 22140.80740418
0.05500000 1484224.85091499 16207.73612807
0.05600000 1477391.24230800 13894.86528230
0.05700000 1470467.87150579 12793.07107926
0.05800000 1463453.40121540 19427.34480824
0.05900000 1456349.66871670 13107.14763063
0.06000000 1449159.49353739 17237.75298095
0.06100000 1441884.56921436 14750.47983237
0.06200000 1434525.36374552 20334.39798159
0.06300000 1427085.15039835 15070.01989281
0.06400000 1419561.90402068 16608.87505378
0.06500000 1411961.57652053 18171.94633986
0.06600000 1404282.69476136 15524.34591695
0.06700000 1396528.09558332 15669.04596574
0.06800000 1388700.48306964 15810.35573982
0.06900000 1380801.23709062 17398.09640190
0.07000000 1372829.20782113 19006.82127234
0.07100000 1364789.72507193 26531.51349807
0.07200000 1356681.37581650 19312.36028947
0.07300000 1348509.46549792 17962.14692206
0.07400000 1340273.07519505 25632.72376436
0.07500000 1331974.56105995 15184.51070782
0.07600000 1323614.21827518 22931.61740667
0.07700000 1315197.60202746 16926.59393176
0.07800000 1306722.73399589 17033.13163643
0.07900000 1298191.53465962 20251.78889057
0.08000000 1289608.96872998 17235.62467562
0.08100000 1280974.17970689 18907.17977956
0.08200000 1272288.52995613 22175.99011775
0.08300000 1263555.07539483 25473.27151547
0.08400000 1254774.24353484 19198.04682721
0.08500000 1245950.49344390 16072.76211996
0.08600000 1237082.65993938 27444.68009932
0.08700000 1228174.48050425 17833.09429432
0.08800000 1219224.63788750 16276.64968021
0.08900000 1210239.31819240 19605.87787560
0.09000000 1201216.57286040 18036.26768876
0.09100000 1192160.10190529 21387.35323298
0.09200000 1183070.48403879 16503.83402780
0.09300000 1173951.40392876 18207.98713057
0.09400000 1164800.57428708 18258.24986004
0.09500000 1155623.07132563 16640.97300926
0.09600000 1146419.61698724 20016.48745353
0.09700000 1137193.33515904 26746.78850038
0.09800000 1127945.20386011 20099.98447784
0.09900000 1118676.49240227 25170.22226262
0.10000000 1109387.83229338 18487.94909461
0.10100000 1100081.19876157 25246.86469898
0.10200000 1090759.41435943 25278.35061678
0.10300000 1081423.42556578 20244.24747890
0.10400000 1072075.89891712 23639.27468323
0.10500000 1062719.10454372 20276.68146870
0.10600001 1053349.86309666 18596.89270802
0.10700001 1043976.05716102 20294.89550624
0.10800001 1034594.25627543 20298.74026342
0.10900001 1025209.41738372 20299.14741959
0.11000001 1015821.21997579 28752.82098480
0.11100001 1006432.02683204 21980.47650071
0.11200001 997044.36047793 25349.85405855
0.11300001 987656.61290106 21955.60753848
0.11400001 978273.92468599 16875.22599539
0.11500001 968896.33782214 26974.07531512
0.11600001 959524.59725741 16839.65747487
0.11700001 950162.36932494 18499.66220200
0.11800001 940806.97343669 21831.42684682
0.11900001 931463.92230911 25149.52708693
0.12000001 922132.34300304 18410.37309527
0.12100001 912816.07640725 20045.44198221
0.12200001 903513.64093139 25004.74119078
0.12300001 894228.19265508 18295.90968372
0.12400001 884960.20860917 18252.30516257
0.12500001 875711.52755414 19861.13838079
0.12600001 866484.75598441 21458.49599315
0.12700001 857279.36914119 19751.71759584
0.12800001 848096.10161767 19692.79240767
0.12900001 838938.21400330 16359.29594411
0.13000001 829806.15554831 24458.53758764
0.13100001 820699.81212922 25999.77127382
0.13200001 811622.98512792 17811.06724825
0.13300001 802576.08660664 22584.49214181
0.13400001 793558.52443245 17676.51696510
0.13500001 784573.68962942 24007.95603459
0.13600001 775620.85128486 15939.00924544
0.13700001 766702.78709593 19044.89812949
0.13800001 757818.25540923 18960.61364444
0.13900001 748972.78410516 18874.11504952
0.14000001 740162.70038483 17219.88603655
0.14100001 731391.64254948 15578.64272104
0.14200001 722658.95486384 20151.34590682
0.14300001 713969.31985484 18506.08564353
0.14400001 705316.61177639 15340.63702975
0.14500001 696710.26577946 19835.34220242
0.14600001 688144.75741512 15173.59261681
0.14700001 679625.99150407 18105.23726781
0.14800001 671150.42560363 18000.25526392
0.14900001 662720.29368610 16402.32804261
0.15000001 654337.83688144 16302.82797512
0.15100001 646002.83250788 16201.75180378
0.15200001 637717.26648265 19026.29554330
0.15300001 629480.86494084 15995.10953294
0.15400001 621292.79507407 17334.06980058
0.15500001 613157.17490503 24391.39356882
0.15600001 605071.07246712 18524.25175783
0.15700001 597041.13867365 14149.87565439
0.15800001 589059.14044258 16858.87339518
0.15900001 581134.13557151 16736.66389444
0.16000001 573260.48385673 13844.24133862
0.16100001 565445.56597276 16488.39348209
0.16200001 557683.25209299 16362.42738881
0.16300001 549978.55958939 20294.20980689
0.16400001 542329.70617457 18791.72520610
0.16500001 534738.58634749 17309.48885727
0.16600001 527204.58448501 19809.71319730
0.16700001 519728.61703680 20955.45882833
0.16800001 512310.05143154 14285.76645869
0.16900001 504953.17330095 19314.45979075
0.17000001 497654.44565684 17870.77198739
0.17100001 490415.75234536 17713.81781118
0.17200001 483238.01285491 13794.02972834
0.17300001 476120.54131864 16154.77072984
0.17400001 469065.11651894 12312.95989011
0.17500001 462070.57138304 14638.39639275
0.17600001 455135.94806412 12083.85999181
0.17700001 448265.91394247 15559.31060782
0.17800001 441457.28248693 17779.69289193
0.17900001 434710.95392072 16432.07483435
0.18000001 428028.51479098 13945.16967059
0.18100001 421409.92212178 12654.94055909
0.18200001 414851.98454864 14803.99376793
0.18300001 408360.07935870 12397.81259499
0.18400001 401930.42322106 11153.56977129
0.18500001 395565.43523488 14347.15901376
0.18600001 389264.19235239 19653.95000039
0.18700001 383026.71541776 12961.62466211
0.18800001 376853.02378079 13888.91884764
0.18900001 370745.90051007 13736.13626290
0.19000001 364698.68202492 15672.92660055
0.19100001 358721.09535825 11364.28483791
0.19200001 352804.50183359 11235.05989176
0.19300001 346954.67705443 13125.29605317
0.19400001 341168.03813585 11974.99870443
0.19500001 335446.48704562 11834.55262221
0.19600001 329788.57930427 12668.82887266
0.19700001 324195.75797522 11554.33736027
0.19800001 318667.28545582 10463.44081243
0.19900001 313203.87286404 11275.33995598
0.20000001 307802.78566690 10208.27986910
0.20100001 302467.65344969 10081.24736594
0.20200001 297195.31739332 9954.55762658
0.20300001 291987.73259330 8934.82503966
0.20400001 286844.13755552 13230.68647011
0.20500001 281763.02856639 8706.47799423
0.20600001 276746.34785477 8592.97450706
0.20700001 271792.49282986 10175.91141256
0.20800001 266901.62861050 12551.04967870
0.20900001 262075.88545208 9080.92986018
0.21000001 257310.52812300 8958.26646008
0.21100001 252608.01729293 10442.81592856
0.21200001 247967.57761356 9507.07737515
0.21300001 243389.17614729 14063.02726263
0.21400001 238873.27687105 8474.02989762
0.21500001 234419.69495242 11392.79771331
0.21600001 230025.45100511 8236.06166263
0.21700001 225693.28327008 8118.18778305
0.21800001 221421.63639462 7273.70109947
0.21900001 217209.38811207 8601.49217593
0.22000001 213056.92118638 10594.25590692
0.22100001 208966.57577478 6958.58730233
0.22200001 204934.47048467 6855.05836185
0.22300001 200961.28427730 8777.98931230
0.22400001 197044.88343110 6650.26513027
0.22500001 193190.46602717 7204.07281881
0.22600001 189391.74482969 8383.42598132
0.22700001 185651.89757600 6984.22471709
0.22800001 181968.63673683 7500.74756100
0.22900001 178341.62368394 6152.78630807
0.23000001 174771.64621879 6661.42161066
0.23100001 171259.22374779 7151.78552194
0.23200001 167800.32142590 7037.54581343
0.23300001 164398.08846300 5770.37317796
0.23400001 161050.53315867 6244.73471857
0.23500001 157756.25087816 7259.94300878
0.23600001 154517.01804955 6591.69630176
0.23700001 151331.16335091 6483.02734459
0.23800001 148198.27393591 5844.19920909
0.23900001 145118.57436692 8881.25717133
0.24000001 142090.56003499 5650.23138705
0.24100001 139115.73919622 7069.86220036
0.24200001 136191.47872577 6453.43352468
0.24300001 133318.34448333 5367.39680279
0.24400001 130495.20636547 4795.69906078
0.24500001 127722.26245478 6598.13239053
0.24600001 124999.07997281 6483.70258490
0.24700001 122325.76541642 5915.67429538
0.24800001 119699.86497174 4917.86918501
0.24900001 117122.22968871 5709.70896744
0.25000001 114592.86204320 4314.42146003
0.25100001 112109.93986365 4237.75592733
0.25200001 109674.77117581 4578.37353934
0.25300001 107286.09765685 6131.40077117
0.25400001 104942.26692020 4816.85027953
0.25500001 102643.85220077 3941.52411099
0.25600001 100390.77867839 4257.07117127
0.25700001 98181.77029550  4179.59815923
0.25800001 96016.31063342  5968.37415136
0.25900001 93894.79974289  4028.08709956
0.26000001 91816.51118221  3954.07824115
0.26100001 89778.34964187  3528.28930787
0.26200001 87784.90954214  4848.36078342
0.26300001 85831.43125566  4758.49477397
0.26400001 83918.58037357  3669.34010046
0.26500001 82047.14284891  4255.78550095
0.26600001 80214.73710024  4176.38048475
0.26700001 78422.81248732  3467.85693229
0.26800001 76669.77322592  4331.07569448
0.26900001 74954.51094508  4553.48675539
0.27000001 73277.78872027  3276.61647768
0.27100001 71638.55760143  3507.42394615
0.27200001 70036.79834312  3154.80773066
0.27300001 68471.07996930  3376.99382390
0.27400001 66940.35433238  3037.41872158
0.27500001 65447.44787595  5690.00138762
0.27600001 63987.52806873  2658.68191708
0.27700001 62564.11724176  3130.70857494
0.27800001 61173.80978782  3584.17368510
0.27900001 59817.76795854  3266.05028511
0.28000001 58494.47826059  2958.65085045
0.28100001 57204.05812412  3871.57083708
0.28200001 55946.29260849  2612.41225700
0.28300001 54720.23031389  2564.19011387
0.28400001 53525.84338144  3432.34486929
0.28500001 52362.49429219  2920.25644490
0.28600001 51228.72941320  2205.39690562
0.28700001 50125.69445706  3031.60214426
0.28800001 49051.46746694  3189.57182301
0.28900001 48008.01466293  2714.85335769
0.29000001 46991.67177650  2461.42388416
0.29100001 46004.80981123  3224.01722418
0.29200001 45045.06934289  2573.65015873
0.29300001 44112.80040612  2528.98696699
0.29400001 43207.17983465  2485.49313764
0.29500001 42329.24470235  2443.24411988
0.29600001 41476.15914896  2771.64446633
0.29700001 40648.62255804  1998.69286579
0.29800001 39846.76114214  2144.55278619
0.29900001 39069.82586083  2109.77069636
0.30000001 38317.05133471  2249.01943456
0.30100001 37589.15475952  1873.06767034
0.30200001 36883.40084187  2011.62077715
0.30300001 36201.42184953  1980.94189739
0.30400001 35542.98566132  1788.70083809
0.30500001 34905.64649522  1762.38617498
0.30600001 34290.73073064  1736.99704739
0.30700001 33697.69689571  2646.61723949
0.30800001 33125.52745688  1995.97875141
0.30900001 32574.22462350  1817.64182005
0.31000001 32043.99769621  1644.33781963
0.31100001 31532.37978897  1770.85853279
0.31200001 31041.48312875  1894.61701246
0.31300001 30569.23601875  1439.81108465
0.31400001 30117.31242143  1565.34738722
0.31500001 29682.94748554  1406.97177743
0.31600002 29266.97945718  1669.97392690
0.31700002 28868.34389262  1514.72207576
0.31800002 28487.62265896  1635.75937053
0.31900002 28124.41129354  1349.97180601
0.32000002 27777.53796396  1471.23736792
0.32100002 27447.54496195  1856.00307821
0.32200002 27133.71520876  1446.09142052
0.32300002 26835.13643103  1565.02523076
0.32400002 26552.22120270  1553.30501391
0.32500002 26284.08365969  1413.82092700
0.32600002 26031.31727767  1532.20340752
0.32700002 25792.70615658  1649.70156389
0.32800002 25569.08376328  1261.83434347
0.32900002 25358.04053600  1631.78998576
0.33000002 25162.13189474  1374.22989851
0.33100002 24977.11521673  1368.24643636
0.33200002 24807.60641440  1363.05399899
0.33300002 24649.08201942  1728.88669471
0.33400002 24503.92841941  1970.11593822
0.33500002 24370.28571507  1351.08870403
0.33600002 24248.35321656  1348.32974446
0.33700002 24137.17773168  1346.13046584
0.33800002 24038.64205183  1589.07450809
0.33900002 23949.72100205  1587.86657763
0.34000002 23872.12402168  1831.58880230
0.34100002 23804.77911614  1709.65931709
0.34200002 23748.40850099  1344.04124277
0.34300002 23700.54491854  1345.24299329
0.34400002 23663.00985463  1714.38514516
0.34500002 23634.44856847  1717.27911432
0.34600002 23616.20337398  1597.99047698
0.34700002 23604.56991108  1478.59032926
0.34800002 23603.22255290  1235.62875917
0.34900002 23609.63397768  1735.30817955
0.35000002 23624.32975507  1990.11363282
0.35100002 23646.99679946  1498.27378818
0.35200002 23676.38221231  1253.66449752
0.35300002 23713.68507684  1511.03608466
0.35400002 23758.55959787  1265.14335851
0.35500002 23809.88142184  1652.88204659
0.35600002 23867.63990270  1405.92339506
0.35700002 23932.12923514  1413.67094088
0.35800002 24003.33795046  1421.83779084
0.35900002 24080.24896025  1560.40020653
0.36000002 24163.59072725  1439.30434984
0.36100002 24251.96739443  1711.94645946
0.36200002 24346.75128967  1325.68067052
0.36300002 24445.10006467  1868.58353745
0.36400002 24549.32694983  1881.70599984
0.36500002 24657.95847159  2165.95517474
0.36600002 24771.92994644  1363.69480815
0.36700002 24889.86937773  1511.31294020
0.36800002 25013.55613359  1522.95043733
0.36900002 25140.27081651  1953.39913497
0.37000002 25270.06416377  1828.16287853
0.37100002 25404.15107128  1701.06203631
0.37200002 25542.20500989  1571.99508180
0.37300002 25683.14107934  1873.07156764
0.37400002 25828.36413351  1888.69921673
0.37500002 25975.46067954  1758.01926207
0.37600002 26126.58253244  1772.94997464
0.37700002 26279.25901061  1639.03746214
0.37800002 26435.50480253  1653.14437114
0.37900002 26593.86827383  1970.60573244
0.38000002 26754.72963733  1529.03287121
0.38100002 26917.17568067  1696.58966353
0.38200002 27082.03250218  2333.79426144
0.38300002 27248.45798217  2354.26688119
0.38400002 27417.14175351  1900.00801353
0.38500002 27586.35910487  1756.97529462
0.38600002 27758.23500912  2094.77530420
0.38700002 27930.45804185  2113.21855556
0.38800002 28103.68951106  2459.77554099
0.38900002 28278.06425658  2481.40025607
0.39000002 28454.30945412  2169.49892711
0.39100002 28630.29260621  2020.15354200
0.39200002 28807.50174509  2547.30346249
0.39300002 28984.83289203  2740.80592812
0.39400002 29163.52755488  2073.52690739
0.39500002 29341.51192430  2265.75165814
0.39600002 29519.88730327  1933.70030942
0.39700002 29697.83995717  1950.25724239
0.39800002 29877.09488022  2145.77305596
0.39900002 30055.05215833  1983.63353643
0.40000002 30232.85284803  2182.20742196
0.40100002 30410.17378703  2383.85363611
0.40200002 30588.24057594  2218.87107651
0.40300002 30764.58841481  3169.36804866
0.40400002 30940.55295468  2443.53028537
0.40500002 31115.61516087  2273.92926370
0.40600002 31290.32177082  3247.46619885
0.40700002 31463.82298752  2310.70326969
0.40800002 31636.62097392  3105.45086194
0.40900002 31807.52184435  2347.39522334
0.41000002 31978.29080613  3154.33875458
0.41100002 32147.23707360  2384.03921434
0.41200002 32314.35370795  2602.43659918
0.41300002 32480.64621802  2622.16269343
0.41400002 32645.09444182  2032.15722529
0.41500002 32808.73807005  2251.99188784
0.41600002 32969.33973944  2062.23229842
0.41700002 33129.09338156  2077.19425345
0.41800002 33288.01128299  2719.79709075
0.41900002 33442.98073695  3371.05261802
0.42000002 33596.94697873  2758.14149291
0.42100002 33749.53548205  2990.88397614
0.42200002 33899.80926252  2150.94299963
0.42300002 34047.53524506  2598.50801303
0.42400002 34193.18865550  3051.74223211
0.42500002 34337.05411001  3071.79300624
0.42600002 34477.32987432  2208.27308309
0.42700002 34616.61001841  3333.57970274
0.42800002 34752.97601625  3578.16658019
0.42900002 34887.47763631  2700.29089701
0.43000002 35019.56377669  2264.01490545
0.43100002 35147.67337258  2733.08321097
0.43200002 35274.25929800  2749.27589997
0.43300002 35397.81196747  2534.83743511
0.43400002 35519.17098213  2317.62601641
0.43500002 35637.46244904  3729.10424738
0.43600002 35753.85746651  2343.66546799
0.43700002 35866.49980527  3063.35789354
0.43800002 35975.81319181  3079.70963423
0.43900002 36083.34748317  2381.50104675
0.44000002 36187.25968040  2633.16607543
0.44100002 36288.98145723  2646.55554310
0.44200002 36387.49443938  2659.74403209
0.44300002 36483.26205722  3158.72097861
0.44400002 36575.62318320  2441.42296318
0.44500002 36664.02997102  2698.10609343
0.44600002 36750.46515449  2956.94256646
0.44700002 36833.76001636  2475.22879040
0.44800002 36913.12785264  2983.31913443
0.44900002 36990.79279930  3495.63008520
0.45000002 37064.96280880  2758.18933813
0.45100002 37134.68682395  3021.27826318
0.45200002 37202.31335609  3539.05623729
0.45300002 37266.02085018  3045.37936821
0.45400002 37327.32370175  2547.58996338
0.45500002 37385.23203814  3324.29499038
0.45600002 37439.69339210  3849.73665550
0.45700002 37490.86518840  3090.74707261
0.45800002 37538.23958982  2584.50791825
0.45900002 37582.59313336  2852.51895401
0.46000002 37624.49718405  2861.90751394
0.46100002 37661.94770080  2870.97040930
0.46200002 37696.81205736  3665.26121005
0.46300002 37728.20196526  2625.88298124
0.46400002 37755.66654123  3686.84101249
0.46500002 37780.94537571  2904.97702762
0.46600002 37802.08631071  3972.05440736
0.46700002 37819.79583907  3185.93975248
0.46800002 37835.07452122  2661.69761872
0.46900002 37846.23988109  3201.79204569
0.47000002 37853.80640081  3744.12016856
0.47100002 37858.62464654  3216.46890242
0.47200002 37859.84436788  2954.77169374
0.47300002 37858.40835855  4575.94603518
0.47400002 37852.33007463  4045.46796847
0.47500002 37844.06514936  3512.68629366
0.47600002 37832.88753058  2706.94323112
0.47700002 37817.24064817  4067.24442449
