# SAXS profile: number of points = 501, q_min = 0, q_max = 0.5, delta_q = 0.001
#    q    intensity    error
0.00000000 1700912.83420644 280.65061764
0.00100000 1700842.48894287 612.30331056
0.00200000 1700631.40460357 1300.98306572
0.00300000 1700279.74197327 1122.18466968
0.00400000 1699787.37645179 1657.29275501
0.00500000 1699154.79403872 2293.85906275
0.00600000 1698381.67773550 1961.63091765
0.00700000 1697468.72434809 3259.14008620
0.00800000 1696415.34732233 2290.16081558
0.00900000 1695223.04771095 2797.11814829
0.01000000 1693890.80380704 5030.85590454
0.01100000 1692419.99147931 4264.89856422
0.01200000 1690810.03697502 3956.49565999
0.01300000 1689062.33131607 3901.73415743
0.01400000 1687176.14146603 4555.37578390
0.01500000 1685153.32607187 4853.24179520
0.01600000 1682992.67954001 5579.12098208
0.01700000 1680696.30283905 4991.66824335
0.01800000 1678263.81578705 5261.35729924
0.01900000 1675695.95256166 6535.21450988
0.02000000 1672993.44930415 7377.90144518
0.02100000 1670157.85320694 6613.82539856
0.02200000 1667187.44223610 6902.15632444
0.02300000 1664085.15645999 6589.77751954
0.02400000 1660850.65550065 8096.64731475
0.02500000 1657485.58825312 7757.03290729
0.02600000 1653990.14668311 10047.99060068
0.02700000 1650365.15832125 6931.53398242
0.02800000 1646610.73529038 7879.03272969
0.02900000 1642729.37080178 9609.96726042
0.03000000 1638721.42713837 7620.05498645
0.03100000 1634587.13898159 10199.82421657
0.03200000 1630327.66493489 11298.17123837
0.03300000 1625945.64451625 13267.71707090
0.03400000 1621439.30037304 10215.06806368
0.03500000 1616811.84879700 11350.01970268
0.03600000 1612063.18239919 8946.95107579
0.03700000 1607195.08223314 15573.72106709
0.03800000 1602208.63206721 9372.92093137
0.03900000 1597105.67535478 11499.16139508
0.04000000 1591884.88661582 10769.10175699
0.04100000 1586550.17459535 11994.31987608
0.04200000 1581101.94660215 12237.72963444
0.04300000 1575540.05653767 10398.56485583
0.04400000 1569868.81226905 10596.61497494
0.04500000 1564087.54601878 12950.64548279
0.04600000 1558196.50960931 13182.34308410
0.04700000 1552199.04871476 15646.16713872
0.04800000 1546095.32928368 14772.94155866
0.04900000 1539888.24759224 13858.99487343
0.05000000 1533577.37167455 12905.05418358
0.05100000 1527165.86495180 13103.08373168
0.05200000 1520652.19358952 12089.18550241
0.05300000 1514041.83408397 14716.48731335
0.05400000 1507333.23582976 17409.69968572
0.05500000 1500530.10916940 15125.34420601
0.05600000 1493631.09734112 15324.65577383
0.05700000 1486641.42136235 12933.78096958
0.05800000 1479559.53888343 14403.51278356
0.05900000 1472387.56995645 14576.63762338
0.06000000 1465128.34674534 17427.70249874
0.06100000 1457783.38293840 23047.55636130
0.06200000 1450353.36267577 17817.59189333
0.06300000 1442841.34082974 16621.53302350
0.06400000 1435245.47336236 18191.73722564
0.06500000 1427571.63807135 15546.25586582
0.06600000 1419818.39567444 21403.76331624
0.06700000 1411988.67028344 14402.28511090
0.06800000 1404085.21046886 15985.51086946
0.06900000 1396109.21945316 19056.89173776
0.07000000 1388059.77359752 19217.68846539
0.07100000 1379942.00284458 20864.72406027
0.07200000 1371754.55888212 18024.85574812
0.07300000 1363503.02543887 19675.34957898
0.07400000 1355186.05038958 22868.76567205
0.07500000 1346806.41705775 16888.95326153
0.07600000 1338364.31573494 18549.73028571
0.07700000 1329865.16931296 15559.42321052
0.07800000 1321306.98666390 25051.98164199
0.07900000 1312691.91574945 22053.22521897
0.08000000 1304024.86699105 17428.29316492
0.08100000 1295304.95695736 17525.47688990
0.08200000 1286533.58686949 19220.81268977
0.08300000 1277713.92678125 22538.87472622
0.08400000 1268846.12442740 19413.34661498
0.08500000 1259934.94606420 16253.16156724
0.08600000 1250979.03460104 16325.27716804
0.08700000 1241982.33199540 21312.41781782
0.08800000 1232943.41115982 23043.71343680
0.08900000 1223868.45321903 28087.78232065
0.09000000 1214755.64062936 19897.69832821
0.09100000 1205608.59570063 19964.87928278
0.09200000 1196428.04516565 20028.20641713
0.09300000 1187217.50593381 21761.69790640
0.09400000 1177974.87697664 21821.98562157
0.09500000 1168705.02081532 16829.35309077
0.09600000 1159408.86941031 21930.21979579
0.09700000 1150089.53610071 21978.21206814
0.09800000 1140747.99705899 20328.13026337
0.09900000 1131385.40801154 22062.01649364
0.10000000 1122002.70645752 18698.17598244
0.10100000 1112601.47666477 20427.36407230
0.10200000 1103184.90647493 23861.89064943
0.10300000 1093753.86898659 20475.07339059
0.10400000 1084311.02427615 20493.47932294
0.10500000 1074858.61665466 20508.30337067
0.10600001 1065393.57101600 20519.48114328
0.10700001 1055923.46158740 23948.34523576
0.10800001 1046445.33116979 18820.32016680
0.10900001 1036963.99825667 23953.86948713
0.11000001 1027479.19791277 18818.28239554
0.11100001 1017993.26229611 18812.51637280
0.11200001 1008508.30783411 20513.05994704
0.11300001 999023.38512449 22208.29089690
0.11400001 989543.24996432 17069.62186560
0.11500001 980068.29971689 20463.82706169
0.11600001 970599.07173058 18737.41596213
0.11700001 961139.15722220 23817.02943763
0.11800001 951685.97240509 30577.67173353
0.11900001 942245.22410403 23744.58076583
0.12000001 932815.70066231 16930.60576454
0.12100001 923401.77646280 16898.25330531
0.12200001 914001.45177412 16863.32757969
0.12300001 904618.15568369 16825.89848846
0.12400001 895252.28860606 21821.77556296
0.12500001 885905.79955921 23441.06856089
0.12600001 876581.23630389 16698.87333850
0.12700001 867278.06955320 18316.91369217
0.12800001 857997.10068411 18262.46914876
0.12900001 848741.66410128 19860.55587604
0.13000001 839512.07037170 18146.05425640
0.13100001 830308.36605089 16440.10642276
0.13200001 821134.37462199 22934.28416432
0.13300001 811990.20239997 19585.20460519
0.13400001 802875.72903678 16258.23427950
0.13500001 793794.01711816 17812.73858397
0.13600001 784744.62801195 17739.15315262
0.13700001 775730.08307074 24086.42021510
0.13800001 766749.31705220 22381.41362017
0.13900001 757807.64414463 27053.73417177
0.14000001 748901.82938678 20591.05677008
0.14100001 740035.21707278 20491.57612719
0.14200001 731207.16185857 17252.83379779
0.14300001 722422.53302312 17164.76019425
0.14400001 713674.89298612 21731.40151649
0.14500001 704974.08701607 18526.71988073
0.14600001 696314.44417941 26101.34817138
0.14700001 687701.63504621 22900.46552740
0.14800001 679132.44087198 16696.47184655
0.14900001 670609.15064629 25650.80122245
0.15000001 662133.87385381 17996.79954049
0.15100001 653705.97561818 14904.49694736
0.15200001 645328.40919330 19253.37399679
0.15300001 637000.13296283 20600.58527214
0.15400001 628720.55601926 16079.52897900
0.15500001 620493.76233856 15971.51019634
0.15600001 612317.25979361 20188.10100817
0.15700001 604196.90792680 17183.36087244
0.15800001 596125.02993512 19904.61568901
0.15900001 588110.62082277 14114.65556597
0.16000001 580148.15308953 19614.80998182
0.16100001 572244.66310732 16686.65516389
0.16200001 564394.42809092 17939.27774371
0.16300001 556601.99792842 16430.89175451
0.16400001 548866.17739514 14942.88238503
0.16500001 541188.49617403 25603.62896277
0.16600001 533568.37175739 17375.65484664
0.16700001 526006.91911962 14580.91248643
0.16800001 518503.10111712 22344.89219769
0.16900001 511061.74235436 14335.28254992
0.17000001 503678.95054853 12919.36569162
0.17100001 496356.84694870 15367.20870719
0.17200001 489096.07948032 15230.45263424
0.17300001 481896.35414137 18866.24315558
0.17400001 474759.07561228 17447.39685272
0.17500001 467683.22823344 13581.52158932
0.17600001 460667.96940177 15899.95571484
0.17700001 453717.75197202 21805.67618967
0.17800001 446829.61337079 15596.58839137
0.17900001 440004.39268624 13068.13108004
0.18000001 433243.62967189 11762.56510120
0.18100001 426547.26852707 19796.05966744
0.18200001 419912.26697501 13831.91072755
0.18300001 413343.78503189 13689.94680696
0.18400001 406838.25686992 19192.59567451
0.18500001 400398.16560646 17873.77495707
0.18600001 394022.31246351 15473.25694145
0.18700001 387710.78557499 10933.44466976
0.18800001 381463.69891606 15140.29492530
0.18900001 375283.77631576 13904.26456944
0.19000001 369164.66298637 12691.88171315
0.19100001 363115.64969307 11503.50432582
0.19200001 357128.56842779 13440.53430786
0.19300001 351208.58248972 10220.17023338
0.19400001 345352.55911041 12121.87539758
0.19500001 339562.12119239 9983.12683481
0.19600001 333836.25226390 14797.29258086
0.19700001 328176.01590224 13645.55938607
0.19800001 322580.92785833 10591.94526679
0.19900001 317051.53260021 13316.16499853
0.20000001 311584.97323398 12212.57360309
0.20100001 306185.27549182 12988.38000022
0.20200001 300849.02832581 10993.02401459
0.20300001 295578.21055660 9949.16303758
0.20400001 290372.12445212 10714.73189872
0.20500001 285229.28593131 9694.94388706
0.20600001 280151.17369276 11308.30266063
0.20700001 275136.97308517 12017.98355244
0.20800001 270186.33139094 10164.41026740
0.20900001 265301.45218949 10028.39536682
0.21000001 260477.84738579 12366.18638922
0.21100001 255717.66346703 8131.82208267
0.21200001 251020.35730030 11228.14111285
0.21300001 246385.61835201 8699.87659530
0.21400001 241814.37558435 7798.51398128
0.21500001 237305.93053512 7688.71251284
0.21600001 232857.49826523 9853.36550495
0.21700001 228471.80646743 11206.54263707
0.21800001 224147.45049351 8099.56850654
0.21900001 219883.27907781 10158.60797371
0.22000001 215679.45953412 7864.75186378
0.22100001 211538.66377255 10566.35675505
0.22200001 207456.50714242 9715.18868886
0.22300001 203434.24203012 8886.00811205
0.22400001 199469.26285274 11444.54949735
0.22500001 195566.97694952 9944.58124814
0.22600001 191721.35411074 7833.73489941
0.22700001 187935.08702829 8355.59436441
0.22800001 184206.13639025 9491.22162635
0.22900001 180534.07832284 7474.11119602
0.23000001 176919.78090460 7969.35190773
0.23100001 173363.78787542 6636.36611372
0.23200001 169861.99320414 7124.01233190
0.23300001 166417.49410034 7593.63061494
0.23400001 163028.36949496 8045.45041509
0.23500001 159693.22503360 6783.76852027
0.23600001 156413.71016915 8896.81225521
0.23700001 153188.24249830 7109.46667061
0.23800001 150016.60770313 6991.52433269
0.23900001 146898.65802191 7932.52790839
0.24000001 143833.11588671 7279.39433934
0.24100001 140821.40668881 5111.81730460
0.24200001 137861.01269896 9045.06147103
0.24300001 134952.22672776 6421.02725144
0.24400001 132094.18485040 5825.35382746
0.24500001 129287.05437598 7156.03879822
0.24600001 126530.22182273 5156.73943433
0.24700001 123823.92815769 4606.25034537
0.24800001 121165.82618238 5883.20696860
0.24900001 118556.50132997 5779.62971326
0.25000001 115995.96032225 4803.97292401
0.25100001 113482.67550849 5576.53893831
0.25200001 111017.63111814 4634.43123028
0.25300001 108599.65492993 4965.17645830
0.25400001 106227.27107245 4875.83197291
0.25500001 103900.83637373 4388.77153607
0.25600001 101620.41879127 5092.70752867
0.25700001 99384.64883895  5384.66052886
0.25800001 97192.94156507  4153.54055430
0.25900001 95045.78904165  5560.17892201
0.26000001 92942.44088077  4366.43607918
0.26100001 90879.82490703  4643.05047419
0.26200001 88862.52454184  4557.31478677
0.26300001 86885.76274089  3440.67636734
0.26400001 84950.00804897  4052.11557567
0.26500001 83056.33526306  3645.34272719
0.26600001 81202.44515240  3902.58969869
0.26700001 79389.20655111  5744.60325787
0.26800001 77615.62270902  3444.96957696
0.26900001 75880.37793392  3687.78654210
0.27000001 74184.05943655  3618.69859056
0.27100001 72525.80056784  3254.95808352
0.27200001 70905.61637886  4936.09471781
0.27300001 69321.87580118  3134.04215329
0.27400001 67773.61458016  2795.66173374
0.27500001 66263.79747131  3291.98561417
0.27600001 64787.51170194  3230.30548634
0.27700001 63347.96175214  3434.09316911
0.27800001 61942.22012898  2851.51023859
0.27900001 60570.97603396  3561.57355936
0.28000001 59233.22849070  3745.02104857
0.28100001 57928.55568390  3675.56703210
0.28200001 56657.15760012  3607.64468094
0.28300001 55417.95073686  2832.96577575
0.28400001 54210.64457637  2317.50516533
0.28500001 53035.02895558  2275.20284988
0.28600001 51889.33162532  2680.60299864
0.28700001 50774.79936405  2632.16572362
0.28800001 49689.51496121  2584.84869063
0.28900001 48635.54170050  3385.03386258
0.29000001 47608.88460050  2078.12791118
0.29100001 46612.10775835  3674.89874962
0.29200001 45643.02584486  2607.81440509
0.29300001 44701.66741495  2562.74671421
0.29400001 43787.33828686  2325.10777309
0.29500001 42901.02638602  2666.72792639
0.29600001 42040.10352452  2247.46404081
0.29700001 41204.88332754  2026.04420912
0.29800001 40395.80979077  2355.27780135
0.29900001 39612.02810189  2495.55788856
0.30000001 38852.64596292  2105.03645792
0.30100001 38118.53306942  1726.76962979
0.30200001 37407.04048962  1700.15007074
0.30300001 36719.46609536  1841.84850654
0.30400001 36055.73182827  2309.36973293
0.30500001 35413.41025080  2113.11828971
0.30600001 34793.91662023  1762.48592984
0.30700001 34196.52925654  1579.87972645
0.30800001 33620.36189599  1558.30384765
0.30900001 33065.31657061  1691.29102266
0.31000001 32531.64569344  1972.88174648
0.31100001 32016.80649951  1648.22527663
0.31200001 31522.81538807  1775.99550305
0.31300001 31048.09231825  1754.83826091
0.31400001 30593.81745480  1734.66953182
0.31500001 30157.10105171  1429.44665753
0.31600002 29739.30744526  1838.33537677
0.31700002 29338.96627269  1819.30938471
0.31800002 28956.75812386  1385.58094183
0.31900002 28592.33756032  2195.89162861
0.32000002 28244.51753325  1903.96301707
0.32100002 27913.67612519  1617.87674482
0.32200002 27599.26184598  1738.33958968
0.32300002 27300.25215832  1459.47154949
0.32400002 27017.15930359  1712.21255194
0.32500002 26748.98457917  1308.02540786
0.32600002 26496.31642468  1429.60882039
0.32700002 26258.12271670  1550.27963860
0.32800002 26035.02330478  1284.82846093
0.32900002 25824.62575509  1406.15093895
0.33000002 25629.62983757  1654.26453620
0.33100002 25445.62105032  2154.22638013
0.33200002 25277.18332183  1515.11444006
0.33300002 25120.01174949  1384.36391307
0.33400002 24976.24313557  1255.05627700
0.33500002 24844.17419680  1377.36108270
0.33600002 24723.90379022  1999.66943325
0.33700002 24614.56599948  1622.34612185
0.33800002 24517.95927852  2119.45509020
0.33900002 24431.13369467  1619.78424067
0.34000002 24355.65819828  1245.79197584
0.34100002 24290.52695549  1495.32491020
0.34200002 24236.65711453  1745.76649464
0.34300002 24191.09285410  1373.08649543
0.34400002 24156.20528847  1375.09205117
0.34500002 24130.19606046  1753.30012879
0.34600002 24114.63884332  1506.20041349
0.34700002 24105.80360290  1509.98760920
0.34800002 24107.34380961  1514.42340984
0.34900002 24116.65829269  1266.12462033
0.35000002 24134.34764999  1778.94284954
0.35100002 24160.01198697  1403.21356266
0.35200002 24192.38269975  1409.08539709
0.35300002 24232.81550872  2187.49635958
0.35400002 24280.85455692  1810.13779295
0.35500002 24335.31217550  1429.45630489
0.35600002 24396.45885715  1567.71652041
0.35700002 24464.13434269  1839.21370700
0.35800002 24538.72980849  1585.69279533
0.35900002 24618.86542591  1462.36067556
0.36000002 24705.54482217  1872.92744168
0.36100002 24797.27987689  1615.79083331
0.36200002 24895.40916697  1762.22162135
0.36300002 24997.12997576  1910.78070586
0.36400002 25104.72859506  1374.48395569
0.36500002 25216.75806031  1799.72010801
0.36600002 25334.09106428  1673.57013498
0.36700002 25455.39006617  1967.19263750
0.36800002 25582.40541655  1699.18344826
0.36900002 25712.38322849  1569.74107046
0.37000002 25845.52055642  2013.62460193
0.37100002 25982.87940821  1594.82921362
0.37200002 26124.27354955  1900.14912664
0.37300002 26268.40372145  2063.12052601
0.37400002 26416.88283904  1931.73464911
0.37500002 26567.07769324  1947.89822874
0.37600002 26721.38174978  1662.20363049
0.37700002 26877.13763889  2438.29404211
0.37800002 27036.43379218  2766.63840102
0.37900002 27197.84794267  1860.33288741
0.38000002 27361.62032513  1876.46001079
0.38100002 27527.01403145  1577.29797872
0.38200002 27694.70285865  2068.37898098
0.38300002 27863.97878615  1765.46177953
0.38400002 28035.44070519  2104.76081065
0.38500002 28207.42485707  2123.17296958
0.38600002 28381.85494355  1977.08010903
0.38700002 28556.62428894  2160.59429606
0.38800002 28732.35872232  2179.49317414
0.38900002 28909.17040362  1860.30520361
0.39000002 29087.79875122  2729.59916413
0.39100002 29266.04463280  2237.09655772
0.39200002 29445.61953784  1909.40128939
0.39300002 29624.97280354  1750.83597564
0.39400002 29805.78942932  1942.59241809
0.39500002 29985.70665142  1959.26616543
0.39600002 30165.95922771  2335.29784425
0.39700002 30345.78084460  1992.80752248
0.39800002 30526.80810096  2009.73250654
0.39900002 30706.41809696  2210.86220773
0.40000002 30885.71384322  1857.77577569
0.40100002 31064.61245432  2060.51584172
0.40200002 31244.02210120  2266.44147060
0.40300002 31421.67396826  2094.56888596
0.40400002 31598.82367497  2111.59149213
0.40500002 31775.04401814  2709.14038135
0.40600002 31950.77104006  2340.71359730
0.40700002 32125.18695497  3342.30460916
0.40800002 32298.72051099  1981.52659724
0.40900002 32470.44392554  2396.31887525
0.41000002 32641.83082568  2616.07965548
0.41100002 32811.32796520  2230.51418076
0.41200002 32978.78988924  3064.55419566
0.41300002 33145.46480032  2881.66684628
0.41400002 33310.09308287  2902.97474972
0.41500002 33473.84498524  3133.15203908
0.41600002 33634.49582210  3155.75672004
0.41700002 33794.18272139  3602.12210696
0.41800002 33952.91193721  2347.33467801
0.41900002 34107.65654033  2793.41720302
0.42000002 34261.24934956  2379.95779884
0.42100002 34413.31065267  2614.03520104
0.42200002 34562.99682291  2850.92892803
0.42300002 34709.99755356  2428.31154391
0.42400002 34854.81093444  2666.39316283
0.42500002 34997.80554666  3578.17580865
0.42600002 35137.02644181  2925.68464531
0.42700002 35275.17313521  2264.66622259
0.42800002 35410.34934029  2962.25291443
0.42900002 35543.43498189  2980.31716446
0.43000002 35674.07741320  2306.32921405
0.43100002 35800.69853415  2551.87391244
0.43200002 35925.54935761  3266.71035789
0.43300002 36047.37019487  3050.68908416
0.43400002 36166.91627744  3303.84795851
0.43500002 36283.11929487  2610.20772577
0.43600002 36397.47874685  2624.44032941
0.43700002 36507.99486067  2878.29045121
0.43800002 36614.95492127  3375.53285416
0.43900002 36720.09408977  3150.58422221
0.44000002 36821.53270044  2679.31895392
0.44100002 36920.67521940  3916.54541288
0.44200002 37016.47290787  3197.66816368
0.44300002 37109.41092385  2471.48688465
0.44400002 37198.90035943  2979.63206000
0.44500002 37284.25824675  3242.61209339
0.44600002 37367.62904014  3006.59957506
0.44700002 37447.79048052  3523.08829537
0.44800002 37523.74432505  2527.22430006
0.44900002 37598.01536646  3045.43938901
0.45000002 37668.71280586  2548.28854208
0.45100002 37734.89860662  3070.11149613
0.45200002 37798.83395122  4109.48942194
0.45300002 37858.75389386  2835.99938859
0.45400002 37916.12370507  3105.33067862
0.45500002 37970.07338034  3116.58377076
0.45600002 38020.55676554  4430.72579266
0.45700002 38067.53634260  2615.23987068
0.45800002 38110.67237296  3148.70390068
0.45900002 38150.74436003  3158.88178272
0.46000002 38188.18793159  3696.99864887
0.46100002 38221.12556393  2913.59653983
0.46200002 38251.34572309  3187.86730365
0.46300002 38278.14512443  3196.99083231
0.46400002 38300.83610050  3472.92847801
0.46500002 38321.36705538  2678.66368413
0.46600002 38337.53006044  2685.54410802
0.46700002 38350.22108613  2961.40421263
0.46800002 38360.41305704  2968.52070512
0.46900002 38366.46870492  3245.80340628
0.47000002 38368.76045979  4066.12958245
0.47100002 38368.27237762  5161.30024487
0.47200002 38364.15941740  2721.93723968
0.47300002 38357.39548891  3272.65313823
0.47400002 38345.67955011  2732.12979744
0.47500002 38331.90178575  3010.58770895
0.47600002 38315.10257353  3563.87943480
0.47700002 38293.64580964  3020.21998816
