# SAXS profile: number of points = 501, q_min = 0, q_max = 0.5, delta_q = 0.001
#    q    intensity    error
0.00000000 1700912.83420644 280.65061764
0.00100000 1700842.48306812 663.32858415
0.00200000 1700631.38071922 841.81256011
0.00300000 1700279.68821349 1530.25177390
0.00400000 1699787.28881552 1912.26077258
0.00500000 1699154.65020520 2293.85886857
0.00600000 1698381.46694370 1961.63067418
0.00700000 1697468.44732694 2648.05088788
0.00800000 1696414.97823468 2519.17634904
0.00900000 1695222.57702537 3305.68416651
0.01000000 1693890.23626961 3633.39471369
0.01100000 1692419.28518829 3350.99033057
0.01200000 1690809.21551388 4615.90936073
0.01300000 1689061.36334859 3901.73192142
0.01400000 1687175.01765072 4175.75835380
0.01500000 1685152.04021657 5662.11110726
0.01600000 1682991.22974780 5149.95339325
0.01700000 1680694.64802409 4991.66332855
0.01800000 1678261.96481730 5739.65617795
0.01900000 1675693.90907553 6535.20654028
0.02000000 1672991.16952488 5796.91466463
0.02100000 1670155.35894070 6613.81552127
0.02200000 1667184.70816343 7477.32375583
0.02300000 1664082.16184908 5990.69605534
0.02400000 1660847.41362676 7473.81370211
0.02500000 1657482.06620338 8403.43445944
0.02600000 1653986.32052566 8708.23837587
0.02700000 1650361.04897568 6931.51672317
0.02800000 1646606.33221427 10744.10681042
0.02900000 1642724.66661809 9609.93974095
0.03000000 1638716.38483902 11430.04730964
0.03100000 1634581.76596751 9415.19140520
0.03200000 1630321.94080710 11298.13157016
0.03300000 1625939.58787670 10779.97996458
0.03400000 1621432.87787475 11066.27990210
0.03500000 1616805.05614881 10476.89724765
0.03600000 1612055.99105680 14315.05786214
0.03700000 1607187.50524968 10077.06612395
0.03800000 1602200.62587912 13122.02373323
0.03900000 1597097.30229248 10540.84268328
0.04000000 1591876.09463974 11748.04612283
0.04100000 1586540.94936443 10994.72928888
0.04200000 1581092.29022812 11217.85031960
0.04300000 1575529.95702216 12478.19783883
0.04400000 1569858.28678662 11656.19832073
0.04500000 1564076.52777572 14029.76710604
0.04600000 1558185.03304933 14280.76649177
0.04700000 1552187.08842480 12293.32231206
0.04800000 1546082.92186254 13636.45200531
0.04900000 1539875.38575141 19633.41208222
0.05000000 1533563.91773974 11731.76451701
0.05100000 1527151.91165391 11911.78546580
0.05200000 1520637.77819948 14506.88508006
0.05300000 1514026.88044965 15942.70379435
0.05400000 1507317.74331849 12435.37196229
0.05500000 1500514.07516442 17646.04634711
0.05600000 1493614.53696756 17878.56684179
0.05700000 1486624.37563489 14226.99593892
0.05800000 1479541.88888472 17022.13022642
0.05900000 1472369.38546077 13251.32508806
0.06000000 1465109.54840735 13405.75299423
0.06100000 1457764.06088136 16268.64767969
0.06200000 1450333.47596584 16446.78238623
0.06300000 1442820.86657456 19391.51335342
0.06400000 1435224.35798184 16792.12577370
0.06500000 1427550.01059505 15546.02034259
0.06600000 1419796.12045038 14268.95167815
0.06700000 1411965.83819631 14402.05222360
0.06800000 1404061.76104676 17438.44788848
0.06900000 1396085.14491370 16124.78417870
0.07000000 1388035.05709221 17739.08886033
0.07100000 1379916.75467331 16393.41181335
0.07200000 1371728.69053206 27036.77375697
0.07300000 1363476.56398358 15134.59056936
0.07400000 1355158.88366233 19819.19960237
0.07500000 1346778.62665008 16888.60476980
0.07600000 1338335.94489918 20095.11515473
0.07700000 1329836.12528462 20226.80841398
0.07800000 1321277.30716014 20354.27787134
0.07900000 1312661.71347931 15751.94130058
0.08000000 1303993.98855801 20596.58601548
0.08100000 1295273.35852802 17525.04936313
0.08200000 1286501.40369735 16016.94322763
0.08300000 1277681.05568214 19318.53846857
0.08400000 1268812.64654633 19412.83440337
0.08500000 1259900.79349839 17877.99309903
0.08600000 1250944.31643290 17957.30650552
0.08700000 1241946.94002944 16393.70037820
0.08800000 1232907.34541178 18105.24521766
0.08900000 1223831.73123475 23130.42080677
0.09000000 1214718.34913496 19897.08749351
0.09100000 1205570.58597139 24955.31230204
0.09200000 1196389.40310682 20027.55954904
0.09300000 1187178.23176899 23434.89939638
0.09400000 1177934.94312798 18464.13110130
0.09500000 1168664.42736965 18511.64539963
0.09600000 1159367.64056440 21929.43995213
0.09700000 1150047.77454490 25358.55462089
0.09800000 1140705.46505264 20327.37234298
0.09900000 1131342.34122821 16970.13591640
0.10000000 1121958.95772040 30595.82221587
0.10100000 1112557.20313374 17022.12600853
0.10200000 1103139.95816541 20452.21578638
0.10300000 1093708.27617526 22180.40488422
0.10400000 1084264.77431923 23908.03939849
0.10500000 1074811.83032160 34179.01781233
0.10600001 1065346.13343064 20518.56749535
0.10700001 1055875.39192495 20526.21858494
0.10800001 1046396.66050916 20530.30344538
0.10900001 1036914.70508780 23952.73081488
0.11000001 1027429.33525652 23949.37893212
0.11100001 1017942.80759669 18811.58396991
0.11200001 1008457.23251259 17093.35089579
0.11300001 998971.83982020 18790.66119170
0.11400001 989491.02347344 20482.46515031
0.11500001 980015.58564507 25578.40798977
0.11600001 970545.78750858 17033.07937289
0.11700001 961085.28725086 18712.33142403
0.11800001 951631.54504806 18685.28626706
0.11900001 942190.25382844 20351.31044127
0.12000001 932760.22374691 20315.51863017
0.12100001 923345.68419182 25345.84022506
0.12200001 913944.90405553 20234.74112907
0.12300001 904561.13082911 16824.83782611
0.12400001 895194.70701397 25177.35232106
0.12500001 885847.69066325 21765.27878519
0.12600001 876522.58835320 18367.53170448
0.12700001 867218.95769529 26640.96763589
0.12800001 857937.47481753 16601.09092012
0.12900001 848681.64341831 24823.93923999
0.13000001 839451.48124663 26392.35581439
0.13100001 830247.38909542 18082.78898688
0.13200001 821072.92154191 18018.44611263
0.13300001 811928.37534932 22847.66555944
0.13400001 802813.41345961 17882.66962790
0.13500001 793731.26726617 16192.11861566
0.13600001 784681.44258241 35475.44969184
0.13700001 775666.42602105 20873.18450847
0.13800001 766685.30405653 17583.92827772
0.13900001 757743.21454541 15912.60825586
0.14000001 748837.10337399 20589.27712827
0.14100001 739970.11459949 18913.63702119
0.14200001 731141.64890293 15682.98910866
0.14300001 722356.72575311 18723.48721466
0.14400001 713608.69494271 18625.18781655
0.14500001 704907.58935725 15437.47693514
0.14600001 696247.61972126 24563.61718254
0.14700001 687634.56207695 18318.58559794
0.14800001 679065.05666599 21247.94662553
0.14900001 670541.39083441 21122.05480784
0.15000001 662065.90291480 16495.37274942
0.15100001 653637.65026254 16393.23304210
0.15200001 645259.87852638 16289.58640206
0.15300001 636931.32585939 20598.36005031
0.15400001 628651.51599275 19000.99296756
0.15500001 620424.53385990 17421.52173296
0.15600001 612247.80035913 18743.96729261
0.15700001 604127.22075501 21476.72371147
0.15800001 596055.14219773 22745.46529982
0.15900001 588040.55182892 14112.97391003
0.16000001 580077.95298415 15409.77154840
0.16100001 572174.32461320 13903.83674442
0.16200001 564323.94736100 16557.26539717
0.16300001 556531.36855517 24643.21016298
0.16400001 548795.47011458 19015.76393720
0.16500001 541117.77662388 13473.83327405
0.16600001 533497.53022676 13364.11376314
0.16700001 525935.97899004 15904.30475558
0.16800001 518432.07363072 14456.47905578
0.16900001 510990.62453785 19545.39231147
0.17000001 503607.78712959 14209.29438482
0.17100001 496285.68354178 14084.58836401
0.17200001 489024.86109543 16497.25446810
0.17300001 481825.13809260 18863.45504714
0.17400001 474687.89915831 13706.61373551
0.17500001 467612.08579757 14813.95157769
0.17600001 460596.87816530 19566.15630855
0.17700001 453646.69967924 15746.07768956
0.17800001 446758.53554810 13195.01397064
0.17900001 439933.42198928 15441.66384119
0.18000001 433172.76364134 18817.02574140
0.18100001 426476.51453156 13971.37127601
0.18200001 419841.60937584 12677.11799394
0.18300001 413273.26866578 12546.97702940
0.18400001 406767.83861175 15802.93127661
0.18500001 400327.93372784 13402.97985439
0.18600001 393952.27115971 14365.47024651
0.18700001 387640.83185233 10931.47197469
0.18800001 381394.01078089 10812.52071649
0.18900001 375214.28992147 12832.32932161
0.19000001 369095.36039380 13746.95734739
0.19100001 363046.64358352 13592.46697801
0.19200001 357059.79186515 12404.25775551
0.19300001 351140.00886507 11239.99221489
0.19400001 345284.24261626 12119.47748852
0.19500001 339494.11373357 16967.91660622
0.19600001 333768.46356647 16766.85955960
0.19700001 328108.55715593 11693.78952966
0.19800001 322513.81386124 10589.74157859
0.19900001 316984.76281606 13313.36066746
0.20000001 311518.47317379 15027.65185613
0.20100001 306119.17292644 10202.95251585
0.20200001 300783.29065408 9158.85163330
0.20300001 295512.89389775 14468.31196907
0.20400001 290307.09412105 10712.33227939
0.20500001 285164.74451392 12336.22743077
0.20600001 280087.00451282 9566.37209132
0.20700001 275073.26633233 9440.51494677
0.20800001 270123.04812163 11855.70114248
0.20900001 265238.64013257 9190.51931504
0.21000001 260415.46148771 14835.86954228
0.21100001 255655.76308691 8942.83901554
0.21200001 250958.92700015 9621.76571605
0.21300001 246324.70053219 8697.72558698
0.21400001 241753.94114427 10135.53446165
0.21500001 237246.02991386 9224.12607914
0.21600001 232798.13441003 8335.33759663
0.21700001 228412.99382106 8962.92630130
0.21800001 224089.15382075 8833.59486127
0.21900001 219825.53405184 8705.09156004
0.22000001 215622.27254825 9292.24227483
0.22100001 211482.04352260 8450.82285875
0.22200001 207400.54211330 11793.83238494
0.22300001 203378.87173892 6833.53041355
0.22400001 199414.55367848 8749.31395637
0.22500001 195512.83724951 7290.67404579
0.22600001 191667.86515295 9136.80756390
0.22700001 187882.25260687 6425.57334301
0.22800001 184153.91815673 9488.53108174
0.22900001 180482.61532205 7471.98062769
0.23000001 176868.88992273 6128.50732565
0.23100001 173313.62962612 9046.97189434
0.23200001 169812.47298260 6528.44083257
0.23300001 166368.68806793 6423.49535010
0.23400001 162980.27808103 6894.06608888
0.23500001 159645.83291258 6216.60902764
0.23600001 156367.04673512 7226.50340666
0.23700001 153142.34344719 6560.61830358
0.23800001 149971.40795043 5914.12275226
0.23900001 146854.22795076 6872.77819317
0.24000001 143789.43308626 6237.58590232
0.24100001 140778.47559579 6132.31068702
0.24200001 137818.89350913 5525.84879663
0.24300001 134910.88638414 5431.51254275
0.24400001 132053.61066893 5823.56450598
0.24500001 129247.28537271 5723.07006703
0.24600001 126491.20913707 5155.14947225
0.24700001 123785.76860274 5525.79697183
0.24800001 121128.45746008 4524.14810016
0.24900001 118519.99663217 5777.85010915
0.25000001 115960.28716592 5675.67652384
0.25100001 113447.80675356 5574.82548761
0.25200001 110983.59277061 5896.55856287
0.25300001 108566.48010165 6204.57463135
0.25400001 106194.88810561 4874.34559466
0.25500001 103869.33707945 5185.15755233
0.25600001 101589.77779960 3916.28611946
0.25700001 99354.87571808  4229.53725943
0.25800001 97164.02969839  4152.30500562
0.25900001 95017.75735075  4076.26198321
0.26000001 92915.25966026  5092.68562294
0.26100001 90853.52870744  4284.65261658
0.26200001 88837.13855731  3504.62528191
0.26300001 86861.24643451  3439.70552157
0.26400001 84926.38579153  5063.73599243
0.26500001 83033.62131792  4969.56247103
0.26600001 81180.58562875  3576.41086911
0.26700001 79368.22942527  3190.60297388
0.26800001 77595.54746491  4070.27463488
0.26900001 75861.24122086  3994.09453929
0.27000001 74165.83067531  4522.26173943
0.27100001 72508.48582576  3254.18099786
0.27200001 70889.18561349  3193.20351707
0.27300001 69306.37366142  2848.49209229
0.27400001 67759.03761732  3633.57856419
0.27500001 66250.12776493  2742.75541927
0.27600001 64774.78922940  3229.67114383
0.27700001 63336.13122669  2905.22847686
0.27800001 61931.27771585  3628.55373310
0.27900001 60560.94590873  2797.91583340
0.28000001 59224.09056216  2995.55464241
0.28100001 57920.38906419  3920.05211740
0.28200001 56649.89077572  3126.22437042
0.28300001 55411.58902350  2596.58718454
0.28400001 54205.20188631  2780.72698838
0.28500001 53030.48162141  2502.50854616
0.28600001 51885.68151979  2903.78230370
0.28700001 50772.07541099  3290.03064236
0.28800001 49687.67237400  2584.75283924
0.28900001 48634.61337423  2538.72693830
0.29000001 47608.83441763  2493.75086484
0.29100001 46613.00905573  2041.64989328
0.29200001 45644.79859989  2006.08899342
0.29300001 44704.35819307  2168.60851860
0.29400001 43790.89900205  2519.07158434
0.29500001 42905.48857768  2667.00529624
0.29600001 42045.43700296  1873.12430715
0.29700001 41211.13350448  2578.99285680
0.29800001 40402.91001431  2355.69177990
0.29900001 39620.04372221  1961.19225709
0.30000001 38861.49232408  2456.43504609
0.30100001 38128.24065130  1899.93032160
0.30200001 37417.62088741  1870.69404483
0.30300001 36730.88123675  1674.92826369
0.30400001 36068.01146990  1815.12276315
0.30500001 35426.54694740  1951.29429824
0.30600001 34807.90853188  1923.48511653
0.30700001 34211.35981932  2054.73436803
0.30800001 33635.96192333  2026.73498164
0.30900001 33081.79044638  1538.30332859
0.31000001 32548.97891167  1822.09192574
0.31100001 32034.89236528  2248.84955052
0.31200001 31541.69162504  1628.97074110
0.31300001 31067.79815330  1609.62269853
0.31400001 30614.26152981  1880.48110350
0.31500001 30178.42121553  1716.54868001
0.31600002 29761.35935823  1415.15270449
0.31700002 29361.82329386  1820.72674866
0.31800002 28980.36399786  1386.71048296
0.31900002 28616.65390286  1510.95939761
0.32000002 28269.59786153  1633.41744178
0.32100002 27939.48607203  1754.32041353
0.32200002 27625.82206361  1606.16537083
0.32300002 27327.55033674  1726.55471203
0.32400002 27045.12022247  1450.29464060
0.32500002 26777.65624914  1571.31294310
0.32600002 26525.67817395  1301.08457604
0.32700002 26288.16012038  1422.71529308
0.32800002 26065.79129806  1286.34686147
0.32900002 25856.03065948  1663.83565173
0.33000002 25661.71610391  1783.74597085
0.33100002 25478.32550396  1522.58480422
0.33200002 25310.52861637  1390.68706068
0.33300002 25153.98015582  2016.34314477
0.33400002 25010.84981224  2262.23147265
0.33500002 24879.40559421  1504.70652159
0.33600002 24759.70910781  1251.60335467
0.33700002 24650.95812325  1624.74472685
0.33800002 24554.91265708  1248.61736774
0.33900002 24468.65060310  1622.27161181
0.34000002 24393.72205885  1372.51283664
0.34100002 24329.19227873  1872.13143451
0.34200002 24275.84310868  1373.89140580
0.34300002 24230.78414769  1625.40107760
0.34400002 24196.43071269  1627.81495329
0.34500002 24170.88812428  1881.70372959
0.34600002 24155.83527128  1383.04241396
0.34700002 24147.44717290  1638.64584276
0.34800002 24149.49341917  1517.07124844
0.34900002 24159.25981424  1522.03344038
0.35000002 24177.35094495  1272.93758754
0.35100002 24203.47300978  1277.94343544
0.35200002 24236.25841338  1411.64093815
0.35300002 24277.06410777  1289.11216518
0.35400002 24325.52102804  1554.40086731
0.35500002 24380.35709064  1432.10224333
0.35600002 24441.83333444  1570.63228446
0.35700002 24509.92609351  1447.80140292
0.35800002 24584.84195198  1456.28318200
0.35900002 24665.26080711  1598.30897601
0.36000002 24752.26728499  2412.60360654
0.36100002 24844.31710880  1483.95113120
0.36200002 24942.71742124  2037.19654188
0.36300002 25044.73688289  2734.88539715
0.36400002 25152.56747254  1652.52376122
0.36500002 25264.87192664  1941.85814826
0.36600002 25382.43910840  1816.49434084
0.36700002 25503.95518666  2534.07310738
0.36800002 25631.17720132  2411.76573300
0.36900002 25761.40165052  1572.73364526
0.37000002 25894.66087397  1585.14174049
0.37100002 26032.21443807  1743.11716134
0.37200002 26173.75232185  2196.63226767
0.37300002 26318.01018231  1771.72852940
0.37400002 26466.63433049  2084.24755226
0.37500002 26616.98939357  2552.03706395
0.37600002 26771.36907907  1968.09729108
0.37700002 26927.26286023  1679.45346415
0.37800002 27086.57115335  2309.80746452
0.37900002 27248.04517505  2640.33570254
0.38000002 27411.89395291  1879.90777635
0.38100002 27577.36261222  1738.20124779
0.38200002 27745.04147002  2072.13852035
0.38300002 27914.34189077  1607.86616908
0.38400002 28085.77518774  1621.95359393
0.38500002 28257.74417828  1963.34815852
0.38600002 28432.10054895  2145.62856957
0.38700002 28606.88203915  2164.39679762
0.38800002 28782.54987163  2015.35423749
0.38900002 28959.30201434  1694.11924810
0.39000002 29137.81500226  2050.71951701
0.39100002 29315.97928365  1723.77966354
0.39200002 29495.44225646  2260.38332441
0.39300002 29674.62304096  2455.27842673
0.39400002 29855.33048866  2476.49978136
0.39500002 30035.09694794  2497.71878053
0.39600002 30215.18397106  1979.24571980
0.39700002 30394.83870661  2177.48634811
0.39800002 30575.67710252  2012.94979741
0.39900002 30755.08975213  2398.89711432
0.40000002 30934.18300925  1860.69119616
0.40100002 31112.81864019  2438.93396876
0.40200002 31292.02142215  2080.76306305
0.40300002 31469.41474446  2479.16061103
0.40400002 31646.29159988  2691.51722809
0.40500002 31822.22785283  3875.94753612
0.40600002 31997.68721255  2148.80478657
0.40700002 32171.77629109  2362.69536276
0.40800002 32345.01889392  1984.36700316
0.40900002 32516.35847888  2199.73175532
0.41000002 32687.42105615  2619.73348467
0.41100002 32856.58125371  2233.59049946
0.41200002 33023.64895693  2045.81514982
0.41300002 33189.98602398  2473.31787570
0.41400002 33354.20915443  2699.18950372
0.41500002 33517.58150369  2091.49718493
0.41600002 33677.81179722  2527.85667328
0.41700002 33837.08594439  2333.74392817
0.41800002 33995.35787897  2136.60834393
0.41900002 34149.66608126  2366.57197157
0.42000002 34302.79118965  2599.46563953
0.42100002 34454.40781141  2399.06052959
0.42200002 34603.61644888  2415.15952449
0.42300002 34750.08450971  3094.14767136
0.42400002 34894.42918467  2224.51996593
0.42500002 35036.90414463  2462.74410903
0.42600002 35175.60505714  2928.89689387
0.42700002 35313.21571829  2493.81941220
0.42800002 35447.87968308  2281.07116570
0.42900002 35580.42005651  3442.40580359
0.43000002 35710.45525745  3924.75777105
0.43100002 35836.51937519  3483.30984833
0.43200002 35960.79918297  2335.65401762
0.43300002 36082.04483154  2348.94122985
0.43400002 36201.02380659  2362.11691532
0.43500002 36316.56668063  2612.61393081
0.43600002 36430.32440262  2865.60945331
0.43700002 36540.20451575  2880.82986054
0.43800002 36646.52377138  2654.49107517
0.43900002 36751.05744707  2910.68388774
0.44000002 36851.80690790  2681.52185673
0.44100002 36950.32796466  2939.76823218
0.44200002 37045.46755270  3446.34000975
0.44300002 37137.69290359  2968.04455751
0.44400002 37226.54238526  3478.82055077
0.44500002 37311.18756703  2995.34227983
0.44600002 37393.83658046  2757.98254770
0.44700002 37473.32946587  3777.31178917
0.44800002 37548.55774084  2781.78503206
0.44900002 37622.12789220  3555.29125430
0.45000002 37692.11685702  3059.84619147
0.45100002 37757.57080074  3071.95610594
0.45200002 37820.76394590  2569.92103192
0.45300002 37879.91631519  2579.62242332
0.45400002 37936.53903526  3107.00269424
0.45500002 37989.75085711  3378.04880631
0.45600002 38039.50107529  4693.69426013
0.45700002 38085.69843439  2878.13636709
0.45800002 38128.06496925  3412.65261681
0.45900002 38167.37322922  4213.67820421
0.46000002 38204.00952572  3434.34959908
0.46100002 38236.18526735  4239.62842338
0.46200002 38265.62973666  2657.54811116
0.46300002 38291.64157330  2665.09837981
0.46400002 38313.54275400  3206.84368050
0.46500002 38333.28230240  2679.49655993
0.46600002 38348.59900449  3760.84728262
0.46700002 38360.51176919  3500.78046998
0.46800002 38369.90618912  3239.18763401
0.46900002 38375.15938817  3246.53863811
0.47000002 38376.63307324  2711.30925513
0.47100002 38375.32222233  3803.76211896
0.47200002 38370.39939111  2722.37996583
0.47300002 38362.85714458  3273.11912671
0.47400002 38350.25970910  3552.19297392
0.47500002 38335.65667652  2737.16601644
0.47600002 38318.06384295  4386.65215666
0.47700002 38295.78161959  3569.54997395
