# SAXS profile: number of points = 501, q_min = 0, q_max = 0.5, delta_q = 0.001
#    q    intensity    error
0.00000000 1719190.39626459 309.45427133
0.00100000 1719119.49958391 567.30944834
0.00200000 1718906.75604367 1005.56048413
0.00300000 1718552.33848093 1134.24458380
0.00400000 1718056.10828881 1675.10476923
0.00500000 1717418.55463510 1854.81211242
0.00600000 1716639.34553933 2162.96566344
0.00700000 1715719.23127903 3294.18106096
0.00800000 1714657.59827541 2314.78785540
0.00900000 1713455.93294039 3084.22081114
0.01000000 1712113.18389386 3107.48556295
0.01100000 1710630.80506894 3694.96269983
0.01200000 1709008.21963946 3999.07940929
0.01300000 1707246.76085417 3943.74019151
0.01400000 1705345.70901357 5755.54202307
0.01500000 1703306.98957284 4496.73065271
0.01600000 1701129.28971819 5639.24384751
0.01700000 1698814.85260015 5504.16036933
0.01800000 1696363.16269444 5318.09875435
0.01900000 1693775.02128288 5081.32529313
0.02000000 1691051.18112195 5326.81146150
0.02100000 1688193.23583134 5571.03793083
0.02200000 1685199.35403378 7558.11944622
0.02300000 1682072.45886692 7266.55335307
0.02400000 1678812.39577992 6295.54677124
0.02500000 1675420.73381446 6534.14116029
0.02600000 1671897.48812298 8125.42216392
0.02700000 1668243.89403775 9108.61207863
0.02800000 1664459.64975103 9412.51975100
0.02900000 1660547.37000059 8219.70985890
0.03000000 1656507.51972854 10783.86444912
0.03100000 1652340.39785453 11896.85141196
0.03200000 1648047.01913363 8973.61643249
0.03300000 1643630.05879956 10897.26779221
0.03400000 1639087.74157108 12907.81656044
0.03500000 1634423.37461121 8825.88663046
0.03600000 1629636.65596728 12662.27740204
0.03700000 1624729.72491974 12039.24781844
0.03800000 1619703.24696652 10422.79087659
0.03900000 1614559.44243029 13562.29994448
0.04000000 1609296.73046542 11876.61042118
0.04100000 1603919.14053165 12125.62926464
0.04200000 1598427.00393325 12371.82558441
0.04300000 1592820.46684689 15768.92335375
0.04400000 1587103.46376346 11784.24376573
0.04500000 1581275.41726354 12001.88097470
0.04600000 1575336.70241951 13327.34912202
0.04700000 1569290.68817500 14688.56152445
0.04800000 1563137.49148463 11489.06109698
0.04900000 1556880.03610512 16347.24114003
0.05000000 1550517.77223203 21350.63071785
0.05100000 1544054.11996133 13247.98496641
0.05200000 1537487.50878013 14667.63151729
0.05300000 1530822.90493330 18599.49916201
0.05400000 1524059.48676957 16345.53875786
0.05500000 1517200.61983393 15293.38296135
0.05600000 1510245.02520608 14203.85512487
0.05700000 1503197.89951497 14385.60456986
0.05800000 1496057.84597308 15888.13506609
0.05900000 1488826.57930485 16079.32780749
0.06000000 1481507.43029945 16266.95234466
0.06100000 1474101.80869048 13709.14746147
0.06200000 1466610.14918216 20789.19983642
0.06300000 1459035.60917053 19609.43950410
0.06400000 1451376.65052125 21226.38450656
0.06500000 1443638.95199090 14292.02629326
0.06600000 1435820.95830391 20202.00182856
0.06700000 1427925.66103203 17477.81090898
0.06800000 1419956.15625885 16166.20159573
0.06900000 1411913.24964003 16307.59879685
0.07000000 1403795.96501346 20930.59881850
0.07100000 1395609.78880979 21101.62099516
0.07200000 1387353.18409838 16710.66988531
0.07300000 1379031.87111415 21430.15628124
0.07400000 1370644.29626303 15419.74905559
0.07500000 1362193.60547933 21740.61096249
0.07600000 1353679.59140697 23452.50002059
0.07700000 1345107.74068799 18885.31356476
0.07800000 1336476.31340866 17420.96956226
0.07900000 1327787.63354672 17526.79758489
0.08000000 1319045.97533075 22436.97309292
0.08100000 1310251.33974142 19339.31068195
0.08200000 1301404.11437734 19442.97838116
0.08300000 1292508.14647371 19542.72409186
0.08400000 1283563.62418466 16365.43697653
0.08500000 1274574.86728773 23018.82318384
0.08600000 1265541.02295590 18166.84223749
0.08700000 1256465.60800808 16585.34680452
0.08800000 1247347.64700763 18317.30105656
0.08900000 1238193.07564024 20058.72876752
0.09000000 1229000.04532021 21808.60682868
0.09100000 1219772.41921752 18516.14619363
0.09200000 1210510.52283008 23641.27162170
0.09300000 1201218.38683871 20324.61606041
0.09400000 1191893.83483848 18682.93673914
0.09500000 1182541.26937847 22137.17360327
0.09600000 1173161.96582353 23897.31036718
0.09700000 1163759.23499741 23950.16618221
0.09800000 1154333.75515828 22284.41419109
0.09900000 1144886.85968732 17173.30370284
0.10000000 1135419.17413925 25802.40194573
0.10100000 1125932.79077614 24117.48151271
0.10200000 1116430.89594162 18973.74396898
0.10300000 1106914.08252796 25901.79074959
0.10400000 1097384.93993591 20740.57634053
0.10500000 1087845.93357212 17296.75115760
0.10600001 1078294.05968938 19037.28251959
0.10700001 1068736.35026105 20776.23562676
0.10800001 1059170.86028963 17317.44438072
0.10900001 1049601.73459004 20782.11532301
0.11000001 1040028.62363192 19048.12513841
0.11100001 1030454.25481070 20773.95875488
0.11200001 1020880.56053565 22495.10421041
0.11300001 1011306.49831574 17293.34193538
0.11400001 1001737.22540540 19007.96474705
0.11500001 992172.88089622 18990.18983456
0.11600001 982613.83071939 25867.31031182
0.11700001 973064.08060964 18945.55854171
0.11800001 963520.95576489 24078.38981862
0.11900001 953989.88910985 30909.27386304
0.12000001 944469.78409069 18856.34012760
0.12100001 934965.33406836 22242.82634530
0.12200001 925474.26121808 25612.50138585
0.12300001 916000.19639384 18741.36490121
0.12400001 906543.28809942 18697.45619803
0.12500001 897105.48118163 18650.82383260
0.12600001 887689.78552490 16910.49121113
0.12700001 878295.24035767 28667.55799627
0.12800001 868922.83867190 28583.21812522
0.12900001 859575.85429582 21790.24893342
0.13000001 850254.70009160 21719.75733760
0.13100001 840959.13061841 29971.78482804
0.13200001 831693.62647252 18251.51749332
0.13300001 822457.69391957 16531.40042712
0.13400001 813251.58565408 18115.17992450
0.13500001 804078.14950474 18043.51452561
0.13600001 794936.83122434 19603.14318230
0.13700001 785830.60288292 19520.03309605
0.13800001 776758.19542750 22673.57279372
0.13900001 767724.80480668 17734.44382736
0.14000001 758727.13510699 22465.91153002
0.14100001 749769.33321120 27149.14883601
0.14200001 740849.65677315 20658.59365349
0.14300001 731973.80770949 18972.76199073
0.14400001 723134.72300900 15728.18096734
0.14500001 714342.58591576 17208.51370647
0.14600001 705591.91690557 15558.30250172
0.14700001 696888.19929962 18565.10250518
0.14800001 688228.20228051 23072.85157000
0.14900001 679613.83462466 15291.31200051
0.15000001 671048.01669769 16719.16212488
0.15100001 662529.75829690 16616.24712212
0.15200001 654061.96219788 16511.79501483
0.15300001 645643.68379703 16405.80677946
0.15400001 637274.13289937 16298.28671803
0.15500001 628957.38545597 14717.60351424
0.15600001 620691.82538981 16079.02249557
0.15700001 612481.98616129 23225.31801140
0.15800001 604320.81581840 20178.27299256
0.15900001 596217.69331164 18601.99290935
0.16000001 588166.76022595 21306.34189490
0.16100001 580174.83608525 15508.07410061
0.16200001 572236.46992630 16789.41882020
0.16300001 564356.31956796 16659.79934012
0.16400001 556532.92578895 13774.19056355
0.16500001 548767.96250921 19130.05207623
0.16600001 541060.82455551 27107.14859004
0.16700001 533412.88328337 13442.00529340
0.16800001 525822.60368671 19994.40544925
0.16900001 518295.27718761 14538.18321158
0.17000001 510826.91512433 15723.25318997
0.17100001 503419.36503268 16884.68630051
0.17200001 496073.42240014 14160.41651111
0.17300001 488789.19777488 15308.87839726
0.17400001 481567.59586729 15169.37998621
0.17500001 474407.75875447 17534.11159166
0.17600001 467308.96213187 13647.75888363
0.17700001 460275.46793850 13518.29113183
0.17800001 453304.62315007 14605.47564774
0.17900001 446397.05298637 18079.08149989
0.18000001 439554.07284734 19094.22982641
0.18100001 432776.20209379 14177.74905030
0.18200001 426059.88712432 11695.34445403
0.18300001 419410.85769797 15048.46228508
0.18400001 412824.84997228 16038.24617908
0.18500001 406305.01657899 14736.68364751
0.18600001 399849.60258162 14580.51644697
0.18700001 393459.19975535 14424.21494450
0.18800001 387133.26560834 17560.36575765
0.18900001 380875.33206778 13025.93697216
0.19000001 374678.71799840 13954.90951120
0.19100001 368552.33649364 15921.46168882
0.19200001 362488.68019143 10494.04778740
0.19300001 356492.45765357 14523.50341108
0.19400001 350560.75776784 11279.29291417
0.19500001 344695.17729772 14187.65416801
0.19600001 338894.45186969 12017.19783119
0.19700001 333159.95272624 10884.33616993
0.19800001 327490.99166237 16618.53115728
0.19900001 321888.46745490 12553.65082403
0.20000001 316349.19371644 15260.68582612
0.20100001 310877.35254907 12245.45949566
0.20200001 305469.54794850 12092.01262705
0.20300001 300127.53704521 10102.29337442
0.20400001 294850.78408302 10879.99444691
0.20500001 289637.92294822 10739.77469056
0.20600001 284490.19680437 9716.76313115
0.20700001 279407.23428437 11332.75795826
0.20800001 274387.91288238 9462.26762303
0.20900001 269435.28984046 9335.93323429
0.21000001 264544.34484747 9210.11180125
0.21100001 259717.49932080 11562.62361637
0.21200001 254953.93174228 9774.93420510
0.21300001 250253.53271443 10443.08041388
0.21400001 245617.38192666 10297.50922411
0.21500001 241044.33201820 7809.83672662
0.21600001 236531.80657292 9238.93280154
0.21700001 232083.00007183 13660.40603009
0.21800001 227695.68372663 7479.80356407
0.21900001 223369.29574196 8845.42452961
0.22000001 219103.90164082 7263.29468282
0.22100001 214902.15552928 8587.49054100
0.22200001 210759.55976949 9164.87988993
0.22300001 206677.52164726 9027.67457243
0.22400001 202653.38323935 9575.37281084
0.22500001 198692.23172177 8082.80036866
0.22600001 194788.60578857 9948.82851111
0.22700001 190944.86845903 8489.40925315
0.22800001 187159.03169636 7071.80434707
0.22900001 183430.54761828 6328.35419210
0.23000001 179760.76207049 6228.71070031
0.23100001 176149.48453283 6743.00258681
0.23200001 172593.26867865 6635.34852816
0.23300001 169094.96046315 6528.75673226
0.23400001 165652.55246188 8174.95385063
0.23500001 162264.79001810 8616.26075748
0.23600001 158933.04372539 6780.08396600
0.23700001 155656.11752070 5556.92365832
0.23800001 152433.70108904 6557.69813102
0.23900001 149265.37709742 5910.90921264
0.24000001 146150.39300337 5811.67065267
0.24100001 143089.40575295 8310.63307923
0.24200001 140080.66973130 6127.12878387
0.24300001 137124.10025255 6022.49076797
0.24400001 134218.70515662 6412.29894218
0.24500001 131364.82211485 6301.57081494
0.24600001 128561.74771426 7144.81946721
0.24700001 125810.14115124 5148.15121945
0.24800001 123107.19504259 5517.66474283
0.24900001 120453.67332163 5420.41555590
0.25000001 117849.39393570 6211.84184822
0.25100001 115292.99768336 5229.69062233
0.25200001 112785.54398775 5136.25391620
0.25300001 110325.62446860 5884.76908757
0.25400001 107911.98163680 4127.63349289
0.25500001 105544.84605705 4863.50673641
0.25600001 103224.38625234 5968.95041745
0.25700001 100949.11626657 5860.09647653
0.25800001 98718.41727681  6903.37924679
0.25900001 96532.93466690  4894.22001918
0.26000001 94391.72138858  4434.52328066
0.26100001 92291.91294148  3627.07235022
0.26200001 90238.06700448  4271.87029412
0.26300001 88225.16489527  5589.94671227
0.26400001 86254.09227410  4114.32039616
0.26500001 84325.39240592  5046.87497431
0.26600001 82437.07190765  4622.24684058
0.26700001 80590.26289900  3887.67446621
0.26800001 78783.37241055  3814.69107263
0.26900001 77015.55209649  3742.95600901
0.27000001 75287.14435754  4590.63384444
0.27100001 73597.43476309  3603.33057652
0.27200001 71946.24556136  3830.05856371
0.27300001 70332.11812826  3468.78023024
0.27400001 68753.95618890  3119.71090971
0.27500001 67214.78264140  3339.23055965
0.27600001 65709.73295204  3822.33534672
0.27700001 64241.87744487  4018.32962435
0.27800001 62808.53004955  2891.39081767
0.27900001 61409.95335234  3095.06179544
0.28000001 60045.60952177  3037.10707335
0.28100001 58714.77065375  2483.63491620
0.28200001 57417.69049981  2681.11918479
0.28300001 56153.40673170  2870.56228799
0.28400001 54921.45959648  3756.62801420
0.28500001 53721.88538239  2765.60279039
0.28600001 52552.52486564  2941.10219331
0.28700001 51414.95078378  2443.23857689
0.28800001 50307.07279137  3053.13639222
0.28900001 49231.03657552  2355.70521164
0.29000001 48182.75530139  2734.13057900
0.29100001 47164.81863323  2478.98298470
0.29200001 46175.19684520  2232.33999715
0.29300001 45213.68246986  1993.92349130
0.29400001 44279.70280957  2351.25233049
0.29500001 43374.00976878  2118.38673739
0.29600001 42494.34676178  2650.37253299
0.29700001 41640.94057641  2047.48514507
0.29800001 40814.12198508  2379.66749499
0.29900001 40012.86077755  1980.63670225
0.30000001 39236.45189792  2302.98365317
0.30100001 38485.98897027  2092.09845946
0.30200001 37758.49790432  1716.12381099
0.30300001 37055.33203308  1858.69554277
0.30400001 36376.43623150  1997.06644365
0.30500001 35719.32660308  2131.37231931
0.30600001 35085.34323230  2746.65622497
0.30700001 34474.16855755  1592.70666276
0.30800001 33884.46084189  2669.92621844
0.30900001 33316.36725758  2168.89561115
0.31000001 32770.00885717  1987.33728123
0.31100001 32242.78847233  1961.65134353
0.31200001 31736.89823342  2235.07116391
0.31300001 31250.75797346  1471.91077024
0.31400001 30785.37195170  1600.06978295
0.31500001 30337.90171740  1581.81827044
0.31600002 29909.71285781  2133.31037059
0.31700002 29499.50645296  1969.97713420
0.31800002 29107.58993312  1671.35789310
0.31900002 28733.74647687  1930.90785467
0.32000002 28377.14246233  1366.35947426
0.32100002 28037.70474541  1489.64332366
0.32200002 27715.11190404  1477.07695887
0.32300002 27408.22530612  1598.44777554
0.32400002 27117.56811682  1850.77411161
0.32500002 26842.22895757  1575.10206981
0.32600002 26582.59199750  2738.14001836
0.32700002 26337.74342279  1684.56214909
0.32800002 26108.48503991  1288.45379773
0.32900002 25892.13092248  1666.15870376
0.33000002 25691.54490524  1530.70231794
0.33100002 25502.11903359  1524.00670562
0.33200002 25328.71163887  1265.16920627
0.33300002 25166.76291728  1386.94037005
0.33400002 25018.52494890  1508.61712586
0.33500002 24882.27810737  1504.88025120
0.33600002 24758.05173593  1626.97544687
0.33700002 24645.23258962  1499.41602176
0.33800002 24545.10671009  1747.36622944
0.33900002 24455.32760363  1371.94394354
0.34000002 24376.89309949  1371.56595520
0.34100002 24309.20448186  1745.88714857
0.34200002 24252.98826214  1372.59793570
0.34300002 24205.30147017  1248.99361501
0.34400002 24168.67616070  1751.02067077
0.34500002 24140.95218991  1628.79012139
0.34600002 24124.05256477  1506.78839456
0.34700002 24113.94079621  1384.62254610
0.34800002 24114.60773127  1641.11970688
0.34900002 24123.15023379  1519.75853671
0.35000002 24140.30962372  1525.18483426
0.35100002 24165.67177684  1786.32654235
0.35200002 24197.85944429  1409.40439009
0.35300002 24238.43130739  1415.76683972
0.35400002 24286.68797313  1551.91943499
0.35500002 24341.62072184  1689.79539055
0.35600002 24403.35447123  1568.15963260
0.35700002 24471.85655534  1314.13875927
0.35800002 24547.42078941  1586.25440654
0.35900002 24628.70043955  2260.91480744
0.36000002 24716.64996378  1472.24732483
0.36100002 24809.93831177  1616.61565697
0.36200002 24909.63189997  2034.49428180
0.36300002 25013.22981618  2048.58361898
0.36400002 25122.74710078  2063.20570338
0.36500002 25236.78255060  1662.59931319
0.36600002 25356.25975152  1675.03459853
0.36700002 25479.96521100  1547.14356090
0.36800002 25609.45713068  1559.23187126
0.36900002 25742.02469264  1571.55068193
0.37000002 25877.83186926  2016.14197644
0.37100002 26017.95122841  1596.98192205
0.37200002 26162.32618787  1463.78221955
0.37300002 26309.52767727  1475.96457261
0.37400002 26461.08699860  1637.27983560
0.37500002 26614.63983419  1651.17233353
0.37600002 26772.19419950  1513.96765370
0.37700002 26931.46725200  1832.41711863
0.37800002 27094.18007547  1694.33463128
0.37900002 27259.21308652  1864.53026345
0.38000002 27426.76743024  1724.18381618
0.38100002 27595.83465487  1581.24140063
0.38200002 27767.42511250  2392.85797243
0.38300002 27940.52210675  1770.31156455
0.38400002 28115.93725888  2273.17363507
0.38500002 28292.05363652  1801.92098147
0.38600002 28470.48804462  2148.52548207
0.38700002 28649.37834172  2167.61206803
0.38800002 28829.32971526  2691.50634973
0.38900002 29010.47772306  2375.95823808
0.39000002 29193.28820898  2397.06100840
0.39100002 29375.83414994  1900.02904283
0.39200002 29559.81845056  1916.80651824
0.39300002 29743.59268769  2285.20033446
0.39400002 29928.82937782  2305.26819204
0.39500002 30113.05336687  1967.58700021
0.39600002 30297.87744454  2165.08642476
0.39700002 30482.12434600  2547.69607354
0.39800002 30667.75959131  1835.46549850
0.39900002 30852.00976418  2221.34480827
0.40000002 31035.66202658  2426.83370715
0.40100002 31219.20150327  2447.27332179
0.40200002 31403.11228464  3227.14098683
0.40300002 31585.23670091  1914.06543476
0.40400002 31767.00742951  2508.79953061
0.40500002 31947.84883952  2334.74890381
0.40600002 32128.15177858  2157.56613492
0.40700002 32307.09116250  2570.35229467
0.40800002 32485.02139638  2790.13861994
0.40900002 32661.29715118  3615.60576595
0.41000002 32837.12139513  2226.84949292
0.41100002 33011.18518869  2244.10047546
0.41200002 33183.04384488  2055.68966359
0.41300002 33354.23488549  2692.68750989
0.41400002 33523.16150045  2295.49859251
0.41500002 33691.33859701  3573.97736772
0.41600002 33856.36393907  2964.80193063
0.41700002 34020.39468152  2559.69461713
0.41800002 34183.40444102  3007.79789929
0.41900002 34342.40516415  2379.92879065
0.42000002 34500.10667487  2832.28639168
0.42100002 34656.35968137  3071.24674049
0.42200002 34810.12503743  2650.44304594
0.42300002 34961.26281396  2890.59734643
0.42400002 35110.07610023  2462.09420320
0.42500002 35257.01222106  2703.50782522
0.42600002 35400.14477926  2494.11731861
0.42700002 35542.09444705  2738.16308595
0.42800002 35681.11697067  2984.90398163
0.42900002 35818.01483046  3465.39309906
0.43000002 35952.33113784  3021.61381367
0.43100002 36082.59668650  2571.96761369
0.43200002 36211.02832472  2587.09704126
0.43300002 36336.34659988  3784.79404120
0.43400002 36459.33648593  2616.86900029
0.43500002 36578.89390460  2870.71172967
0.43600002 36696.55787885  3608.18922443
0.43700002 36810.39898444  3385.82065904
0.43800002 36920.49717938  2431.21485448
0.43900002 37028.75005696  2688.28738153
0.44000002 37133.23016665  3684.54493790
0.44100002 37235.24097498  2962.43591236
0.44200002 37333.99067695  3225.09693747
0.44300002 37429.73233099  2991.38434966
0.44400002 37521.89829207  3756.88024454
0.44500002 37609.99801560  3019.33078378
0.44600002 37695.89243580  2780.26067836
0.44700002 37778.65849494  3808.08895676
0.44800002 37856.86848841  4079.45634164
0.44900002 37933.54828835  3584.72048314
0.45000002 38006.52443854  3085.36980014
0.45100002 38074.88809082  3097.77304188
0.45200002 38140.86350357  3369.17333726
0.45300002 38202.76574467  2861.76931756
0.45400002 38262.14410478  2872.53060480
0.45500002 38317.87611934  2620.94285078
0.45600002 38370.17641908  2893.30329000
0.45700002 38418.80932268  3167.24679067
0.45800002 38463.42882724  3442.66936034
0.45900002 38505.04948131  3453.90310217
0.46000002 38543.88887133  2665.31004177
0.46100002 38577.99904637  2940.80100668
0.46200002 38609.56674169  3485.86489849
0.46300002 38637.52341072  3764.84045958
0.46400002 38661.29543600  3235.95058136
0.46500002 38682.77932296  3515.10432368
0.46600002 38699.73699944  3253.10004636
0.46700002 38713.29164619  2989.44052261
0.46800002 38724.16520827  3813.94321213
0.46900002 38730.89653959  4095.79250319
0.47000002 38733.62161562  3283.83659621
0.47100002 38733.52873880  3290.80075762
0.47200002 38729.72796281  3297.44919504
0.47300002 38723.39105611  2753.23323459
0.47400002 38711.70956854  5240.59793123
0.47500002 38698.03794726  4420.86406463
0.47600002 38681.29066468  3597.94042171
0.47700002 38659.69752254  3049.09048812
