# SAXS profile: number of points = 501, q_min = 0, q_max = 0.5, delta_q = 0.001
#    q    intensity    error
0.00000000 1719190.39626459 283.66641538
0.00100000 1719119.49045792 618.88303126
0.00200000 1718906.72328300 773.50804997
0.00300000 1718552.25858613 1134.24453107
0.00400000 1718055.96958707 1803.95883661
0.00500000 1717418.34083908 2009.37953832
0.00600000 1716639.04009884 3785.18923752
0.00700000 1715718.81992516 2470.63520337
0.00800000 1714657.05024149 3472.18067333
0.00900000 1713455.24386756 3084.21957080
0.01000000 1712112.35514404 3672.48116036
0.01100000 1710629.77761152 4310.78722727
0.01200000 1709007.00606443 3665.82018873
0.01300000 1707245.33684793 5377.82304826
0.01400000 1705344.03727264 4988.13153015
0.01500000 1703305.08145412 4905.51885303
0.01600000 1701127.13945130 5639.23671937
0.01700000 1698812.41045828 5504.15245679
0.01800000 1696360.40828990 4834.62738117
0.01900000 1693771.98236703 5589.44779402
0.02000000 1691047.80753141 5326.80083469
0.02100000 1688189.51609320 6685.23078683
0.02200000 1685195.27731250 8720.88595630
0.02300000 1682068.01641564 6055.44513473
0.02400000 1678807.53293261 6295.52853556
0.02500000 1675415.46243690 8494.35678250
0.02600000 1671891.79644898 10156.74312798
0.02700000 1668237.74056470 11210.55813005
0.02800000 1664453.05972697 9412.48248441
0.02900000 1660540.30381071 8966.91805229
0.03000000 1656499.98455715 10783.81539515
0.03100000 1652332.31972550 9517.43459955
0.03200000 1648038.47568304 10605.12807947
0.03300000 1643620.97895035 10897.20759281
0.03400000 1639078.11921265 8605.16052291
0.03500000 1634413.15199876 11473.58085686
0.03600000 1629625.89295330 9044.42412387
0.03700000 1624718.32734790 17595.70029894
0.03800000 1619691.23790075 13265.27185232
0.03900000 1614546.77133092 9687.28107660
0.04000000 1609283.41343881 9897.09345127
0.04100000 1603905.14645937 12125.52346945
0.04200000 1598412.36433259 11340.73625107
0.04300000 1592805.09417097 15768.77116425
0.04400000 1587087.34379492 17140.54410903
0.04500000 1581258.64048650 15274.95917685
0.04600000 1575319.18282038 16659.00113275
0.04700000 1569272.40710940 12428.63804234
0.04800000 1563118.45131549 17233.38172759
0.04900000 1556860.22339906 11676.45221900
0.05000000 1550497.25647465 17791.95684655
0.05100000 1544032.71527647 13247.80131421
0.05200000 1537465.21999969 12222.84906860
0.05300000 1530799.89925910 16119.32369065
0.05400000 1524035.57323853 15087.95287867
0.05500000 1517175.76176935 16567.56009139
0.05600000 1510219.34946746 16786.08885264
0.05700000 1503171.37603683 14385.35074016
0.05800000 1496030.34676501 14563.85610578
0.05900000 1488798.20661049 14739.10293385
0.06000000 1481478.14456375 16266.63078727
0.06100000 1474071.57718070 17821.52620094
0.06200000 1466578.96582068 15245.08906232
0.06300000 1459003.56551387 22410.29581409
0.06400000 1451343.52502685 22640.96004926
0.06500000 1443604.79981141 14291.68818667
0.06600000 1435785.86855795 15872.61351956
0.06700000 1427889.63054198 14564.47491313
0.06800000 1419918.98641327 19105.01085648
0.06900000 1411875.00966973 20754.56361385
0.07000000 1403756.71194677 17940.01161878
0.07100000 1395569.48794214 24115.44188115
0.07200000 1387311.79040327 21267.49074320
0.07300000 1378989.48462646 32144.24639278
0.07400000 1370600.72537575 18503.11065971
0.07500000 1362148.93032567 17081.34838693
0.07600000 1353633.79292201 25015.15366592
0.07700000 1345060.87685221 15737.21299707
0.07800000 1336428.32744776 17420.34406523
0.07900000 1327738.45023339 25492.57944018
0.08000000 1318995.76464686 25641.27886759
0.08100000 1310199.80862271 19338.55008260
0.08200000 1301351.43945187 17822.00879959
0.08300000 1292454.31091392 26055.88013088
0.08400000 1283508.54240640 18001.20815220
0.08500000 1274518.64447140 21373.67867118
0.08600000 1265483.63313832 21468.93084419
0.08700000 1256406.96257094 18243.02995318
0.08800000 1247287.81999094 21646.68113255
0.08900000 1238131.90458453 18386.25964668
0.09000000 1228937.71296677 18452.50062701
0.09100000 1219708.78473552 18515.18022215
0.09200000 1210445.76305364 27017.15070080
0.09300000 1201152.40833945 16936.24975346
0.09400000 1191826.48178126 16983.52816357
0.09500000 1182472.65265041 20433.12839821
0.09600000 1173092.05339870 20482.18821516
0.09700000 1163688.10225518 17106.21590736
0.09800000 1154261.26338980 20568.93668071
0.09900000 1144813.19079858 18889.41853640
0.10000000 1135344.23334732 27520.74551056
0.10100000 1125856.57124681 27560.97016036
0.10200000 1116353.36406846 22421.95837196
0.10300000 1106835.20955738 24173.28211386
0.10400000 1097304.72120036 22467.31522355
0.10500000 1087764.39261185 19025.00012190
0.10600001 1078211.15421370 36341.10866275
0.10700001 1068652.25242534 22505.81749515
0.10800001 1059085.31494157 20779.25485706
0.10900001 1049514.81783492 20780.39437117
0.11000001 1039940.46013983 17315.00947634
0.11100001 1030364.80792970 22503.16846448
0.11200001 1020789.71945779 17302.38655936
0.11300001 1011214.36314980 22479.29635116
0.11400001 1001643.73533508 19006.19077288
0.11500001 992078.00668971 20714.58975509
0.11600001 982517.69256865 18967.50494825
0.11700001 972966.59621874 20665.81147694
0.11800001 963422.08413356 17197.08501174
0.11900001 953889.70169970 25755.02315900
0.12000001 944368.41621075 18854.31631778
0.12100001 934862.51032004 18818.78321926
0.12200001 925370.09755671 25609.61865638
0.12300001 915894.64386331 25553.46176772
0.12400001 906436.44000579 20394.82086108
0.12500001 896997.31415692 20343.90004369
0.12600001 887580.21996821 18599.24438589
0.12700001 878184.50916846 16861.14337064
0.12800001 868810.68265548 18492.63625187
0.12900001 859462.46792668 21787.37458883
0.13000001 850140.01699959 23387.35297002
0.13100001 840843.18119433 18313.56534967
0.13200001 831576.21103394 18248.94081140
0.13300001 822339.15068400 16529.01770798
0.13400001 813131.60849146 19759.09901790
0.13500001 803956.96480387 22961.01199737
0.13600001 794814.35280908 17966.77929240
0.13700001 785706.89529196 19516.96019934
0.13800001 776633.19711532 24289.20438516
0.13900001 767598.47492297 25791.30997368
0.14000001 758599.82667441 19253.26450899
0.14100001 749640.66278002 15967.34687028
0.14200001 740719.62305965 15888.43666401
0.14300001 731842.61480404 25292.48196061
0.14400001 723002.38811712 18870.36321997
0.14500001 714209.01606778 15641.17818971
0.14600001 705457.09776936 17110.86271359
0.14700001 696752.23217808 21655.06039771
0.14800001 688090.94971255 16916.71679679
0.14900001 679475.49247684 22932.29895306
0.15000001 670908.68929177 15196.08252945
0.15100001 662389.13422365 16612.72027020
0.15200001 653920.18080484 21010.45640068
0.15300001 645500.78811682 17893.28269096
0.15400001 637130.07636390 17775.92996942
0.15500001 628812.38359276 19128.47361162
0.15600001 620545.62926246 16075.23528471
0.15700001 612334.77893596 15963.56844029
0.15800001 604172.68884058 15850.47123985
0.15900001 596068.42291423 20027.89995525
0.16000001 588016.32419738 14200.59489967
0.16100001 580023.55160444 16913.48756317
0.16200001 572084.18642410 16784.95082203
0.16300001 564203.02171567 15267.33448836
0.16400001 556378.56334705 20655.55513940
0.16500001 548612.81864292 15026.50581205
0.16600001 540904.61920372 14904.62748585
0.16700001 533255.76420996 20157.06883885
0.16800001 525664.65957246 22653.51957389
0.16900001 518136.39666937 18497.47023451
0.17000001 510667.12564831 14408.47363053
0.17100001 503258.77903815 28564.96964708
0.17200001 495911.97916862 15442.69976056
0.17300001 488626.91125884 14028.47928473
0.17400001 481404.54489468 13900.55689030
0.17500001 474243.94922927 15024.04902113
0.17600001 467144.40785686 17363.75846011
0.17700001 460110.20674796 12284.94310040
0.17800001 453138.58660140 12166.77162491
0.17900001 446230.29794322 16867.50605897
0.18000001 439386.69084265 15508.15398582
0.18100001 432608.18015753 16534.28542664
0.18200001 425891.25264212 11690.71543727
0.18300001 419241.57344327 12728.17477101
0.18400001 412654.91798836 12596.29196665
0.18500001 406134.60294910 14730.50274486
0.18600001 399678.57550035 13453.18148692
0.18700001 393287.57322200 12199.78109772
0.18800001 386961.27920781 13164.42334062
0.18900001 380702.83618141 15190.04388133
0.19000001 374505.74826510 10729.59019476
0.19100001 368378.94707858 11670.24559487
0.19200001 362314.95697656 12586.82220011
0.19300001 356318.27525317 12442.63475979
0.19400001 350386.23941157 12298.55758450
0.19500001 344520.28654346 17219.12473513
0.19600001 338719.31030476 14012.81852950
0.19700001 332984.41299583 10878.60128667
0.19800001 327315.37450800 10747.40082988
0.19900001 321712.57367844 9651.37766648
0.20000001 316173.04561008 15252.18844107
0.20100001 310701.10051048 10355.66816945
0.20200001 305293.09312583 10225.79263756
0.20300001 299951.07099355 11932.05416809
0.20400001 294674.17229568 10873.47747165
0.20500001 289461.20297518 11627.65707312
0.20600001 284313.46889963 9710.72698927
0.20700001 279230.36847761 8711.98790831
0.20800001 274211.15749135 10315.82423246
0.20900001 269258.56304498 9329.80965054
0.21000001 264367.61729020 10040.68257933
0.21100001 259540.89850504 9078.74105889
0.21200001 254777.44478376 13838.23756763
0.21300001 250077.26471936 9632.97669239
0.21400001 245441.21577609 10290.12345789
0.21500001 240868.40199037 9364.96391214
0.21600001 236356.17513402 9232.07263721
0.21700001 231907.46019030 8341.71173744
0.21800001 227520.61843716 11211.07900356
0.21900001 223194.51261143 7365.41926443
0.22000001 218929.46010131 7983.26314006
0.22100001 214728.12523677 7150.44690848
0.22200001 210585.86023228 9861.73630098
0.22300001 206504.26775135 11795.52433171
0.22400001 202480.60814956 7517.09293301
0.22500001 198519.92438137 8075.79090572
0.22600001 194616.76273272 6626.70108441
0.22700001 190773.60450902 8481.79485757
0.22800001 186988.37814197 7707.66131151
0.22900001 183260.53134749 6322.48863048
0.23000001 179591.30018863 8089.69049957
0.23100001 175980.92189626 8573.79092026
0.23200001 172425.27668888 7834.14281686
0.23300001 168927.77330615 6522.30163582
0.23400001 165486.01069840 7583.39679891
0.23500001 162098.95202307 7459.79412492
0.23600001 158768.18848190 7901.89311448
0.23700001 155492.06618854 6106.17372803
0.23800001 152270.54860479 6004.78936825
0.23900001 149103.12426945 9125.11163690
0.24000001 145988.99481374 8444.00385943
0.24100001 142929.01970472 7782.48549104
0.24200001 139921.20995204 5610.14117840
0.24300001 136965.68708875 7018.12213840
0.24400001 134061.36228925 5419.43082690
0.24500001 131208.67138216 5325.76022333
0.24600001 128406.76072180 5708.96485175
0.24700001 125656.15229010 6544.17272085
0.24800001 122954.45060017 5970.05363131
0.24900001 120302.09863400 5864.72758585
0.25000001 117699.02908308 5317.64238554
0.25100001 115143.87220399 4787.68243274
0.25200001 112637.71311279 5129.52169783
0.25300001 110179.09386669 5457.17077740
0.25400001 107766.81258823 4946.49693182
0.25500001 105401.06356706 4856.88123896
0.25600001 103081.95827245 5165.95258324
0.25700001 100808.04553137 6242.03447463
0.25800001 98578.93611741  4978.72940417
0.25900001 96394.88700685  4511.28092537
0.26000001 94255.08329972  4059.09535436
0.26100001 92156.88132106  3983.94216801
0.26200001 90104.60731541  3910.08961947
0.26300001 88093.35627741  4186.19648838
0.26400001 86123.73779175  3423.41873921
0.26500001 84196.72588942  4031.33942634
0.26600001 82310.15037396  3626.17384631
0.26700001 80464.88897998  3558.15755907
0.26800001 78659.82041113  5078.27824605
0.26900001 76893.66272048  4359.87088257
0.27000001 75166.90823707  3666.64195732
0.27100001 73479.04054769  4197.12299470
0.27200001 71829.66343418  2941.42485683
0.27300001 70217.32344946  3174.52534338
0.27400001 68640.98584465  3680.87304012
0.27500001 67103.74270589  3055.90458745
0.27600001 65600.60766728  3270.84645309
0.27700001 64134.66519705  3209.29879835
0.27800001 62703.10135591  2624.12491594
0.27900001 61306.55466437  3604.82558487
0.28000001 59944.17430565  2779.31177322
0.28100001 58615.30607632  3471.19859013
0.28200001 57320.34962654  3163.22364385
0.28300001 56058.00710498  2626.87833727
0.28400001 54828.20319669  2578.29637736
0.28500001 53630.61457957  2760.90416923
0.28600001 52463.41003919  2484.40490000
0.28700001 51327.80735670  2882.56979759
0.28800001 50222.11449391  3701.11890281
0.28900001 49148.30166823  2565.54146852
0.29000001 48102.16243810  2099.65948981
0.29100001 47086.35443073  2268.62066386
0.29200001 46098.96848977  2026.04976103
0.29300001 45139.63852971  2189.72396873
0.29400001 44207.84991231  2347.43694146
0.29500001 43304.38480510  2499.52920927
0.29600001 42427.10344662  2835.19132203
0.29700001 41575.93673382  2415.97779797
0.29800001 40751.23749599  2376.00101468
0.29900001 39952.37417250  2337.21399973
0.30000001 39178.28409937  1945.78957191
0.30100001 38430.13046569  2959.50448727
0.30200001 37704.95131258  1713.69011828
0.30300001 37004.03743506  2024.86102431
0.30400001 36327.52550738  2160.57968184
0.30500001 35672.74072030  2128.59253955
0.30600001 35041.18897852  2259.10556040
0.30700001 34432.32292945  1749.85073412
0.30800001 33845.01228238  2039.33131162
0.30900001 33279.31809383  1856.98603755
0.31000001 32735.27974469  1832.52104687
0.31100001 32210.52204229  1507.45250295
0.31200001 31707.01980168  2977.28930034
0.31300001 31223.29860955  2058.86440779
0.31400001 30760.35419692  1889.45484601
0.31500001 30315.21809760  2299.10624938
0.31600002 29889.50078454  1847.61957848
0.31700002 29481.58450747  1828.15314187
0.31800002 29092.15439104  1948.88351493
0.31900002 28720.79965697  2205.75751810
0.32000002 28366.59126705  1639.02172102
0.32100002 28029.60087372  2030.74467946
0.32200002 27709.38713780  1476.77185743
0.32300002 27404.90456031  1465.06626717
0.32400002 27116.69975802  1586.32701096
0.32500002 26843.73404982  1706.45625435
0.32600002 26586.60056718  1304.07281957
0.32700002 26344.10906477  1425.74325010
0.32800002 26117.28107925  1417.77667052
0.32900002 25903.28925418  1538.65545456
0.33000002 25705.15323353  1659.13919402
0.33100002 25518.09274390  1524.96129459
0.33200002 25347.10081641  1645.91406946
0.33300002 25187.58863858  1514.27790066
0.33400002 25041.68259247  1258.34460986
0.33500002 24907.76152695  2385.16735677
0.33600002 24786.03287259  1378.22742315
0.33700002 24675.41850458  1376.14815517
0.33800002 24577.66288474  2374.57101206
0.33900002 24490.26737701  1748.60517353
0.34000002 24414.07115460  1623.41373831
0.34100002 24348.76734623  1374.00100642
0.34200002 24294.89387289  1249.97234896
0.34300002 24249.41779317  2002.03202782
0.34400002 24215.03401638  1503.75368363
0.34500002 24189.64006729  1380.98661685
0.34600002 24174.94442300  1635.79769185
0.34700002 24167.10561348  1387.67527005
0.34800002 24169.91698804  1518.35425710
0.34900002 24180.69236123  1396.43505000
0.35000002 24200.09443142  1528.96203859
0.35100002 24227.57821037  1918.82428514
0.35200002 24261.95336576  2440.87393397
0.35300002 24304.58422484  1419.63083181
0.35400002 24355.01201756  1556.28534163
0.35500002 24411.99844652  1433.96085667
0.35600002 24475.86139314  1703.88717159
0.35700002 24546.42845791  1713.58625181
0.35800002 24624.03555197  1326.00437728
0.35900002 24707.30848987  2534.96997113
0.36000002 24797.25286715  1879.87982890
0.36100002 24892.45434987  2027.49050283
0.36200002 24994.12912312  1497.02343474
0.36300002 25099.63328639  2055.66006353
0.36400002 25211.05521692  1794.39694006
0.36500002 25326.98370061  1946.63205944
0.36600002 25448.33674631  2381.58270721
0.36700002 25573.87909497  1976.34947008
0.36800002 25705.10682601  2134.16659532
0.36900002 25839.45293010  1434.08970555
0.37000002 25976.99147787  1590.18160864
0.37100002 26118.81374785  2331.88780187
0.37200002 26264.98254187  1910.38359568
0.37300002 26413.78910512  2222.72045849
0.37400002 26567.02711383  2241.59301892
0.37500002 26722.06009044  2109.97396469
0.37600002 26881.30184417  2280.20653695
0.37700002 27042.03990375  1993.26885573
0.37800002 27206.35679806  1701.34960296
0.37900002 27372.88038178  2340.38138351
0.38000002 27541.84388118  1888.81974285
0.38100002 27712.33479827  2064.29191691
0.38200002 27885.29938052  1602.01052530
0.38300002 28059.80708073  2424.36744663
0.38400002 28236.58775753  2772.12713442
0.38500002 28413.95506734  2467.75211451
0.38600002 28593.68302905  2987.75408125
0.38700002 28773.74543561  1842.09527006
0.38800002 28954.91225422  2703.23073612
0.38900002 29137.27471635  2045.43678199
0.39000002 29321.18545673  2063.62513021
0.39100002 29504.80052524  2428.83529431
0.39200002 29689.84261332  1925.23793547
0.39300002 29874.63745029  2118.70938835
0.39400002 30060.84949771  2315.43704226
0.39500002 30246.07541761  2155.94035791
0.39600002 30431.75425431  1993.43215687
0.39700002 30616.93572605  2010.61426439
0.39800002 30803.41508864  2212.30137648
0.39900002 30988.37317468  2045.23272643
0.40000002 31172.79836080  2062.54830126
0.40100002 31357.11951069  2836.25159412
0.40200002 31541.69644967  2097.36520479
0.40300002 31724.54226173  2691.51029301
0.40400002 31906.85593886  2132.17574914
0.40500002 32088.29429075  1954.17721490
0.40600002 32269.09909731  3546.05146782
0.40700002 32448.59490108  2581.61033265
0.40800002 32626.97554316  2602.16455774
0.40900002 32803.70657841  2017.42805016
0.41000002 32979.89727083  2439.85291570
0.41100002 33154.35603145  2253.83322981
0.41200002 33326.48740224  2683.94879011
0.41300002 33497.88193156  2496.26227982
0.41400002 33667.13776328  3143.66913760
0.41500002 33835.46469666  2533.59971654
0.41600002 34000.58590477  2126.73674912
0.41700002 34164.77980021  2356.34497447
0.41800002 34327.78712510  2589.00182765
0.41900002 34486.82314414  2607.20395324
0.42000002 34644.64481849  2187.80942396
0.42100002 34800.77296125  2423.17793611
0.42200002 34954.46457553  2661.43305889
0.42300002 35105.45687904  2455.97787964
0.42400002 35254.11604429  2696.94000518
0.42500002 35400.87180877  2488.32739735
0.42600002 35543.71468577  3187.20504690
0.42700002 35685.43471432  4123.80903100
0.42800002 35824.13554240  2305.28323139
0.42900002 35960.67486247  2319.46363854
0.43000002 36094.57504565  2566.86582601
0.43100002 36224.45774678  2816.81396787
0.43200002 36352.38837948  2833.30528456
0.43300002 36477.17425786  2612.13057239
0.43400002 36599.66242243  3104.56651210
0.43500002 36718.57146357  2881.67362502
0.43600002 36835.64007930  3138.94921811
0.43700002 36948.83180148  3884.06138303
0.43800002 37058.18020456  2684.30941033
0.43900002 37165.70633086  2698.23040749
0.44000002 37269.41091353  2711.90881364
0.44100002 37370.66917002  3220.97812841
0.44200002 37468.52559981  2987.74037292
0.44300002 37563.39389601  3752.58322805
0.44400002 37654.53431511  3267.47237004
0.44500002 37741.74242002  3029.90722507
0.44600002 37826.63600642  3297.15888376
0.44700002 37908.39603224  2547.44433409
0.44800002 37985.57480815  3069.99430149
0.44900002 38061.10126839  3339.86179458
0.45000002 38132.91865070  3611.56889657
0.45100002 38200.18172857  3107.96693273
0.45200002 38264.96080116  5200.20841933
0.45300002 38325.67685786  2609.97871771
0.45400002 38383.70119266  3667.56282278
0.45500002 38438.14647727  3680.83708111
0.45600002 38489.12544100  3166.11560883
0.45700002 38536.40178876  3441.68620687
0.45800002 38579.62601711  3187.44885260
0.45900002 38619.85677134  3464.20131657
0.46000002 38657.22182073  4009.72052339
0.46100002 38689.82365158  3217.44588736
0.46200002 38719.87435429  3495.82402176
0.46300002 38746.30648732  2696.74305933
0.46400002 38768.49004362  4056.15346306
0.46500002 38788.36485219  3253.56819801
0.46600002 38803.67973037  2990.01768334
0.46700002 38815.56239384  2724.85260919
0.46800002 38824.76467061  3004.45455643
0.46900002 38829.78160336  3832.49962590
0.47000002 38830.74223197  3566.40968933
0.47100002 38828.94968763  4123.63465227
0.47200002 38823.35394615  3856.32393025
0.47300002 38815.21315138  3035.73796445
0.47400002 38801.67361053  3594.00518852
0.47500002 38786.17140494  4430.93243132
0.47600002 38767.47754642  3328.57577990
0.47700002 38743.99151504  3889.12205262
