# SAXS profile: number of points = 501, q_min = 0, q_max = 0.5, delta_q = 0.001
#    q    intensity    error
0.00000000 1700912.83420645 331.67800267
0.00100000 1700842.51773231 510.25276744
0.00200000 1700631.51591822 994.86946831
0.00300000 1700279.99810095 1326.21844576
0.00400000 1699787.82951995 1274.84092058
0.00500000 1699155.49645823 1988.01200954
0.00600000 1698382.67759670 1783.30188408
0.00700000 1697470.09763908 2851.74988255
0.00800000 1696417.15017782 2748.19589932
0.00900000 1695225.32030106 2797.12189807
0.01000000 1693893.58918513 3912.89435997
0.01100000 1692423.36422535 3046.36218824
0.01200000 1690814.05689980 3626.79631106
0.01300000 1689067.06107538 3901.74508317
0.01400000 1687181.60478144 4175.77465695
0.01500000 1685159.61329545 4448.82157720
0.01600000 1682999.79970825 5149.97961733
0.01700000 1680704.36266264 7260.64317241
0.01800000 1678272.85330325 5739.69341657
0.01900000 1675705.99992908 5529.83004929
0.02000000 1673004.56290116 6323.95753383
0.02100000 1670170.13516889 7165.03020473
0.02200000 1667200.89449819 5751.84334734
0.02300000 1664099.79961120 5990.75955129
0.02400000 1660866.62689384 6851.07514833
0.02500000 1657502.91505737 6464.26166395
0.02600000 1654008.81413318 6698.73600363
0.02700000 1650385.34528758 7624.78064445
0.02800000 1646632.38231351 9311.70654901
0.02900000 1642752.53278309 8870.86408433
0.03000000 1638746.15097619 7620.16995230
0.03100000 1634613.54839985 7846.14539335
0.03200000 1630355.77875187 11298.36606713
0.03300000 1625975.50468167 8292.47545616
0.03400000 1621470.94734852 11917.81201290
0.03500000 1616845.37207860 10477.15849488
0.03600000 1612098.53816593 11631.29149039
0.03700000 1607232.42551895 9161.22524914
0.03800000 1602247.97571652 17808.98707428
0.03900000 1597147.08506458 10541.17124959
0.04000000 1591928.36953183 11748.43191156
0.04100000 1586595.78803331 11994.66471368
0.04200000 1581149.66608701 11218.25740133
0.04300000 1575590.08885348 12478.67408295
0.04400000 1569921.14065417 10596.96819156
0.04500000 1564142.16839131 14030.35590239
0.04600000 1558253.41099298 14281.39317565
0.04700000 1552258.40112188 14529.13931022
0.04800000 1546157.13051032 14773.53206941
0.04900000 1539952.54519371 16169.50247718
0.05000000 1533644.12423019 16425.32933537
0.05100000 1527235.23963822 14294.92250893
0.05200000 1520724.20758174 19343.61282188
0.05300000 1514116.44739393 13490.77817519
0.05400000 1507410.48437300 12436.13707602
0.05500000 1500610.09383978 13865.63791390
0.05600000 1493713.82050707 14048.37913742
0.05700000 1486726.96391596 20695.24030373
0.05800000 1479647.95975343 14404.37356077
0.05900000 1472478.83529596 15902.77216395
0.06000000 1465222.46829538 17428.82207463
0.06100000 1457880.52620055 18981.60533817
0.06200000 1450453.42883752 17818.82120618
0.06300000 1442944.33548343 18007.94614880
0.06400000 1435351.50261443 16793.61336597
0.06500000 1427680.85464789 15547.44523439
0.06600000 1419930.73717859 17124.36549160
0.06700000 1412104.05108950 17284.15439422
0.06800000 1404203.77068250 17440.21164824
0.06900000 1396231.00578329 16126.46887182
0.07000000 1388184.68455154 16262.58434107
0.07100000 1380070.16227537 17885.71014082
0.07200000 1371886.01920095 16524.36787539
0.07300000 1363637.78964117 15136.38017424
0.07400000 1355324.16001369 19821.61676912
0.07500000 1346947.90678852 19961.76891426
0.07600000 1338509.13866499 23189.67191452
0.07700000 1330013.29170218 26453.96561234
0.07800000 1321458.52352712 18791.14108579
0.07900000 1312846.98420672 23631.24682411
0.08000000 1304183.34201192 17430.41118367
0.08100000 1295467.05452266 28681.64193282
0.08200000 1286699.12373725 19223.28581069
0.08300000 1277882.89781818 17711.45779499
0.08400000 1269018.68835489 21033.98574679
0.08500000 1260111.01243135 21132.06267052
0.08600000 1251158.70932539 22858.67069262
0.08700000 1242165.43725218 21315.55990418
0.08800000 1233130.10671900 18108.51646761
0.08900000 1224058.79110610 18177.27390171
0.09000000 1214949.58721452 21559.28143788
0.09100000 1205806.25257657 21632.16518753
0.09200000 1196629.15331532 21700.87071503
0.09300000 1187422.31585569 18416.92098437
0.09400000 1178183.38297410 20146.93679571
0.09500000 1168917.12794289 16832.40743355
0.09600000 1159624.54488040 20247.04550538
0.09700000 1150308.93492883 23673.35899379
0.09800000 1140971.00285442 23720.78826464
0.09900000 1131612.18292456 27158.69366726
0.10000000 1122232.90851615 22102.37817264
0.10100000 1112835.43148348 28944.85093421
0.10200000 1103422.63868100 23867.03279729
0.10300000 1093995.30147229 22186.22575751
0.10400000 1084556.06775127 18789.93475776
0.10500000 1075107.32333086 27350.73159237
0.10600001 1065645.91455318 18813.97950670
0.10700001 1056179.40889168 20532.12867505
0.10800001 1046704.98891308 23959.07832378
0.10900001 1037227.33409060 22248.52736338
0.11000001 1027746.04623561 27379.15596044
0.11100001 1018263.69609462 20528.19707960
0.11200001 1008782.45546147 23938.40879505
0.11300001 999301.01983208 20505.65789238
0.11400001 989824.60968456 29026.60804570
0.11500001 980353.16469937 18763.96045590
0.11600001 970887.35661750 20446.88869324
0.11700001 961431.04111028 18719.06325199
0.11800001 951981.52790702 20391.44528817
0.11900001 942544.20553560 20358.95579851
0.12000001 933118.23406217 23710.53544440
0.12100001 923707.69631881 23665.39229452
0.12200001 914310.87120803 18555.94000536
0.12300001 904931.08747947 16831.71902013
0.12400001 895568.68918480 21829.48782743
0.12500001 886225.45202852 21774.56038237
0.12600001 876904.33370692 18375.53117875
0.12700001 867604.54264839 18323.80880427
0.12800001 858326.96857100 19930.35314952
0.12900001 849074.74624464 21524.04583177
0.13000001 839848.47266480 18153.32559230
0.13100001 830647.90141583 26314.92675728
0.13200001 821477.11050832 21305.00986536
0.13300001 812336.21992774 24491.93818544
0.13400001 803224.90016230 21144.89649366
0.13500001 794146.36352219 21060.76255359
0.13600001 785099.93829749 17747.18494201
0.13700001 776088.51497464 19278.03962099
0.13800001 767110.70891832 19193.11084220
0.13900001 758172.09303090 23882.42205672
0.14000001 749269.10586536 20601.15503733
0.14100001 740405.60160189 18924.76806949
0.14200001 731580.28172200 17261.63756138
0.14300001 722798.63416351 20296.18660463
0.14400001 714053.76757120 20189.87123043
0.14500001 705355.60670575 16992.01736709
0.14600001 696698.65293255 19970.86782842
0.14700001 688088.68325135 18330.68338659
0.14800001 679522.11332233 18224.78393913
0.14900001 671001.21724324 19626.78653037
0.15000001 662528.50266135 19508.15268131
0.15100001 654103.27094102 20878.97739361
0.15200001 645728.07938616 16301.40613332
0.15300001 637402.29263782 22085.99048212
0.15400001 629125.00869878 20478.01999952
0.15500001 620900.44605716 18887.79246043
0.15600001 612726.29037219 17315.64578313
0.15700001 604608.13455856 20060.89885146
0.15800001 596538.36170050 14227.44059807
0.15900001 588526.14859230 16949.55387949
0.16000001 580565.67955778 21030.99273469
0.16100001 572664.16237669 16698.88776316
0.16200001 564815.82691144 17952.67190586
0.16300001 557025.38123857 19183.95503549
0.16400001 549291.31109128 13594.96059132
0.16500001 541615.38301072 13486.22367367
0.16600001 533996.95594028 16051.94925343
0.16700001 526437.24060844 18572.70672557
0.16800001 518935.06835531 14470.50506433
0.16900001 511495.25405885 15651.75551325
0.17000001 504113.96881585 15516.62869284
0.17100001 496793.27107732 14098.99369895
0.17200001 489533.81827613 12703.40318416
0.17300001 482335.39829318 18883.43173494
0.17400001 475199.40997088 14968.78212100
0.17500001 468124.71769835 13594.34244399
0.17600001 461110.59615957 17139.48166873
0.17700001 454161.42877448 13338.72179310
0.17800001 447274.31547838 15612.11071917
0.17900001 440450.03795509 13081.36674515
0.18000001 433689.98133980 11774.68354955
0.18100001 426994.52570400 15154.03643306
0.18200001 420360.14566469 13846.66385228
0.18300001 413792.47516773 13704.80742496
0.18400001 407287.50294947 18083.56598524
0.18500001 400847.90588708 14538.75423337
0.18600001 394472.54674049 18810.42427999
0.18700001 388161.50339050 13135.38589531
0.18800001 381914.61027155 11910.00768402
0.18900001 375735.02676593 10708.44876878
0.19000001 369616.11006215 12707.40246435
0.19100001 363567.17242426 13611.95557873
0.19200001 357580.08575818 14492.72156058
0.19300001 351660.11876777 12279.97192763
0.19400001 345804.07645695 14160.67760006
0.19500001 340013.57587339 11995.67952367
0.19600001 334287.38053184 9878.19256152
0.19700001 328626.84945841 9760.21789016
0.19800001 323031.33274031 10606.73431179
0.19900001 317501.54221689 14287.57007499
0.20000001 312034.51318839 9407.84101726
0.20100001 306634.21393908 13007.42397006
0.20200001 301297.37558332 14679.20883221
0.20300001 296025.84883697 9964.23054281
0.20400001 290818.83147483 9836.94743959
0.20500001 285675.09019806 11475.56891567
0.20600001 280596.12874409 10455.01225119
0.20700001 275580.99793501 8598.12754200
0.20800001 270629.17714642 8484.22510459
0.20900001 265743.23204695 11719.27708726
0.21000001 260918.36761182 9083.87339782
0.21100001 256156.96777389 9774.95035235
0.21200001 251458.21684996 8837.49944898
0.21300001 246822.07292071 13469.08115604
0.21400001 242249.31168785 9375.04880554
0.21500001 237739.25099899 14635.22898342
0.21600001 233289.11133252 10630.98530604
0.21700001 228901.89225508 8233.60145370
0.21800001 224575.67143788 8852.77338665
0.21900001 220309.62509116 13086.39234916
0.22000001 216103.90587657 10029.38274595
0.22100001 211961.09894882 8469.96591448
0.22200001 207876.93694602 8344.18064356
0.22300001 203852.45829003 10274.16438364
0.22400001 199885.43596173 8095.36053925
0.22500001 195980.76894697 7308.12321961
0.22600001 192132.77680673 7850.54563156
0.22700001 188344.13749071 8373.78074883
0.22800001 184612.72075626 7609.73670944
0.22900001 180938.07362624 6242.36383531
0.23000001 177321.24046059 7987.43565429
0.23100001 173762.48763740 9070.40228364
0.23200001 170257.94683357 6545.56707558
0.23300001 166810.68975930 8782.58323119
0.23400001 163418.73165049 6336.56161944
0.23500001 160080.61850435 6233.53957938
0.23600001 156798.10143824 6689.00732373
0.23700001 153569.56033679 7675.40698866
0.23800001 150394.86778711 7548.31877126
0.23900001 147273.67223912 7952.77867708
0.24000001 144205.01538199 7298.21617369
0.24100001 141189.85822169 7175.26893422
0.24200001 138226.13788416 7053.68014988
0.24300001 135314.01321947 5447.74242991
0.24400001 132452.41886899 5841.15194843
0.24500001 129641.72597217 6218.91388907
0.24600001 126881.18775565 5641.13787447
0.24700001 124171.25798346 6466.83942170
0.24800001 121509.42385114 5899.89035420
0.24900001 118896.40071362 5350.33828522
0.25000001 116331.96334111 5255.87835240
0.25100001 113814.74729874 4732.41741657
0.25200001 111345.84467173 6760.92000832
0.25300001 108923.84396627 4979.99838174
0.25400001 106547.46999269 5298.07319604
0.25500001 104216.94430849 5602.70319110
0.25600001 101932.39421437 4715.39277945
0.25700001 99692.39180178  6172.95319243
0.25800001 97496.46949217  5302.83322658
0.25900001 95345.02852606  4090.30191730
0.26000001 93237.27435295  5110.33524908
0.26100001 91170.28024492  3941.29140147
0.26200001 89148.60900702  3868.60407091
0.26300001 87167.27102839  4487.37132487
0.26400001 85227.15736453  5081.66949832
0.26500001 83328.89014631  4322.26973641
0.26600001 81470.24272629  3262.88337559
0.26700001 79652.56275766  3522.23649182
0.26800001 77874.26900816  3770.67228381
0.26900001 76134.28635129  4316.81424040
0.27000001 74433.21141548  3933.42324339
0.27100001 72770.18060144  3265.92585995
0.27200001 71145.17482608  4370.09257050
0.27300001 69556.57774569  3430.53057676
0.27400001 68003.47752214  3085.65793860
0.27500001 66488.70362484  3303.15895241
0.27600001 65007.40171079  3241.26920270
0.27700001 63562.94113650  3180.68972500
0.27800001 62152.16533094  2861.17506642
0.27900001 60775.93672692  3318.36630234
0.28000001 59433.11574695  3507.14832622
0.28100001 58123.37060205  2458.61869283
0.28200001 56846.81607597  3378.40643929
0.28300001 55602.46454620  3552.99765267
0.28400001 54390.01073411  3255.24229651
0.28500001 53209.27123681  3195.74898174
0.28600001 52058.36160486  2913.44634512
0.28700001 50938.62663531  2860.71340724
0.28800001 49848.10632988  2809.19016519
0.28900001 48788.80163727  2546.77556601
0.29000001 47756.93554405  2501.50840220
0.29100001 46754.84617307  2867.00730304
0.29200001 45780.53703203  2615.67110714
0.29300001 44833.84391389  2372.60713223
0.29400001 43914.22112875  2137.52481462
0.29500001 43022.49728049  2101.21886664
0.29600001 42156.24867106  2441.47925736
0.29700001 41315.75470651  2770.22148421
0.29800001 40501.36055756  2361.43193910
0.29900001 39712.16416440  2323.16171359
0.30000001 38947.38983437  1758.47473427
0.30100001 38208.00284114  2076.98713277
0.30200001 37491.10495153  1874.36788079
0.30300001 36798.21265450  1677.99857648
0.30400001 36129.18058307  1983.49210791
0.30500001 35481.48576081  1954.32032823
0.30600001 34856.54351055  1926.17268558
0.30700001 34253.91474407  2057.29021693
0.30800001 33672.36473239  1872.85701508
0.30900001 33112.02431570  1539.70920358
0.31000001 32573.02434485  2583.20381797
0.31100001 32052.82825752  1500.07243347
0.31200001 31553.64329302  1629.58798502
0.31300001 31073.58315597  2048.99217032
0.31400001 30614.03620898  2169.76991904
0.31500001 30172.14388079  1716.19162520
0.31600002 29749.06872572  2121.85242733
0.31700002 29343.52892508  1679.62367520
0.31800002 28956.12325210  2216.88090115
0.31900002 28586.41481114  1646.57757109
0.32000002 28233.45977310  1631.32938293
0.32100002 27897.49436090  1751.68375386
0.32200002 27577.97875158  1603.38376054
0.32300002 27273.89055546  1590.61337251
0.32400002 26985.71869814  1447.10923371
0.32500002 26712.52912640  1828.73983059
0.32600002 26454.85607444  1686.89397747
0.32700002 26211.59767482  1805.45493333
0.32800002 25983.57792723  1666.97652086
0.32900002 25768.23035887  2551.05492633
0.33000002 25568.35892375  1269.46908068
0.33100002 25379.42989767  1516.67480251
0.33200002 25206.25233579  1259.05236380
0.33300002 25044.23579458  1756.60278182
0.33400002 24895.70091182  1376.10993307
0.33500002 24758.92603866  1372.63492459
0.33600002 24633.96624188  1867.87057875
0.33700002 24520.04930588  1367.48321455
0.33800002 24418.76134792  1738.37170268
0.33900002 24327.44285974  1488.83957352
0.34000002 24247.34759588  1240.25188827
0.34100002 24177.81398889  1364.35410801
0.34200002 24119.44011138  1365.03977775
0.34300002 24069.53334670  1614.58437336
0.34400002 24030.30955674  1492.28229415
0.34500002 23999.99879796  1494.71999593
0.34600002 23980.22653607  1622.62210541
0.34700002 23967.11075576  1626.40821291
0.34800002 23964.50385274  2383.62948860
0.34900002 23969.72040497  2013.45660938
0.35000002 23983.33283222  1894.08380013
0.35100002 24004.98169568  1647.70202163
0.35200002 24033.42911241  1908.85519766
0.35300002 24070.00639689  1405.92914023
0.35400002 24114.20111572  2054.53003237
0.35500002 24164.91918310  1419.44742005
0.35600002 24222.21604761  1815.93962310
0.35700002 24286.29961883  1565.00922156
0.35800002 24357.21586062  1836.29059071
0.35900002 24433.81725684  1319.42619436
0.36000002 24516.99142884  1593.11417851
0.36100002 24605.29875287  1603.28134268
0.36200002 24700.01211917  1344.91572359
0.36300002 24798.47194183  1895.59528502
0.36400002 24902.80772294  1908.80030238
0.36500002 25011.56232141  1510.44832014
0.36600002 25125.74460508  1521.48953663
0.36700002 25244.02395529  1672.16422601
0.36800002 25368.01534838  1404.11971604
0.36900002 25495.09090173  1980.96865690
0.37000002 25625.31145104  2281.67783968
0.37100002 25759.79050376  1724.87565384
0.37200002 25898.45910275  2753.13582533
0.37300002 26039.94456632  1606.92505531
0.37400002 26185.72682537  1767.53664444
0.37500002 26333.43699789  1782.24710044
0.37600002 26485.22909811  2396.38364232
0.37700002 26638.58991394  1510.40811967
0.37800002 26795.49045867  1980.32081616
0.37900002 26954.61066252  2150.97803277
0.38000002 27116.23766811  2634.47819545
0.38100002 27279.42124555  1719.42200256
0.38200002 27445.07070348  1892.06326393
0.38300002 27612.29526510  1908.56193914
0.38400002 27781.78754636  2085.71779885
0.38500002 27951.93492217  2751.30908473
0.38600002 28124.54398350  1959.15582670
0.38700002 28297.55944802  2140.99344927
0.38800002 28471.67811344  1661.32249663
0.38900002 28646.95388802  2681.35501095
0.39000002 28823.99258884  2535.79086814
0.39100002 29000.78889758  2216.82040836
0.39200002 29178.91381376  3268.18439655
0.39300002 29357.03655381  2082.00113104
0.39400002 29536.62568782  1750.04515492
0.39500002 29715.33411482  2118.10911605
0.39600002 29894.53669327  2136.26369331
0.39700002 30073.30769606  2333.98952087
0.39800002 30253.39874840  1991.73260097
0.39900002 30432.18103563  2556.30332811
0.40000002 30610.63958458  2945.96809320
0.40100002 30788.76378751  2413.53130765
0.40200002 30967.49978629  2246.38254093
0.40300002 31144.51295350  2076.09333185
0.40400002 31321.15990406  2473.58872062
0.40500002 31496.94313893  2109.98032085
0.40600002 31672.29592491  2513.67188518
0.40700002 31846.42428670  2533.70163630
0.40800002 32019.64295934  1964.40518863
0.40900002 32191.16978774  1979.75703575
0.41000002 32362.42924627  2593.68701484
0.41100002 32531.96128568  2010.47530272
0.41200002 32699.42925110  2228.30271190
0.41300002 32866.21895820  2653.28998222
0.41400002 33030.99123019  2261.79723166
0.41500002 33194.97926745  3314.18688710
0.41600002 33355.92943505  2295.05483353
0.41700002 33516.00736081  2521.74451332
0.41800002 33675.16307170  2116.48409934
0.41900002 33830.39579868  2770.70954720
0.42000002 33984.52394032  2360.73506738
0.42100002 34137.20243519  2376.97351820
0.42200002 34287.58031951  2393.10178180
0.42300002 34435.36907259  2847.11644983
0.42400002 34581.00313603  3306.80858158
0.42500002 34724.86901781  2218.91923538
0.42600002 34865.03111753  2679.72641868
0.42700002 35004.16420335  2921.44768285
0.42800002 35140.38742631  3618.05446086
0.42900002 35274.67224630  3185.30305478
0.43000002 35406.49653679  2975.73914245
0.43100002 35534.37380324  2532.89028472
0.43200002 35660.59533503  3705.84924283
0.43300002 35783.74399433  3494.28276663
0.43400002 35904.69758747  2342.78162860
0.43500002 36022.42298526  3533.79986232
0.43600002 36138.31613364  2368.86673482
0.43700002 36250.42191992  3096.14868290
0.43800002 36359.08535415  3830.79341445
0.43900002 36465.90071745  3850.79929825
0.44000002 36569.11255263  3386.66567399
0.44100002 36670.03647878  2431.22353376
0.44200002 36767.75896629  2687.53946900
0.44300002 36862.66487269  2700.55895655
0.44400002 36954.04354992  3700.02378578
0.44500002 37041.52006791  2478.07780998
0.44600002 37126.87916638  2738.29310269
0.44700002 37209.24184641  3000.55340469
0.44800002 37287.33630765  3766.95332900
0.44900002 37363.87197087  2522.06147756
0.45000002 37436.80447939  3798.89991458
0.45100002 37505.34010499  3814.29326945
0.45200002 37571.61937574  3063.58998909
0.45300002 37633.92944823  2819.15778857
0.45400002 37693.82120245  3601.64478659
0.45500002 37750.21717858  4131.38396382
0.45600002 37803.23946987  3109.69462617
0.45700002 37852.83408908  3120.58779020
0.45800002 37898.51435367  3131.17540430
0.45900002 37941.26991301  3926.92162211
0.46000002 37981.43958922  3939.62500811
0.46100002 38017.01136902  3161.49481529
0.46200002 38050.09567017  3171.09512345
0.46300002 38079.69999636  3180.41669443
0.46400002 38105.24197495  2657.84075372
0.46500002 38128.60181191  2931.70833227
0.46600002 38147.65624036  3206.69213555
0.46700002 38163.33138449  3214.87918820
0.46800002 38176.53418784  2954.29123815
0.46900002 38185.57897356  3768.91682332
0.47000002 38190.87297366  2698.18530347
0.47100002 38193.45346800  3785.73528718
0.47200002 38192.38628191  3793.64990919
0.47300002 38188.78922251  2715.22304241
0.47400002 38180.18366623  2992.37203667
0.47500002 38169.54476225  3270.36675024
0.47600002 38155.95513285  3276.07046299
0.47700002 38137.72644517  3007.92262730
