# SAXS profile: number of points = 501, q_min = 0, q_max = 0.5, delta_q = 0.001
#    q    intensity    error
0.00000000 1700912.83420645 306.16431016
0.00100000 1700842.51158513 612.30331871
0.00200000 1700631.49077417 1147.92629262
0.00300000 1700279.94102529 1734.28560163
0.00400000 1699787.73745343 1402.32493668
0.00500000 1699155.34423008 2140.93581847
0.00600000 1698382.45591180 1961.63181644
0.00700000 1697469.80767858 2648.05301003
0.00800000 1696416.76557396 2977.21154928
0.00900000 1695224.82799771 2797.12108577
0.01000000 1693892.99352737 3353.90827200
0.01100000 1692422.62971828 3960.26912597
0.01200000 1690813.19827244 3626.79446931
0.01300000 1689066.04281310 3901.74273098
0.01400000 1687180.42166713 6073.84978726
0.01500000 1685158.26295903 5662.13201567
0.01600000 1682998.27784677 6008.30412051
0.01700000 1680702.62938288 4991.68703319
0.01800000 1678270.90700648 5739.68676023
0.01900000 1675703.85067964 5529.82295676
0.02000000 1673002.18165918 5796.95282168
0.02100000 1670167.51912908 7165.01898191
0.02200000 1667198.02343468 8052.56681904
0.02300000 1664096.66237637 7188.89790869
0.02400000 1660863.22626151 7473.88485897
0.02500000 1657499.21698867 7110.67196563
0.02600000 1654004.81295866 9378.20771842
0.02700000 1650381.03909504 6931.60068167
0.02800000 1646627.77896995 12176.81298391
0.02900000 1642747.59667270 8870.83742933
0.03000000 1638740.86590726 11430.21806510
0.03100000 1634607.90149578 8630.73011702
0.03200000 1630349.77243457 11298.32444335
0.03300000 1625969.16117708 10780.17603558
0.03400000 1621464.22596326 14471.56888445
0.03500000 1616838.23632340 8730.92687932
0.03600000 1612090.98864853 8947.10540048
0.03700000 1607224.49740236 12825.65208243
0.03800000 1602239.58664161 11247.72241876
0.03900000 1597138.29775632 10541.11325335
0.04000000 1591919.13908112 9790.30315902
0.04100000 1586586.09375864 11994.59142496
0.04200000 1581139.52701755 11218.18546463
0.04300000 1575579.51922057 14558.35543337
0.04400000 1569910.10638920 14835.65119437
0.04500000 1564130.58534655 14030.25200247
0.04600000 1558241.36661252 15379.84300343
0.04700000 1552245.83879158 13411.40467090
0.04800000 1546144.10010564 13636.99159744
0.04900000 1539939.02876080 20789.17785596
0.05000000 1533630.01285457 15251.95118806
0.05100000 1527220.59733830 15486.01757841
0.05200000 1520709.07889178 13298.60151464
0.05300000 1514100.75211872 17169.90332945
0.05400000 1507394.20755416 16166.80362994
0.05500000 1500593.25462073 18907.47589024
0.05600000 1493696.43573296 12771.10512147
0.05700000 1486709.05511710 14227.80632160
0.05800000 1479629.44401943 19642.08178649
0.05900000 1472459.73809296 13252.13826179
0.06000000 1465202.72513399 18769.24778584
0.06100000 1457860.22198039 16269.72083761
0.06200000 1450432.55562245 23301.20009525
0.06300000 1442922.81933197 16622.47165589
0.06400000 1435329.32346479 15393.90771408
0.06500000 1427658.11036967 14133.81595381
0.06600000 1419907.29539091 17124.08278363
0.06700000 1412080.07123699 23045.14784108
0.06800000 1404179.14282718 24706.53317453
0.06900000 1396205.70262485 16126.17662033
0.07000000 1388158.70810136 19219.05821366
0.07100000 1380043.58339262 16394.91853861
0.07200000 1371858.84148761 16524.04051982
0.07300000 1363609.95923665 18163.28550808
0.07400000 1355295.57732099 22870.61393910
0.07500000 1346918.69191543 16890.36118831
0.07600000 1338479.26468186 17005.37985501
0.07700000 1329982.69990832 20229.03781411
0.07800000 1321427.29562823 21922.47986255
0.07900000 1312815.19768316 18904.53973333
0.08000000 1304150.84143033 19014.52016005
0.08100000 1295433.77054402 20713.98696286
0.08200000 1286665.21933437 22426.57582537
0.08300000 1277848.26227267 17710.97774631
0.08400000 1268983.42228303 17797.49333291
0.08500000 1260075.02826818 22756.95607885
0.08600000 1251122.13014311 24490.71684743
0.08700000 1242128.18223466 18035.70205296
0.08800000 1233092.08752005 19754.13616980
0.08900000 1224020.05275059 21481.55293475
0.09000000 1214910.26852618 18241.87853884
0.09100000 1205766.17624789 23295.40361955
0.09200000 1196588.42635375 20030.89119835
0.09300000 1187380.85722784 21764.69213576
0.09400000 1178141.28563918 21825.06834219
0.09500000 1168874.29982867 18514.96977954
0.09600000 1159581.06240385 20246.28630130
0.09700000 1150264.82267393 21981.56179471
0.09800000 1140926.09308307 18637.02860678
0.09900000 1131566.66351157 16973.50075081
0.10000000 1122186.72639184 23801.58158609
0.10100000 1112788.68893890 28943.63516057
0.10200000 1103375.15809599 20456.57639330
0.10300000 1093947.15337527 18772.13403497
0.10400000 1084507.17037637 20497.18648441
0.10500000 1075057.85803075 30768.15734446
0.10600001 1065595.74438917 25654.21875329
0.10700001 1056128.55208905 17109.28334897
0.10800001 1046653.48788910 22246.62093205
0.10900001 1037175.19056858 23958.74802977
0.11000001 1027693.30327901 18822.20373551
0.11100001 1018210.33609211 25658.90167737
0.11200001 1008728.43567617 18807.74256860
0.11300001 999246.44566866 18795.82652795
0.11400001 989769.32447740 17073.52165113
0.11500001 980297.30595916 25585.76089032
0.11600001 970830.88962969 20445.69949842
0.11700001 961373.95185505 32331.00752351
0.11800001 951923.76971893 25487.76013465
0.11900001 942485.90306522 22054.17117051
0.12000001 933059.38164330 16935.02857455
0.12100001 923648.18805768 20283.31516526
0.12200001 914250.89667346 20241.51580595
0.12300001 904870.55242240 18513.65237482
0.12400001 895507.53510035 23507.07390398
0.12500001 886163.75507853 16748.49576018
0.12600001 876842.06528823 25055.76319633
0.12700001 867541.74346965 18322.48248555
0.12800001 858263.65827347 16607.40257029
0.12900001 849010.94635050 23177.99992780
0.13000001 839784.04924124 18151.93307994
0.13100001 830583.07697489 23023.76397903
0.13200001 821411.73171954 19664.59778436
0.13300001 812270.39913371 24489.95368841
0.13400001 803158.57266475 22769.54660853
0.13500001 794079.53808574 21058.99034293
0.13600001 785032.62140904 24198.63169592
0.13700001 776020.70604096 22489.08112150
0.13800001 767042.50365300 19191.40434638
0.13900001 758103.36688631 19104.20574645
0.14000001 749200.10764938 20599.25793129
0.14100001 740336.13718352 20499.90860545
0.14200001 731510.35731508 23536.34685671
0.14300001 722728.35659993 17172.02656278
0.14400001 713983.05038763 21740.78490981
0.14500001 705284.58486605 15445.73313717
0.14600001 696627.23659599 19968.82067904
0.14700001 688016.95408066 18328.77252140
0.14800001 679450.01576951 18222.85028267
0.14900001 670928.72299207 16605.48667751
0.15000001 662455.68151149 18005.54627304
0.15100001 654030.06172268 20876.64055525
0.15200001 645654.68964519 19263.10857453
0.15300001 637328.55466067 19138.97739961
0.15400001 629050.97319580 14625.43581699
0.15500001 620826.17419388 15980.06647790
0.15600001 612651.77936887 23084.72013610
0.15700001 604533.28473284 14327.43952438
0.15800001 596463.34253435 18493.34680814
0.15900001 588450.87230882 14122.82160202
0.16000001 580490.19402502 19626.37438640
0.16100001 572588.53918834 18088.07280679
0.16200001 564739.93385528 15188.68123804
0.16300001 556949.33756108 16441.14522095
0.16400001 549215.11979682 14952.38234236
0.16500001 541539.13189031 14832.75752275
0.16600001 533920.52116087 14712.18065519
0.16700001 526360.69284036 14590.71909443
0.16800001 518858.42605732 17098.98023807
0.16900001 511418.37797730 18257.63695588
0.17000001 504037.14854510 12928.55347066
0.17100001 496716.30245493 16659.86557104
0.17200001 489456.73807324 15241.68354336
0.17300001 482258.33306517 13845.63739615
0.17400001 475122.32982308 14966.35409623
0.17500001 468047.59172263 13592.10270555
0.17600001 461033.50016130 20808.74801256
0.17700001 454084.30859364 13336.45677328
0.17800001 447197.12558583 14408.69206693
0.17900001 440372.89967679 17835.10327933
0.18000001 433612.96744440 12949.85188441
0.18100001 426917.56112931 15151.30496017
0.18200001 420283.22665902 12690.45262844
0.18300001 413715.57810012 17127.82574245
0.18400001 407210.69479606 12430.10704586
0.18500001 400771.29941256 12299.67176003
0.18600001 394396.00888382 14381.65114339
0.18700001 388085.05288933 12038.39890938
0.18800001 381838.43904774 14072.65633598
0.18900001 375658.95760837 17130.04927629
0.19000001 369540.19475171 10587.32707987
0.19100001 363491.50545663 11515.41143697
0.19200001 357504.60038840 11384.73453731
0.19300001 351584.77658354 13300.45272664
0.19400001 345729.01258250 13146.34632467
0.19500001 339938.71343327 9994.19864722
0.19600001 334212.68348697 11851.18231649
0.19700001 328552.49459715 12685.41241588
0.19800001 322957.26390212 12532.35721799
0.19900001 317427.76484187 10475.11673484
0.20000001 311961.00576602 10346.18724520
0.20100001 306561.03722665 12075.43982707
0.20200001 301224.55736644 9172.28820532
0.20300001 295953.38009380 11773.02601658
0.20400001 290746.64953130 11622.59786436
0.20500001 285603.29778499 9707.65655056
0.20600001 280524.67891444 16549.55421482
0.20700001 275509.97489218 14613.04975903
0.20800001 270558.56798316 8482.01150722
0.20900001 265673.03550399 15063.66182515
0.21000001 260848.60337812 11558.20216207
0.21100001 256087.56994378 8957.94362011
0.21200001 251389.30300350 12047.83291600
0.21300001 246753.58257800 10297.02748778
0.21400001 242181.40046450 9372.42064107
0.21500001 237671.79344888 8470.62311899
0.21600001 233222.20795149 7591.38322773
0.21700001 228835.37922654 7482.91725450
0.21800001 224509.73402704 11062.71766723
0.21900001 220244.18018666 8721.66994777
0.22000001 216039.00730102 8594.03211678
0.22100001 211896.74051360 7761.77797202
0.22200001 207813.11212963 11122.15828708
0.22300001 203789.16886360 8901.51131687
0.22400001 199822.76981146 7418.42068004
0.22500001 195918.73390403 9962.46809012
0.22600001 192071.33980374 7848.03531550
0.22700001 188283.30822188 7727.14733484
0.22800001 184552.50052275 7607.25443130
0.22900001 180878.53483735 6240.30974700
0.23000001 177262.31348818 6756.35339812
0.23100001 173704.24031858 7253.88941876
0.23200001 170200.37720374 8327.90485044
0.23300001 166753.76279176 9364.89176129
0.23400001 163362.48222932 5758.52777093
0.23500001 160025.05746616 6231.37603245
0.23600001 156743.27926656 7801.11337807
0.23700001 153515.42344423 6028.55096379
0.23800001 150341.42904318 7545.63668058
0.23900001 147220.89412860 7419.93341504
0.24000001 144152.98017267 6774.46962365
0.24100001 141138.54453867 7684.99411364
0.24200001 138175.63364034 6547.45270975
0.24300001 135264.22440584 6435.87210166
0.24400001 132403.40951590 5352.40808287
0.24500001 129593.48892345 5260.19996423
0.24600001 126833.82977438 5169.11297698
0.24700001 124124.59372970 4617.43510518
0.24800001 121463.61412876 5443.99944279
0.24900001 118851.33702993 4902.61788441
0.25000001 116287.71600551 4378.23271473
0.25100001 113771.26382746 6020.77556659
0.25200001 111303.15331994 5913.53681566
0.25300001 108882.04465963 5392.92792713
0.25400001 106506.41914872 6518.19316028
0.25500001 104176.78513971 4400.42761249
0.25600001 101893.06275453 4320.77553053
0.25700001 99653.94696506  5784.91189503
0.25800001 97458.86255817  6436.67088220
0.25900001 95308.28122715  4460.42777247
0.26000001 93201.34694122  4743.48277701
0.26100001 91135.25724464  3939.77735710
0.26200001 89114.46142540  4921.79193741
0.26300001 87134.00570580  6210.91222059
0.26400001 85194.72418199  4063.78853577
0.26500001 83297.29126678  3988.27449457
0.26600001 81439.57747965  3261.65523240
0.26700001 79622.75781028  3841.00201852
0.26800001 77845.28870984  3769.26905770
0.26900001 76106.23465894  3698.76317946
0.27000001 74406.06613633  3629.52807789
0.27100001 72744.00813615  3561.54680689
0.27200001 71119.84228878  3786.06498341
0.27300001 69532.18155260  3715.10463617
0.27400001 67979.92117669  3084.58906937
0.27500001 66466.00633708  3026.86207184
0.27600001 64985.76984058  4050.23829700
0.27700001 63542.16143668  5829.35816608
0.27800001 62132.24151964  4420.39853212
0.27900001 60756.87517839  3317.32554174
0.28000001 59415.00101616  3005.21089363
0.28100001 58106.09656833  2703.67680129
0.28200001 56830.49302093  2894.94545150
0.28300001 55587.09805523  2604.81153815
0.28400001 54375.53354590  3719.28667058
0.28500001 53195.64921807  2510.30280542
0.28600001 52045.64529563  2240.56513603
0.28700001 50926.80551489  2420.04191261
0.28800001 49837.23618646  2376.48872004
0.28900001 48778.82054601  2758.44243244
0.29000001 47747.84577912  2709.45163699
0.29100001 46746.64710617  2252.25356419
0.29200001 45773.20371326  2212.90563827
0.29300001 44827.40628013  2174.57758158
0.29400001 43908.69709273  2525.84791982
0.29500001 43017.84772959  1909.99252961
0.29600001 42152.51338921  2253.47347246
0.29700001 41312.85952585  2216.02188987
0.29800001 40499.40429205  2179.67804218
0.29900001 39711.09981414  2323.09944910
0.30000001 38947.10398177  2989.38510764
0.30100001 38208.57742766  2250.10323124
0.30200001 37492.61008006  1874.44312969
0.30300001 36800.56038425  2181.53732286
0.30400001 36132.37151835  1818.36168275
0.30500001 35485.50441718  2117.42014882
0.30600001 34861.42837902  2086.97950871
0.30700001 34259.59282042  1582.79326324
0.30800001 33678.93725914  1561.01881587
0.30900001 33119.34891000  1694.05477695
0.31000001 32581.22074927  2127.87962788
0.31100001 32061.83127655  1800.59252974
0.31200001 31563.40339661  1481.90185963
0.31300001 31084.18716439  1464.06528476
0.31400001 30625.43238250  1447.05174859
0.31500001 30184.30653211  1573.80981710
0.31600002 29762.01013190  1698.22037853
0.31700002 29357.29300586  1820.44582549
0.31800002 28970.60787929  1524.86801793
0.31900002 28601.73214709  1372.88320807
0.32000002 28249.51594174  1360.21425700
0.32100002 27914.27239883  1617.91130484
0.32200002 27595.52662980  1871.80465993
0.32300002 27292.18007359  1459.04001582
0.32400002 27004.71343624  1448.12782659
0.32500002 26732.15228479  1960.80346294
0.32600002 26475.19801976  1428.46937680
0.32700002 26232.61810745  1419.70935920
0.32800002 26005.32826885  1540.03561301
0.32900002 25790.60892495  1276.63520224
0.33000002 25591.48818893  1651.80268337
0.33100002 25403.16925921  1644.60125572
0.33200002 25230.57710111  1386.29412447
0.33300002 25069.31601449  1632.76462934
0.33400002 24921.42939982  2003.68301863
0.33500002 24785.22116617  1998.68032949
0.33600002 24660.87586112  1994.57173410
0.33700002 24547.52348542  1369.01544961
0.33800002 24446.82744294  1367.43335778
0.33900002 24356.09246733  1863.24116199
0.34000002 24276.59805508  1614.27246412
0.34100002 24207.56212658  1366.03279550
0.34200002 24149.81392047  1615.26038057
0.34300002 24100.36044970  1616.65225553
0.34400002 24061.70598567  1743.27068122
0.34500002 24031.91584108  1247.25649122
0.34600002 24012.63840218  1624.81525444
0.34700002 24000.04022321  1753.92302258
0.34800002 23997.86245145  1381.91697472
0.34900002 24003.60168837  1638.24589282
0.35000002 24017.66238735  1770.34197842
0.35100002 24039.71436137  1523.15637408
0.35200002 24068.62340319  1401.87703652
0.35300002 24105.57634229  2048.00986304
0.35400002 24150.17350715  1285.99680017
0.35500002 24201.28872490  1809.28843077
0.35600002 24259.01150246  1688.79116573
0.35700002 24323.44274667  1567.40272484
0.35800002 24394.74232154  1445.02262986
0.35900002 24471.66361511  1585.76387737
0.36000002 24555.16176929  1595.59448735
0.36100002 24643.77129209  1605.78821345
0.36200002 24738.85692694  1616.43698817
0.36300002 24837.56640698  1627.35742807
0.36400002 24942.22331034  1775.26282820
0.36500002 25051.22559832  1512.84358554
0.36600002 25165.67344007  1662.44446620
0.36700002 25284.19774701  1814.39411627
0.36800002 25408.37734913  1546.98912818
0.36900002 25535.65671112  1700.67481752
0.37000002 25666.08971548  2142.47694049
0.37100002 25800.80424201  1727.62193388
0.37200002 25939.68227349  1451.32529195
0.37300002 26081.27679643  1609.47566735
0.37400002 26227.23122480  2212.92273942
0.37500002 26375.07676501  2231.33160002
0.37600002 26526.95719364  2100.13930051
0.37700002 26680.44008018  1512.78102421
0.37800002 26837.42430583  1678.27840847
0.37900002 26996.65198391  2308.21385397
0.38000002 27158.34152768  2328.14893775
0.38100002 27321.59881996  1878.63322386
0.38200002 27487.26236962  2210.80061712
0.38300002 27654.51959949  2707.93068747
0.38400002 27824.08052541  2088.89294440
0.38500002 27994.21342824  1782.95153771
0.38600002 28166.81705578  1798.59218830
0.38700002 28339.79580527  1814.31381341
0.38800002 28513.84446049  1830.16119340
0.38900002 28689.14236883  2349.64087132
0.39000002 28866.06243297  2200.89303447
0.39100002 29042.83435948  2220.03436362
0.39200002 29220.91672253  3272.88893257
0.39300002 29398.87021348  2432.46263671
0.39400002 29578.32381016  2278.27049942
0.39500002 29756.92154570  2297.82959062
0.39600002 29935.97396421  2495.76226764
0.39700002 30114.61453441  1977.62683017
0.39800002 30294.54256545  1813.12845845
0.39900002 30473.09934516  2376.90186154
0.40000002 30651.37146752  2949.88812980
0.40100002 30829.33709033  2416.71184901
0.40200002 31007.83365143  2061.86599634
0.40300002 31184.64816864  2078.76874541
0.40400002 31360.97919440  3048.28732212
0.40500002 31536.60213716  2112.63707727
0.40600002 31711.61106081  1935.99394699
0.40700002 31885.50775243  1951.39316691
0.40800002 32058.40671882  2163.46167993
0.40900002 32229.68312520  1982.12560612
0.41000002 32400.54639086  2396.99253557
0.41100002 32569.77050515  2415.37429511
0.41200002 32736.90741117  2230.85666124
0.41300002 32903.31248625  2247.62538243
0.41400002 33067.80311993  2676.01209428
0.41500002 33231.37587445  2488.36554339
0.41600002 33391.93642400  2715.26543898
0.41700002 33551.62794417  2734.79332331
0.41800002 33710.33881626  2966.17285299
0.41900002 33865.16216651  2986.90744462
0.42000002 34018.88331775  2363.12184164
0.42100002 34171.10809574  2811.94061844
0.42200002 34321.00571220  2177.66791563
0.42300002 34468.38475684  2849.84618674
0.42400002 34613.51353134  3089.25622906
0.42500002 34756.92842703  2443.06461490
0.42600002 34896.56712138  3129.17532205
0.42700002 35035.20100806  3373.89001695
0.42800002 35170.93370177  2263.24969096
0.42900002 35304.65989318  2504.86573812
0.43000002 35435.94806038  2749.12098080
0.43100002 35563.29287271  2304.50148736
0.43200002 35688.94724630  2781.59668019
0.43300002 35811.52887783  3263.86289659
0.43400002 35931.94584603  2579.01553531
0.43500002 36049.04194230  3300.65043665
0.43600002 36164.36749214  2844.68928174
0.43700002 36275.93465588  2859.99482380
0.43800002 36383.87487890  2395.87827431
0.43900002 36490.16522950  3130.85632506
0.44000002 36592.71912373  2662.66933322
0.44100002 36693.04190771  3892.39807003
0.44200002 36790.11576737  2689.17363946
0.44300002 36884.35524094  3193.44762810
0.44400002 36975.05361034  2714.89344000
0.44500002 37061.90758405  2727.38590836
0.44600002 37146.58604742  2739.74658377
0.44700002 37228.31539318  3002.09149558
0.44800002 37305.72944437  3015.04919658
0.44900002 37381.54043887  3784.88114881
0.45000002 37453.74772147  2533.74615344
0.45100002 37521.62944290  2798.36325647
0.45200002 37587.16903944  2554.04825727
0.45300002 37648.82656236  2563.88521041
0.45400002 37707.94049086  3860.35059071
0.45500002 37763.62418232  2841.33521814
0.45600002 37815.88568310  3629.19072101
0.45700002 37864.74861191  3121.57002351
0.45800002 37909.70379958  3132.09987636
0.45900002 37951.75115652  3404.27224008
0.46000002 37991.13449939  3415.21319768
0.46100002 38025.94523781  2898.71794286
0.46200002 38058.31870282  2643.15035918
0.46300002 38087.09182003  2650.86171631
0.46400002 38111.90609209  3721.62780628
0.46500002 38134.50445803  2665.60198795
0.46600002 38152.72675269  2672.59863570
0.46700002 38167.66653586  3751.11844493
0.46800002 38180.06784124  3491.75826992
0.46900002 38188.32159346  3230.73215993
0.47000002 38192.84263997  3507.82179853
0.47100002 38194.63636933  3515.43449805
0.47200002 38192.75484478  2980.75369314
0.47300002 38188.42246838  3801.27575267
0.47400002 38179.00050617  3808.35548100
0.47500002 38167.60822653  4360.26777047
0.47600002 38153.17000019  3002.84538719
0.47700002 38134.15339593  3554.48460651
