# SAXS profile: number of points = 501, q_min = 0, q_max = 0.5, delta_q = 0.001
#    q    intensity    error
0.00000000 1700912.83420645 255.13692513
0.00100000 1700842.53354977 612.30332662
0.00200000 1700631.58034288 918.34108246
0.00300000 1700280.14093759 1122.18493299
0.00400000 1699788.09497962 1402.32523164
0.00500000 1699155.90206090 1835.08844686
0.00600000 1698383.26440200 1961.63275025
0.00700000 1697470.90952711 2240.66169370
0.00800000 1696418.18995170 2519.18111844
0.00900000 1695226.63310132 3305.69207586
0.01000000 1693895.23731724 3074.41998848
0.01100000 1692425.32384497 3351.00228711
0.01200000 1690816.41451087 3626.80136814
0.01300000 1689069.79463928 3901.75139770
0.01400000 1687184.76411018 4555.39906504
0.01500000 1685163.23410054 4853.27033032
0.01600000 1683003.93917828 4720.82626043
0.01700000 1680708.99674797 4537.91449478
0.01800000 1678278.02589133 5261.40184792
0.01900000 1675711.75976108 5027.13550612
0.02000000 1673010.93398191 6323.98161652
0.02100000 1670177.13737156 7716.21872450
0.02200000 1667208.56079278 8052.61771448
0.02300000 1664108.13985567 7788.02644902
0.02400000 1660875.64541510 7473.94074516
0.02500000 1657512.64759476 8403.58950710
0.02600000 1654019.29468802 10718.04551980
0.02700000 1650396.57795305 6931.66594488
0.02800000 1646644.46093168 7162.90373354
0.02900000 1642765.41455899 8131.68917543
0.03000000 1638759.89151857 10668.32738416
0.03100000 1634628.12810554 11769.32306390
0.03200000 1630371.27636442 9684.40582765
0.03300000 1625991.85805288 9951.07063003
0.03400000 1621488.18636695 11066.65738257
0.03500000 1616863.52432505 8731.06343454
0.03600000 1612117.67326478 14315.60560017
0.03700000 1607252.47632011 10077.47349259
0.03800000 1602268.95016846 11247.92855073
0.03900000 1597169.00886536 12457.91884608
0.04000000 1591951.30264006 14685.75144738
0.04100000 1586619.68266808 12994.41580356
0.04200000 1581174.59765375 10198.57662801
0.04300000 1575616.00534285 14558.69256515
0.04400000 1569947.96451296 12716.57910314
0.04500000 1564170.03400514 15109.88323057
0.04600000 1558282.29507705 13183.06882919
0.04700000 1552288.25698373 16764.71395512
0.04800000 1546188.04217246 14773.82743036
0.04900000 1539984.47151993 16169.83770362
0.05000000 1533677.06802748 12905.89312843
0.05100000 1527269.12833946 11912.69975599
0.05200000 1520759.08963815 12090.03532603
0.05300000 1514152.34629014 12264.63457670
0.05400000 1507447.37138143 13680.08553324
0.05500000 1500647.90324918 13865.98727286
0.05600000 1493752.69296141 17880.22056911
0.05700000 1486766.70092554 12934.87090183
0.05800000 1479688.63577956 14404.76954191
0.05900000 1472520.42331833 14577.95287173
0.06000000 1465265.03152874 13407.17566486
0.06100000 1457923.95780615 14914.56278533
0.06200000 1450497.76478786 20560.80677695
0.06300000 1442989.56817642 13852.70050218
0.06400000 1435397.42800077 13995.12557751
0.06500000 1427727.59871485 14134.50388846
0.06600000 1419978.30803615 15697.86092982
0.06700000 1412152.47157799 17284.74706102
0.06800000 1404252.92099213 15987.42025385
0.06900000 1396280.71890962 16127.04305846
0.07000000 1388235.13287340 19220.11631468
0.07100000 1380121.26539718 16395.84140086
0.07200000 1371937.71847573 16524.99059318
0.07300000 1363690.10643911 15136.96089073
0.07400000 1355376.95318143 28971.18373196
0.07500000 1347001.18597005 15355.81423982
0.07600000 1338562.95536510 18552.48343111
0.07700000 1330067.59910039 20230.32913089
0.07800000 1321513.19488642 17225.92530318
0.07900000 1312902.08512928 15754.82576051
0.08000000 1304238.69181496 19015.80101871
0.08100000 1295522.51693635 19121.91324715
0.08200000 1286754.89200246 19224.11898861
0.08300000 1277938.87437428 20932.63974466
0.08400000 1269074.85755193 24271.05778993
0.08500000 1260167.17882687 21133.00458102
0.08600000 1251214.92255431 21226.86215777
0.08700000 1242221.72148715 16397.32749361
0.08800000 1233186.37224110 24694.55826388
0.08900000 1224114.81805520 23135.77114792
0.09000000 1215005.48411201 21560.27332837
0.09100000 1205861.80910823 18304.98312225
0.09200000 1196684.56260453 20032.50051926
0.09300000 1187477.34219688 20092.11757414
0.09400000 1178237.98861003 20147.87055213
0.09500000 1168971.27062897 21883.14321474
0.09600000 1159678.29125304 25309.97989636
0.09700000 1150362.05846663 23674.45227625
0.09800000 1141023.36687651 22027.45713323
0.09900000 1131663.99316601 18672.45676526
0.10000000 1122284.10056223 20403.12590772
0.10100000 1112885.75135911 18729.86807627
0.10200000 1103471.96069352 22163.23537301
0.10300000 1094043.69312557 23893.91538185
0.10400000 1084603.48785785 30748.51032734
0.10500000 1075153.58720598 17094.94284088
0.10600001 1065691.08701653 22235.64557687
0.10700001 1056223.40651084 27377.31198507
0.10800001 1046747.69347298 22248.62327183
0.10900001 1037268.63503862 17114.93328366
0.11000001 1027785.96657912 25668.95572354
0.11100001 1018302.16500934 20528.97261296
0.11200001 1008819.24782683 20519.38446679
0.11300001 999336.47127810 17088.65446340
0.11400001 989858.08514643 18782.55805002
0.11500001 980385.07509951 25588.05166499
0.11600001 970917.49006621 28967.32468024
0.11700001 961459.20711722 27228.52602789
0.11800001 952007.70074353 27189.34121381
0.11900001 942568.35992546 25449.34691669
0.12000001 933140.30362542 22017.44650117
0.12100001 923727.46861404 20285.05616636
0.12200001 914328.39965435 18556.29574520
0.12300001 904946.25090105 16832.00105979
0.12400001 895581.39090230 20150.58224475
0.12500001 886235.72824998 25124.78407978
0.12600001 876911.97647679 21716.72612081
0.12700001 867609.70133996 18323.91775584
0.12800001 858329.22641096 18269.53844519
0.12900001 849074.53244179 21524.04041187
0.13000001 839845.24409517 18153.25580677
0.13100001 830641.84646528 21380.72213585
0.13200001 821468.02945429 26221.26073626
0.13300001 812324.24162770 16327.71802645
0.13400001 803209.59735850 22770.99315867
0.13500001 794127.96573050 21060.27464413
0.13600001 785078.28247085 20973.36730512
0.13700001 776063.40066019 17670.96446628
0.13800001 767082.40242385 17593.03572920
0.13900001 758140.15683783 19105.13285328
0.14000001 749233.80308403 22184.81395557
0.14100001 740366.68755729 18923.77342647
0.14200001 731537.80457109 18829.78397777
0.14300001 722752.30835963 17172.59565661
0.14400001 714003.65750502 24847.32845322
0.14500001 705301.72302305 21624.55184796
0.14600001 696640.87354107 19969.21158209
0.14700001 688026.94237654 15274.19884134
0.14800001 679456.33650625 18223.01980484
0.14900001 670931.44101126 21134.34138899
0.15000001 662454.66780701 27008.27808082
0.15100001 654025.05526523 16402.94916002
0.15200001 645645.68745903 17781.08307166
0.15300001 637315.54671774 16194.18880629
0.15400001 629033.92163935 19012.55117877
0.15500001 620805.03955825 20337.57405572
0.15600001 612626.38359532 17312.82241748
0.15700001 604503.73297218 15759.41306238
0.15800001 596429.39336123 15647.32587337
0.15900001 588412.56246937 16946.28259899
0.16000001 580447.58149975 22428.49560783
0.16100001 572541.32407794 15304.03031502
0.16200001 564688.39156467 20709.94773827
0.16300001 556893.03691212 17809.44016119
0.16400001 549154.22008376 17669.03786534
0.16500001 541473.61789988 17527.50183892
0.16600001 533850.31430489 14710.24610519
0.16700001 526285.63405035 14588.63846467
0.16800001 518778.47366606 17096.34540689
0.16900001 511333.63759530 16950.71088666
0.17000001 503947.39188412 16804.12657586
0.17100001 496621.68663382 14094.12413221
0.17200001 489357.19381643 15238.58373505
0.17300001 482153.79148630 17617.90037291
0.17400001 475012.61693072 18703.62267495
0.17500001 467932.85429024 12353.42793668
0.17600001 460913.61692628 14684.70852882
0.17700001 453959.32519259 12120.71455511
0.17800001 447066.92120440 20406.37058221
0.17900001 440237.51100277 15452.33736607
0.18000001 433472.41824116 14122.53205338
0.18100001 426771.70007420 15146.12835108
0.18200001 420132.20434386 11532.62955402
0.18300001 413559.28915752 12555.66061194
0.18400001 407049.04140469 16943.41714889
0.18500001 400604.41515873 15647.60919533
0.18600001 394223.80860110 15481.16969515
0.18700001 387907.40888014 12032.88839195
0.18800001 381655.51682952 17311.89506131
0.18900001 375470.67556699 13911.18918703
0.19000001 369346.61366552 15872.67147224
0.19100001 363292.56938192 10462.82649257
0.19200001 357300.40709178 17584.54036592
0.19300001 351375.22477194 10225.01952402
0.19400001 345514.05755979 14148.80132566
0.19500001 339718.45994261 10986.49551371
0.19600001 333987.24441909 10856.25589287
0.19700001 328321.61220589 13651.61328066
0.19800001 322721.18005268 14449.84151974
0.19900001 317186.38728579 12370.26968876
0.20000001 311714.32671366 13157.46235242
0.20100001 306309.14254781 10209.28420363
0.20200001 300967.45130809 10997.35119057
0.20300001 295691.16513856 11762.59510517
0.20400001 290479.29386896 10718.68645039
0.20500001 285330.91028112 13225.08831664
0.20600001 280247.05892018 9571.83874986
0.20700001 275227.26039915 8587.09093036
0.20800001 270270.87629677 11862.18932139
0.20900001 265380.30904212 10031.37615599
0.21000001 260550.93651338 9071.08128352
0.21100001 255785.00698098 8947.35996717
0.21200001 251081.88600895 9626.47996467
0.21300001 246441.41372382 9492.92370542
0.21400001 241864.43683070 9360.15414786
0.21500001 237350.11295429 9997.18723028
0.21600001 232895.82701450 12129.21524437
0.21700001 228504.40167338 11955.35086080
0.21800001 224174.22718108 9573.36082440
0.21900001 219904.15547443 10159.57246328
0.22000001 215694.58183121 7150.27572579
0.22100001 211547.92547690 8453.45550177
0.22200001 207460.01898529 8327.44555583
0.22300001 203431.91369049 7518.84388553
0.22400001 199461.26645634 8078.18167347
0.22500001 195553.11683236 7292.17607151
0.22600001 191701.69664006 6527.44307926
0.22700001 187909.76528407 10925.07427025
0.22800001 184175.08053374 7591.69717861
0.22900001 180497.37341211 6849.87564493
0.23000001 176877.29612971 7967.43818096
0.23100001 173315.76497213 6634.52779690
0.23200001 169808.24099249 6528.27813370
0.23300001 166358.22083227 5839.17382737
0.23400001 162963.48910230 9191.14122007
0.23500001 159622.79348886 7910.90601946
0.23600001 156337.76111398 6669.36920456
0.23700001 153106.93583489 5465.91786783
0.23800001 149929.87890703 6987.48233696
0.23900001 146806.55972255 7927.55459999
0.24000001 143735.65455267 7274.46182100
0.24100001 140718.66085872 6640.51392003
0.24200001 137753.08225259 5523.21009418
0.24300001 134839.15162314 6909.15845599
0.24400001 131975.89925703 6305.14888526
0.24500001 129163.72520674 5719.37002271
0.24600001 126401.78096547 7493.09793010
0.24700001 123690.53084341 5981.67435456
0.24800001 121027.50886793 6780.56650509
0.24900001 118413.42376488 4440.50360125
0.25000001 115848.07700936 6106.35242804
0.25100001 113330.00750181 4712.26193486
0.25200001 110860.35752429 5048.58092050
0.25300001 108437.77108552 5370.92305597
0.25400001 106060.85163838 5273.87609723
0.25500001 103729.98172880 5178.20093289
0.25600001 101445.18340417 4301.78320578
0.25700001 99205.06916333  4223.15999409
0.25800001 97009.15865059  4145.68659108
0.25900001 94857.83915215  4069.40149217
0.26000001 92750.32221266  5446.76292965
0.26100001 90683.81004835  4633.03607459
0.26200001 88662.59793325  4197.28758476
0.26300001 86681.95127043  3432.60543273
0.26400001 84742.42276194  4042.21375701
0.26500001 82845.14029409  4297.17763039
0.26600001 80987.57285678  3892.26293568
0.26700001 79170.84667100  4455.73546149
0.26800001 77393.80340261  3122.84011507
0.26900001 75655.28093287  4596.05853416
0.27000001 73955.72709562  3306.93049357
0.27100001 72294.34572422  3244.57038965
0.27200001 70671.05513395  2893.97984469
0.27300001 69084.40072310  3123.30590450
0.27400001 67533.28717705  3064.32305068
0.27500001 66020.69152869  2733.25675864
0.27600001 64541.71891740  2681.70854793
0.27700001 63099.59582161  3157.50392435
0.27800001 61691.32607548  2839.96033029
0.27900001 60317.75943071  3040.01521919
0.28000001 58977.65794856  2485.90840019
0.28100001 57670.83771473  2683.42420587
0.28200001 56397.35774671  3351.69512952
0.28300001 55156.11272531  3054.54566730
0.28400001 53946.92687657  2536.85435644
0.28500001 52769.47672562  2942.95385628
0.28600001 51622.14936926  3777.96718041
0.28700001 50506.01475455  2400.04593474
0.28800001 49419.24203631  2356.55666804
0.28900001 48363.87239010  2314.21140341
0.29000001 47335.95444380  2686.07886206
0.29100001 46338.03208935  3044.40885238
0.29200001 45367.87203269  2592.09349129
0.29300001 44425.51048426  2546.91463662
0.29400001 43510.32189196  3080.53093577
0.29500001 42623.25360376  1892.47254959
0.29600001 41761.64571744  2046.52954526
0.29700001 40925.90249652  2561.14309947
0.29800001 40116.36027324  2518.90638080
0.29900001 39332.26726578  1946.94732182
0.30000001 38572.59137502  2089.86309963
0.30100001 37838.33693515  1885.48441874
0.30200001 37126.78848667  1856.15387826
0.30300001 36439.28784638  2824.77372758
0.30400001 35775.71491696  1964.08684192
0.30500001 35133.68303559  1773.89974045
0.30600001 34514.48135266  1748.33113569
0.30700001 33917.62408642  1566.99430698
0.30800001 33341.93252322  1699.93851018
0.30900001 32787.62903836  1677.08730471
0.31000001 32254.71720301  1956.08741739
0.31100001 31740.68880566  1485.46430643
0.31200001 31247.64737538  2053.90795923
0.31300001 30774.03202249  1739.34837226
0.31400001 30320.87277696  1575.92743720
0.31500001 29885.48927769  1841.54393648
0.31600002 29468.97284324  1961.74961506
0.31700002 29070.04182345  1663.96927276
0.31800002 28689.42218847  1647.34670006
0.31900002 28326.58395301  1495.64370354
0.32000002 27980.44786128  1481.98449114
0.32100002 27651.42461913  1869.78942128
0.32200002 27338.92391679  1721.94220443
0.32300002 27041.92117352  2234.20363315
0.32400002 26760.84982384  1956.88723603
0.32500002 26494.84377371  1425.15771407
0.32600002 26244.45141799  1287.29040301
0.32700002 26008.55006101  1279.62072360
0.32800002 25787.87823295  1527.15822127
0.32900002 25579.94296468  1519.44868405
0.33000002 25387.55046770  1890.73791062
0.33100002 25206.14930545  2259.47933074
0.33200002 25040.43611929  1375.84682773
0.33300002 24886.10053287  1371.47306531
0.33400002 24745.15428552  1989.51049877
0.33500002 24616.06831160  1364.71489182
0.33600002 24498.86515694  1238.41769233
0.33700002 24392.58735583  1484.04508501
0.33800002 24299.14056665  1606.29476323
0.33900002 24215.57839427  1358.49401225
0.34000002 24143.29734386  1234.92971762
0.34100002 24081.64636462  1358.92736871
0.34200002 24031.16936646  1854.60558369
0.34300002 23989.08327372  1609.18778221
0.34400002 23957.74653557  1363.79478613
0.34500002 23935.36526654  2111.81737748
0.34600002 23923.44615958  1369.73697474
0.34700002 23918.30573274  1498.24274206
0.34800002 23923.63761222  2003.84398130
0.34900002 23936.81373435  1508.01933669
0.35000002 23958.33199361  1639.82811097
0.35100002 23987.95970590  1393.22076571
0.35200002 24024.27886532  1780.91987664
0.35300002 24068.74655702  1661.46565352
0.35400002 24120.81131489  1926.64989503
0.35500002 24179.43882290  1420.30030373
0.35600002 24244.66579670  1687.79248938
0.35700002 24316.59866017  1436.38155089
0.35800002 24395.35784174  1445.05909020
0.35900002 24479.72288514  1586.28611809
0.36000002 24570.68435458  1729.65340707
0.36100002 24666.74849804  1473.34495757
0.36200002 24769.18706318  1888.15521926
0.36300002 24875.35068545  1765.65247529
0.36400002 24987.32765572  1368.05625395
0.36500002 25103.74899039  1378.19588485
0.36600002 25225.52195234  1805.26456403
0.36700002 25351.27775083  1819.20777757
0.36800002 25482.75532032  1551.51763117
0.36900002 25617.29037015  1706.11161947
0.37000002 25754.89249527  1719.91180231
0.37100002 25896.75602628  1445.03905472
0.37200002 26042.71032982  1894.21662557
0.37300002 26191.37962298  2350.93834632
0.37400002 26344.37970910  1630.05857172
0.37500002 26499.15755806  1644.00781278
0.37600002 26658.03162544  1959.76528778
0.37700002 26818.36686235  1520.60147313
0.37800002 26982.16159014  1994.11674678
0.37900002 27148.17291761  1702.19052257
0.38000002 27316.54769675  1561.14077483
0.38100002 27486.47434929  1574.97505483
0.38200002 27658.67822636  2065.68848119
0.38300002 27832.54617101  1923.78568248
0.38400002 28008.47845616  2102.73661971
0.38500002 28184.96949907  2121.48275470
0.38600002 28363.87279308  1646.52289364
0.38700002 28543.10112690  1827.32942071
0.38800002 28723.37727363  2514.01371498
0.38900002 28904.67394897  2367.29290857
0.39000002 29087.65362856  1876.59006275
0.39100002 29270.28936338  1721.09309611
0.39200002 29454.19063870  1736.32462041
0.39300002 29637.92119618  2277.08159338
0.39400002 29823.07085076  2297.12214111
0.39500002 30007.28022988  2495.40554214
0.39600002 30191.80425596  2517.09084007
0.39700002 30375.86595998  2176.12714047
0.39800002 30561.06905767  1829.08006976
0.39900002 30744.90051017  2767.04117701
0.40000002 30928.29362889  2046.37064491
0.40100002 31111.26775186  2626.41334805
0.40200002 31294.73996583  3026.82739290
0.40300002 31476.40368881  2479.71120009
0.40400002 31657.47741056  3461.74531886
0.40500002 31837.61765621  2908.36651069
0.40600002 32017.24585362  2345.58354237
0.40700002 32195.50970347  2758.51140209
0.40800002 32372.80139954  2184.67860596
0.40900002 32548.19361021  2201.88540206
0.41000002 32723.28468119  2219.12965580
0.41100002 32896.48982754  3049.50475151
0.41200002 33067.46762132  3277.64754593
0.41300002 33237.64466886  2064.05783174
0.41400002 33405.76600265  2703.36174186
0.41500002 33572.89801149  3142.42340277
0.41600002 33736.87536396  2954.33831561
0.41700002 33899.91876698  2125.52500741
0.41800002 34061.82618407  2140.78587711
0.41900002 34219.75996035  2802.59847355
0.42000002 34376.46947657  2387.96156534
0.42100002 34531.54551505  3497.35509549
0.42200002 34684.28000029  3301.07650545
0.42300002 34834.10796660  2880.08418315
0.42400002 34981.83268428  2230.09193930
0.42500002 35127.58168391  2693.58309116
0.42600002 35269.53527598  2936.71799391
0.42700002 35410.30830164  3637.34704111
0.42800002 35548.08693058  2745.02340286
0.42900002 35683.72850157  2301.60059742
0.43000002 35816.77461839  3241.77642433
0.43100002 35945.78978520  2562.21601731
0.43200002 36072.94981971  2577.23202200
0.43300002 36197.00526636  3063.35270086
0.43400002 36318.73642097  3791.67626203
0.43500002 36436.97417568  3336.16951362
0.43600002 36553.35762963  3114.89451802
0.43700002 36665.80940820  2649.83817150
0.43800002 36774.64549541  2421.61052063
0.43900002 36881.54368113  3651.27299746
0.44000002 36984.66644825  2935.84296179
0.44100002 37085.49505042  2704.64528220
0.44200002 37182.85159421  3953.28096884
0.44300002 37277.26562239  4220.53221378
0.44400002 37368.14603155  3492.05341214
0.44500002 37454.84303005  3508.02076444
0.44600002 37539.43877334  2517.01948904
0.44700002 37620.84587261  3033.74515494
0.44800002 37697.87128158  2538.95175114
0.44900002 37773.17512933  3569.56521889
0.45000002 37844.81760901  3072.24243910
0.45100002 37911.89329785  3598.59708238
0.45200002 37976.60502555  3354.66356392
0.45300002 38037.25809866  3108.40487914
0.45400002 38095.24289979  4160.00072181
0.45500002 38149.75786040  3653.22098585
0.45600002 38200.78006022  2618.66359724
0.45700002 38248.16720921  3153.17905417
0.45800002 38291.59724256  3690.92723314
0.45900002 38331.95588431  3173.88609764
0.46000002 38369.59275539  2918.58321126
0.46100002 38402.58098536  3725.81858378
0.46200002 38432.86207466  3202.99487711
0.46300002 38459.62989352  2676.79036746
0.46400002 38482.22931326  2952.54918400
0.46500002 38502.53793857  3767.85854125
0.46600002 38518.42104593  4047.32328323
0.46700002 38530.77548486  2975.34662396
0.46800002 38540.59379779  3524.73017284
0.46900002 38546.15172590  3532.75497312
0.47000002 38547.86603277  2723.40686430
0.47100002 38546.75818664  3274.93273076
0.47200002 38541.97570503  3828.37462823
0.47300002 38534.47355459  3561.74155947
0.47400002 38521.84831999  3842.55455205
0.47500002 38507.15519199  2749.41101102
0.47600002 38489.41067688  4406.26794314
0.47700002 38466.91645412  3861.30925668
