# SAXS profile: number of points = 501, q_min = 0, q_max = 0.5, delta_q = 0.001
#    q    intensity    error
0.00000000 1700912.83420644 280.65061764
0.00100000 1700842.60079759 663.32863006
0.00200000 1700631.85045611 841.81279263
0.00300000 1700280.74818712 1020.16848525
0.00400000 1699789.17582655 1657.29450940
0.00500000 1699157.59715989 2446.78703676
0.00600000 1698385.69463549 2139.96606236
0.00700000 1697474.21420132 2444.36297004
0.00800000 1696422.54829476 2748.20464427
0.00900000 1695232.10681169 2797.13309581
0.01000000 1693901.98654100 3074.43223832
0.01100000 1692433.49853597 3655.65651600
0.01200000 1690826.12437842 3297.11108710
0.01300000 1689081.17896809 4965.89888519
0.01400000 1687198.00004718 4935.05436891
0.01500000 1685178.37420299 4448.87110600
0.01600000 1683021.11326164 6008.38564294
0.01700000 1680728.38714932 8168.34032797
0.01800000 1678299.77772377 5261.47003992
0.01900000 1675735.94786137 6032.64968451
0.02000000 1673037.75097825 5797.07606937
0.02100000 1670206.57989670 5511.68196355
0.02200000 1667240.84802828 8627.97178054
0.02300000 1664143.37567731 6590.00806765
0.02400000 1660913.98395297 9342.64158574
0.02500000 1657554.21948461 7110.90792635
0.02600000 1654064.16404235 8708.64822200
0.02700000 1650444.87315189 11090.99005556
0.02800000 1646696.28740761 11461.00668595
0.02900000 1642820.94826295 9610.50298860
0.03000000 1638819.17251918 10668.71330349
0.03100000 1634691.35908463 10200.47455004
0.03200000 1630438.46725071 11298.93909846
0.03300000 1626063.22408276 9951.50739016
0.03400000 1621563.76490973 13621.13625373
0.03500000 1616943.48140209 12224.09328388
0.03600000 1612202.00871334 9842.49371805
0.03700000 1607341.35705461 10078.03077482
0.03800000 1602362.57664691 15935.49656224
0.03900000 1597267.37240480 14375.40701737
0.04000000 1592054.43763628 12728.47581873
0.04100000 1586727.84722722 10996.02449113
0.04200000 1581287.82287896 10199.30693074
0.04300000 1575734.47015910 13519.80238153
0.04400000 1570071.62399433 11657.78234957
0.04500000 1564298.96805374 11873.02971921
0.04600000 1558416.65053809 19776.30821467
0.04700000 1552428.08424087 19001.72063484
0.04800000 1546333.44298126 12502.10646820
0.04900000 1540135.54923397 13861.22058831
0.05000000 1533833.96878870 12907.21344840
0.05100000 1527431.83572208 13105.36576100
0.05200000 1520927.79421540 15718.78948573
0.05300000 1514326.91508116 13492.65344237
0.05400000 1507628.03591539 22388.27737740
0.05500000 1500834.68901807 15128.41437103
0.05600000 1493945.61896677 17882.52989351
0.05700000 1486965.97010123 14230.26499812
0.05800000 1479894.28293533 14406.77151706
0.05900000 1472732.31443493 15905.50973878
0.06000000 1465483.49892552 13409.17464163
0.06100000 1458148.82136516 14916.86313965
0.06200000 1450729.05979521 23305.96343501
0.06300000 1443227.52449237 19396.97883609
0.06400000 1435642.07098888 16797.01301611
0.06500000 1427978.81816508 24032.88463392
0.06600000 1420236.31685038 17128.05078261
0.06700000 1412417.25254763 15847.32231522
0.06800000 1404524.68555007 17444.19741108
0.06900000 1396559.30123108 21995.81002421
0.07000000 1388520.60386721 20702.84317314
0.07100000 1380413.63854667 17890.16159350
0.07200000 1372237.09082987 15025.99684851
0.07300000 1363996.32127699 18168.43185070
0.07400000 1355690.27811987 18301.81961232
0.07500000 1347321.47317216 19967.30516833
0.07600000 1338890.26546073 20103.43827835
0.07700000 1330401.87130781 18678.84314898
0.07800000 1321854.63469012 20363.17160236
0.07900000 1313250.61304109 18910.80971478
0.08000000 1304594.20931720 17435.90242546
0.08100000 1295885.42284694 22315.14802841
0.08200000 1287124.69913632 19229.64390745
0.08300000 1278315.77704249 24160.16931999
0.08400000 1269458.95997052 17804.16274929
0.08500000 1260558.39531955 21139.56528191
0.08600000 1251613.10768998 17966.90700446
0.08700000 1242627.00681218 22963.74816421
0.08800000 1233598.82758079 16468.54512163
0.08900000 1224534.18159884 18184.33345086
0.09000000 1215431.94883298 26545.03500948
0.09100000 1206295.35116337 19976.25195377
0.09200000 1197125.06209329 20039.87448105
0.09300000 1187924.77222008 18424.71408295
0.09400000 1178692.35445255 23514.91357647
0.09500000 1169432.60012972 16839.83023339
0.09600000 1160146.37065687 20256.15658387
0.09700000 1150837.09266391 18609.03666324
0.09800000 1141505.27592827 20341.62497346
0.09900000 1132152.50200010 20378.74599426
0.10000000 1122779.08374392 30618.18705358
0.10100000 1113387.58618652 17034.83086983
0.10200000 1103980.60549717 20467.80138865
0.10300000 1094558.76933062 20490.14112574
0.10400000 1085125.05251617 20508.86445740
0.10500000 1075681.71096710 18813.67400999
0.10600001 1066225.69409009 34225.84639074
0.10700001 1056764.20450057 17119.58091852
0.10800001 1047294.82007232 25684.90667105
0.10900001 1037821.89753939 17124.06211536
0.11000001 1028345.39474970 23970.73227991
0.11100001 1018867.60128227 25675.46476094
0.11200001 1009390.82525502 20531.01035223
0.11300001 999913.79313423 17098.52666761
0.11400001 990441.33064352 20502.13650965
0.11500001 980974.02736698 18775.84376792
0.11600001 971512.24842139 28985.06929660
0.11700001 962059.31494789 18731.29574418
0.11800001 952613.55385683 18704.56801093
0.11900001 943179.64299051 27163.57499758
0.12000001 933756.72742615 18642.45394121
0.12100001 924349.20232955 21990.26855934
0.12200001 914955.37171764 21945.20562451
0.12300001 905578.40481879 23581.26277250
0.12400001 896218.43312671 26886.55426063
0.12500001 886877.57461246 23466.78173001
0.12600001 877558.68117584 18389.24303060
0.12700001 868261.06575691 20004.73589779
0.12800001 858985.26683180 19945.63883586
0.12900001 849734.83537975 19883.79608505
0.13000001 840510.08148031 18167.62626753
0.13100001 831310.76139874 23043.93539221
0.13200001 822141.13373399 19682.05966941
0.13300001 813001.28901326 22877.85735136
0.13400001 803890.60363680 24418.17823668
0.13500001 794812.57423654 16214.17727889
0.13600001 785766.47553461 22606.50256704
0.13700001 776755.31057587 17686.71925580
0.13800001 767777.61858657 25613.06256385
0.13900001 758838.77475214 15935.61502129
0.14000001 749935.52913335 15861.13718919
0.14100001 741071.43462293 22098.75122270
0.14200001 732245.55303165 20418.66820934
0.14300001 723462.69334396 20314.83338730
0.14400001 714716.88956400 15545.09308128
0.14500001 706017.28298394 17007.95714938
0.14600001 697359.01374735 16914.44367637
0.14700001 688747.28306664 18348.22848650
0.14800001 680178.77486489 19762.59523607
0.14900001 671655.90039405 18134.71016625
0.15000001 663180.83773806 21029.46535691
0.15100001 654753.12342303 22392.55787766
0.15200001 646375.30290673 16317.74529187
0.15300001 638046.61891441 26529.97966638
0.15400001 629766.16003319 14642.06391175
0.15500001 621538.51117917 17452.80221756
0.15600001 613361.03562771 21666.97960612
0.15700001 605239.13138575 20081.83532718
0.15800001 597165.66646102 17090.88218078
0.15900001 589149.30568649 19795.41760542
0.16000001 581184.82533882 19649.85987223
0.16100001 573278.76848628 20896.01209771
0.16200001 565426.03491751 19354.53408888
0.16300001 557630.76679962 15089.48926194
0.16400001 549891.84564047 17692.77096875
0.16500001 542210.92268211 16201.26313462
0.16600001 534587.16450332 14730.55001336
0.16700001 527021.79204649 15937.13974395
0.16800001 519514.12920569 17120.58893635
0.16900001 512068.36025212 20892.39008478
0.17000001 504681.31038960 14239.58384503
0.17100001 497354.55156144 12831.74803622
0.17200001 490088.69192345 19076.70323398
0.17300001 482883.69343606 13863.59149325
0.17400001 475741.03029897 16234.66342565
0.17500001 468659.59094845 14847.13654244
0.17600001 461638.31659127 19610.39661498
0.17700001 454682.11583710 14568.01567948
0.17800001 447787.65776576 14427.71901466
0.17900001 440956.04666702 15477.55796907
0.18000001 434188.43815588 14145.85998330
0.18100001 427485.10375142 14004.41266042
0.18200001 420842.86887792 15017.77848532
0.18300001 414267.14060623 12577.15098294
0.18400001 407753.81912040 14709.71971967
0.18500001 401306.02842448 11196.43872199
0.18600001 394922.13147847 17724.10609810
0.18700001 388602.56460090 13150.31140738
0.18800001 382346.88054299 14091.39494818
0.18900001 376158.51936203 12864.62197000
0.19000001 370030.53262359 15902.06289085
0.19100001 363972.44591504 10482.40693765
0.19200001 357976.13406299 10363.40957081
0.19300001 352046.71232308 13317.92775649
0.19400001 346181.20141285 18226.44111566
0.19500001 340381.08586259 10007.20439725
0.19600001 334645.37941872 15822.03428661
0.19700001 328974.90595037 14655.83275269
0.19800001 323369.44339167 11583.09400969
0.19900001 317829.66074380 10488.37930023
0.20000001 312352.71977603 11300.92193559
0.20100001 306942.15484948 9300.34773150
0.20200001 301594.95385610 9183.56677897
0.20300001 296313.09523199 9067.18114266
0.20400001 291095.70791303 11636.55147383
0.20500001 285941.56170072 12369.83254386
0.20600001 280852.00401513 10464.54616424
0.20700001 275826.20307028 13769.24470813
0.20800001 270863.63105739 10189.89028206
0.20900001 265966.97614665 9215.75615912
0.21000001 261131.19034187 9917.76307802
0.21100001 256358.79463285 8967.43106018
0.21200001 251649.20238319 8844.21163586
0.21300001 247002.05576369 11100.27291079
0.21400001 242418.19580241 8599.78590266
0.21500001 237897.09683520 10791.01282262
0.21600001 233435.92783852 8358.17379142
0.21700001 229037.46044717 8987.43037287
0.21800001 224700.08766913 8857.67787471
0.21900001 220422.71446115 8001.34491326
0.22000001 216205.94703656 7883.95023146
0.22100001 212051.70546337 8473.58655098
0.22200001 207956.36907289 8347.36904929
0.22300001 203920.69625831 8222.08286192
0.22400001 199942.46786100 8772.47619222
0.22500001 196026.34850835 9303.41094014
0.22600001 192167.18409236 7851.95151332
0.22700001 188367.27834150 8374.80959110
0.22800001 184624.56285350 8244.41024410
0.22900001 180938.74798997 6242.38710086
0.23000001 177310.69812968 7372.57917689
0.23100001 173740.65796376 6650.79270139
0.23200001 170224.97643708 6544.29952863
0.23300001 166766.54930356 8194.90862035
0.23400001 163363.51121687 6334.42044702
0.23500001 160014.33685147 7930.31090943
0.23600001 156720.75981727 7242.85025752
0.23700001 153481.17885005 6027.20617852
0.23800001 150295.51526150 5388.09447697
0.23900001 147163.35555976 5827.66915581
0.24000001 144083.95647933 5729.49880041
0.24100001 141058.03063016 5120.40675408
0.24200001 138083.63434230 7549.72306478
0.24300001 135160.78442343 4946.88494390
0.24400001 132288.57570189 5347.76592572
0.24500001 129467.36337706 5732.81512152
0.24600001 126696.38324608 5632.92146559
0.24700001 123976.07486783 5995.48326423
0.24800001 121304.02790065 4530.70565642
0.24900001 118680.63242437 5785.68110439
0.25000001 116106.15706874 4808.53672249
0.25100001 113578.92213909 5581.26849796
0.25200001 111100.20518505 5902.75418074
0.25300001 108668.32709611 4554.28980406
0.25400001 106282.22684590 4471.82490611
0.25500001 103942.10053332 4390.51453425
0.25600001 101647.89862383 5094.08468055
0.25700001 99398.57587367  4231.39757514
0.25800001 97193.38177719  3775.96306070
0.25900001 95032.84295770  4076.90915578
0.26000001 92916.00741739  4365.19423501
0.26100001 90840.17315724  6069.03225580
0.26200001 88809.66898460  4204.24992866
0.26300001 86819.61287371  3781.86251573
0.26400001 84870.96203080  4723.06926050
0.26500001 82964.27491352  4634.38461596
0.26600001 81097.34968111  4871.92351263
0.26700001 79271.49980464  4142.72877583
0.26800001 77485.14728678  4064.48359326
0.26900001 75737.28253557  3680.83210541
0.27000001 74028.66889852  3310.19208644
0.27100001 72358.10665282  4428.31633671
0.27200001 70725.62295782  3185.83583690
0.27300001 69129.75310919  3977.72618215
0.27400001 67569.51661822  4738.31257709
0.27500001 66047.85081731  2734.38115324
0.27600001 64559.79570492  4023.68945773
0.27700001 63108.58881036  3947.44241691
0.27800001 61691.36887462  2581.78390959
0.27900001 60308.85907973  3292.86386160
0.28000001 58959.93176517  3479.22573813
0.28100001 57644.15288144  2926.01733875
0.28200001 56361.82438822  2631.81551437
0.28300001 55111.86649122  2347.76562365
0.28400001 53893.89608888  3455.94625027
0.28500001 52707.77659868  2261.16372311
0.28600001 51551.87482780  2885.10081130
0.28700001 50427.09558925  2831.98582234
0.28800001 49331.88214263  2352.39091132
0.28900001 48267.91181261  2729.55054220
0.29000001 47231.63816117  2267.82721365
0.29100001 46225.32912318  2632.07036486
0.29200001 45246.93996393  2187.46341610
0.29300001 44296.35670065  2344.16330756
0.29400001 43373.02278996  2303.10761917
0.29500001 42477.79168892  2074.61544429
0.29600001 41608.17908285  2409.73780565
0.29700001 40764.50317573  2004.39071603
0.29800001 39947.24590099  2149.96087617
0.29900001 39155.20261697  1938.18262129
0.30000001 38387.80094309  2253.17208302
0.30100001 37645.94511985  1875.89753413
0.30200001 36926.85398589  1678.32559311
0.30300001 36231.89393971  1817.39188605
0.30400001 35560.96902714  2277.68017402
0.30500001 34911.64311104  2243.42229252
0.30600001 34285.10218041  1894.59483618
0.30700001 33681.11019013  1867.28083734
0.30800001 33098.51224332  2147.76256115
0.30900001 32537.14967079  1815.57303759
0.31000001 31997.42523437  1641.94795364
0.31100001 31476.58847147  1473.10441021
0.31200001 30976.99062390  2036.11769011
0.31300001 30496.67171493  1436.39330578
0.31400001 30037.09695255  1419.25289820
0.31500001 29595.26850545  1823.66053165
0.31600002 29172.52764101  1664.58450601
0.31700002 28767.45507858  1509.42843944
0.31800002 28380.72872036  1493.81972693
0.31900002 28011.84681474  1479.02558185
0.32000002 27659.93468692  1598.19110188
0.32100002 27325.12740167  1583.76445919
0.32200002 27006.93471401  1570.18325862
0.32300002 26704.33406966  1297.83069724
0.32400002 26417.91634424  1287.87348276
0.32500002 26146.56735887  1789.99408615
0.32600002 25890.87651500  2412.90035107
0.32700002 25649.85371983  1388.17014905
0.32800002 25424.17775029  1380.15155453
0.32900002 25211.32489518  1622.34883383
0.33000002 25014.12139628  1241.95118614
0.33100002 24827.98231223  1360.07693547
0.33200002 24657.75590933  1724.31695239
0.33300002 24498.95368149  1472.87716508
0.33400002 24353.77500677  1835.66587806
0.33500002 24220.33043907  1464.84565432
0.33600002 24099.04057417  1340.02721459
0.33700002 23988.81866108  1581.10311283
0.33800002 23891.44231853  1457.85587932
0.33900002 23804.10598601  1214.00946278
0.34000002 23728.23815933  1941.91910293
0.34100002 23662.95064514  1942.25508094
0.34200002 23609.06789860  1700.56124127
0.34300002 23563.68847834  1702.24093629
0.34400002 23529.20417632  1217.63637379
0.34500002 23503.79407779  1341.83166745
0.34600002 23488.96467963  1589.38087032
0.34700002 23480.98823497  1470.84917270
0.34800002 23483.62481442  1475.24138071
0.34900002 23494.13865060  1480.13080509
0.35000002 23513.19921612  1733.15799631
0.35100002 23540.41645138  1242.93404750
0.35200002 23574.59411260  1497.92978086
0.35300002 23616.99958767  1379.46901125
0.35400002 23667.00181195  2016.42864988
0.35500002 23723.82361741  1266.85224117
0.35600002 23787.17313004  2292.84572660
0.35700002 23857.46991596  2177.94853179
0.35800002 23934.72802342  1546.66219813
0.35900002 24017.73277539  1556.34915756
0.36000002 24107.43178919  1958.12623983
0.36100002 24202.19672687  1577.01521342
0.36200002 24303.66411739  1588.00148865
0.36300002 24408.91274076  1599.27203853
0.36400002 24520.10687957  2282.20905592
0.36500002 24635.71394715  1487.75083574
0.36600002 24756.89229390  1362.86698534
0.36700002 24882.18617130  1922.89543840
0.36800002 25013.35662763  1799.83616140
0.36900002 25147.49113883  1535.25440675
0.37000002 25285.06584524  1829.24817522
0.37100002 25426.90118142  1560.70326845
0.37200002 25572.90854965  1716.96516136
0.37300002 25721.80204714  1875.89111216
0.37400002 25875.05367547  1455.47183819
0.37500002 26030.29712340  1908.54147550
0.37600002 26189.69050838  1777.23248209
0.37700002 26350.60888511  2689.34327021
0.37800002 26515.15544995  2110.34132223
0.37900002 26682.03046639  1520.87580863
0.38000002 26851.29876384  1534.55179705
0.38100002 27022.28779180  1703.21488020
0.38200002 27195.72722282  2187.35244415
0.38300002 27370.73324539  1891.86517155
0.38400002 27548.12719963  2386.35663172
0.38500002 27726.11493405  2568.54740917
0.38600002 27906.63320189  1943.97616094
0.38700002 28087.43054255  2125.09509553
0.38800002 28269.51152598  2144.38389839
0.38900002 28452.76207329  2163.83265819
0.39000002 28637.58774467  2015.51352096
0.39100002 28822.31273817  1694.75206930
0.39200002 29008.37479855  2394.06128555
0.39300002 29194.39693568  2243.00562284
0.39400002 29381.85059274  2263.13714913
0.39500002 29568.47251066  2107.64082041
0.39600002 29755.55769943  1949.13789945
0.39700002 29942.22463844  1966.30598517
0.39800002 30130.14272322  2163.94695291
0.39900002 30316.81467994  2728.51345047
0.40000002 30503.09596633  2018.23744023
0.40100002 30689.01627243  2590.76687647
0.40200002 30875.47864345  2986.27643588
0.40300002 31060.24964827  1882.25121787
0.40400002 31244.52296669  2277.72583219
0.40500002 31428.04363824  3827.93589651
0.40600002 31611.00774754  2701.79296020
0.40700002 31792.73497144  2140.28701969
0.40800002 31973.50136046  2942.36160211
0.40900002 32152.61568062  2372.86314966
0.41000002 32331.28894665  2591.19127540
0.41100002 32508.28075111  2611.71539929
0.41200002 32683.11093862  3846.96575531
0.41300002 32857.18767209  2244.47459623
0.41400002 33029.25853379  3289.71430584
0.41500002 33200.38446107  2278.87449739
0.41600002 33368.53228415  3339.52286924
0.41700002 33535.68194313  2733.49356471
0.41800002 33701.86633166  2965.42735904
0.41900002 33864.06227977  2346.77962719
0.42000002 34025.12940623  2363.55572620
0.42100002 34184.58301167  2163.88420717
0.42200002 34341.73746379  2396.88167986
0.42300002 34496.21950722  3071.54353047
0.42400002 34648.44965677  2650.60652434
0.42500002 34798.87642690  3780.20212538
0.42600002 34945.50630835  2462.08576362
0.42700002 35090.99323776  2703.41024714
0.42800002 35233.55369592  3174.19100288
0.42900002 35374.09648596  2509.79226461
0.43000002 35512.03898238  2755.02411481
0.43100002 35645.99346695  3464.79072918
0.43200002 35778.15391279  2556.17032743
0.43300002 35907.18507150  4675.11571785
0.43400002 36033.90251535  2586.33347560
0.43500002 36157.34230377  2601.15932860
0.43600002 36278.86093478  2378.07944697
0.43700002 36396.54079973  2630.37812825
0.43800002 36510.56347202  2885.06486228
0.43900002 36622.76322932  3142.23323398
0.44000002 36731.20923887  2915.72352756
0.44100002 36837.25452729  2442.31009090
0.44200002 36939.98591124  2945.59461616
0.44300002 37039.87057893  2713.54104721
0.44400002 37136.04499163  3222.48045686
0.44500002 37228.30034543  2739.63075225
0.44600002 37318.32136351  2502.19356601
0.44700002 37405.28135949  2513.63502648
0.44800002 37487.82430143  2777.28559499
0.44900002 37568.62406781  3296.64691818
0.45000002 37645.84462417  3310.76396238
0.45100002 37718.52787090  3324.51120410
0.45200002 37788.77684619  2824.52225923
0.45300002 37855.06244051  2835.72286181
0.45400002 37918.73474796  3364.33989996
0.45500002 37978.87788574  3117.30644460
0.45600002 38035.45320788  3389.52957326
0.45700002 38088.57062434  3401.69040368
0.45800002 38137.65231553  3413.51073228
0.45900002 38183.73551801  3425.08123829
0.46000002 38227.04126023  2643.40002843
0.46100002 38265.72268732  3447.35912029
0.46200002 38301.76011982  3458.07457631
0.46300002 38334.15997297  3735.28072480
0.46400002 38362.55116925  3210.94568505
0.46500002 38388.49635406  2951.69162456
0.46600002 38410.08034566  3228.75150689
0.46700002 38428.20707949  3776.72437077
0.46800002 38443.69681519  3245.41703896
0.46900002 38454.93555734  3795.50231940
0.47000002 38462.34505136  3804.31072934
0.47100002 38466.96710647  4085.19210033
0.47200002 38467.80541873  3002.22001620
0.47300002 38465.96752808  3828.90258922
0.47400002 38459.10091066  3288.25328372
0.47500002 38450.04742474  4118.00027437
0.47600002 38437.84620058  2750.22802601
0.47700002 38421.05696854  3305.74789826
