# SAXS profile: number of points = 501, q_min = 0, q_max = 0.5, delta_q = 0.001
#    q    intensity    error
0.00000000 1719190.39626459 335.24212727
0.00100000 1719119.52077276 773.60380272
0.00200000 1718906.84734239 928.20972696
0.00300000 1718552.53593368 1031.13155829
0.00400000 1718056.46019973 1546.25087293
0.00500000 1717419.10928461 1700.24498549
0.00600000 1716640.14955002 2343.21389953
0.00700000 1715720.31715668 2470.63735939
0.00800000 1714659.01722951 3472.18465649
0.00900000 1713457.72039357 3084.22402855
0.01000000 1712115.40816376 3389.98865454
0.01100000 1710633.46236798 3694.96843959
0.01200000 1709011.40094591 3999.08685355
0.01300000 1707250.48293443 5736.36187566
0.01400000 1705350.03504210 4220.74152384
0.01500000 1703311.92603432 4496.74368497
0.01600000 1701134.92370386 5205.47309924
0.01700000 1698821.19671828 6421.54441166
0.01800000 1696370.25281185 6285.05206948
0.01900000 1693782.93626482 5589.48394189
0.02000000 1691059.91553380 9055.62625732
0.02100000 1688202.83370012 7242.39048493
0.02200000 1685209.90064164 7558.16674776
0.02300000 1682083.92797215 10294.35410777
0.02400000 1678824.86109363 8813.83092263
0.02500000 1675434.22535178 7187.61315502
0.02600000 1671912.04710276 8125.49292057
0.02700000 1668259.52708761 9809.36646856
0.02800000 1664476.42510575 7964.52005938
0.02900000 1660565.39894092 8967.05356600
0.03000000 1656526.73160600 7702.84965603
0.03100000 1652360.87117906 7931.33254661
0.03200000 1648068.72756941 11421.11680809
0.03300000 1643653.11796218 11735.68380327
0.03400000 1639112.13928727 14629.07651813
0.03500000 1634449.17131856 9708.62852596
0.03600000 1629663.83668274 9949.09818273
0.03700000 1624758.32986161 11113.34749022
0.03800000 1619733.31960236 11370.52842983
0.03900000 1614590.97118514 11625.05553089
0.04000000 1609329.79969162 9897.37872674
0.04100000 1603953.72376324 12125.89071389
0.04200000 1598463.16716770 11341.09669720
0.04300000 1592858.30651511 12615.43837318
0.04400000 1587142.79422574 11784.53579442
0.04500000 1581316.40975244 17457.73397484
0.04600000 1575379.44185762 15548.99581396
0.04700000 1569335.02838195 15818.89782179
0.04800000 1563183.59529483 17234.09994000
0.04900000 1556927.84958600 16347.74318160
0.05000000 1550567.44627124 13048.02566797
0.05100000 1544105.44283511 15657.22991972
0.05200000 1537540.56143947 17112.82724630
0.05300000 1530877.82602001 12400.11096883
0.05400000 1524116.16211148 15088.75070855
0.05500000 1517259.05609050 15293.97199885
0.05600000 1510305.36384938 12913.11146349
0.05700000 1503260.12736155 15694.03646223
0.05800000 1496121.83044213 14564.74669942
0.05900000 1488892.48098261 18760.04613658
0.06000000 1481575.27051399 20334.62153781
0.06100000 1474171.39521334 13709.79461616
0.06200000 1466681.63859058 22176.22741208
0.06300000 1459109.12963876 14007.44829945
0.06400000 1451451.94554584 19812.31998326
0.06500000 1443716.10764421 20009.90618797
0.06600000 1435900.08472291 17316.95583199
0.06700000 1428006.72604057 16022.23621600
0.06800000 1420039.09396007 19106.62690360
0.06900000 1411997.99123572 17791.17552253
0.07000000 1403882.70767653 23922.16245905
0.07100000 1395698.34585738 19595.60569365
0.07200000 1387443.72198979 19750.26230776
0.07300000 1379124.24968744 16839.10787769
0.07400000 1370738.51393139 15420.80900441
0.07500000 1362289.64654254 23295.15404778
0.07600000 1353777.48334873 21890.58293199
0.07700000 1345207.56687533 20460.60805154
0.07800000 1336577.93704817 23757.67394518
0.07900000 1327891.09485243 19121.63266275
0.08000000 1319151.27150923 20835.99531093
0.08100000 1310358.37153390 19340.89047128
0.08200000 1301512.90262283 17824.22003782
0.08300000 1292618.83739711 21173.09755026
0.08400000 1283675.93253619 22913.61647131
0.08500000 1274689.01401908 24665.23357918
0.08600000 1265656.81212293 18168.50439106
0.08700000 1256583.06505642 16586.89723763
0.08800000 1247466.74562858 21649.78638714
0.08900000 1238313.66970015 18388.95885877
0.09000000 1229122.39640332 23488.53009865
0.09100000 1219896.27616236 18518.02634214
0.09200000 1210636.09267092 20266.04914355
0.09300000 1201345.55453861 27102.35698399
0.09400000 1192022.31006371 22082.21433174
0.09500000 1182671.28416971 18733.51402177
0.09600000 1173293.34706853 20485.70280280
0.09700000 1163892.20236781 18820.13779707
0.09800000 1154468.02678617 22287.00630499
0.09900000 1145022.48515997 30915.60855305
0.10000000 1135556.06986895 18924.04279431
0.10100000 1126071.17667548 24120.44573882
0.10200000 1116570.44527849 24151.41986737
0.10300000 1107054.80349231 20724.06689625
0.10400000 1097526.78736982 20743.25725716
0.10500000 1087989.06083710 17299.02688122
0.10600001 1078438.17591490 20770.72024546
0.10700001 1068881.58522462 27705.41199277
0.10800001 1059316.99606213 19051.81707079
0.10900001 1049748.80432282 17320.85608654
0.11000001 1040176.84281318 22514.62882244
0.11100001 1030603.30807218 17314.13639065
0.11200001 1021030.31226906 17306.46460770
0.11300001 1011457.16905895 20755.10208626
0.11400001 1001888.60788725 20739.09515975
0.11500001 992324.84193023 31079.61551273
0.11600001 982766.57274046 18972.30958019
0.11700001 973217.26477075 22393.73031701
0.11800001 963674.79800336 25802.39393179
0.11900001 954144.19418312 17174.59630425
0.12000001 944624.66903086 22288.42011568
0.12100001 935120.53638064 20535.24794630
0.12200001 925629.85938269 20493.44605221
0.12300001 916156.17903488 20448.60687948
0.12400001 906699.41385162 20400.73777289
0.12500001 897261.83973233 22045.72444103
0.12600001 887846.30733457 20296.16754209
0.12700001 878451.94772392 23612.78946760
0.12800001 869079.59351243 20180.02911243
0.12900001 859732.62137199 20117.74428830
0.13000001 850411.40043086 21723.76024795
0.13100001 841115.72102830 28311.95650437
0.13200001 831849.92123203 18254.94738198
0.13300001 822613.92260586 28108.71906057
0.13400001 813407.47490035 28001.55364360
0.13500001 804233.69434526 22968.91539344
0.13600001 795092.03334400 24508.71308343
0.13700001 785985.44538178 16269.89948658
0.13800001 776912.48776968 16198.62613386
0.13900001 767878.57952134 22575.63130255
0.14000001 758880.51539836 20865.42075490
0.14100001 749921.79123188 17570.66839725
0.14200001 741001.32572465 17483.92710511
0.14300001 732124.79690698 17395.28599500
0.14400001 723284.98309672 23597.17368661
0.14500001 714491.94301103 23471.06143509
0.14600001 705740.24652356 18673.88780394
0.14700001 697035.60129518 21663.86751028
0.14800001 688374.36828287 18462.20142837
0.14900001 679759.07069801 21412.41173724
0.15000001 671192.14894713 18243.00346914
0.15100001 662672.56831922 16619.82879765
0.15200001 654203.50148546 24022.35370809
0.15300001 645783.87781211 17901.12993769
0.15400001 637412.84189566 22229.77391016
0.15500001 629094.82958429 17664.98364839
0.15600001 620827.69018058 16082.54207314
0.15700001 612616.25022398 15970.90639712
0.15800001 604453.76781081 17299.46765126
0.15900001 596348.75258834 15743.60781144
0.16000001 588296.12770971 17048.82258577
0.16100001 580302.43295641 19741.88970108
0.16200001 572362.25334530 16793.10930589
0.16300001 564480.18273828 20829.31972635
0.16400001 556654.79157422 15154.92741607
0.16500001 548888.12748889 16400.77802367
0.16600001 541178.78008005 20334.79362158
0.16700001 533528.71561961 22856.37125630
0.16800001 525936.51509736 17332.23867340
0.16900001 518406.85916952 15863.25063962
0.17000001 510936.35539885 18347.72538875
0.17100001 503526.64621736 12990.98808586
0.17200001 496178.24990562 16738.57405101
0.17300001 488891.60595866 20416.11442897
0.17400001 481667.70521898 16436.91121685
0.17500001 474505.49405983 12526.94563480
0.17600001 467404.04750862 17373.40926643
0.17700001 460368.15984817 13521.01349335
0.17800001 453394.62583495 13391.01090652
0.17900001 446484.46052966 16877.11340519
0.18000001 439638.79534148 13129.81324306
0.18100001 432858.29977272 17725.54821299
0.18200001 426139.19851567 14037.02586219
0.18300001 419487.30309632 11577.85011239
0.18400001 412898.45893855 13749.51933219
0.18500001 406375.87966464 11337.88757827
0.18600001 399917.50564977 14582.99253247
0.18700001 393524.13058893 12207.11910759
0.18800001 387195.34423397 16465.48279148
0.18900001 380934.34610022 14113.61818985
0.19000001 374734.72484985 17177.84059875
0.19100001 368605.25364109 12738.99816775
0.19200001 362538.48633646 12594.58761044
0.19300001 356539.15371648 20750.57972682
0.19400001 350604.29124322 15382.76400519
0.19500001 344735.46475019 12162.26777112
0.19600001 338931.69995157 11016.97542755
0.19700001 333193.77987688 12864.61244900
0.19800001 327521.71121850 10754.17589609
0.19900001 321915.89616384 12554.72054373
0.20000001 316373.33748543 11446.38789119
0.20100001 310898.20779403 10362.23775552
0.20200001 305487.05206935 13022.91364522
0.20300001 300141.74885175 9184.33794896
0.20400001 294861.61868456 12693.79328435
0.20500001 289645.40540987 10740.05214025
0.20600001 284494.25420718 9716.90171174
0.20700001 279407.77526329 10461.02760034
0.20800001 274385.08969917 10322.36756242
0.20900001 269429.07522025 8487.01627063
0.21000001 264534.57426870 16745.03934279
0.21100001 259704.32500785 9910.31751079
0.21200001 254937.29921146 8959.77180435
0.21300001 250233.46099398 8032.49447765
0.21400001 245593.72011187 11088.55698728
0.21500001 241017.22922424 7808.95859605
0.21600001 236501.37157752 12316.99201409
0.21700001 232048.79080057 13658.39247228
0.21800001 227658.21037028 7478.57256425
0.21900001 223328.26511591 9580.78302647
0.22000001 219059.42701785 8714.18441880
0.22100001 214854.22942249 7154.64617807
0.22200001 210708.01924639 9162.63865018
0.22300001 206622.53640713 8331.02106187
0.22400001 202594.96712263 15726.43506654
0.22500001 198630.32243999 8753.63872387
0.22600001 194723.20645004 7293.35804248
0.22700001 190876.07287665 7833.55440130
0.22800001 187086.75549992 7069.07339086
0.22900001 183354.94101055 7590.89491682
0.23000001 179681.70083523 7471.16547405
0.23100001 176067.22234198 8577.99547818
0.23200001 172507.50210689 6632.05123215
0.23300001 169005.92718920 8898.16248735
0.23400001 165560.03816733 7586.78910784
0.23500001 162168.93413578 8037.09275589
0.23600001 158834.04437566 6211.20559908
0.23700001 155553.72885779 6663.92205946
0.23800001 152328.13847519 7645.34963169
0.23900001 149156.54083293 6980.52644116
0.24000001 146038.31563619 5807.21389596
0.24100001 142974.18883833 6746.95229042
0.24200001 139962.18575513 8162.59505935
0.24300001 137002.48569111 7521.43682023
0.24400001 134094.03193388 4927.95590668
0.24500001 131237.19963288 5811.18347464
0.24600001 128431.21631972 5710.05214769
0.24700001 125676.43715613 6077.71278838
0.24800001 122970.62211042 5970.83883903
0.24900001 120314.09060488 8121.20150002
0.25000001 117706.90687537 5317.99830421
0.25100001 115147.63580822 4352.58083947
0.25200001 112637.43103446 4702.04978099
0.25300001 110174.67868655 4617.42100221
0.25400001 107758.29374078 4946.10591671
0.25500001 105388.55745692 6879.76535628
0.25600001 103065.34775630 4767.80321278
0.25700001 100787.37253951 4680.56580219
0.25800001 98554.27106603  3828.83361207
0.25900001 96366.26549499  4134.11298534
0.26000001 94222.42533410  4426.56975164
0.26100001 92120.27014877  4706.42482459
0.26200001 90064.07368526  3908.33066250
0.26300001 88048.85302286  4532.75516810
0.26400001 86075.36812310  4105.79525375
0.26500001 84144.44161429  4364.57239306
0.26600001 82254.01109853  3623.70063042
0.26700001 80404.93890358  3232.27869688
0.26800001 78596.09356527  3488.48777797
0.26900001 76826.09293086  3111.45691094
0.27000001 75095.63712441  3357.90157292
0.27100001 73404.07986391  3893.35258023
0.27200001 71751.02618709  3525.84559369
0.27300001 70134.97167980  3747.31171419
0.27400001 68554.98580740  3393.47195806
0.27500001 67014.23482005  3051.82839813
0.27600001 65507.53044198  2721.83801868
0.27700001 64038.02081655  4806.69406997
0.27800001 62602.94615170  3143.92010453
0.27900001 61202.95084375  2827.57646280
0.28000001 59837.17107520  2522.13688019
0.28100001 58504.88636312  2474.75681029
0.28200001 57206.61795334  3399.78946588
0.28300001 55940.97566465  2621.39424372
0.28400001 54707.88748352  3274.26722086
0.28500001 53507.04763332  3672.72392339
0.28600001 52336.72346815  2703.71526234
0.28700001 51197.97938835  3538.80450282
0.28800001 50089.22620447  3257.05208811
0.28900001 49012.27298412  2345.23737330
0.29000001 47963.12404523  2302.94951004
0.29100001 46944.30780886  3495.47332491
0.29200001 45954.05898390  2827.55338312
0.29300001 44991.82010486  2579.38116871
0.29400001 44057.21852259  3704.11082263
0.29500001 43150.95776999  2490.67340038
0.29600001 42270.99905862  2259.80771665
0.29700001 41417.11638644  2036.47970912
0.29800001 40589.76810234  2002.49630412
0.29900001 39788.28487904  2685.70935647
0.30000001 39011.67066615  2818.20322234
0.30100001 38261.03642693  1906.54753541
0.30200001 37533.40507838  2047.07200988
0.30300001 36830.10400042  1847.39810412
0.30400001 36151.21996958  2150.09390948
0.30500001 35494.19099727  2117.93847707
0.30600001 34860.35536094  1765.85138441
0.30700001 34249.25227289  2531.70484787
0.30800001 33659.87660404  2184.18949624
0.30900001 33092.07944457  1846.53812043
0.31000001 32546.04323348  1821.92758647
0.31100001 32019.28469786  1498.50259481
0.31200001 31513.88369431  1775.49229140
0.31300001 31028.24764854  1607.57358678
0.31400001 30563.49936711  1588.53795482
0.31500001 30116.59602963  1713.03206327
0.31600002 29689.15680438  1694.06336747
0.31700002 29279.55297766  1675.96169179
0.31800002 28888.55531485  2073.47615590
0.31900002 28515.66264577  1779.37743335
0.32000002 28159.99764629  1491.49434596
0.32100002 27821.57242714  1881.29481660
0.32200002 27499.94358642  2131.79572776
0.32300002 27194.08996887  2246.77581961
0.32400002 26904.65727408  1442.76231464
0.32500002 26630.42896428  1823.11925322
0.32600002 26372.15899159  1552.26535175
0.32700002 26128.51298167  1414.07518953
0.32800002 25900.66587770  1789.47709023
0.32900002 25685.65867888  1525.72819777
0.33000002 25486.59731754  1391.95057841
0.33100002 25298.63577929  1511.84654576
0.33200002 25126.78551868  1757.11619453
0.33300002 24966.51949612  1500.98722319
0.33400002 24819.93963737  1247.20202584
0.33500002 24685.26543138  1492.96492399
0.33600002 24562.95017711  1365.82290928
0.33700002 24451.77654705  1611.61666854
0.33800002 24353.51858125  1238.37647850
0.33900002 24265.65521362  1980.07755920
0.34000002 24189.09624154  1360.99956448
0.34100002 24123.38067018  1608.78833308
0.34200002 24069.22649355  1486.03411409
0.34300002 24023.51811478  1859.42039014
0.34400002 23988.89391951  1489.71038295
0.34500002 23963.41572395  1368.07146847
0.34600002 23948.61339267  1246.52538612
0.34700002 23940.75970602  1624.62003059
0.34800002 23943.55796010  1754.82344601
0.34900002 23954.39351055  1760.64800641
0.35000002 23973.94744787  1514.67407149
0.35100002 24001.58603182  1394.01218275
0.35200002 24036.17494857  1399.98707619
0.35300002 24079.05281673  1406.45754164
0.35400002 24129.82274538  1413.40443425
0.35500002 24187.20332136  1420.75639039
0.35600002 24251.44745066  2077.86411599
0.35700002 24322.45540499  1697.95069225
0.35800002 24400.58890240  1445.36895209
0.35900002 24484.44651079  1718.80822647
0.36000002 24574.99328662  1463.80954445
0.36100002 24670.78762584  1473.58621469
0.36200002 24773.21319104  1888.46213100
0.36300002 24879.48440711  1494.26190427
0.36400002 24991.67373939  1778.78246266
0.36500002 25108.44585582  1791.98986561
0.36600002 25230.64735525  1805.63136351
0.36700002 25357.15979026  1539.68681540
0.36800002 25489.34739751  1693.00253434
0.36900002 25624.61700829  1706.59957359
0.37000002 25763.27982670  1577.09924930
0.37100002 25906.16281874  1590.12034914
0.37200002 26053.52617842  1603.46434461
0.37300002 26203.45827238  1617.01548659
0.37400002 26357.89066861  1482.63142034
0.37500002 26514.17530348  1944.01942534
0.37600002 26674.76736914  1960.99561604
0.37700002 26836.79857612  1521.64655135
0.37800002 27002.47083647  1688.59959375
0.37900002 27170.45896492  1548.71623437
0.38000002 27340.81121245  1562.52743481
0.38100002 27512.80524366  2049.42895969
0.38200002 27687.31499353  1908.76358608
0.38300002 27863.30318121  1604.92633927
0.38400002 28041.74110600  2267.17487583
0.38500002 28220.70999100  2450.96877883
0.38600002 28402.12857246  1978.49237009
0.38700002 28583.80373801  2661.72393018
0.38800002 28766.72455991  1846.39230335
0.38900002 28950.88992591  1862.98985499
0.39000002 29136.52849038  1879.74322461
0.39100002 29321.97079673  1896.54516098
0.39200002 29508.84815447  1739.54668112
0.39300002 29695.57400649  2281.51105901
0.39400002 29883.66765007  2478.85034901
0.39500002 30070.85004636  3393.79629702
0.39600002 30258.41587198  1982.07762560
0.39700002 30445.62533090  1999.36431021
0.39800002 30634.11750751  2750.17802954
0.39900002 30821.07873624  2958.82369886
0.40000002 31007.62517133  2051.61961666
0.40100002 31194.03369810  1881.00032112
0.40200002 31380.67790080  2086.65827588
0.40300002 31565.71493915  2295.45889913
0.40400002 31750.13446034  2121.70283584
0.40500002 31933.81841914  2528.20052403
0.40600002 32116.75176487  2352.87334578
0.40700002 32298.55658029  1976.67175637
0.40800002 32479.14432273  1992.59559861
0.40900002 32658.20425786  2410.17558843
0.41000002 32836.63414883  3239.00574591
0.41100002 33013.39160054  2244.25046734
0.41200002 33187.82857165  3083.97911615
0.41300002 33361.58801525  2900.45659948
0.41400002 33533.23774055  3339.91063721
0.41500002 33703.91572072  2313.43688469
0.41600002 33871.47390867  3177.99119007
0.41700002 34038.02702364  2134.18439551
0.41800002 34203.46932761  2364.65696401
0.41900002 34364.90779399  2597.98715233
0.42000002 34525.23731180  2834.34949142
0.42100002 34683.79580098  2415.03281606
0.42200002 34839.94435786  2873.77294653
0.42300002 34993.46586582  2448.14298798
0.42400002 35144.62714473  2912.61111264
0.42500002 35293.89908175  2706.33630983
0.42600002 35439.24788778  2496.87232825
0.42700002 35583.50268021  3426.69147048
0.42800002 35724.74481199  2988.55366887
0.42900002 35863.89404329  2313.22127541
0.43000002 36000.33736608  3258.39068941
0.43100002 36132.79458356  2809.68623996
0.43200002 36263.29850162  3768.48215887
0.43300002 36390.66260983  3079.74192261
0.43400002 36515.74132455  3097.44790464
0.43500002 36637.26689840  2396.07736870
0.43600002 36756.89427371  3614.12180073
0.43700002 36872.74725732  2664.79357057
0.43800002 36984.67376677  2435.44088296
0.43900002 37094.83337797  2693.08503086
0.44000002 37201.16860933  2953.02890415
0.44100002 37305.02239982  2720.65541255
0.44200002 37405.51817605  3479.83552083
0.44300002 37503.00999783  4246.09099318
0.44400002 37596.74864145  3764.37463612
0.44500002 37686.67567125  3781.85808284
0.44600002 37774.12691196  3039.30639537
0.44700002 37858.58196020  3052.91619395
0.44800002 37938.39726687  3577.21164782
0.44900002 38016.49493029  2822.72488235
0.45000002 38090.94214080  2834.53759374
0.45100002 38160.86713509  2587.30691438
0.45200002 38228.27374610  3376.89472140
0.45300002 38291.63805184  2607.66067491
0.45400002 38352.27530869  3664.56007942
0.45500002 38409.36091554  3415.36053447
0.45600002 38462.88933854  3163.95742694
0.45700002 38512.79203899  3968.74340771
0.45800002 38558.64341697  2920.23899759
0.45900002 38601.51113313  3462.55571275
0.46000002 38641.45257997  3206.46788705
0.46100002 38676.64075105  4020.43699662
0.46200002 38709.31390206  2688.36197791
0.46300002 38738.26393372  3774.65661660
0.46400002 38763.05279446  4055.58459084
0.46500002 38785.47010796  2982.21493794
0.46600002 38803.34038113  3533.62635929
0.46700002 38817.79499579  3542.51213922
0.46800002 38829.51173423  2731.65627997
0.46900002 38837.04723523  3559.41554781
0.47000002 38840.55381190  3841.71935962
0.47100002 38841.29725168  3024.96037333
0.47200002 38838.18418341  5235.58166700
0.47300002 38832.53729524  2760.99353256
0.47400002 38821.51378737  4702.25608037
0.47500002 38808.49673677  3325.11215801
0.47600002 38792.22371473  3053.14211218
0.47700002 38771.18619549  3891.85185477
