# SAXS profile: number of points = 501, q_min = 0, q_max = 0.5, delta_q = 0.001
#    q    intensity    error
0.00000000 1700912.83420645 255.13692513
0.00100000 1700842.56795076 663.32861725
0.00200000 1700631.72220779 841.81272915
0.00300000 1700280.45654955 1122.18514130
0.00400000 1699788.65151501 1274.84153708
0.00500000 1699156.77372034 1988.01350394
0.00600000 1698384.51694117 2496.62534155
0.00700000 1697472.60645459 2240.66393364
0.00800000 1696420.44091510 2977.21799950
0.00900000 1695229.45389963 2797.12871851
0.01000000 1693898.69706104 3633.41286208
0.01100000 1692429.51768283 3351.01059091
0.01200000 1690821.40271815 3626.81206784
0.01300000 1689075.64732160 4611.17672056
0.01400000 1687191.59669505 4175.79938694
0.01500000 1685171.04148043 5662.17495150
0.01600000 1683012.76807544 4291.68275045
0.01700000 1680719.03162367 6353.11822453
0.01800000 1678289.28075657 8131.31193115
0.01900000 1675724.28857693 6535.32502034
0.02000000 1673024.82144912 5797.03126855
0.02100000 1670192.40432053 8267.45277622
0.02200000 1667225.34264970 7477.50600150
0.02300000 1664126.43543322 7189.02652830
0.02400000 1660895.61205468 6228.35882920
0.02500000 1657534.33688490 8403.69947181
0.02600000 1654042.70829766 8038.64793000
0.02700000 1650421.84815575 9704.48091163
0.02800000 1646671.56585832 9311.92813197
0.02900000 1642794.52680614 11828.12113608
0.03000000 1638790.96743514 9144.45401862
0.03100000 1634661.33665833 9415.64973240
0.03200000 1630406.56998169 9684.61547175
0.03300000 1626029.44209145 9951.30064436
0.03400000 1621528.09436936 10215.62746588
0.03500000 1616905.84199477 10477.55033996
0.03600000 1612162.30911359 9842.25135199
0.03700000 1607299.64303005 9161.60838897
0.03800000 1602318.75332211 14060.34771111
0.03900000 1597221.45976095 9583.32920237
0.04000000 1592006.40079753 14686.25972790
0.04100000 1586677.61128626 10995.67635605
0.04200000 1581235.25304539 14278.55499742
0.04300000 1575679.67598823 15599.22951637
0.04400000 1570014.67704686 15896.39934336
0.04500000 1564239.65784269 11872.57955468
0.04600000 1558355.03913655 13183.68424396
0.04700000 1552364.16549318 13412.42701365
0.04800000 1546267.10276670 19320.60834802
0.04900000 1540066.88695985 12705.55240883
0.05000000 1533762.87896650 14079.94388456
0.05100000 1527358.38298679 11913.39594227
0.05200000 1520851.84116488 13299.84997078
0.05300000 1514248.54641869 17171.57931689
0.05400000 1507547.13612740 18655.89667957
0.05500000 1500751.37362772 13866.94333920
0.05600000 1493859.79732748 14049.75204948
0.05700000 1486877.74646717 19403.75549714
0.05800000 1479803.58444475 18334.76726736
0.05900000 1472639.18199883 15904.50390842
0.06000000 1465387.77458633 17430.78839305
0.06100000 1458050.72276100 14915.85959088
0.06200000 1450628.57643775 20562.66103218
0.06300000 1443124.43710579 20780.99286594
0.06400000 1435536.57845102 16795.77875336
0.06500000 1427871.09226748 14135.92447470
0.06600000 1420126.13799991 18553.94886108
0.06700000 1412304.56534759 17286.60868885
0.06800000 1404409.61182953 15989.20417912
0.06900000 1396441.83703921 16128.90397294
0.07000000 1388400.78929927 16265.11600831
0.07100000 1380291.41729996 16397.86280556
0.07200000 1372112.73239984 19532.02566072
0.07300000 1363869.73719897 22708.43218838
0.07400000 1355561.39161769 24400.10619261
0.07500000 1347190.47168186 16893.76930674
0.07600000 1338757.09160598 18555.17415954
0.07700000 1330266.49597283 18676.94247919
0.07800000 1321717.15127448 20361.05367024
0.07900000 1313111.12026790 22060.26785521
0.08000000 1304452.71916595 19018.92153764
0.08100000 1295742.00491835 15937.62740826
0.08200000 1286979.30825783 17625.18245366
0.08300000 1278168.48503312 25767.87786761
0.08400000 1269309.82022217 17802.07106422
0.08500000 1260407.43665440 21137.03370498
0.08600000 1251460.58824403 21231.02987639
0.08700000 1242472.57709772 22960.89430296
0.08800000 1233442.60948152 29639.62729783
0.08900000 1224376.58727172 21487.81011589
0.09000000 1215272.87626051 18247.32309423
0.09100000 1206134.93718133 21638.06178961
0.09200000 1196963.20977327 21706.92882918
0.09300000 1187761.55450504 16747.43870552
0.09400000 1178527.96174462 20152.82909297
0.09500000 1169266.95851778 23572.42299169
0.09600000 1159979.61599841 16877.70420616
0.09700000 1150669.24136860 18606.32250767
0.09800000 1141336.48585323 25423.27141772
0.09900000 1131982.76830407 18677.71655529
0.10000000 1122608.32910392 20409.02038289
0.10100000 1113216.20258434 22141.87131077
0.10200000 1103808.60070809 17053.84368309
0.10300000 1094386.22874893 22194.15376306
0.10400000 1084951.88931653 17087.99306064
0.10500000 1075508.27341462 23940.81529261
0.10600001 1066051.68939275 18821.14346183
0.10700001 1056589.86925661 18828.43235617
0.10800001 1047120.34769769 20544.50218869
0.10900001 1037647.38503445 22257.53745655
0.11000001 1028170.87433935 18830.95044989
0.11100001 1018693.18799773 25671.06954597
0.11200001 1009216.50008406 17106.22048174
0.11300001 999739.63082700 25643.32273802
0.11400001 990267.73451470 18790.33114715
0.11500001 980800.65041017 27305.49139318
0.11600001 971339.32947628 27275.20965612
0.11700001 961887.05515657 18727.94184589
0.11800001 952442.01713016 25501.63620974
0.11900001 943008.77784394 16974.15880070
0.12000001 933586.88597290 18639.06305644
0.12100001 924180.38307210 18603.75198763
0.12200001 914787.62073959 20253.39887734
0.12300001 905411.81932134 18524.72669610
0.12400001 896053.11765465 23521.39544670
0.12500001 886713.60330444 26814.22062743
0.12600001 877396.24310367 28414.47867190
0.12700001 868100.04779261 18334.27387341
0.12800001 858826.17275727 19941.94467127
0.12900001 849577.24371156 23193.45984648
0.13000001 840354.35943823 16512.96394130
0.13100001 831157.03310854 19748.29203755
0.13200001 821989.40771540 16398.68945696
0.13300001 812851.72755231 17972.15254344
0.13400001 803743.49894555 22786.12926937
0.13500001 794667.82454945 21074.59170068
0.13600001 785624.12636037 19373.49186952
0.13700001 776615.58062001 17683.53760455
0.13800001 767640.47167503 16005.30458917
0.13900001 758704.42052790 19119.35229894
0.14000001 749803.85236768 20615.85789311
0.14100001 740942.75899776 20516.70596428
0.14200001 732119.81692725 23555.95622066
0.14300001 723340.25370530 15624.15021699
0.14400001 714597.62097826 15542.49898942
0.14500001 705901.38563360 21642.93750447
0.14600001 697246.39243731 19986.56878207
0.14700001 688638.27447737 24460.43266339
0.14800001 680073.39478802 19759.53341779
0.14900001 671554.15886270 16620.96621604
0.15000001 663082.79227382 21026.35633509
0.15100001 654659.20060657 23881.96876500
0.15200001 646285.18636482 19281.91944505
0.15300001 637960.67329249 14736.89224848
0.15400001 629684.34704588 17568.19411164
0.15500001 621460.84069686 18904.83966617
0.15600001 613287.70364969 21664.38915387
0.15700001 605170.14181872 15776.78634183
0.15800001 597101.15327974 15664.94949566
0.15900001 589089.51991350 18379.59388883
0.16000001 581129.57856783 15437.70798335
0.16100001 573228.22950521 18108.28062486
0.16200001 565380.12418145 17970.60809543
0.16300001 557589.89903486 20575.06824569
0.16400001 549855.84165067 20413.39908499
0.16500001 542179.79063801 17550.36065153
0.16600001 534561.23901523 14729.83563650
0.16700001 527001.18664315 21248.68884870
0.16800001 519498.66616592 14486.22099002
0.16900001 512058.30702232 14363.23619018
0.17000001 504676.54865900 14239.44949280
0.17100001 497355.10062280 19247.64330300
0.17200001 490094.67119992 19076.93597732
0.17300001 482895.30271657 13863.92479571
0.17400001 475758.40850290 13737.52469429
0.17500001 468682.41527846 13610.53798248
0.17600001 461667.09649520 13482.98818993
0.17700001 454716.53753902 13355.02533829
0.17800001 447827.97641454 13226.59990812
0.17900001 441002.12051558 15479.17516123
0.18000001 434240.30550386 12968.58733644
0.18100001 427543.02046552 16340.69501407
0.18200001 420906.74220705 11553.89061937
0.18300001 414336.99489968 12579.27175939
0.18400001 407829.83705304 13580.73421543
0.18500001 401388.10175925 12318.60142495
0.18600001 395010.40239200 15512.05923478
0.18700001 388696.96190055 15345.75678084
0.18800001 382447.55318576 11926.62750958
0.18900001 376265.18890301 10723.55839040
0.19000001 370143.63102526 12725.53863591
0.19100001 364091.79466758 12583.01301826
0.19200001 358101.64495390 15550.56466691
0.19300001 352178.63239160 12298.07842423
0.19400001 346319.49174830 15194.76841847
0.19500001 340525.76725386 10011.45803036
0.19600001 334796.22946869 10882.55195315
0.19700001 329132.19818868 17595.40814668
0.19800001 323533.08245150 9657.46296758
0.19900001 317999.72439409 14309.98827402
0.20000001 312529.01551144 10365.02528930
0.20100001 307124.87612918 12097.64944249
0.20200001 301784.07915272 11946.12333788
0.20300001 296508.46461828 11795.10728001
0.20400001 291297.31670593 11644.61078571
0.20500001 286149.45507594 8842.01857978
0.20600001 281066.26117847 13090.66173316
0.20700001 276046.77185068 8612.65968885
0.20800001 271090.41278227 12748.02726369
0.20900001 266200.01416678 8385.30084264
0.21000001 261370.51632662 11581.32812591
0.21100001 256604.34121665 10608.02396737
0.21200001 251900.84803721 11267.52546537
0.21300001 247259.80325997 8730.74406586
0.21400001 242682.13245987 9391.79897021
0.21500001 238166.98467678 9259.93280202
0.21600001 233711.88205665 8368.05433267
0.21700001 229319.41530718 7498.74523508
0.21800001 224987.96069988 8129.94034428
0.21900001 220716.53539818 8012.01061377
0.22000001 216505.51448935 12201.16884595
0.22100001 212357.14856130 8485.79205775
0.22200001 208267.45664048 7663.20142944
0.22300001 204237.36882623 10979.80146728
0.22400001 200264.81175673 10138.40657459
0.22500001 196354.32859410 8653.33567033
0.22600001 192500.70279777 7865.57908827
0.22700001 188706.14004539 7099.12532422
0.22800001 184968.80540318 8259.78239588
0.22900001 181288.18925590 6879.88710762
0.23000001 177665.39825865 6771.71697488
0.23100001 174100.45974559 7876.30517138
0.23200001 170589.94119820 6558.33059953
0.23300001 167136.44460697 6453.13843147
0.23400001 163738.30753741 6926.13073641
0.23500001 160393.98896960 6245.74222588
0.23600001 157105.14035905 5585.08800392
0.23700001 153870.25012202 7141.11864592
0.23800001 150689.17709491 8103.31088156
0.23900001 147561.46760298 5843.43439347
0.24000001 144486.38284373 6267.81958423
0.24100001 141464.64034347 6162.20002484
0.24200001 138494.48569012 7067.37393907
0.24300001 135575.78417012 5458.28132888
0.24400001 132707.51805189 5852.40182293
0.24500001 129890.18571483 4792.94807960
0.24600001 127122.94452503 8006.83903967
0.24700001 124406.35546064 6941.87496310
0.24800001 121737.85259658 4546.90900958
0.24900001 119118.05063593 5807.00524322
0.25000001 116546.81032453 6143.18266283
0.25100001 114022.77158849 7327.10364891
0.25200001 111547.13546124 6349.82098654
0.25300001 109118.26785651 4573.14682222
0.25400001 106735.08814825 5307.40250927
0.25500001 104397.72221641 6013.30908417
0.25600001 102106.33346680 5117.05914379
0.25700001 99859.38014494  5023.92565279
0.25800001 97656.63736163  5690.94081151
0.25900001 95498.33359683  4841.76574245
0.26000001 93383.70040903  4021.56924840
0.26100001 91309.82727069  3588.47638153
0.26200001 89281.26551557  3874.36070037
0.26300001 87292.98389228  5530.88372112
0.26400001 85346.07659010  4749.50938698
0.26500001 83440.84990523  4661.00609626
0.26600001 81575.30534951  3920.50936061
0.26700001 79750.79357093  3847.17846391
0.26800001 77965.65389766  4089.68856873
0.26900001 76218.75477027  4630.28957141
0.27000001 74510.99505541  4543.30813850
0.27100001 72841.10720386  3863.49250892
0.27200001 71209.28427280  3790.82642766
0.27300001 69613.89997035  3433.35770902
0.27400001 68054.04620416  3930.12135428
0.27500001 66532.49394423  2754.44537965
0.27600001 65044.57095618  3513.38266647
0.27700001 63593.31934519  4242.94646752
0.27800001 62175.92189001  3642.88743594
0.27900001 60792.97722114  2808.63568054
0.28000001 59443.59597739  3758.32153355
0.28100001 58127.24504829  3934.05213106
0.28200001 56844.14245710  2654.33735766
0.28300001 55593.34376493  2605.10421212
0.28400001 54374.33301144  3486.75426939
0.28500001 53187.18328911  2509.90329821
0.28600001 52029.80312905  3135.83638301
0.28700001 50903.78891004  3518.47005600
0.28800001 49806.90268847  3022.78106724
0.28900001 48741.28865891  2332.27077272
0.29000001 47703.13768044  2915.13888164
0.29100001 46694.83271003  3272.37403122
0.29200001 45714.38201725  2210.06190324
0.29300001 44761.56533243  1973.98512460
0.29400001 43835.95880524  2715.63777653
0.29500001 42938.18084851  2097.10085191
0.29600001 42065.92773555  2436.24832013
0.29700001 41219.53104359  2763.76968730
0.29800001 40399.39111366  2174.29533267
0.29900001 39604.32540924  1960.41420056
0.30000001 38833.78525756  1753.34548738
0.30100001 38088.70947231  1897.96048286
0.30200001 37366.22393545  2037.95394992
0.30300001 36667.76327714  2006.46010151
0.30400001 35993.20661495  1811.35820865
0.30500001 35340.09498870  2108.74356781
0.30600001 34709.73846083  2237.73694451
0.30700001 34101.84025651  1890.60611333
0.30800001 33515.01354712  1553.42095145
0.30900001 32949.44873264  1532.14943861
0.31000001 32405.43914908  1511.71380788
0.31100001 31880.11712942  1939.58641798
0.31200001 31375.97846209  2504.27383952
0.31300001 30890.96662853  1454.96459709
0.31400001 30426.56088850  1437.65507005
0.31500001 29979.93100733  1847.36343614
0.31600002 29552.09190785  1967.28285145
0.31700002 29142.01001167  1668.08873205
0.31800002 28750.06901905  1513.25995447
0.31900002 28375.82948122  2315.46779530
0.32000002 28018.48044387  1618.90787670
0.32100002 27678.22546012  1336.85835302
0.32200002 27354.41285712  1855.44991195
0.32300002 27046.15962500  1708.77644602
0.32400002 26753.91563279  1695.52948351
0.32500002 26476.67531254  2201.00612295
0.32600002 26215.05435157  1543.01817220
0.32700002 25967.93969754  1660.90950170
0.32800002 25736.13290697  1651.10168483
0.32900002 25517.08599078  1263.09581636
0.33000002 25313.56807087  1759.54619993
0.33100002 25121.09162746  1626.33954898
0.33200002 24944.41713644  1619.76580346
0.33300002 24779.04647614  1862.14543086
0.33400002 24627.29518343  1361.27380573
0.33500002 24487.28339990  1357.57505598
0.33600002 24359.14676112  1477.62591250
0.33700002 24242.25116023  1720.71506884
0.33800002 24137.92676969  1595.63772468
0.33900002 24043.75439831  1348.85468562
0.34000002 23960.88678506  1470.71930052
0.34100002 23888.61127419  1593.13156132
0.34200002 23827.62697642  1471.11775919
0.34300002 23775.16947363  1349.47868323
0.34400002 23733.52784487  1228.21012414
0.34500002 23700.81417655  1230.07231402
0.34600002 23678.73662009  1478.97395934
0.34700002 23663.45537162  1605.80215757
0.34800002 23658.71807625  1981.65431992
0.34900002 23661.92754965  1366.47638071
0.35000002 23673.53592417  1495.69407053
0.35100002 23693.35629939  2251.81668935
0.35200002 23720.02256370  1883.96288135
0.35300002 23754.88155505  1387.52269735
0.35400002 23797.49021997  1267.21641423
0.35500002 23846.73198042  1400.75710288
0.35600002 23902.52964823  1919.97078493
0.35700002 23965.27562049  1415.62889795
0.35800002 24034.92740474  2200.27753348
0.35900002 24110.34127481  1432.15433956
0.36000002 24192.39000332  1703.02337495
0.36100002 24279.64907082  1450.22350769
0.36200002 24373.47992084  1327.13604455
0.36300002 24471.12475388  2271.40990725
0.36400002 24574.64506403  1345.46188099
0.36500002 24682.74754912  2032.62435695
0.36600002 24796.26332075  1501.53779651
0.36700002 24914.03913749  1787.83153319
0.36800002 25037.59020978  1940.16295726
0.36900002 25164.33054662  1815.60653494
0.37000002 25294.24522952  1970.67473918
0.37100002 25428.50989783  1418.91091951
0.37200002 25567.04218761  1716.57129379
0.37300002 25708.50110973  1586.47167863
0.37400002 25854.26549160  1454.30250279
0.37500002 26002.11971123  2053.12746966
0.37600002 26154.11276058  1922.71969068
0.37700002 26307.73376642  1789.97829026
0.37800002 26464.92743623  1955.89055483
0.37900002 26624.49649158  2124.63492068
0.38000002 26786.58040185  1837.02377098
0.38100002 26950.39113314  1853.10898210
0.38200002 27116.64180493  2180.99160369
0.38300002 27284.54206707  2043.06660677
0.38400002 27454.85414331  1585.51790189
0.38500002 27625.90167501  1759.49376104
0.38600002 27799.39668202  2259.25707538
0.38700002 27973.43829008  1790.85960417
0.38800002 28148.57441760  1806.71633459
0.38900002 28325.03626345  2154.11910989
0.39000002 28503.20707575  2841.91239613
0.39100002 28681.31717260  1855.10768261
0.39200002 28860.76008561  2211.74445395
0.39300002 29040.33146117  2574.42550600
0.39400002 29221.34794415  1731.36494772
0.39500002 29401.62523444  2095.74794600
0.39600002 29582.38351449  2113.95722610
0.39700002 29762.83754268  1954.52563403
0.39800002 29944.59774312  2329.83953779
0.39900002 30125.23106987  2169.01673980
0.40000002 30305.52860288  2916.60421093
0.40100002 30485.53018488  2205.93306869
0.40200002 30666.25059214  2039.15242974
0.40300002 30845.25688638  2429.98945264
0.40400002 31023.98390778  2261.64853403
0.40500002 31201.89522357  1900.19550915
0.40600002 31379.42548301  2107.28541816
0.40700002 31555.77717161  2317.45638529
0.40800002 31731.31737671  2141.38805463
0.40900002 31905.21758541  2550.82226682
0.41000002 32078.79595740  2570.95522382
0.41100002 32250.80930777  2391.72013159
0.41200002 32420.79458530  2209.31515170
0.41300002 32590.15965254  3035.77351548
0.41400002 32757.47377350  3058.72925853
0.41500002 32924.12087531  2054.46523997
0.41600002 33087.74608609  2483.56633890
0.41700002 33250.56849546  2918.73504083
0.41800002 33412.51302940  2309.97419774
0.41900002 33570.55548540  2537.93411495
0.42000002 33727.50349674  2342.88114142
0.42100002 33883.11530861  2788.24169087
0.42200002 34036.40482321  2375.57098720
0.42300002 34187.19078319  2391.73598053
0.42400002 34335.86778706  3064.47634521
0.42500002 34482.79537582  2423.79580182
0.42600002 34626.03849752  3992.03616755
0.42700002 34768.27495325  3348.18503666
0.42800002 34907.68184551  3144.83320649
0.42900002 35045.17298732  2938.53789423
0.43000002 35180.25867441  3411.60574662
0.43100002 35311.35826663  2974.62896134
0.43200002 35440.87805133  2532.07365237
0.43300002 35567.36850153  3010.06653893
0.43400002 35691.64814823  3027.54419764
0.43500002 35812.73132164  3044.79856125
0.43600002 35932.03090796  3533.01710645
0.43700002 36047.59206790  4026.15574886
0.43800002 36159.68816771  3095.45025229
0.43900002 36270.03140520  4308.87993513
0.44000002 36376.71171706  2646.95155353
0.44100002 36481.15850929  3144.31120092
0.44200002 36582.40221263  2917.08089068
0.44300002 36680.91619579  2442.94913441
0.44400002 36775.85273450  3436.70360091
0.44500002 36866.95440329  2713.03930311
0.44600002 36955.88108321  3221.25952728
0.44700002 37041.99127392  2738.14412473
0.44800002 37123.68998480  3000.33676676
0.44900002 37203.86754841  2511.26117853
0.45000002 37280.49366361  2774.22806745
0.45100002 37352.71275809  3798.77106753
0.45200002 37422.69837435  2542.87247505
0.45300002 37488.75319079  3574.17789860
0.45400002 37552.37361834  2819.24458301
0.45500002 37612.51376449  3087.23527610
0.45600002 37669.20178131  3098.66868539
0.45700002 37722.56305841  3628.15628691
0.45800002 37772.02028096  3640.84520744
0.45900002 37818.54425268  2870.42764482
0.46000002 37862.48651431  2880.01017321
0.46100002 37901.81113069  3939.89345376
0.46200002 37938.73838343  3952.26825841
0.46300002 37972.03065992  3171.42415103
0.46400002 38001.39911602  4506.01611375
0.46500002 38028.54459119  3189.83447149
0.46600002 38051.28874650  2932.04219333
0.46700002 38070.81276596  3207.08541941
0.46800002 38087.75877727  3215.36874837
0.46900002 38100.57607504  2954.69981466
0.47000002 38109.65483028  2961.69196551
0.47100002 38115.98252996  2968.47286013
0.47200002 38118.68241411  2974.97271001
0.47300002 38118.83195935  3252.29889692
0.47400002 38113.96062692  3258.74378806
0.47500002 38107.09687582  2992.93153048
0.47600002 38097.19247326  2998.43967573
0.47700002 38082.69474981  3003.58227728
