# SAXS profile: number of points = 501, q_min = 0, q_max = 0.5, delta_q = 0.001
#    q    intensity    error
0.00000000 1719190.39626459 335.24212727
0.00100000 1719119.54926633 722.03022784
0.00200000 1718906.95843619 928.20978695
0.00300000 1718552.78767220 1134.24488027
0.00400000 1718056.91119124 1803.95982530
0.00500000 1717419.80595317 2473.08461846
0.00600000 1716641.14720030 2883.95724471
0.00700000 1715721.68958577 2676.52594699
0.00800000 1714660.81720507 2546.27142105
0.00900000 1713459.98009192 4369.32313601
0.01000000 1712118.18564618 3672.49366679
0.01100000 1710636.82900168 3079.14642627
0.01200000 1709015.40963851 3999.09623389
0.01300000 1707255.18403321 5377.85406689
0.01400000 1705355.49232728 5755.57504175
0.01500000 1703318.19161535 4496.76022610
0.01600000 1701141.99938428 6073.07720929
0.01700000 1698829.22871121 5962.89086026
0.01800000 1696379.25361547 5801.61730842
0.01900000 1693792.94496143 6097.65487700
0.02000000 1691071.00451430 6392.24868622
0.02100000 1688215.04383229 11142.21979446
0.02200000 1685223.30721341 6976.82480884
0.02300000 1682098.54911472 6055.55505245
0.02400000 1678840.79180978 10702.61053580
0.02500000 1675451.49534715 8494.53946936
0.02600000 1671930.67587594 10156.97932051
0.02700000 1668279.64101633 7707.45229451
0.02800000 1664498.00869618 10136.79333783
0.02900000 1660588.47783911 9714.44304139
0.03000000 1656551.39308749 7702.96433193
0.03100000 1652387.19210402 9517.75066446
0.03200000 1648096.74879340 10605.50306696
0.03300000 1643682.86764740 14250.73111947
0.03400000 1639143.67273693 11187.15608261
0.03500000 1634482.58223037 10591.44762195
0.03600000 1629699.09316964 13567.24557763
0.03700000 1624795.52932321 11113.60193455
0.03800000 1619772.51316579 17056.20535299
0.03900000 1614632.24722264 11625.35271837
0.04000000 1609373.15238294 11877.17441496
0.04100000 1603999.21084231 14147.27369559
0.04200000 1598510.75595505 14434.55279593
0.04300000 1592908.16659677 11564.51382629
0.04400000 1587194.98044589 14998.99326180
0.04500000 1581370.83200577 14184.89702219
0.04600000 1575436.15118295 14438.87299681
0.04700000 1569394.18188281 11299.63863508
0.04800000 1563245.14276164 12638.83756729
0.04900000 1556991.96346431 15180.67235040
0.05000000 1550633.97540299 18979.76074275
0.05100000 1544174.62123160 15657.93138870
0.05200000 1537612.36016574 14668.82259957
0.05300000 1530952.16885350 17360.99840413
0.05400000 1524193.16297409 12574.59418094
0.05500000 1517338.84212405 16569.34092894
0.05600000 1510387.81579962 16787.96135601
0.05700000 1503345.41648083 18310.74802746
0.05800000 1496210.05371006 15889.75151233
0.05900000 1488983.44604441 16081.02196836
0.06000000 1481669.10683694 21691.63673750
0.06100000 1474268.25618351 15081.76496555
0.06200000 1466781.44065942 13861.08526215
0.06300000 1459211.77313939 15409.27704482
0.06400000 1451557.61118172 16983.22484508
0.06500000 1443824.97104541 15723.25467018
0.06600000 1436012.05048044 15875.11396083
0.06700000 1428121.73153347 23306.94774937
0.06800000 1420157.35522761 19108.21810903
0.06900000 1412119.33673947 16309.97910296
0.07000000 1404007.22142044 16447.94536917
0.07100000 1395826.04862647 18089.90643749
0.07200000 1387574.78887998 15193.94465002
0.07300000 1379258.57139647 19902.70211780
0.07400000 1370876.19233602 23133.53682980
0.07500000 1362430.68271887 21744.39471541
0.07600000 1353921.88835194 17201.57839793
0.07700000 1345355.17868924 17314.72196159
0.07800000 1336729.01982210 23760.35944161
0.07900000 1328045.67907643 20717.51356532
0.08000000 1319309.14104677 19235.52817882
0.08100000 1310519.90302634 20955.21423257
0.08200000 1301677.83591699 19447.06778116
0.08300000 1292787.15571227 17918.03081910
0.08400000 1283847.89602564 16369.06144267
0.08500000 1274864.41653958 24668.62761811
0.08600000 1265835.80436531 18171.07382482
0.08700000 1256765.51280259 18248.23610279
0.08800000 1247652.74010677 18321.78134893
0.08900000 1238503.34114779 16719.79589082
0.09000000 1229315.64401293 20136.19119484
0.09100000 1220093.23833703 23572.20247212
0.09200000 1210836.51975054 23647.63834185
0.09300000 1201549.53309215 16941.84921273
0.09400000 1192230.05994784 18688.20706798
0.09500000 1182882.59749142 18736.86122495
0.09600000 1173508.37427606 23904.36670769
0.09700000 1164110.71764792 20534.91402471
0.09800000 1154690.26304578 24006.01169743
0.09900000 1145248.38514164 17178.72658491
0.10000000 1135785.39672329 17207.14956956
0.10100000 1126304.16020947 17232.45446168
0.10200000 1116807.27974052 25882.00992538
0.10300000 1107295.23186663 22455.94835860
0.10400000 1097770.86482713 19018.88112788
0.10500000 1088236.83211809 20763.55973373
0.10600001 1078689.58984736 29432.04684387
0.10700001 1069136.40934009 24248.01490489
0.10800001 1059575.63218482 27718.49984243
0.10900001 1050011.03561715 24255.25606435
0.11000001 1040442.60035138 22520.38114463
0.11100001 1030872.64646256 19050.52740340
0.11200001 1021303.33149899 20773.31074064
0.11300001 1011733.69466517 29411.09988861
0.11400001 1002168.72901391 24202.37594524
0.11500001 992608.60282391 17271.39050241
0.11600001 983053.83889914 22428.37439067
0.11700001 973507.95724688 25846.63748215
0.11800001 963969.13813024 17206.84992604
0.11900001 954442.00991713 20615.94838526
0.12000001 944925.88367541 25725.60839487
0.12100001 935425.27462470 23965.59666486
0.12200001 925937.97326517 25625.33461736
0.12300001 916467.78186984 17046.30154591
0.12400001 907014.42359889 20407.82549254
0.12500001 897580.16308293 20357.11905796
0.12600001 888168.04100696 20303.52237419
0.12700001 878776.96379363 21934.27404997
0.12800001 869408.00248166 25234.56846132
0.12900001 860064.18697639 23479.75341111
0.13000001 850746.24675433 21732.31389769
0.13100001 841453.74919929 18326.86352145
0.13200001 832191.20819651 21582.88000200
0.13300001 822958.37978881 21503.90347764
0.13400001 813755.10744804 18126.39587299
0.13500001 804584.45324274 18054.87598202
0.13600001 795445.69779182 19615.69183244
0.13700001 786342.18667564 26043.65445074
0.13800001 777272.23665468 30791.64110708
0.13900001 768241.28150558 17746.37443967
0.14000001 759245.88218223 20875.46651510
0.14100001 750290.32993686 22373.65869393
0.14200001 741372.77769655 20673.18088113
0.14300001 732498.93393008 17404.17549109
0.14400001 723661.91998682 22035.50650301
0.14500001 714871.45985770 15655.68570940
0.14600001 706122.60622341 18684.00504208
0.14700001 697420.61439124 15482.73836991
0.14800001 688762.06644610 18472.59949360
0.14900001 680149.19553141 19894.36490793
0.15000001 671584.64349128 22817.08933919
0.15100001 663067.80414370 15117.94664782
0.15200001 654601.03104865 19530.02268290
0.15300001 646183.82929162 17912.21659322
0.15400001 637815.09836570 20760.88243153
0.15500001 629499.29695783 14730.28424398
0.15600001 621234.48684436 19019.09471234
0.15700001 613025.12044365 20340.17445631
0.15800001 604864.62416939 17311.22636080
0.15900001 596761.94411067 15754.51606814
0.16000001 588711.30921063 14217.37878853
0.16100001 580719.47245138 19756.07738537
0.16200001 572781.14966649 18205.84970158
0.16300001 564901.10331778 18065.53813694
0.16400001 557077.49672961 20681.50304245
0.16500001 549312.35246955 16413.45386669
0.16600001 541604.85106111 14923.92237559
0.16700001 533956.40626529 22874.69352443
0.16800001 526365.75567880 14677.70979013
0.16900001 518837.68825715 17199.47017785
0.17000001 511368.54098935 20986.56591318
0.17100001 503960.26181452 16902.82797943
0.17200001 496613.14887408 12887.11182185
0.17300001 489327.76961741 15325.74646817
0.17400001 482105.14674200 16451.83890953
0.17500001 474943.92191520 12538.52013073
0.17600001 467843.76240380 16147.62822200
0.17700001 460808.78815287 15994.67379222
0.17800001 453836.29220021 15841.15652746
0.17900001 446926.97070850 15687.13741283
0.18000001 440082.05661535 14337.87408178
0.18100001 433302.34417395 11829.15455472
0.18200001 426583.88340007 12880.70096772
0.18300001 419932.68841253 15067.18557200
0.18400001 413344.43592600 16058.43209434
0.18500001 406822.30162960 14755.44557718
0.18600001 400364.46543202 14599.29092170
0.18700001 393971.43271221 18886.99137654
0.18800001 387642.85735167 10989.67552514
0.18900001 381382.11411683 14130.20799564
0.19000001 375182.63101072 10748.98288633
0.19100001 369053.29122149 14880.22940514
0.19200001 362986.42666360 15762.68632267
0.19300001 356987.08886066 10388.32477672
0.19400001 351052.13491441 11295.10297461
0.19500001 345183.17549882 13192.90159100
0.19600001 339379.04021967 12034.38133489
0.19700001 333640.89052920 11890.96190040
0.19800001 327968.26632923 10768.83853384
0.19900001 322362.06456252 12572.12111210
0.20000001 316818.94427121 9552.09162122
0.20100001 311343.17406182 10377.06848192
0.20200001 305931.32757299 13041.85311084
0.20300001 300585.16285776 15636.44091091
0.20400001 295304.11711197 12712.84284255
0.20500001 290087.08963312 11652.79894135
0.20600001 284935.02391178 9731.95620172
0.20700001 279847.59471664 9604.36990466
0.20800001 274823.61117005 9477.29267919
0.20900001 269866.42069874 11901.10971539
0.21000001 264970.75975801 9224.95743706
0.21100001 260139.14914247 9099.66786718
0.21200001 255370.68396851 8975.00311236
0.21300001 250665.32226099 9655.62866997
0.21400001 246024.13218513 9521.13436569
0.21500001 241445.95666926 12516.55898549
0.21600001 236928.35913712 13110.43137270
0.21700001 232474.25549689 9122.29021700
0.21800001 228081.62422159 8241.72988092
0.21900001 223749.78383159 7383.74321556
0.22000001 219478.98608517 10913.59309911
0.22100001 215271.68293651 8602.25685689
0.22200001 211123.51355686 10593.12279361
0.22300001 207035.73695989 10434.60163618
0.22400001 203005.98614414 8221.74282761
0.22500001 199038.99175786 6747.42213966
0.22600001 195129.58138948 11295.07635285
0.22700001 191279.93573607 7850.12893383
0.22800001 187488.10460924 7728.26003746
0.22900001 183753.65446571 10777.15234408
0.23000001 180077.79970666 9983.51368788
0.23100001 176460.41590044 7983.06959288
0.23200001 172898.01366116 7855.62162222
0.23300001 169393.47565858 5945.71127682
0.23400001 165944.85983765 7604.42356171
0.23500001 162550.76710488 9206.87588427
0.23600001 159212.71894312 6792.01491136
0.23700001 155929.39706083 6680.01568604
0.23800001 152700.56100950 7664.04151957
0.23900001 149525.74429156 6459.51245893
0.24000001 146404.24389772 6351.01640069
0.24100001 143336.69650493 6243.74679509
0.24200001 140321.39698872 6137.65819461
0.24300001 137358.23258115 5027.31155028
0.24400001 134446.18024803 6423.16656519
0.24500001 131585.68854820 4855.51213712
0.24600001 128775.90192872 5248.26213137
0.24700001 126017.60321871 6094.21157995
0.24800001 123307.93047968 5987.21684768
0.24900001 120647.66983134 6334.00296579
0.25000001 118036.56240542 5332.89214177
0.25100001 115473.36649421 4364.89345998
0.25200001 112959.14216988 6858.87943705
0.25300001 110492.36003640 5472.68685152
0.25400001 108071.88122433 7440.74937433
0.25500001 105697.96792826 5276.44280862
0.25600001 103370.62078738 4383.43138188
0.25700001 101088.40219935 5085.75775527
0.25800001 98850.95025617  4224.39555907
0.25900001 96658.57759233  7162.40093848
0.26000001 94510.43567284  4440.10047800
0.26100001 92403.78736053  5447.20352264
0.26200001 90343.06520348  4276.84090910
0.26300001 88323.29648547  3497.60270632
0.26400001 86345.40198206  4118.67586943
0.26500001 84409.83383576  4378.33828824
0.26600001 82514.60820671  4626.59430108
0.26700001 80660.96900236  4215.34243953
0.26800001 78847.30779590  3181.48902012
0.26900001 77072.61249037  4370.01733500
0.27000001 75337.45909226  3674.96142843
0.27100001 73640.95413614  3605.46128513
0.27200001 71983.02861344  2947.70516122
0.27300001 70362.11044523  3759.44773900
0.27400001 68777.24653836  3688.18002016
0.27500001 67231.40341960  4175.07034994
0.27600001 65719.69617694  3003.71885592
0.27700001 64245.15729056  2946.92550439
0.27800001 62805.16932679  3416.91539894
0.27900001 61399.98581511  2836.67947891
0.28000001 60029.13236873  3795.34207364
0.28100001 58691.74614540  3227.45927329
0.28200001 57388.20579867  3654.19417718
0.28300001 56117.47501756  2629.66500379
0.28400001 54879.09170834  2580.68940973
0.28500001 53673.11429635  2302.57671230
0.28600001 52497.40535941  2938.01743000
0.28700001 51353.57562492  2440.32202920
0.28800001 50239.40057274  2831.24155329
0.28900001 49157.13963042  3207.50351271
0.29000001 48102.69917951  2729.58779414
0.29100001 47078.60862854  2268.24747109
0.29200001 46082.91881633  2227.87881563
0.29300001 45115.37170497  3183.34077819
0.29400001 44175.45747643  2150.24049445
0.29500001 43263.84712511  2305.09788394
0.29600001 42378.27437258  2643.13309774
0.29700001 41519.07961640  2041.49324138
0.29800001 40686.52226398  2189.74873191
0.29900001 39879.52120436  2153.49424698
0.30000001 39097.47879193  2647.87687653
0.30100001 38341.40882671  1910.55249228
0.30200001 37608.41592822  1880.23284334
0.30300001 36899.77280856  1850.89269170
0.30400001 36215.46344903  1656.85753123
0.30500001 35553.04726366  2937.39290399
0.30600001 34913.77550366  1929.33532567
0.30700001 34297.42897186  1742.99542287
0.30800001 33702.57945666  1562.11463177
0.30900001 33129.37386376  1848.61914912
0.31000001 32578.09144182  1519.76803771
0.31100001 32045.89257114  1649.72262767
0.31200001 31535.18176482  1776.69222475
0.31300001 31044.18688102  1608.39939846
0.31400001 30574.07432624  2311.40012850
0.31500001 30121.99005581  1713.33887550
0.31600002 29689.19106264  1835.23743243
0.31700002 29274.48571557  2094.58955212
0.31800002 28878.19031233  1934.55006062
0.31900002 28499.96914219  2051.99787540
0.32000002 28139.12028681  1625.87844716
0.32100002 27795.50257529  1476.77512175
0.32200002 27468.74450305  1463.94680761
0.32300002 27157.78869234  1979.80288942
0.32400002 26863.22603949  1702.45703087
0.32500002 26583.98742903  1429.95275152
0.32600002 26320.55598894  1420.12566563
0.32700002 26071.99940879  1667.56516115
0.32800002 25839.07306102  1402.67414754
0.32900002 25619.18884973  1268.14990811
0.33000002 25415.10004821  1388.04575486
0.33100002 25222.29002005  1507.28412297
0.33200002 25045.56707951  1376.12874835
0.33300002 24880.37408881  1371.15748097
0.33400002 24729.06361956  1491.16260687
0.33500002 24589.76502794  1239.32421610
0.33600002 24462.54071030  1854.87223720
0.33700002 24346.83705664  1604.70010640
0.33800002 24243.89117485  1356.08211709
0.33900002 24151.41942108  1231.72244881
0.34000002 24070.34847112  1477.43805913
0.34100002 24000.12991760  1477.44806770
0.34200002 23941.46170403  1478.14591561
0.34300002 23891.39178776  1479.35504956
0.34400002 23852.47136468  1357.80199674
0.34500002 23822.53738922  1730.94564868
0.34600002 23803.51376604  1610.66483526
0.34700002 23791.39093782  1614.48386550
0.34800002 23790.10363006  1494.49438082
0.34900002 23796.80775162  1749.06545258
0.35000002 23812.17098445  1755.19520639
0.35100002 23835.87094648  1510.24085470
0.35200002 23866.44749594  1516.47414572
0.35300002 23905.47854560  1269.38097089
0.35400002 23952.35396109  1658.10178149
0.35500002 24005.97237155  1538.30278243
0.35600002 24066.39885524  1288.75571974
0.35700002 24133.74900482  1295.98238294
0.35800002 24208.21459563  1433.97365949
0.35900002 24288.53337718  1442.73895094
0.36000002 24375.54105168  1451.92917152
0.36100002 24467.93440296  1594.33068121
0.36200002 24566.94548801  1337.67024518
0.36300002 24669.90072274  2020.46496490
0.36400002 24778.78128571  1356.63833965
0.36500002 24892.36162792  1503.24978992
0.36600002 25011.41162420  1376.87827513
0.36700002 25134.78160334  2081.16001534
0.36800002 25264.01325095  1538.19951965
0.36900002 25396.43971050  2114.25370605
0.37000002 25532.14733229  2131.29609952
0.37100002 25672.23486391  1575.76185059
0.37200002 25816.69964547  1588.88885495
0.37300002 25964.04726582  1747.89974473
0.37400002 26115.79176131  1469.01335616
0.37500002 26269.65186919  1629.76927917
0.37600002 26427.66025415  1643.93268398
0.37700002 26587.36548548  1658.25406388
0.37800002 26750.58846945  1520.77102653
0.37900002 26916.26655477  1841.07271956
0.38000002 27084.47780920  2012.24137416
0.38100002 27254.36004528  1717.84239503
0.38200002 27426.78273767  1890.80249151
0.38300002 27600.76920565  1907.76525787
0.38400002 27777.17594684  2406.19798039
0.38500002 27954.37027738  2104.12555046
0.38600002 28133.90722422  1633.17339174
0.38700002 28314.02961711  2307.02724250
0.38800002 28495.20937391  2494.04331861
0.38900002 28677.75133230  2180.94309215
0.39000002 28861.92380000  1862.02710217
0.39100002 29045.93557408  2049.48131120
0.39200002 29231.44196178  2067.83230234
0.39300002 29416.88039434  2433.95279914
0.39400002 29603.75992199  2104.82743017
0.39500002 29789.78228854  2123.41578213
0.39600002 29976.35288166  1963.60108854
0.39700002 30162.49824941  2160.84147696
0.39800002 30349.99762706  2543.02642166
0.39900002 30536.26085354  1832.17573802
0.40000002 30721.98743455  2217.51315809
0.40100002 30907.61705112  1863.72939648
0.40200002 31093.71092520  2255.53789738
0.40300002 31278.06797227  2274.54121071
0.40400002 31462.10663746  2866.98460318
0.40500002 31645.28329964  2119.91762869
0.40600002 31827.95471556  2720.33541843
0.40700002 32009.33599046  1958.97145543
0.40800002 32189.79456709  2369.81278831
0.40900002 32368.60485501  2189.73622219
0.41000002 32547.02624993  2207.17668972
0.41100002 32723.73398570  2831.25759859
0.41200002 32898.29429362  2853.26919928
0.41300002 33072.25770926  2053.78730106
0.41400002 33243.99672012  3104.15834083
0.41500002 33414.98695147  2293.60481303
0.41600002 33582.91365779  2100.61134883
0.41700002 33749.87501167  2327.72898985
0.41800002 33915.85678957  3197.41755034
0.41900002 34077.85842459  3649.73881021
0.42000002 34238.63747978  2378.38706523
0.42100002 34397.99664266  2177.39329066
0.42200002 34554.88046440  2192.50726936
0.42300002 34709.21908827  3090.50901406
0.42400002 34861.28186696  2889.12887163
0.42500002 35011.46479605  3355.84905972
0.42600002 35157.86132028  3152.60557398
0.42700002 35303.15204948  4079.63244416
0.42800002 35445.54424429  2280.92088021
0.42900002 35585.83005579  2754.34337684
0.43000002 35723.58987895  3002.38925365
0.43100002 35857.29247820  2555.90792896
0.43200002 35989.22433939  3506.25034742
0.43300002 36118.02614131  2586.41197454
0.43400002 36244.59352528  3074.44779147
0.43500002 36367.68547459  3567.67011412
0.43600002 36488.96151098  4783.70308078
0.43700002 36606.42598691  2645.54653144
0.43800002 36720.16799931  2901.62781281
0.43900002 36832.12774044  2917.10465528
0.44000002 36940.26896402  3176.67858010
0.44100002 37045.98168703  2456.14870225
0.44200002 37148.45951810  2468.51525196
0.44300002 37247.96100948  3969.14291327
0.44400002 37343.90193500  2492.70557229
0.44500002 37435.80889489  3506.23802726
0.44600002 37525.43640049  2767.68869288
0.44700002 37612.11101509  2780.28737800
0.44800002 37694.13434145  3554.18009549
0.44900002 37774.62254772  3569.70199993
0.45000002 37851.48367889  2816.71829146
0.45100002 37923.69868539  3085.47227127
0.45200002 37993.56725876  3097.99562110
0.45300002 38059.38540133  3887.76640300
0.45400002 38122.66067398  4162.99474290
0.45500002 38182.30714221  4439.83888491
0.45600002 38238.46710132  2883.37174843
0.45700002 38291.02247725  3419.77137952
0.45800002 38339.60157614  5807.29972597
0.45900002 38385.15262315  3972.86348479
0.46000002 38427.92482687  3188.74935326
0.46100002 38465.94702817  2932.25928093
0.46200002 38501.54142482  4278.29148589
0.46300002 38533.37052929  2950.11498754
0.46400002 38561.09216549  3496.52719783
0.46500002 38586.54920096  2966.91990868
0.46600002 38607.37258820  2974.89123578
0.46700002 38624.90242771  2982.61510683
0.46800002 38639.72631962  2718.30487542
0.46900002 38650.34661957  3269.81947899
0.47000002 38657.02536307  3823.56655988
0.47100002 38660.84227727  3010.90653926
0.47200002 38660.94997353  3291.59343676
0.47300002 38658.50609956  3848.06787954
0.47400002 38650.70172495  3304.63515411
0.47500002 38640.94130983  4414.34134446
0.47600002 38628.04217810  2763.83654884
