# SAXS profile: number of points = 501, q_min = 0, q_max = 0.5, delta_q = 0.001
#    q    intensity    error
0.00000000 1719190.39626459 361.02998322
0.00100000 1719119.53987698 773.60381132
0.00200000 1718906.92265425 928.20976763
0.00300000 1718552.70415711 1443.58432292
0.00400000 1718056.77036184 1546.25115208
0.00500000 1717419.58688824 1854.81322726
0.00600000 1716640.82776854 1982.72023679
0.00700000 1715721.26627735 2264.75216561
0.00800000 1714660.25763131 3472.18716830
0.00900000 1713459.26227875 4112.30240526
0.01000000 1712117.32915481 3107.49308660
0.01100000 1710635.77985331 3387.05899158
0.01200000 1709014.15658472 4332.35107689
0.01300000 1707253.70722059 5377.84941493
0.01400000 1705353.77989628 5755.56926230
0.01500000 1703316.21093037 4905.55090592
0.01600000 1701139.77218106 5205.48793558
0.01700000 1698826.69090181 5504.19872543
0.01800000 1696376.41709467 7735.47681003
0.01900000 1693789.78786119 7113.91743002
0.02000000 1691067.55667390 6392.23565338
0.02100000 1688211.19787948 7799.53608782
0.02200000 1685219.09488655 6976.80736980
0.02300000 1682093.94725900 8477.75388008
0.02400000 1678835.76295462 6925.19783796
0.02500000 1675446.07547413 7187.66399205
0.02600000 1671924.81355456 7448.42538506
0.02700000 1668273.27821972 8408.09770733
0.02800000 1664491.23048893 7240.53718468
0.02900000 1660581.20645504 10461.66208101
0.03000000 1656543.62514079 9243.51385317
0.03100000 1652378.86876651 8724.56082853
0.03200000 1648087.93908809 9789.64280908
0.03300000 1643673.49167986 10059.28223282
0.03400000 1639133.74671973 12908.17885101
0.03500000 1634472.03636808 12356.60916555
0.03600000 1629687.96657723 9949.24549575
0.03700000 1624783.75071571 15744.15527256
0.03800000 1619760.13694997 15160.95558349
0.03900000 1614619.18670033 15500.34491014
0.04000000 1609359.35279447 13856.58466966
0.04100000 1603984.79710895 10105.10469033
0.04200000 1598495.69241640 12372.35723329
0.04300000 1592892.31215646 13667.01667270
0.04400000 1587178.40297408 12856.14566115
0.04500000 1581353.52955328 13093.60783309
0.04600000 1575418.10205670 18881.38683089
0.04700000 1569375.34195021 14689.35388383
0.04800000 1563225.48913801 17234.56181964
0.04900000 1556971.48339890 12845.01533594
0.05000000 1550612.75324984 17793.28217211
0.05100000 1544152.51490536 13248.82919507
0.05200000 1537589.42275436 17113.37107276
0.05300000 1530928.41276261 13640.57279361
0.05400000 1524168.53663859 18861.58652049
0.05500000 1517313.23024071 12745.43172859
0.05600000 1510361.34532107 12913.59010510
0.05700000 1503318.03148587 13078.86748443
0.05800000 1496181.70118979 15889.45040855
0.05900000 1488954.14256350 14740.64669985
0.06000000 1481638.93105736 14912.69653780
0.06100000 1474237.10248562 17823.52740197
0.06200000 1466749.24195923 15246.85908286
0.06300000 1459178.66737916 21012.17379269
0.06400000 1451523.50368590 22643.76771647
0.06500000 1443789.76238563 17152.22317948
0.06600000 1435975.80612909 21647.33629024
0.06700000 1428084.50680043 20393.04771148
0.06800000 1420119.04076239 17637.87931188
0.06900000 1412079.90239525 14826.83966933
0.07000000 1403966.74773513 16447.47121993
0.07100000 1395784.52478735 16581.92093113
0.07200000 1387532.04905783 22790.21497342
0.07300000 1379214.78660431 15309.28484863
0.07400000 1370831.24870770 16964.03749776
0.07500000 1362384.52450451 17084.30273807
0.07600000 1353874.66730277 23455.87971065
0.07700000 1345306.84310144 17314.09988255
0.07800000 1336679.51390122 17423.61828080
0.07900000 1327994.91967236 22310.31569693
0.08000000 1319257.26757036 27249.26013996
0.08100000 1310466.72134917 16118.74142886
0.08200000 1301623.46544956 21066.77677686
0.08300000 1292731.53269958 17917.25988411
0.08400000 1283791.11326219 19642.00495488
0.08500000 1274806.36425179 21378.50373212
0.08600000 1265776.46915108 21473.89880738
0.08700000 1256705.00357687 18247.35750879
0.08800000 1247591.03874978 24983.01172426
0.08900000 1238440.26692108 20062.73326646
0.09000000 1229251.30394196 16779.28108702
0.09100000 1220027.59248540 18520.01972402
0.09200000 1210769.64842701 18579.26112809
0.09300000 1201481.33861394 27105.42027287
0.09400000 1192160.53049520 27181.26137274
0.09500000 1182811.80827598 18735.73992372
0.09600000 1173436.27641974 20488.19834939
0.09700000 1164037.31544238 20533.61920975
0.09800000 1154615.46054972 20575.24847440
0.09900000 1145172.30333000 20613.10242922
0.10000000 1135707.99401859 17205.97691853
0.10100000 1126225.45641252 20677.50035223
0.10200000 1116727.19854983 24154.81044079
0.10300000 1107213.70716788 20727.04157320
0.10400000 1097688.00450331 19017.44557270
0.10500000 1088152.55881465 17301.62649918
0.10600001 1078604.00550420 20773.91412350
0.10700001 1069049.56754289 22514.18495192
0.10800001 1059487.31291931 19054.88021961
0.10900001 1049921.25464910 22520.81197218
0.11000001 1040351.48008580 20786.22355051
0.11100001 1030780.24344655 24243.95246711
0.11200001 1021209.52887489 17309.50232931
0.11300001 1011638.54888965 27678.43200074
0.11400001 1002072.14653866 19014.31987585
0.11500001 992510.61920322 22450.59126353
0.11600001 982954.58367865 20701.02450711
0.11700001 973407.27754899 18952.24058643
0.11800001 963867.04838668 25807.54143604
0.11900001 954338.59197858 17178.09546473
0.12000001 944821.04267439 24007.90382525
0.12100001 935319.01280469 17116.33874064
0.12200001 925830.38210575 20497.88562550
0.12300001 916358.76100826 25566.41063668
0.12400001 906904.00602685 22105.78618847
0.12500001 897468.44576509 20354.58530907
0.12600001 888054.86384148 18609.19054873
0.12700001 878662.50845383 18557.35305309
0.12800001 869292.10391898 16820.80300358
0.12900001 859946.98334154 18445.86366207
0.13000001 850627.74958420 23400.77049405
0.13100001 841333.89803462 26653.45914612
0.13200001 832069.99404629 19919.75659649
0.13300001 822835.86087201 19846.80189987
0.13400001 813631.14647114 16476.03149281
0.13500001 804459.10511283 18052.06316985
0.13600001 795319.06152376 26150.09197590
0.13700001 786214.21929163 19529.56212809
0.13800001 777142.92521396 16203.43075480
0.13900001 768110.61575331 24195.48553724
0.14000001 759114.15837735 17660.79172754
0.14100001 750157.21368321 17576.18434554
0.14200001 741238.43344894 19079.47817686
0.14300001 732363.18314116 23728.56825299
0.14400001 723524.95129152 17310.33527618
0.14500001 714733.22634664 17217.92423490
0.14600001 705983.15899897 17123.62232932
0.14700001 697279.91238284 21671.46069924
0.14800001 688620.07626808 15390.65943070
0.14900001 680006.11284678 15300.13826093
0.15000001 671440.42231355 16728.93891126
0.15100001 662922.24408744 16626.09066621
0.15200001 654454.28404134 21027.61713848
0.15300001 646035.92862326 17908.11678650
0.15400001 637665.98071563 20756.02865179
0.15500001 629349.12543112 17672.12427611
0.15600001 621083.16905347 19014.46211796
0.15700001 612872.71585273 15977.59245637
0.15800001 604711.16064734 24518.01516567
0.15900001 596607.22453496 21477.86109703
0.16000001 588555.55917289 18477.70265243
0.16100001 580562.65976296 18339.97528764
0.16200001 572623.43260142 15400.70794682
0.16300001 564742.15919091 16671.18932633
0.16400001 556917.57727827 19297.19496370
0.16500001 549151.50939494 19143.42252129
0.16600001 541443.01666396 16275.77784935
0.16700001 533793.53042187 14796.75736192
0.16800001 526201.91345681 14673.14104956
0.16900001 518672.91001816 17194.00777897
0.17000001 511202.87570354 17046.06069524
0.17100001 503793.70332369 16897.24160739
0.17200001 496445.80303009 16747.59995609
0.17300001 489159.48075840 24257.41979635
0.17400001 481935.98251792 16446.06618011
0.17500001 474773.98937976 15040.84069389
0.17600001 467672.94901921 16141.73259776
0.17700001 460637.20630107 13528.91538804
0.17800001 453663.97717234 15835.14187113
0.17900001 446753.90189036 19299.76947326
0.18000001 439908.35973295 16720.91754326
0.18100001 433127.85897351 20101.46488448
0.18200001 426408.78742346 18727.87482830
0.18300001 419756.89906930 12743.82005775
0.18400001 413167.96331642 11465.41152366
0.18500001 406645.22536699 14749.02302084
0.18600001 400186.74037389 15715.33403693
0.18700001 393793.23427505 12215.46670433
0.18800001 387464.11821827 12083.06909752
0.18900001 381202.86474079 11950.71037426
0.19000001 375002.84054444 18264.51421169
0.19100001 368873.02702411 10623.54368026
0.19200001 362805.80343798 14704.51990815
0.19300001 356805.93767882 12459.66393250
0.19400001 350870.59939516 11289.26206900
0.19500001 345001.24218189 15214.55549919
0.19600001 339196.84956432 16037.22780526
0.19700001 333458.33253323 9903.71294426
0.19800001 327785.45480483 13698.15480365
0.19900001 322178.88401227 13531.51376801
0.20000001 316635.62839238 12410.53404138
0.20100001 311159.57906366 13199.38996771
0.20200001 305747.44177683 14896.01606740
0.20300001 300401.23979027 11030.73404646
0.20400001 295120.10390587 10889.93234885
0.20500001 289902.95791091 10749.60218744
0.20600001 284750.79166450 11493.96624883
0.20700001 279663.26197654 9598.04360473
0.20800001 274639.37528453 9470.93930438
0.20900001 269682.16224110 11892.98391703
0.21000001 264786.48008444 10894.64023809
0.21100001 259954.85154983 9919.87760409
0.21200001 255186.51883503 11414.49352710
0.21300001 250481.29996709 10452.58514178
0.21400001 245840.15068713 8721.17975793
0.21500001 241262.20074755 9380.27480854
0.21600001 236744.86517658 10017.85944358
0.21700001 232290.95959740 9115.09768556
0.21800001 227898.64232633 9732.41198070
0.21900001 223567.04279058 11066.56914138
0.22000001 219296.61721779 10177.55648630
0.22100001 215089.60076938 10027.47766200
0.22200001 210941.79269518 7761.60362922
0.22300001 206854.50192282 7645.34275258
0.22400001 202825.15173202 9583.48887251
0.22500001 198858.53706068 9437.82661519
0.22600001 194949.69812590 7301.84128860
0.22700001 191100.55030259 11110.58652000
0.22800001 187309.32544036 8364.29832309
0.22900001 183575.47869545 8233.36060885
0.23000001 179900.19435108 6233.54202906
0.23100001 176283.46586798 8588.53086326
0.23200001 172721.78385184 6640.28929423
0.23300001 169217.92403885 7127.45929761
0.23400001 165770.05012716 6427.73399768
0.23500001 162376.74294059 7472.57806355
0.23600001 159039.48589116 7915.39558718
0.23700001 155756.91785777 6116.57445358
0.23800001 152529.01708560 5468.16552116
0.23900001 149355.01642263 5914.45893009
0.24000001 146234.51047529 5815.01558410
0.24100001 143167.92602104 5196.99596039
0.24200001 140153.61848610 5619.45959901
0.24300001 137191.43945802 5523.32761385
0.24400001 134280.40651247 5428.28569004
0.24500001 131421.03474031 5334.38005245
0.24600001 128612.34248516 7147.63127173
0.24700001 125855.12252110 5149.99185719
0.24800001 123146.72092891 5979.38931757
0.24900001 120487.44730796 5873.76333414
0.25000001 117877.64511119 5769.52161291
0.25100001 115315.73097717 4794.82832087
0.25200001 112802.81843604 5993.21402704
0.25300001 110337.29446148 4203.85111787
0.25400001 107918.18094383 5366.23180131
0.25500001 105545.57340348 4458.24523149
0.25600001 103219.60257967 5570.76221479
0.25700001 100938.84811088 5859.50041007
0.25800001 98702.83269360  4218.06575473
0.25900001 96511.95217073  5645.94946912
0.26000001 94365.31624830  4802.72299770
0.26100001 92260.20409865  4713.57405043
0.26200001 90201.06449817  3558.43216283
0.26300001 88182.85212214  3492.04110927
0.26400001 86206.55683167  4797.39511469
0.26500001 84272.62588059  4707.46910444
0.26600001 82379.11537911  3959.14047246
0.26700001 80527.09144725  4208.34599817
0.26800001 78715.17532849  4129.00471724
0.26900001 76942.17045137  4362.62127104
0.27000001 75208.84021299  4280.13529907
0.27100001 73514.10048233  3599.25052994
0.27200001 71857.99095412  3236.84335571
0.27300001 70238.85288266  3175.49868910
0.27400001 68655.84820046  3398.46464675
0.27500001 67111.91493114  4445.49345542
0.27600001 65602.17401481  3543.50159711
0.27700001 64129.48947883  4278.71974052
0.27800001 62691.46632995  2886.00178909
0.27900001 61288.28192255  3088.92955509
0.28000001 59919.40397099  2778.16329660
0.28100001 58583.99296943  3717.15452984
0.28200001 57282.52269921  2431.64320367
0.28300001 56013.85364315  2863.42833376
0.28400001 54777.54883547  2575.91435591
0.28500001 53573.60540892  2528.13855891
0.28600001 52400.12840496  2706.99076153
0.28700001 51258.30393923  2878.66648548
0.28800001 50146.35972557  3260.76719550
0.28900001 49066.27284469  2134.38296977
0.29000001 48013.98420013  2305.39156049
0.29100001 46992.12234277  3087.38258406
0.29200001 45998.70061719  3032.46448173
0.29300001 45033.38276313  2978.95841079
0.29400001 44095.69065124  2731.72816515
0.29500001 43186.30728708  2300.96656118
0.29600001 42303.10694868  2073.06385415
0.29700001 41446.15598926  2037.90758646
0.29800001 40615.92122822  2185.94898398
0.29900001 39811.25821611  1791.50670453
0.30000001 39031.55863870  2467.18493835
0.30100001 38277.83826541  1907.38477106
0.30200001 37547.22967251  2559.78250411
0.30300001 36840.91770759  2351.92429780
0.30400001 36159.05009249  2315.98726807
0.30500001 35499.00354831  1792.34477401
0.30600001 34862.11153540  2408.10046831
0.30700001 34248.12723607  2531.62168515
0.30800001 33655.76721822  2495.91181507
0.30900001 33085.00880815  1846.14357890
0.31000001 32536.10753380  1669.59043714
0.31100001 32006.38138887  1497.89871992
0.31200001 31498.12458911  1922.48812532
0.31300001 31009.62805288  1898.71961557
0.31400001 30541.97728651  1587.41934463
0.31500001 30092.32230682  2282.20183180
0.31600002 29662.02914518  1692.51546316
0.31700002 29249.76222032  2650.90607554
0.31800002 28855.97699681  2071.13784701
0.31900002 28480.23214168  1503.75632828
0.32000002 28121.84944976  1354.06711512
0.32100002 27780.75030458  2012.71545487
0.32200002 27456.45947315  1729.34518180
0.32300002 27148.00395616  1319.39305474
0.32400002 26855.95556290  1832.91905396
0.32500002 26579.19491392  1949.58403925
0.32600002 26318.27178054  1807.27580875
0.32700002 26072.17820100  1411.02635105
0.32800002 25841.76892820  1657.87876409
0.32900002 25624.29261363  1268.40254444
0.33000002 25422.70785061  1514.68500547
0.33100002 25232.32012643  1507.88352216
0.33200002 25058.08143501  1501.98147234
0.33300002 24895.38623642  1247.25890951
0.33400002 24746.53310362  1367.86468208
0.33500002 24609.60541479  1240.32417164
0.33600002 24484.91724946  1361.48388813
0.33700002 24371.56719150  1482.76621815
0.33800002 24271.07811628  1604.43969486
0.33900002 24180.98154569  1356.55312896
0.34000002 24102.34294612  1602.68537010
0.34100002 24034.49846435  1356.26681257
0.34200002 23978.22302290  1480.41555954
0.34300002 23930.49358259  1852.22029101
0.34400002 23893.94295719  1607.46508857
0.34500002 23866.39036884  1362.53229069
0.34600002 23849.67334919  1489.65066794
0.34700002 23839.91057362  1244.44339088
0.34800002 23840.90065818  1622.49257114
0.34900002 23849.89348666  1377.33141409
0.35000002 23867.55402296  1382.28945671
0.35100002 23893.47133704  1387.73288098
0.35200002 23926.33954922  2153.72955653
0.35300002 23967.60607191  1399.94793697
0.35400002 24016.65344612  1662.55291355
0.35500002 24072.48127907  1671.11172954
0.35600002 24135.04750901  1421.67504085
0.35700002 24204.57881683  1949.67891604
0.35800002 24281.21026648  1699.80620522
0.35900002 24363.62384585  1315.63574999
0.36000002 24452.74120829  1853.76239881
0.36100002 24547.12585806  1332.90899723
0.36200002 24648.23133064  1476.30588548
0.36300002 24753.19944499  1621.82970446
0.36400002 24864.12857943  2041.96665631
0.36500002 24979.64617494  1508.52090396
0.36600002 25100.66299538  1658.14987602
0.36700002 25225.96184443  1810.21510770
0.36800002 25357.11228687  1403.51623156
0.36900002 25491.36253989  1980.67896317
0.37000002 25628.93250039  1568.87517733
0.37100002 25770.85873751  1869.41818137
0.37200002 25917.14839705  2030.09033011
0.37300002 26066.24968035  1754.78001161
0.37400002 26219.76539000  1769.83424766
0.37500002 26375.30054745  1487.56702134
0.37600002 26535.04238310  1950.72373320
0.37700002 26696.36041032  1816.42044837
0.37800002 26861.27243273  1679.76975116
0.37900002 27028.54120772  1540.62692182
0.38000002 27198.27164745  1865.25755794
0.38100002 27369.72720608  2038.77107616
0.38200002 27543.63333908  1740.61999132
0.38300002 27719.10016704  1756.28226979
0.38400002 27897.01652046  2416.57917057
0.38500002 28075.59528548  1950.69245285
0.38600002 28256.56161765  2460.44021942
0.38700002 28437.94068820  1655.08822646
0.38800002 28620.51386604  1670.00706320
0.38900002 28804.33731140  1853.55919380
0.39000002 28989.69517136  1700.24570235
0.39100002 29174.93620123  2230.13222888
0.39200002 29361.63736968  2250.12918643
0.39300002 29548.18978945  1746.29809929
0.39400002 29736.20996000  1938.05757596
0.39500002 29923.29154912  2132.93232267
0.39600002 30110.89654433  1793.10397417
0.39700002 30298.06343386  2170.55336724
0.39800002 30486.54097872  2007.08152043
0.39900002 30673.71620885  2024.46536570
0.40000002 30860.33725707  2227.49924875
0.40100002 31046.83001569  2246.54872637
0.40200002 31233.69905537  2454.50035656
0.40300002 31418.85697365  3236.77079878
0.40400002 31603.59680229  2879.87789506
0.40500002 31787.49100560  2129.44412336
0.40600002 31970.82484199  1951.81894908
0.40700002 32152.87263869  2754.85825821
0.40800002 32333.89769342  3173.89554797
0.40900002 32513.33020967  2199.52689290
0.41000002 32692.21475463  2217.02264863
0.41100002 32869.45900846  2234.46592927
0.41200002 33044.43015096  3070.65381727
0.41300002 33218.76370085  2062.88532357
0.41400002 33390.87413749  2702.15661761
0.41500002 33562.17106659  3141.41936068
0.41600002 33730.35978502  2109.83410452
0.41700002 33897.58646937  3188.06815851
0.41800002 34063.74920243  2569.08808658
0.41900002 34225.92815730  2371.85693369
0.42000002 34386.86492289  2822.98980961
0.42100002 34546.27604535  3717.52494139
0.42200002 34703.24125576  2642.30491442
0.42300002 34857.55222713  3103.71659737
0.42400002 35009.54771229  2455.04464966
0.42500002 35159.70870281  2246.70549257
0.42600002 35305.98937918  3618.15796303
0.42700002 35451.11626009  2503.55794892
0.42800002 35593.32664772  2519.47374615
0.42900002 35733.41861219  3226.72785359
0.43000002 35870.89071830  2782.86383380
0.43100002 36004.33860308  3033.00562765
0.43200002 36135.89569544  2581.72919030
0.43300002 36264.33271142  3305.13143994
0.43400002 36390.45376525  2611.92494278
0.43500002 36513.08908290  2626.75175310
0.43600002 36633.86154532  3121.75465952
0.43700002 36750.82054656  2655.98192676
0.43800002 36863.95165081  3155.73873062
0.43900002 36975.32794499  3416.52046402
0.44000002 37082.83396715  3434.24141645
0.44100002 37187.87404390  3205.22301574
0.44200002 37289.61350700  2973.47392196
0.44300002 37388.39635609  3237.08750992
0.44400002 37483.43857809  2502.01964366
0.44500002 37574.56317480  3267.85991418
0.44600002 37663.34231780  3535.45811092
0.44700002 37749.14185378  3044.09094335
0.44800002 37830.22964710  3057.43930498
0.44900002 37909.72756495  2558.90673191
0.45000002 37985.56940368  3083.66867033
0.45100002 38056.82239508  3354.32848487
0.45200002 38125.56396292  3885.94829109
0.45300002 38190.30663717  3120.91200630
0.45400002 38252.41281532  3655.01821773
0.45500002 38310.89481987  3668.65146182
0.45600002 38365.84729011  3944.96843457
0.45700002 38417.19636382  3167.11381833
0.45800002 38464.47031716  2913.10679753
0.45900002 38508.75518405  3985.65635045
0.46000002 38550.16768921  2932.31864426
0.46100002 38586.88661996  2674.07136950
0.46200002 38621.02328341  2950.45321357
0.46300002 38651.43123836  2959.15371586
0.46400002 38677.73996499  2967.54973946
0.46500002 38701.66082928  3787.34470826
0.46600002 38721.00034843  2983.64682326
0.46700002 38736.98803827  3535.13769592
0.46800002 38750.21955796  3543.90149764
0.46900002 38759.26688071  4098.79266690
0.47000002 38764.29660988  3560.30699088
0.47100002 38766.52865118  3293.60443031
0.47200002 38764.95215525  3850.52288008
0.47300002 38760.79655348  3031.48204213
0.47400002 38751.31842659  3037.13472564
0.47500002 38739.79503511  3319.22579593
0.47600002 38725.06327395  3047.85624944
