# SAXS profile: number of points = 501, q_min = 0, q_max = 0.5, delta_q = 0.001
#    q    intensity    error
0.00000000 1682732.95097189 353.37391970
0.00100000 1682663.28306581 504.79899691
0.00200000 1682454.22736187 1211.36708206
0.00300000 1682105.95596513 1110.18997049
0.00400000 1681618.35105236 1387.33519233
0.00500000 1680991.84580823 1966.76053744
0.00600000 1680226.16137861 1940.66129540
0.00700000 1679322.04001414 2619.74249130
0.00800000 1678278.81944810 2718.81180229
0.00900000 1677097.95855243 3018.77645444
0.01000000 1675778.57419595 4147.55215022
0.01100000 1674321.90621104 3315.15751864
0.01200000 1672727.51028313 3588.00066687
0.01300000 1670996.64122389 3860.00241147
0.01400000 1669128.64589186 4506.64754369
0.01500000 1667125.32764047 5201.43125385
0.01600000 1664985.53439401 4670.28463275
0.01700000 1662711.32607180 5387.18493813
0.01800000 1660302.34201903 6151.42045398
0.01900000 1657759.30480235 5967.93376658
0.02000000 1655082.88425852 5734.86245338
0.02100000 1652274.72035479 5997.75750682
0.02200000 1649333.02715988 7397.25896289
0.02300000 1646260.62919308 9482.46165578
0.02400000 1643057.48145170 7393.75900367
0.02500000 1639724.98662425 6394.92773989
0.02600000 1636263.28024228 7289.55324689
0.02700000 1632673.44265004 10971.56603712
0.02800000 1628955.38513909 8503.14750038
0.02900000 1625111.67590151 8044.30316506
0.03000000 1621142.49715322 9045.97554992
0.03100000 1617048.36205266 11642.74874250
0.03200000 1612830.17502523 7983.50973408
0.03300000 1608490.73055774 13945.61527684
0.03400000 1604028.15077490 10947.49263416
0.03500000 1599445.72044262 8637.00728923
0.03600000 1594743.12434212 9735.90722404
0.03700000 1589922.38146035 15406.34858886
0.03800000 1584984.53909681 14835.45597252
0.03900000 1579931.27348802 11375.50569591
0.04000000 1574761.36120040 10653.26110218
0.04100000 1569478.67669996 14831.57418250
0.04200000 1564083.51720360 16141.34264638
0.04300000 1558576.10111892 11315.26301935
0.04400000 1552960.25122072 12578.97861908
0.04500000 1547235.39651962 14946.29462486
0.04600000 1541401.96638255 10866.88436816
0.04700000 1535463.22531090 14371.93645732
0.04800000 1529419.39027536 12365.35634571
0.04900000 1523273.21331566 15994.36948431
0.05000000 1517024.06495653 15086.80502853
0.05100000 1510675.55334987 15318.25082455
0.05200000 1504225.94249409 14350.31616014
0.05300000 1497680.60309686 18196.82017592
0.05400000 1491037.76751572 17221.48701791
0.05500000 1484301.69345049 19949.01569058
0.05600000 1477470.71541219 16422.08776813
0.05700000 1470550.04860204 15352.54322404
0.05800000 1463538.06149326 16838.00618369
0.05900000 1456436.99847844 17040.31367808
0.06000000 1449249.42868408 18564.88604877
0.06100000 1441977.22478351 13410.38881717
0.06200000 1434620.72324609 18980.03305574
0.06300000 1427183.14665150 15071.05473329
0.06400000 1419662.46587694 15225.88065859
0.06500000 1412065.16622151 13979.44579952
0.06600000 1404389.04590903 19759.75480047
0.06700000 1396637.14129970 17094.83940953
0.06800000 1388812.44092707 18686.47226737
0.06900000 1380915.78032363 17399.53964671
0.07000000 1372946.62526621 16084.07046819
0.07100000 1364909.94126081 16215.13086166
0.07200000 1356804.55696713 16342.71165427
0.07300000 1348635.54167283 16466.84073539
0.07400000 1340401.92202225 18095.42679533
0.07500000 1332106.22167342 15186.01163888
0.07600000 1323748.91795164 24462.88115058
0.07700000 1315335.13428230 20006.24833050
0.07800000 1306863.04506915 18583.59337238
0.07900000 1298335.07483626 20254.02811744
0.08000000 1289755.19218054 26639.89474419
0.08100000 1281123.31814950 22060.94457359
0.08200000 1272440.62642386 17426.07519660
0.08300000 1263710.08842789 17515.02264763
0.08400000 1254932.31085207 19200.46525728
0.08500000 1246111.30532166 20897.28757127
0.08600000 1237246.36530421 22604.49215542
0.08700000 1228341.11471090 25942.56556090
0.08800000 1219394.02195321 19534.69314911
0.08900000 1210411.46893288 21242.72227754
0.09000000 1201391.82022950 18038.89902813
0.09100000 1192338.25483071 24681.40303456
0.09200000 1183251.30299488 24759.53467854
0.09300000 1174135.09830532 23177.42792970
0.09400000 1164987.12358109 21581.38747861
0.09500000 1155812.41801254 19972.43952202
0.09600000 1146611.81516989 18351.52296446
0.09700000 1137388.38868566 18391.57110969
0.09800000 1128142.75028711 18428.21269239
0.09900000 1118877.04257103 16783.15642775
0.10000000 1109590.79399916 20172.36158355
0.10100000 1100287.28816399 21884.71519086
0.10200000 1090968.05924984 23597.64023152
0.10300000 1081634.72323226 23622.90346663
0.10400000 1072289.80312260 20266.27823245
0.10500000 1062935.80326336 18590.74807376
0.10600001 1053568.98210452 18600.76125429
0.10700001 1044197.64791056 21990.80349983
0.10800001 1034818.48603003 20303.13965141
0.10900001 1025436.14735790 16919.69722774
0.11000001 1016050.51072798 21992.41433988
0.11100001 1006663.76629856 20294.34248390
0.11200001 997278.45320153 18594.25763531
0.11300001 987893.34454885 21960.87008326
0.11400001 978512.80957353 18567.28143589
0.11500001 969137.61304267 20235.59431318
0.11600001 959768.06730624 20212.71644932
0.11700001 950407.87908022 21868.88632755
0.11800001 941054.91835112 16797.83108372
0.11900001 931713.98483221 18447.93776861
0.12000001 922384.51152956 20089.53560743
0.12100001 913070.20535168 21721.94120860
0.12200001 903770.02868721 18342.01359632
0.12300001 894486.87170722 26619.93055619
0.12400001 885220.64024743 19917.46534403
0.12500001 875973.85884544 16555.90671230
0.12600001 866748.93584022 26418.50880934
0.12700001 857545.53991649 24697.31271349
0.12800001 848364.03655177 18057.42936904
0.12900001 839208.10508397 24546.83823065
0.13000001 830077.43222759 19573.22677451
0.13100001 820972.91715659 19506.31743112
0.13200001 811897.57760138 17817.09318037
0.13300001 802852.50158892 22592.27045978
0.13400001 793836.37587887 22505.26231719
0.13500001 784853.01488623 20814.30293614
0.13600001 775901.51311563 19133.73221560
0.13700001 766984.75421613 17464.24367700
0.13800001 758101.57419966 23709.62785114
0.13900001 749257.24439188 17307.84316166
0.14000001 740448.65358671 15660.48976192
0.14100001 731678.83910270 15584.76000791
0.14200001 722947.22004290 21710.10604185
0.14300001 714258.60149408 20056.38247597
0.14400001 705606.87855447 23020.42549871
0.14500001 697001.41128084 19843.63111523
0.14600001 688436.79586444 19734.04168439
0.14700001 679919.17311285 16603.62699072
0.14800001 671444.19535502 19508.81201644
0.14900001 663014.74414728 22376.74867072
0.15000001 654632.97178228 16310.18126152
0.15100001 646298.48303064 14735.60610840
0.15200001 638013.66622913 17570.89719707
0.15300001 629777.75245228 23276.58682904
0.15400001 621590.00184654 15897.16504743
0.15500001 613454.70831314 20096.77719277
0.15600001 605369.10276888 22810.30886886
0.15700001 597339.21831554 15572.63415647
0.15800001 589357.51397287 18273.03058319
0.15900001 581432.72448122 16745.26325545
0.16000001 573559.36939218 13851.45942464
0.16100001 565744.06371835 21996.13023568
0.16200001 557981.94827289 17735.45706307
0.16300001 550276.95187776 17597.85775181
0.16400001 542627.99865060 16116.05232075
0.16500001 535036.84734070 14654.65994053
0.16600001 527502.63350811 21142.30654920
0.16700001 520026.30130663 15725.59609399
0.16800001 512607.33938133 15593.51600025
0.16900001 505249.95263002 14172.26184046
0.17000001 497950.84898975 15326.92785564
0.17100001 490711.67244038 15192.43409616
0.17200001 483533.12712792 16311.99081396
0.17300001 476415.07973160 14921.32100185
0.17400001 469358.93503652 13552.73988922
0.17500001 462363.62219308 19530.24032380
0.17600001 455428.10928449 14509.94024710
0.17700001 448557.19128309 16767.06860208
0.17800001 441747.42080118 13047.01068960
0.17900001 435000.12687412 14094.00477643
0.18000001 428316.50402652 12791.67299697
0.18100001 421696.88669615 12663.55810567
0.18200001 415137.59351288 12535.08022825
0.18300001 408644.42715795 12406.44539459
0.18400001 402213.56504155 13393.71234861
0.18500001 395847.30275649 12148.55429552
0.18600001 389544.60263948 12019.39928228
0.18700001 383305.61827514 14051.98462985
0.18800001 377130.40138791 10691.64738449
0.18900001 371021.56199636 13746.34952145
0.19000001 364972.81357909 13593.41308403
0.19100001 358993.51710378 15508.52067166
0.19200001 353075.09141603 13287.98169332
0.19300001 347223.35853505 10104.20021082
0.19400001 341435.06447721 9986.97610788
0.19500001 335711.51631900 10856.91095080
0.19600001 330051.56448913 13654.23386816
0.19700001 324456.80533868 9636.36757395
0.19800001 318926.19569662 9519.94739145
0.19900001 313460.60555500 13165.34605550
0.20000001 308057.40976615 10216.72447775
0.20100001 302720.02832155 11924.14247915
0.20200001 297445.51696281 10868.65970351
0.20300001 292235.71559066 10730.89598368
0.20400001 287089.52713357 11476.40438961
0.20500001 282006.19766527 8713.99191974
0.20600001 276986.80572297 8600.44072422
0.20700001 272030.70082806 12731.03740054
0.20800001 267137.25416462 13399.60530230
0.20900001 262308.95708311 11567.82555419
0.21000001 257540.98102264 8966.28967816
0.21100001 252835.72090789 10452.22919644
0.21200001 248192.56953631 9515.70356587
0.21300001 243611.40227595 8601.91902102
0.21400001 239092.78815820 13108.26273049
0.21500001 234636.35306990 8362.44001877
0.21600001 230239.33183669 10492.00684784
0.21700001 225904.26974486 11819.31195186
0.21800001 221629.57395880 11648.85095804
0.21900001 217414.34297052 7174.67365726
0.22000001 213258.95739250 8483.44172619
0.22100001 209165.53782874 7661.73401294
0.22200001 205130.31736669 9606.25321651
0.22300001 201153.97712959 7434.65134626
0.22400001 197234.59313587 8653.66818304
0.22500001 193376.84861529 7211.02302585
0.22600001 189575.06048801 9682.54667230
0.22700001 185832.03357632 8262.09260351
0.22800001 182145.50803230 6882.36834647
0.22900001 178515.32439274 6774.65688108
0.23000001 174941.98027333 6061.73990314
0.23100001 171426.15369461 5965.63043070
0.23200001 167964.02970400 7044.41173894
0.23300001 164558.31091665 8663.99547952
0.23400001 161207.47796633 7387.33302719
0.23500001 157909.85770698 6708.01107266
0.23600001 154667.01662924 5498.41270123
0.23700001 151477.69510223 5948.52936802
0.23800001 148341.51611523 6913.45668555
0.23900001 145258.15402694 6275.15255078
0.24000001 142226.71938485 6683.94499364
0.24100001 139248.31340189 5560.18541714
0.24200001 136320.71076173 5465.77915653
0.24300001 133444.00483513 6837.67113119
0.24400001 130617.16674317 5280.19921536
0.24500001 127840.78747576 8019.45297771
0.24600001 125114.00644035 5099.02157369
0.24700001 122437.08089753 6376.52347479
0.24800001 119807.77752858 5369.78484286
0.24900001 117226.50814827 6154.39196893
0.25000001 114693.40415643 6045.48961909
0.25100001 112206.87723934 5089.70419237
0.25200001 109768.22036339 4582.27457586
0.25300001 107375.84473704 4909.22385363
0.25400001 105028.38658661 4820.80317240
0.25500001 102726.46949511 5522.57526134
0.25600001 100469.73981236 4647.73038362
0.25700001 98257.15658615  4563.06256775
0.25800001 96088.06226348  5226.22995378
0.25900001 93963.02515951  5863.29304737
0.26000001 91881.02206267  3956.85640235
0.26100001 89839.39190702  3883.75709590
0.26200001 87842.41944546  4158.46033331
0.26300001 85885.23316562  4081.26647315
0.26400001 83968.93064572  3671.54166621
0.26500001 82093.86913304  5240.87285345
0.26600001 80257.85580922  3535.76000499
0.26700001 78462.42638432  3469.60865890
0.26800001 76705.85208994  3714.09753395
0.26900001 74987.14200235  3644.37527377
0.27000001 73306.98487393  2979.92907614
0.27100001 71664.21672434  4678.24028915
0.27200001 70058.99324185  5164.04863624
0.27300001 68489.78631551  4222.39552617
0.27400001 66955.65166905  4695.26529549
0.27500001 65459.29729056  2981.01653969
0.27600001 63996.13123089  5052.17481912
0.27700001 62569.28784325  3913.70913982
0.27800001 61175.64092879  2816.22076344
0.27900001 59816.25321362  3768.42413081
0.28000001 58489.73351820  2958.41086137
0.28100001 57195.83228717  3387.13734836
0.28200001 55934.85012035  2849.32139999
0.28300001 54705.63184366  2563.50602953
0.28400001 53507.92538929  2744.95670239
0.28500001 52341.35589685  2245.44427426
0.28600001 51204.56859732  2424.79246070
0.28700001 50098.37461212  2813.52485139
0.28800001 49021.04302867  2125.06231588
0.28900001 47974.41669624  2712.95339259
0.29000001 46955.09039469  2459.50775129
0.29100001 45965.16507040  2818.58405553
0.29200001 45002.57948080  2175.64980798
0.29300001 44067.24043899  2332.03847442
0.29400001 43158.73081824  1909.77392911
0.29500001 42277.89660477  2252.56643773
0.29600001 41422.00445815  2029.88542456
0.29700001 40591.56868272  2540.22048841
0.29800001 39787.11630552  2319.78792601
0.29900001 39007.36914861  2632.99754217
0.30000001 38251.69065024  1727.06391462
0.30100001 37521.12821164  2549.56078268
0.30200001 36812.87758782  2509.71804836
0.30300001 36128.30414001  1647.45074678
0.30400001 35467.24838822  1784.88935964
0.30500001 34827.42594511  1598.57892656
0.30600001 34209.87782636  1890.43793818
0.30700001 33614.37310343  2018.87934417
0.30800001 33039.86642822  2143.95703403
0.30900001 32486.22181076  1812.73126286
0.31000001 31953.74780234  1788.77088666
0.31100001 31439.69833733  1618.51574703
0.31200001 30946.56421896  1598.23538476
0.31300001 30472.18316833  1435.23989518
0.31400001 30018.02558298  1985.69248633
0.31500001 29581.61448308  1822.81917075
0.31600002 29163.52777606  2080.08871711
0.31700002 28762.90859734  1509.18988556
0.31800002 28380.17794357  1357.99157890
0.31900002 28014.93506156  1748.13203061
0.32000002 27666.19398519  1731.76549450
0.32100002 27334.36340264  1452.27479635
0.32200002 27018.74885714  1570.87013294
0.32300002 26718.41218129  1817.92085090
0.32400002 26433.75479982  1804.10385051
0.32500002 26163.89722010  2047.06341543
0.32600002 25909.43881950  1397.94383770
0.32700002 25669.21317710  2399.55816142
0.32800002 25444.09255991  1757.93243821
0.32900002 25231.43586423  1623.64297475
0.33000002 25034.17881130  1367.24174052
0.33100002 24847.69208750  1608.63966192
0.33200002 24676.68626036  1725.64075190
0.33300002 24516.96145778  1719.61975808
0.33400002 24370.56597612  1469.54519795
0.33500002 24235.60904414  1465.76970440
0.33600002 24112.51723031  1706.44292520
0.33700002 24000.23672866  1581.85567770
0.33800002 23900.52646959  1701.47855995
0.33900002 23810.54488631  1335.77163138
0.34000002 23732.00670873  1456.67064077
0.34100002 23663.61868632  1335.33806571
0.34200002 23606.38678419  1700.36812059
0.34300002 23557.55580436  1337.12693078
0.34400002 23519.27023958  1460.54675105
0.34500002 23489.86722141  1462.94899983
0.34600002 23470.91099655  1343.82707275
0.34700002 23458.57300882  1346.99132596
0.34800002 23456.58749141  1350.74765467
0.34900002 23462.44450248  1601.31191313
0.35000002 23476.50282112  1359.64172528
0.35100002 23498.57235964  1737.01455109
0.35200002 23527.51795966  1494.93856196
0.35300002 23564.40791259  2252.28621496
0.35400002 23608.84203511  1257.17089791
0.35500002 23659.88144570  1516.12527485
0.35600002 23717.27906794  1524.07242509
0.35700002 23781.52175782  1787.89489044
0.35800002 23852.53519083  1669.79680512
0.35900002 23929.25156956  1421.39761056
0.36000002 24012.44773545  1690.35633840
0.36100002 24100.60527385  1701.26180686
0.36200002 24195.43832273  1580.93001489
0.36300002 24293.78024260  1989.66069611
0.36400002 24398.04231667  1602.95145613
0.36500002 24506.68709595  2152.66749647
0.36600002 24620.73114584  1897.51983929
0.36700002 24738.84686500  1638.70129396
0.36800002 24862.62984234  1651.37595235
0.36900002 24989.54535843  1802.99578302
0.37000002 25119.60536207  1537.69671508
0.37100002 25253.99734343  1550.09043037
0.37200002 25392.43136737  1704.84792276
0.37300002 25533.67307514  1432.43912737
0.37400002 25679.22178473  1588.90192320
0.37500002 25826.82518968  2184.94951455
0.37600002 25978.37977901  1469.07744610
0.37700002 26131.58726774  1777.99328192
0.37800002 26288.29776724  1942.83673852
0.37900002 26447.23572542  2110.48951087
0.38000002 26608.75078595  1976.89723329
0.38100002 26771.84710169  1687.42960276
0.38200002 26937.32034530  1857.05895258
0.38300002 27104.39452253  1561.21319846
0.38400002 27273.85872641  1732.57195767
0.38500002 27443.82901133  2383.49666255
0.38600002 27616.48957458  1763.45102533
0.38700002 27789.44998279  1940.81527874
0.38800002 27963.58751707  2447.51311338
0.38900002 28138.97151002  2469.19486698
0.39000002 28315.93998460  1826.80295465
0.39100002 28492.87005236  2177.99508999
0.39200002 28671.09554624  2366.22562753
0.39300002 28849.38978781  1704.99901724
0.39400002 29029.12808515  2579.96388080
0.39500002 29208.07541353  1908.45573794
0.39600002 29387.53135178  2625.04136237
0.39700002 29566.63303744  1765.12807596
0.39800002 29746.91631061  1958.38832809
0.39900002 29926.07708591  1975.12118125
0.40000002 30105.05517027  2716.22873143
0.40100002 30283.54268452  2008.70748144
0.40200002 30462.72695338  2209.76631790
0.40300002 30640.35293084  2970.88876093
0.40400002 30817.44099534  2433.80751792
0.40500002 30993.93676115  2453.79008964
0.40600002 31169.81277270  2473.79230792
0.40700002 31344.73973397  1918.29816261
0.40800002 31518.71903948  2900.51025704
0.40900002 31691.01716863  2728.59670750
0.41000002 31863.01430452  2357.22590994
0.41100002 32033.44940901  2969.50090092
0.41200002 32201.92571511  2792.87314960
0.41300002 32369.62179281  3015.23041287
0.41400002 32535.48817482  2430.40108182
0.41500002 32700.48832665  2040.51056827
0.41600002 32862.56067718  2877.77457486
0.41700002 33023.83740749  3105.89205534
0.41800002 33184.18477381  2294.18872305
0.41900002 33340.64653444  2730.59908056
0.42000002 33496.09189657  2115.27830350
0.42100002 33650.17387577  4047.10660381
0.42200002 33801.96222623  2359.20806537
0.42300002 33951.23751945  2807.08845112
0.42400002 34098.39113921  2391.14979194
0.42500002 34243.89724514  2625.82216518
0.42600002 34385.65650802  2642.88168444
0.42700002 34526.46333360  4433.19810211
0.42800002 34664.43152543  2230.65627437
0.42900002 34800.53658480  3591.41554574
0.43000002 34934.18253629  2258.49500800
0.43100002 35063.93146267  3635.42858632
0.43200002 35192.11957132  2742.87392937
0.43300002 35317.22295336  2529.06645554
0.43400002 35440.21919283  3699.95905907
0.43500002 35560.06604813  2558.19127273
0.43600002 35678.10152690  2572.56963251
0.43700002 35792.41666773  3292.18664111
0.43800002 35903.26975725  2600.65346811
0.43900002 36012.49673600  2614.50738693
0.44000002 36118.00447908  3344.88855332
0.44100002 36221.33162236  3602.21160055
0.44200002 36321.51028475  2654.92092008
0.44300002 36418.95679303  3395.70369231
0.44400002 36512.84061381  2924.67867177
0.44500002 36602.98244947  2938.48757030
0.44600002 36690.91906535  3444.17673589
0.44700002 36776.06145539  3459.89202569
0.44800002 36856.96128706  2482.31646032
0.44900002 36936.21252354  2742.51390985
0.45000002 37011.95969912  2503.85919231
0.45100002 37083.43154185  2765.68245546
0.45200002 37152.60404734  2524.51956466
0.45300002 37218.01429696  3041.45627249
0.45400002 37280.88662607  4325.51507579
0.45500002 37340.40077332  3064.90024073
0.45600002 37396.43868781  2819.87859290
0.45700002 37449.28177262  2572.76577971
0.45800002 37498.15157690  2839.92264427
0.45900002 37544.20498621  3626.77037356
0.46000002 37587.66437153  4418.61809461
0.46100002 37626.67997137  3129.03485472
0.46200002 37663.18083366  3661.99124602
0.46300002 37696.04615660  2623.64493685
0.46400002 37725.15291835  3157.59544892
0.46500002 37751.96695498  3166.63513827
0.46600002 37774.60386961  3175.33335178
0.46700002 37793.91282425  3183.75936721
0.46800002 37810.71673161  2925.98245296
0.46900002 37823.39085794  2933.20410006
0.47000002 37832.45573573  2672.86312441
0.47100002 37838.80203663  2946.88604229
0.47200002 37841.49872554  3490.31080038
0.47300002 37841.65809592  2959.59621996
0.47400002 37837.01538146  3774.24246319
0.47500002 37830.24106478  3511.40314207
0.47600002 37820.45914071  2976.65937776
0.47700002 37806.31772810  3523.92704246
