# SAXS profile: number of points = 501, q_min = 0, q_max = 0.5, delta_q = 0.001
#    q    intensity    error
0.00000000 1682732.95097189 277.65093691
0.00100000 1682663.40185833 656.23874231
0.00200000 1682454.70125609 984.23603140
0.00300000 1682107.02032751 1312.04352259
0.00400000 1681620.23265645 1513.45826690
0.00500000 1680994.80650180 2269.34307860
0.00600000 1680230.42002317 2469.93881799
0.00700000 1679327.80617677 2015.19345116
0.00800000 1678286.38048259 2718.82405117
0.00900000 1677107.52495419 3018.79367396
0.01000000 1675790.34822287 3318.06503275
0.01100000 1674336.16781252 4219.32732659
0.01200000 1672744.44524151 4892.77771685
0.01300000 1671016.51817304 3860.04832723
0.01400000 1669151.66642703 4882.26884073
0.01500000 1667151.72067507 4401.28073857
0.01600000 1665015.47380467 5519.52654240
0.01700000 1662745.11627329 5387.29441839
0.01800000 1660340.16626186 5678.36362413
0.01900000 1657801.35425703 5470.74471590
0.02000000 1655129.38347882 8863.21824946
0.02100000 1652325.91521734 6543.21092092
0.02200000 1649389.05084866 9104.62797433
0.02300000 1646321.82105187 7704.78647323
0.02400000 1643123.96735677 7394.05819026
0.02500000 1639796.94356441 7034.72920917
0.02600000 1636340.93703478 9940.77164716
0.02700000 1632757.00609766 8229.09568763
0.02800000 1629045.02254309 8503.61540765
0.02900000 1625207.52219036 7313.43418565
0.03000000 1621244.85853602 11308.18340807
0.03100000 1617157.40940616 10091.06269902
0.03200000 1612946.02666367 9580.89983966
0.03300000 1608613.60495220 10665.10869250
0.03400000 1604158.12203416 10948.37968805
0.03500000 1599583.03597513 8637.74879314
0.03600000 1594887.98774127 9736.79161513
0.03700000 1590074.89897700 9969.77007766
0.03800000 1585144.89215288 10200.40785307
0.03900000 1580099.58367231 12324.77732340
0.04000000 1574937.82008556 11623.04165083
0.04100000 1569663.33390764 12855.54330077
0.04200000 1564276.62031890 11098.54313606
0.04300000 1558777.77396732 12345.52054288
0.04400000 1553170.59647086 12580.68241569
0.04500000 1547454.55167095 14948.41166372
0.04600000 1541629.92342230 13042.18975844
0.04700000 1535700.29584067 13268.45117315
0.04800000 1529665.54390264 14615.95495204
0.04900000 1523528.63508826 14854.40488355
0.05000000 1517288.92824895 16250.16517825
0.05100000 1510949.83981855 12963.95022956
0.05200000 1504509.78509069 16745.19468841
0.05300000 1497973.96153043 23053.82034267
0.05400000 1491340.94107311 14764.27600514
0.05500000 1484614.70264165 16211.99330912
0.05600000 1477793.58847385 18952.70365659
0.05700000 1470882.67844275 14076.34788976
0.05800000 1463880.84911127 14250.88073151
0.05900000 1456789.69434575 17044.44021992
0.06000000 1449612.34608744 14590.34894501
0.06100000 1442350.27000780 14755.24395171
0.06200000 1435003.89229045 13560.78741602
0.06300000 1427576.52265252 19186.62936153
0.06400000 1420066.21526395 13845.64624634
0.06500000 1412478.98523354 19576.95965110
0.06600000 1404813.18211320 16942.04776898
0.06700000 1397071.58812971 18525.17012556
0.06800000 1389257.25948617 17254.57597049
0.06900000 1381370.99979781 17405.27541235
0.07000000 1373412.11577086 16089.52368970
0.07100000 1365385.74227101 14746.16670720
0.07200000 1357290.58762401 17834.79915688
0.07300000 1349131.82933986 14975.36400735
0.07400000 1340908.42782047 16593.74257193
0.07500000 1332623.09740054 22787.85603367
0.07600000 1324275.80956616 16824.92494930
0.07700000 1315872.12171125 20014.41590967
0.07800000 1307410.19206691 20140.65495331
0.07900000 1298892.19225496 17145.37774195
0.08000000 1290322.16624782 17245.15656089
0.08100000 1281700.40952729 22070.88208759
0.08200000 1273027.49063001 20603.95090269
0.08300000 1264306.62103810 23895.39625908
0.08400000 1255538.61112197 22411.36526049
0.08500000 1246727.20745586 17691.05990431
0.08600000 1237871.74284974 19385.07240319
0.08700000 1228975.86760984 22711.47509991
0.08800000 1220038.21363593 16287.51091696
0.08900000 1211064.98614802 24524.06712139
0.09000000 1202054.17128142 18048.84422964
0.09100000 1193009.61044669 23048.94675670
0.09200000 1183931.62033126 23122.18563151
0.09300000 1174824.07368467 19878.02426086
0.09400000 1165684.86638529 18272.11113933
0.09500000 1156518.56967579 18319.25500472
0.09600000 1147326.25645455 21701.67716099
0.09700000 1138110.93661667 20076.27786576
0.09800000 1128873.58050716 23469.28284221
0.09900000 1119615.63350518 16794.23529228
0.10000000 1110337.22380377 25232.41459755
0.10100000 1101040.92439867 21899.70501627
0.10200000 1091729.36472654 16867.21947840
0.10300000 1082403.27486870 20262.59025871
0.10400000 1073065.44700426 18590.85974396
0.10500000 1063718.24370886 18604.43295779
0.10600001 1054358.32995284 18614.69719120
0.10700001 1044993.37992588 23700.45097201
0.10800001 1035620.63024440 25398.59715204
0.10900001 1026244.55740146 27092.85759054
0.11000001 1016864.65544387 20316.95677208
0.11100001 1007483.63839376 22003.44369830
0.11200001 998103.87375881 20301.43374799
0.11300001 988723.93338103 25360.77008523
0.11400001 979348.65783173 18583.14165733
0.11500001 969978.44318861 27004.20112994
0.11600001 960613.71679409 21916.40298073
0.11700001 951257.99413644 16837.26728916
0.11800001 941909.36649510 20175.69958057
0.11900001 932572.47850920 23500.82756536
0.12000001 923246.65176412 23459.69852639
0.12100001 913936.11926723 16725.03177048
0.12200001 904639.11486185 18359.65170107
0.12300001 895359.02955057 21649.78235455
0.12400001 886095.78567178 16614.29676417
0.12500001 876851.70934777 21544.24751385
0.12600001 867629.19209057 24792.50533230
0.12700001 858427.84867664 16481.81547132
0.12800001 849248.37033996 23006.13943677
0.12900001 840094.02934840 19658.20121328
0.13000001 830965.02588380 16328.46352826
0.13100001 821861.44715740 17900.14316286
0.13200001 812787.24119866 22701.14871682
0.13300001 803742.66716221 17770.75120872
0.13400001 794727.03660718 24139.83487503
0.13500001 785743.89683226 20837.92912646
0.13600001 776792.37456463 22348.31766996
0.13700001 767875.29647185 19074.02326376
0.13800001 758991.61150097 25319.96135365
0.13900001 750146.60288920 22054.31116498
0.14000001 741336.53850129 25086.82964599
0.14100001 732565.49681239 20284.73956342
0.14200001 723832.31458303 18631.44465612
0.14300001 715141.89691604 16991.77227219
0.14400001 706488.15472650 16902.72989913
0.14500001 697880.30052681 18340.29516300
0.14600001 689313.21174987 21279.09985055
0.14700001 680792.49654852 19647.67237730
0.14800001 672314.52604446 15026.23036601
0.14900001 663881.75109852 14937.34010447
0.15000001 655496.29440606 20785.78847635
0.15100001 647158.17011198 16230.72767225
0.15200001 638868.96758110 17594.45219741
0.15300001 630628.88221016 14567.52786648
0.15400001 622436.56436574 14471.65080444
0.15500001 614296.35979287 17249.44259704
0.15600001 606205.75118986 15703.76072571
0.15700001 598170.64664862 17011.97399360
0.15800001 590183.16232328 14075.86908577
0.15900001 582252.53060731 13974.06139416
0.16000001 574373.18035704 13871.11296037
0.16100001 566551.84695744 13767.21053094
0.16200001 558782.94562072 13662.24366537
0.16300001 551071.39191640 20334.53532166
0.16400001 543415.50433954 17484.39467756
0.16500001 535816.98950019 20012.76550266
0.16600001 528275.33444241 17203.28707834
0.16700001 520791.35756975 17061.12567952
0.16800001 513364.60278058 15616.55195394
0.16900001 505999.24563805 14193.27951033
0.17000001 498691.81894949 15349.73491207
0.17100001 491444.05936959 13947.18306351
0.17200001 484256.98120689 16336.41003247
0.17300001 477130.02325773 17434.33187316
0.17400001 470064.69628960 14807.03863240
0.17500001 463060.10125564 15892.22342564
0.17600001 456115.06501528 12109.85554809
0.17700001 449234.47766858 20390.75390444
0.17800001 442414.97418564 19006.14818872
0.17900001 435657.69311993 14115.30992380
0.18000001 428963.77954638 13975.64059776
0.18100001 422333.76455093 14988.62601192
0.18200001 415764.03736907 15977.81271085
0.18300001 409260.17411234 14684.25574082
0.18400001 402818.20628800 21238.59092986
0.18500001 396440.94568093 11060.70290703
0.18600001 390127.06268457 13131.67755035
0.18700001 383876.67583244 10825.32276991
0.18800001 377689.91411197 11778.26052806
0.18900001 371569.61491029 15884.60178792
0.19000001 365509.12184755 12566.20420286
0.19100001 359517.77217582 10354.11232790
0.19200001 353587.34109963 14330.89561192
0.19300001 347723.60816903 11130.63322344
0.19400001 341922.72473340 13001.61222236
0.19500001 336186.95492700 10872.28663611
0.19600001 330514.51740097 9766.70445074
0.19700001 324906.99844939 12544.65980296
0.19800001 319363.72969252 16206.11322913
0.19900001 313885.40978187 9416.56273848
0.20000001 308469.29114005 11160.41948090
0.20100001 303118.90072639 11939.85406392
0.20200001 297831.36140400 13603.44807507
0.20300001 292608.34292844 10744.57886017
0.20400001 287448.98833709 11490.77385190
0.20500001 282352.22760908 12214.55794371
0.20600001 277319.61147663 9471.85177770
0.20700001 272349.93403231 10196.78201216
0.20800001 267442.93028574 10899.63713902
0.20900001 262601.23116040 9099.13308984
0.21000001 257819.65280705 10607.99011621
0.21100001 253100.84826407 8853.46809081
0.21200001 248444.06323192 11112.90347372
0.21300001 243849.28545927 10175.83116328
0.21400001 239316.96457350 13120.55320304
0.21500001 234846.79965842 8369.94033554
0.21600001 230435.85066156 10500.96221112
0.21700001 226087.14779188 10350.27011527
0.21800001 221798.70357196 8014.69653251
0.21900001 217569.72185441 8615.76139280
0.22000001 213400.50752326 9196.49530655
0.22100001 209293.34987124 11848.09709643
0.22200001 205244.57701493 7551.97456836
0.22300001 201254.59151865 8114.58551373
0.22400001 197321.47994255 8657.48034186
0.22500001 193450.04957731 7213.75268986
0.22600001 189634.57926013 7102.76350207
0.22700001 185877.91256765 10171.23985669
0.22800001 182177.80778841 7509.36959216
0.22900001 178534.11847510 8007.25559228
0.23000001 174947.36150237 8486.69690783
0.23100001 171418.18802089 5965.35322524
0.23200001 167942.56439913 5869.59290334
0.23300001 164523.76818400 7507.21989729
0.23400001 161159.61809856 6817.05216798
0.23500001 157848.84155353 7264.20403186
0.23600001 154593.00415183 6045.35971328
0.23700001 151390.77984883 5404.65109623
0.23800001 148241.55933712 5314.46015360
0.23900001 145145.53812477 6792.81150554
0.24000001 142101.33744803 6678.05266924
0.24100001 139110.39989316 6059.64930597
0.24200001 136170.13264704 6452.42204069
0.24300001 133281.04150488 4878.08634983
0.24400001 130442.00493500 5752.49268975
0.24500001 127653.37779830 5181.45084994
0.24600001 124914.47606258 6479.31417987
0.24700001 122225.66151456 5910.83327046
0.24800001 119584.36412279 5359.77145354
0.24900001 116991.51648021 5703.33669822
0.25000001 114446.92026010 5601.60477713
0.25100001 111948.94162923 5501.17125192
0.25200001 109498.91855022 4571.03257113
0.25300001 107095.43129341 4488.36973785
0.25400001 104736.99156501 4406.80912859
0.25500001 102424.14950466 4719.70503247
0.25600001 100156.65160360 4247.14301219
0.25700001 97933.46028636  4169.02760164
0.25800001 95754.03503181  5208.06221179
0.25900001 93618.66975320  3651.12829313
0.26000001 91526.60204758  4299.91996765
0.26100001 89475.01621708  4571.27879483
0.26200001 87468.30533916  4830.87473246
0.26300001 85501.49195095  4401.61701391
0.26400001 83575.73860124  4318.77649658
0.26500001 81691.52126933  5215.18696461
0.26600001 79846.34933731  3517.63108651
0.26700001 78041.99634475  3764.74608182
0.26800001 76276.60530653  5232.19398859
0.26900001 74549.32274345  4830.79634238
0.27000001 72860.81747727  3257.97160767
0.27100001 71209.90984003  4358.04668845
0.27200001 69596.66808039  3419.98043132
0.27300001 68019.65639832  4193.41201541
0.27400001 66477.85148919  3839.09610518
0.27500001 64974.19628083  3496.91140933
0.27600001 63503.66209156  3166.29274173
0.27700001 62069.83748082  2847.14357999
0.27800001 60669.17720359  3554.60726059
0.27900001 59303.19015898  3487.02774638
0.28000001 57970.11313879  2932.12846133
0.28100001 56670.16657448  2636.86297551
0.28200001 55403.03112811  2587.04466097
0.28300001 54167.87981659  2999.81732622
0.28400001 52964.59143947  3396.35458681
0.28500001 51792.54978567  2444.09054007
0.28600001 50650.36504869  2616.59798226
0.28700001 49539.11711270  3638.15293296
0.28800001 48456.89225353  3150.90956793
0.28900001 47405.65332074  2680.78982218
0.29000001 46381.83761517  2631.93750005
0.29100001 45387.66931328  2385.57601203
0.29200001 44420.86341150  2928.44555902
0.29300001 43481.80869316  2109.30263955
0.29400001 42569.55461889  2448.81374537
0.29500001 41685.28616522  1850.82679335
0.29600001 40826.04535728  2182.56048812
0.29700001 39992.65220921  2145.20596605
0.29800001 39185.15233707  1757.45416551
0.29900001 38402.78893650  2073.75070074
0.30000001 37644.73895339  2209.55805747
0.30100001 36911.90573695  1839.32034995
0.30200001 36201.47094243  2138.96401189
0.30300001 35515.02381409  1781.43367885
0.30400001 34852.27394152  2710.63573413
0.30500001 34210.93021403  2355.42265675
0.30600001 33592.20497463  2165.68955724
0.30700001 32995.58595924  1524.39614349
0.30800001 32420.09085641  1803.20553880
0.30900001 31865.73408577  1629.93237565
0.31000001 31332.69755977  1607.83745140
0.31100001 30818.27920320  1730.75464199
0.31200001 30324.98038365  2135.63684463
0.31300001 29850.52253408  1405.95967792
0.31400001 29396.65321688  1666.79031631
0.31500001 28960.63030205  1784.55412371
0.31600002 28542.99257663  1628.66323354
0.31700002 28143.15733969  1342.42866866
0.31800002 27761.30669522  1461.21644709
0.31900002 27397.09669036  1446.56677374
0.32000002 27049.67494008  2083.90705606
0.32100002 26719.13865466  1548.64134975
0.32200002 26405.16818335  1407.26350497
0.32300002 26106.49190017  1395.65312307
0.32400002 25823.76709568  1510.69044663
0.32500002 25556.01446158  1499.62699962
0.32600002 25303.76960330  1365.26495359
0.32700002 25065.91986267  1233.24331564
0.32800002 24843.31493910  1471.22118036
0.32900002 24633.43128628  1707.09686898
0.33000002 24438.94242453  1334.73290372
0.33100002 24255.43669803  1328.71288524
0.33200002 24087.61484032  1564.12934373
0.33300002 23931.10489619  1678.52777691
0.33400002 23788.03184966  1434.41838846
0.33500002 23656.67549835  1430.75580190
0.33600002 23537.21535501  1546.74818030
0.33700002 23428.71599061  1187.83595698
0.33800002 23333.01048045  1305.13200303
0.33900002 23247.07213310  1541.28095542
0.34000002 23172.61036241  2014.97442949
0.34100002 23108.70159443  2252.40525108
0.34200002 23055.78286373  1186.22008452
0.34300002 23011.50892996  1306.13330872
0.34400002 22977.84537610  1308.01390998
0.34500002 22953.20627944  1548.65290102
0.34600002 22939.09227605  1432.77577142
0.34700002 22931.64521644  1316.73513069
0.34800002 22934.78552756  1560.82690300
0.34900002 22945.74876347  1686.51261399
0.35000002 22965.10836194  1209.11301252
0.35100002 22992.59280920  1456.81074939
0.35200002 23026.90801420  1341.20232081
0.35300002 23069.29769027  1347.47774191
0.35400002 23119.31821913  2092.87638091
0.35500002 23176.04863601  1608.88137252
0.35600002 23239.24038173  1368.90751952
0.35700002 23309.29631758  1502.05112585
0.35800002 23386.17162038  2392.75626267
0.35900002 23468.86846786  1520.78274875
0.36000002 23558.11695285  1275.67209342
0.36100002 23652.45453635  1284.32834216
0.36200002 23753.32861811  1681.37944587
0.36300002 23857.96962176  1432.90972336
0.36400002 23968.43752767  1312.27201680
0.36500002 24083.45975062  1718.83660382
0.36600002 24203.88026677  1598.90840616
0.36700002 24328.36560858  2148.68135233
0.36800002 24458.67617466  1759.92412751
0.36900002 24592.11261316  1910.80724056
0.37000002 24728.68046117  1651.38135942
0.37100002 24869.64240003  1665.27133399
0.37200002 25014.62192972  1539.52497959
0.37300002 25162.52423410  1411.61767640
0.37400002 25314.77430976  1708.74734685
0.37500002 25469.07824401  1580.10168911
0.37600002 25627.35185698  1594.14949778
0.37700002 25787.27397667  2046.99390524
0.37800002 25950.69105099  1475.29685614
0.37900002 26116.41427516  1637.49925263
0.38000002 26284.67620419  1502.16931623
0.38100002 26454.54730576  1667.43019567
0.38200002 26626.80752526  1835.65219775
0.38300002 26800.69153329  2315.57985817
0.38400002 26976.90617247  1557.91640526
0.38500002 27153.65572996  1729.41641537
0.38600002 27333.09352219  2538.69784661
0.38700002 27512.82413286  1921.49572847
0.38800002 27693.71672054  1777.52129192
0.38900002 27875.82557212  1630.73587323
0.39000002 28059.65525876  2303.97840245
0.39100002 28243.23673973  1826.77263887
0.39200002 28428.09381924  2513.75431506
0.39300002 28613.13229474  2536.55429810
0.39400002 28799.49297769  2388.91805568
0.39500002 28985.09981335  1893.88651153
0.39600002 29171.14685414  2605.71281620
0.39700002 29356.83226676  1927.86326630
0.39800002 29543.72332340  2829.10707949
0.39900002 29729.36430805  2318.89052589
0.40000002 29914.76616822  1799.37327027
0.40100002 30099.76026412  1815.01562992
0.40200002 30285.43377603  3295.35820530
0.40300002 30469.40341343  1846.44593434
0.40400002 30652.83776452  1862.15998242
0.40500002 30835.51285896  2253.45938650
0.40600002 31017.74436997  2840.45007526
0.40700002 31198.72460974  2291.23444390
0.40800002 31379.00566296  2310.12250636
0.40900002 31557.34853514  2328.93243224
0.41000002 31735.51138801  2739.09211768
0.41100002 31911.87906996  2563.80048596
0.41200002 32086.21423836  2981.61159938
0.41300002 32259.84940585  2604.33776594
0.41400002 32431.58558331  2220.75292804
0.41500002 32602.40884163  2237.82944893
0.41600002 32770.24987206  2049.77922662
0.41700002 32937.08654080  2478.18650876
0.41800002 33103.03731487  2704.68379197
0.41900002 33265.09111484  2933.98117535
0.42000002 33426.02041527  2533.02394710
0.42100002 33585.51363441  2338.55942518
0.42200002 33742.67506005  2783.26468421
0.42300002 33897.19944236  2587.03438403
0.42400002 34049.56292781  2387.72571346
0.42500002 34200.12615957  3059.54343121
0.42600002 34347.06936446  2199.92989704
0.42700002 34492.91064615  2214.44496842
0.42800002 34635.86223204  2228.81784025
0.42900002 34776.83774408  2916.03798302
0.43000002 34915.24101174  2708.72452605
0.43100002 35049.71185947  2498.34357973
0.43200002 35182.50661610  2285.10391300
0.43300002 35312.33908478  2758.60006003
0.43400002 35439.81497954  4162.40646660
0.43500002 35564.10633999  2558.48193134
0.43600002 35686.48243110  2807.09884106
0.43700002 35805.10797333  4704.79141065
0.43800002 35920.22569340  2601.88167140
0.43900002 36033.54875048  3091.67862930
0.44000002 36143.15952864  3347.21816257
0.44100002 36250.47019831  2643.74691685
0.44200002 36354.55127771  2657.33605158
0.44300002 36455.75597641  4855.90692618
0.44400002 36553.56002986  3171.93532191
0.44500002 36647.32165067  3187.21771500
0.44600002 36738.98426586  2463.34901177
0.44700002 36827.50866845  3464.73217973
0.44800002 36911.91836645  2486.01781980
0.44900002 36994.61359152  2746.85018935
0.45000002 37073.73261789  3009.64575655
0.45100002 37148.36722959  3526.12318454
0.45200002 37220.73149659  2782.06370756
0.45300002 37289.17066568  3301.21043549
0.45400002 37355.10901436  3569.28083548
0.45500002 37417.56179807  2559.36134828
0.45600002 37476.50684225  3082.81759895
0.45700002 37532.06605310  2836.29836606
0.45800002 37583.74084189  3363.93288348
0.45900002 37632.38294239  3375.62490992
0.46000002 37678.38596492  3387.09866685
0.46100002 37719.87978817  4182.38046913
0.46200002 37758.82233750  2884.58536919
0.46300002 37794.12601185  4997.89546068
0.46400002 37825.51179496  3165.99548729
0.46500002 37854.52178521  2646.03119820
0.46600002 37879.26500069  3980.16395859
0.46700002 37900.64698595  2926.68809897
0.46800002 37919.45812958  3734.68760819
0.46900002 37934.07609662  3209.22298988
0.47000002 37945.06071074  3216.98239953
0.47100002 37953.12616661  2955.78960595
0.47200002 37957.61317669  3501.02061729
0.47300002 37959.38130308  2968.80335243
0.47400002 37956.30580879  3245.26430047
0.47500002 37951.06037811  3251.64700732
0.47600002 37942.88246854  3257.77604316
0.47700002 37930.03187117  2991.54175547
