# SAXS profile: number of points = 501, q_min = 0, q_max = 0.5, delta_q = 0.001
#    q    intensity    error
0.00000000 1664650.74656091 324.60689558
0.00100000 1664581.76890199 848.93672230
0.00200000 1664374.78151982 973.65927802
0.00300000 1664029.95596837 1297.94341189
0.00400000 1663547.17222861 1372.42646924
0.00500000 1662926.87312433 1646.29766956
0.00600000 1662168.77757382 2094.33274501
0.00700000 1661273.59098824 1993.52839204
0.00800000 1660240.70185254 2241.32504213
0.00900000 1659071.53211670 2986.32888547
0.01000000 1657765.21276331 2735.31271917
0.01100000 1656322.98912134 3875.79596329
0.01200000 1654744.34427357 3226.75161281
0.01300000 1653030.64215864 4165.63740196
0.01400000 1651181.14412947 3715.15773899
0.01500000 1649197.66773669 3958.07457882
0.01600000 1647079.03593115 4200.05172938
0.01700000 1644827.36648412 5773.34431534
0.01800000 1642442.28138673 5617.15285510
0.01900000 1639924.41374433 5903.72815587
0.02000000 1637274.53848105 6188.89803542
0.02100000 1634494.20739218 7011.98046762
0.02200000 1631581.61218497 7317.64386311
0.02300000 1628539.78088270 6449.01782584
0.02400000 1625368.40027004 6704.64495683
0.02500000 1622068.88411890 6958.67583068
0.02600000 1618641.57008142 7211.04852453
0.02700000 1615087.28969143 8140.04031287
0.02800000 1611406.12371488 10514.42543943
0.02900000 1607600.55006963 8681.04336896
0.03000000 1603670.82136672 8202.77662833
0.03100000 1599617.35349205 8445.98001506
0.03200000 1595441.03551391 8687.17683849
0.03300000 1591144.75951996 9737.80637718
0.03400000 1586726.45230408 9163.34568486
0.03500000 1582189.53251980 9398.20625716
0.03600000 1577533.75819755 12257.43786766
0.03700000 1572760.88155299 9861.21118339
0.03800000 1567872.22136819 11923.66879533
0.03900000 1562869.22054156 10314.93733326
0.04000000 1557750.73913709 11496.20098755
0.04100000 1552520.60975341 14671.32044243
0.04200000 1547179.18507439 10977.23682737
0.04300000 1541726.64018036 15263.09444627
0.04400000 1536166.77201178 11406.03881191
0.04500000 1530499.00588696 13728.57672070
0.04600000 1524723.62128368 15049.02284165
0.04700000 1518844.21298150 12029.24672627
0.04800000 1512860.58179623 12231.47837293
0.04900000 1506775.78900990 18081.31030976
0.05000000 1500589.01106581 11479.50646921
0.05100000 1494303.89159749 15152.24216665
0.05200000 1487918.63526058 13011.84907172
0.05300000 1481438.76110949 19199.44723902
0.05400000 1474862.33672801 15817.89929906
0.05500000 1468193.65612957 16032.67547285
0.05600000 1461431.03234468 16243.80668251
0.05700000 1454579.49834085 12654.84222627
0.05800000 1447637.84359829 15373.91461686
0.05900000 1440607.84560018 14262.01833756
0.06000000 1433492.33310016 15739.74655278
0.06100000 1426293.00484974 17243.88323446
0.06200000 1419010.24909391 14750.61222883
0.06300000 1411647.29924713 18972.54058895
0.06400000 1404202.18765520 15060.06916691
0.06500000 1396681.04046689 15209.85724217
0.06600000 1389082.02270453 15356.30247950
0.06700000 1381408.12943695 14090.36357967
0.06800000 1373662.02003082 19904.36360195
0.06900000 1365844.86945477 17209.64616087
0.07000000 1357955.84824068 14462.23046101
0.07100000 1350000.12772126 16038.00226851
0.07200000 1341976.40840608 14694.64236044
0.07300000 1333889.69363776 17767.41155176
0.07400000 1325739.07591302 14914.56530298
0.07500000 1317527.17116220 24031.69672842
0.07600000 1309254.08248399 18146.26243394
0.07700000 1300925.21057323 19787.07338061
0.07800000 1292538.83893889 19911.56174763
0.07900000 1284097.00344571 26195.58009896
0.08000000 1275603.78875315 23247.88014061
0.08100000 1267059.21747171 18701.79492734
0.08200000 1258464.47713767 20368.24851826
0.08300000 1249822.20543282 23621.64079129
0.08400000 1241133.47585904 15824.45255998
0.08500000 1232401.96015801 23846.97904856
0.08600000 1223626.89908333 17565.16496105
0.08700000 1214812.10647314 17639.07261428
0.08800000 1205955.79962091 22539.31495345
0.08900000 1197064.66386764 21008.48583764
0.09000000 1188136.62176574 17839.87221385
0.09100000 1179175.08003442 19527.14024278
0.09200000 1170180.75380192 19588.82673906
0.09300000 1161157.25577030 22921.24530602
0.09400000 1152102.49045499 24626.19189084
0.09500000 1143021.32406430 19751.40940820
0.09600000 1133914.64330881 21447.99648641
0.09700000 1124785.30488409 16534.34475912
0.09800000 1115634.14985791 18223.88469477
0.09900000 1106463.15114148 28214.81168084
0.10000000 1097272.04928112 19948.40679405
0.10100000 1088063.46788137 23306.32057816
0.10200000 1078839.74559295 23335.30479478
0.10300000 1069601.97921403 18354.37082672
0.10400000 1060352.77369212 18370.61266846
0.10500000 1051094.73088311 20054.88840882
0.10600001 1041824.16941582 20065.53444710
0.10700001 1032549.11608945 21745.48540814
0.10800001 1023266.33645336 18403.44592721
0.10900001 1013980.44764166 18403.74599088
0.11000001 1004691.18689903 21746.54176403
0.11100001 995401.09789379 16722.73923181
0.11200001 986112.49907556 20057.52917545
0.11300001 976824.21855313 16703.69492368
0.11400001 967540.46675449 16690.07383736
0.11500001 958262.04393662 21675.88845452
0.11600001 948989.30838780 19985.71577580
0.11700001 939725.97697935 18296.46563346
0.11800001 930469.64335790 21591.54909105
0.11900001 921225.40312243 18240.26384097
0.12000001 911992.53012842 16552.66520154
0.12100001 902774.68839950 19824.93309117
0.12200001 893570.95795086 24729.57742633
0.12300001 884383.97110585 18094.49690134
0.12400001 875213.95674379 19692.31495459
0.12500001 866063.34831825 22916.03727632
0.12600001 856934.35557986 22854.44034029
0.12700001 847826.63149441 17906.09930101
0.12800001 838740.84764318 22721.49063350
0.12900001 829680.25937538 17796.64240239
0.13000001 820644.77392741 17738.23762453
0.13100001 811635.22700967 19284.45390277
0.13200001 802654.70720574 19215.55459633
0.13300001 793704.06671286 20739.48824093
0.13400001 784782.04316240 19070.20454792
0.13500001 775892.78287893 18993.85622040
0.13600001 767034.94076834 20491.33940881
0.13700001 758211.64284611 15694.98174698
0.13800001 749421.57691045 17187.98467695
0.13900001 740670.11495486 18664.88777706
0.14000001 731953.83091185 17028.90667926
0.14100001 723276.11578498 21568.09478992
0.14200001 714636.32192684 18394.73979399
0.14300001 706038.94330155 22875.66284196
0.14400001 697478.35446208 15170.15492512
0.14500001 688963.65144048 16597.13514612
0.14600001 680489.22379414 15004.78809250
0.14700001 672061.31630691 14919.76192588
0.14800001 663675.92253598 20766.42059588
0.14900001 655335.58199670 19168.56667779
0.15000001 647042.20958572 19052.15876019
0.15100001 638796.10094880 20390.37250440
0.15200001 630598.70046152 17366.68903019
0.15300001 622450.15986876 24443.61893152
0.15400001 614349.14000061 18568.70363279
0.15500001 606300.19332711 19862.39527076
0.15600001 598300.21447302 15498.96778740
0.15700001 590355.92152422 13991.43600048
0.15800001 582458.89658077 19448.30347477
0.15900001 574618.34187233 17928.09311263
0.16000001 566828.71532123 15057.80553327
0.16100001 559096.81712458 13586.05329745
0.16200001 551417.18961405 16178.58110700
0.16300001 543794.51123829 14715.08016878
0.16400001 536227.25494698 15925.95022378
0.16500001 528717.00609675 18431.07570269
0.16600001 521263.35453927 14363.41241247
0.16700001 513866.92962113 16834.28140921
0.16800001 506527.40906956 14124.51746881
0.16900001 499248.72740490 15277.01177994
0.17000001 492027.76235226 22716.92286049
0.17100001 484866.12811445 16262.41070489
0.17200001 477764.71181827 13637.79434287
0.17300001 470723.10624829 17200.22311458
0.17400001 463742.65849037 12173.24536027
0.17500001 456822.51944995 13266.12659135
0.17600001 449961.48267176 14335.77351499
0.17700001 443164.68042393 11832.49752617
0.17800001 436428.14773831 19920.76374441
0.17900001 429753.67531745 12763.68475980
0.18000001 423142.14728988 14934.80279404
0.18100001 416593.96533799 15922.22210733
0.18200001 410105.59658145 11257.39915794
0.18300001 403682.50709795 14484.12903889
0.18400001 397321.09038587 16538.49116860
0.18500001 391023.56767747 16364.33708039
0.18600001 384789.24520795 11872.67272180
0.18700001 378617.70498823 10677.01978510
0.18800001 372509.63231043 11616.71343245
0.18900001 366467.06585219 12533.17424431
0.19000001 360483.88071036 10327.86367033
0.19100001 354569.65617992 10211.60658048
0.19200001 348715.35381523 13123.90296096
0.19300001 342927.34630291 10977.10487385
0.19400001 337201.84870753 10849.46999484
0.19500001 331540.78491769 13646.21935207
0.19600001 325942.41765135 11557.91867610
0.19700001 320408.63801312 15225.81919792
0.19800001 314938.39008560 10341.00252716
0.19900001 309532.50095769 12071.76810786
0.20000001 304188.24097418 10088.40348870
0.20100001 298909.22144426 11774.03478916
0.20200001 293692.42397719 11625.81515261
0.20300001 288539.58038319 9712.24273474
0.20400001 283449.72247541 9587.68731590
0.20500001 278422.04415748 12044.53819956
0.20600001 273457.75220972 11887.20905044
0.20700001 268555.85355715 11730.52023787
0.20800001 263716.21350206 13228.00589455
0.20900001 258940.95230925 10603.63249831
0.21000001 254225.33471671 8850.85544656
0.21100001 249571.77028472 11110.93573833
0.21200001 244979.62787997 9392.51937694
0.21300001 240448.89999315 8490.25106014
0.21400001 235980.06551727 9132.42896727
0.21500001 231572.76662667 10504.14119080
0.21600001 227224.19676511 8875.37754526
0.21700001 222936.90693563 10935.05580220
0.21800001 218709.53701410 10058.45208285
0.21900001 214540.82415574 12035.74080421
0.22000001 210431.30476651 8370.95769941
0.22100001 206383.03561062 7559.81095187
0.22200001 202392.62632934 9478.04713917
0.22300001 198460.23306229 8001.91697545
0.22400001 194584.30345918 9194.10877320
0.22500001 190769.46209757 7113.79357801
0.22600001 187009.69149523 7004.44832618
0.22700001 183308.12709714 7522.96589182
0.22800001 179662.57685157 9874.25569072
0.22900001 176072.76662197 7896.86395645
0.23000001 172539.09203508 9565.56771480
0.23100001 169062.51265790 10590.07629372
0.23200001 165638.88967984 6367.98741491
0.23300001 162271.16542715 8543.57726380
0.23400001 158957.60520483 6163.58143333
0.23500001 155696.76621675 7716.33209866
0.23600001 152490.25944248 7589.44057141
0.23700001 149336.56857798 6397.57890047
0.23800001 146235.26761188 6291.04151022
0.23900001 143186.49340186 5670.18540691
0.24000001 140188.94907018 6081.39689832
0.24100001 137244.09502626 7472.94132766
0.24200001 134349.19668021 4897.02845063
0.24300001 131504.72660049 8182.22447612
0.24400001 128709.70566809 5676.09828846
0.24500001 125964.51479178 6507.32714197
0.24600001 123268.53764419 5023.80948934
0.24700001 120621.66217502 5384.55125421
0.24800001 118021.90009654 6612.17726571
0.24900001 115469.76855019 6062.16313567
0.25000001 112965.42166709 4678.46315967
0.25100001 110506.84576344 4594.87486422
0.25200001 108095.72577928 6153.34948110
0.25300001 105730.56280352 5639.66848675
0.25400001 103409.62034543 4746.50179842
0.25500001 101133.85923760 5048.60249200
0.25600001 98902.71128481  4193.96967046
0.25700001 96715.25453796  4117.16858048
0.25800001 94570.85500394  3674.07789074
0.25900001 92469.98273863  5048.86129641
0.26000001 90411.85463236  4247.54913160
0.26100001 88393.52136842  4863.41177581
0.26200001 86419.27924663  4091.08887311
0.26300001 84484.51762585  3680.14576192
0.26400001 82590.18592796  3282.96004598
0.26500001 80736.74690273  3543.53598924
0.26600001 78921.79987924  3476.90005821
0.26700001 77147.05394053  4031.70522971
0.26800001 75410.63938278  5172.79305324
0.26900001 73711.71725710  3582.38962822
0.27000001 72051.06430312  3221.76349277
0.27100001 70427.36139959  3160.78012919
0.27200001 68840.83531986  3100.93557373
0.27300001 67289.81435487  3595.29495112
0.27400001 65773.56506728  2984.47565617
0.27500001 64294.71237807  2927.98134027
0.27600001 62848.65813294  4178.17899041
0.27700001 61438.63851146  3074.38961661
0.27800001 60061.19562770  3518.98561837
0.27900001 58717.88154469  3452.61159823
0.28000001 57406.93231672  2661.67254284
0.28100001 56128.44911227  2611.65686080
0.28200001 54882.46479717  2795.71288909
0.28300001 53667.92859383  2743.50463957
0.28400001 52484.53847036  2692.45695097
0.28500001 51331.93832856  2202.14025853
0.28600001 50208.69017299  2593.78105711
0.28700001 49115.90260726  3182.71063960
0.28800001 48051.63426635  3124.55766606
0.28900001 47017.62656248  2863.37359319
0.29000001 46010.73939138  2610.87953035
0.29100001 45033.03450179  2169.69170500
0.29200001 44082.06724342  2324.88833647
0.29300001 43158.39678089  1903.28538813
0.29400001 42261.13483157  1870.05530482
0.29500001 41391.35745971  1837.77635821
0.29600001 40546.07481038  1806.32771831
0.29700001 39726.17369924  1953.33605326
0.29800001 38931.74482597  2619.13325715
0.29900001 38162.03791031  2404.20850216
0.30000001 37416.02549219  2365.06708332
0.30100001 36694.77798461  1662.27352140
0.30200001 35995.63863963  1636.00185362
0.30300001 35320.09360393  1771.65597905
0.30400001 34667.71403833  1903.25759081
0.30500001 34036.28706121  2343.39847511
0.30600001 33427.15675782  2001.11683405
0.30700001 32839.66038820  2427.50781082
0.30800001 32272.95146897  2094.19191997
0.30900001 31726.77622177  1770.35419699
0.31000001 31201.74606032  1601.11767489
0.31100001 30694.86949676  1867.47594860
0.31200001 30208.76647909  2127.45248002
0.31300001 29741.01210579  1961.12243111
0.31400001 29293.50450894  1384.11815358
0.31500001 28863.54027552  1778.57143599
0.31600002 28451.57492278  1488.15969680
0.31700002 28056.99584811  2275.14190105
0.31800002 27680.14174148  1324.49484504
0.31900002 27320.62093955  1442.52885391
0.32000002 26977.31683027  1688.64522695
0.32100002 26650.67899173  2317.01014125
0.32200002 26340.41770939  2424.76726705
0.32300002 26045.04617392  1772.10502558
0.32400002 25765.35025648  1632.87914982
0.32500002 25500.20640214  1246.96015211
0.32600002 25250.32076319  1238.52829208
0.32700002 25014.57313014  1230.71705628
0.32800002 24793.70744768  1712.99732868
0.32900002 24585.30462106  1460.36716364
0.33000002 24391.99087565  1332.16864476
0.33100002 24209.47027734  1326.19484459
0.33200002 24042.18689899  1681.27020946
0.33300002 23886.24394537  1555.71114183
0.33400002 23743.27034012  1193.09939109
0.33500002 23611.76709082  1428.03974128
0.33600002 23492.00909200  1900.03378534
0.33700002 23382.83663169  1304.06086071
0.33800002 23286.33865521  1302.52141436
0.33900002 23199.28814373  1301.48012650
0.34000002 23123.62968414  1182.77371436
0.34100002 23058.11222156  2247.47430467
0.34200002 23003.53139956  1775.29761984
0.34300002 22957.32189342  1303.05765238
0.34400002 22921.50969101  1423.42581922
0.34500002 22894.55495199  1782.34118742
0.34600002 22877.91467425  1548.03416975
0.34700002 22867.87648667  1671.18449280
0.34800002 22868.03277324  1316.85572962
0.34900002 22876.06699853  1200.99357430
0.35000002 22892.17538861  1687.38232781
0.35100002 22916.21500086  1451.97145122
0.35200002 22947.07300882  1701.06660271
0.35300002 22985.70846238  1586.70353031
0.35400002 23031.94457275  1471.74132791
0.35500002 23084.72705811  1725.81427661
0.35600002 23143.79688170  1487.22045806
0.35700002 23209.57393307  1869.53126886
0.35800002 23282.13715241  1880.61471756
0.35900002 23360.32070084  1387.60311535
0.36000002 23445.05962729  1523.46004674
0.36100002 23534.58240461  1533.51346212
0.36200002 23630.73761251  1544.03246874
0.36300002 23730.33912044  1554.81189282
0.36400002 23835.83380336  1696.51555131
0.36500002 23945.74838357  1577.54597823
0.36600002 24061.03032643  1589.47173865
0.36700002 24180.19991193  1468.22180820
0.36800002 24305.12280996  1614.34633351
0.36900002 24433.14568396  1762.85154460
0.37000002 24564.25138132  1503.70071954
0.37100002 24699.72289808  1516.06906330
0.37200002 24839.10075097  1667.69730342
0.37300002 24981.29548965  1401.45074336
0.37400002 25127.86978573  2120.16411361
0.37500002 25276.38436282  1568.14696015
0.37600002 25428.85343379  1869.40224874
0.37700002 25582.92474001  1595.60709162
0.37800002 25740.58072648  1756.02250035
0.37900002 25900.38938513  1623.95449138
0.38000002 26062.68851255  1638.43099096
0.38100002 26226.68532119  1502.78914010
0.38200002 26392.89684962  1667.89919543
0.38300002 26560.89776086  1835.88934020
0.38400002 26731.21230416  1698.10034207
0.38500002 26901.87431598  1713.38045635
0.38600002 27075.41863864  2200.41937701
0.38700002 27249.17152947  1585.90185815
0.38800002 27424.13498827  1920.23802285
0.38900002 27600.23161720  1614.61362610
0.39000002 27778.15687051  1629.18897764
0.39100002 27955.88850199  1972.56758615
0.39200002 28134.87542025  2321.97137844
0.39300002 28314.00784254  1673.35794277
0.39400002 28494.51340002  2025.95999873
0.39500002 28674.43049416  2214.23962766
0.39600002 28854.65617872  2061.95382822
0.39700002 29034.71969857  1906.71013294
0.39800002 29215.78707366  2797.70390272
0.39900002 29395.75255089  1940.11976028
0.40000002 29575.73734897  2312.67489158
0.40100002 29755.10770646  2511.92631159
0.40200002 29935.27881859  1990.54645935
0.40300002 30113.86333353  2372.37026582
0.40400002 30291.82718485  1840.22858867
0.40500002 30469.26412094  2226.69392746
0.40600002 30646.18227446  2058.04446815
0.40700002 30822.06372048  2263.57246688
0.40800002 30997.26521455  1901.68231102
0.40900002 31170.57322539  2108.68937861
0.41000002 31343.72093335  2318.80858452
0.41100002 31515.22478995  2142.40508273
0.41200002 31684.80361428  1962.87367691
0.41300002 31853.68731039  2769.35970599
0.41400002 32020.83237395  2989.94536459
0.41500002 32187.05847234  2611.01430699
0.41600002 32350.39825418  2630.57275868
0.41700002 32512.87159686  2446.26857486
0.41800002 32674.50870843  2053.59296963
0.41900002 32832.41389964  2275.28639106
0.42000002 32989.19032741  2083.26746789
0.42100002 33144.65686139  2727.47394237
0.42200002 33297.98361199  2112.75716029
0.42300002 33448.68234248  2340.06992756
0.42400002 33597.33859287  2784.37956782
0.42500002 33744.33563257  2587.51577892
0.42600002 33887.81546849  2821.66908869
0.42700002 34030.24469414  2621.69017547
0.42800002 34169.88005152  2638.59826261
0.42900002 34307.66820242  2655.41364470
0.43000002 34443.03023227  2672.09041204
0.43100002 34574.55395938  2464.47432301
0.43200002 34704.54086322  3381.09005382
0.43300002 34831.61999570  3854.81556760
0.43400002 34956.46252945  2737.09114576
0.43500002 35078.28673004  2752.94407303
0.43600002 35198.27757589  2307.24720444
0.43700002 35314.62920025  3016.22262293
0.43800002 35427.57048623  2332.90562707
0.43900002 35538.91064472  2814.68185645
0.44000002 35646.54303565  2829.62272027
0.44100002 35752.14888355  3318.51461664
0.44200002 35854.52457448  3097.29325215
0.44300002 35954.21122248  2394.55058090
0.44400002 36050.55193948  3368.92423840
0.44500002 36143.01785143  3385.15521239
0.44600002 36233.41610649  2429.45066507
0.44700002 36320.90300337  2928.91775700
0.44800002 36404.47598556  4413.31483288
0.44900002 36486.24801432  2955.38622922
0.45000002 36564.58595099  2720.95379249
0.45100002 36638.72266303  2732.51606571
0.45200002 36710.56038133  2743.93096574
0.45300002 36778.77106715  2755.09787121
0.45400002 36844.43023622  3520.48547592
0.45500002 36906.80139285  3029.31040189
0.45600002 36965.64941387  2787.39492616
0.45700002 37021.42373870  3052.04631767
0.45800002 37073.40900473  2807.75476404
0.45900002 37122.43834271  3073.73804045
0.46000002 37168.97208242  2827.25799545
0.46100002 37211.18314353  3094.48213688
0.46200002 37250.84285514  4915.43520192
0.46300002 37286.92542777  2595.17013277
0.46400002 37319.30572043  2863.32386711
0.46500002 37349.43017174  2610.72529274
0.46600002 37375.38446674  2879.96038658
0.46700002 37398.12002281  3412.95259504
0.46800002 37418.35264707  2632.38123349
0.46900002 37434.51256068  3694.78656486
0.47000002 37447.24104608  3174.77724636
0.47100002 37457.14250097  3977.94872215
0.47200002 37463.51349710  4518.66189462
0.47300002 37467.23523004  3196.70466134
0.47400002 37466.36522335  4538.11370277
0.47500002 37463.36169729  3477.34939756
0.47600002 37457.46977626  2680.08208952
0.47700002 37447.14412737  3490.44846955
