# SAXS profile: number of points = 501, q_min = 0, q_max = 0.5, delta_q = 0.001
#    q    intensity    error
0.00000000 1700912.83420645 280.65061764
0.00100000 1700842.62940398 663.32864122
0.00200000 1700631.96554255 841.81284960
0.00300000 1700281.00243406 1122.18550158
0.00400000 1699789.62121888 1784.77917010
0.00500000 1699158.30307115 1682.16678662
0.00600000 1698386.71130167 2139.96734336
0.00700000 1697475.59908050 2444.36496426
0.00800000 1696424.33332053 2748.20753601
0.00900000 1695234.38054785 2797.13684748
0.01000000 1693904.80230035 3074.43734893
0.01100000 1692436.88336687 3351.02517497
0.01200000 1690830.15400723 5275.39031180
0.01300000 1689085.90103801 4256.49665835
0.01400000 1687203.43276680 4175.82868122
0.01500000 1685184.61049944 4448.88756982
0.01600000 1683028.23567052 4720.89441210
0.01700000 1680736.40209170 5899.38503598
0.01800000 1678308.68541594 5739.81596240
0.01900000 1675745.88377136 5529.96166597
0.02000000 1673048.69004321 5797.11397324
0.02100000 1670218.66858393 9369.92715557
0.02200000 1667254.05838882 6327.22943905
0.02300000 1664157.76537994 5990.96822807
0.02400000 1660929.59388327 6851.33488717
0.02500000 1657571.09890054 7757.43309714
0.02600000 1654082.32888568 8038.84048607
0.02700000 1650464.38390064 6931.95072987
0.02800000 1646717.25185304 7879.54241147
0.02900000 1642843.29851840 11828.47229243
0.03000000 1638843.03966890 9144.74458169
0.03100000 1634716.65655559 9415.96837502
0.03200000 1630465.31666692 9684.96442707
0.03300000 1626091.68612515 9122.37477971
0.03400000 1621593.83889774 9364.70485173
0.03500000 1616975.09943981 9604.83253421
0.03600000 1612235.37408334 9842.69741365
0.03700000 1607376.40555141 11910.65971597
0.03800000 1602399.29239417 13123.65081207
0.03900000 1597305.81495926 14375.75300037
0.04000000 1592094.68161590 10770.52102023
0.04100000 1586769.81671297 10996.31533968
0.04200000 1581331.58883918 11219.54814332
0.04300000 1575779.96277518 14560.20753190
0.04400000 1570119.05768720 11658.13454475
0.04500000 1564348.23720724 14032.20433975
0.04600000 1558467.80018787 12085.91835229
0.04700000 1552481.15421357 15649.01076228
0.04800000 1546388.34965083 11365.95489877
0.04900000 1540192.35114845 12706.58748843
0.05000000 1533892.68570126 12907.70755124
0.05100000 1527492.44002027 13105.88574590
0.05200000 1520990.26642342 14510.24781788
0.05300000 1514391.31349172 12266.57021112
0.05400000 1507694.32149098 18657.71809853
0.05500000 1500902.82718352 15129.10120377
0.05600000 1494015.71958352 12773.83499852
0.05700000 1487037.84855942 14230.95287499
0.05800000 1479968.03275723 15717.26124176
0.05900000 1472807.98627370 21208.43599290
0.06000000 1465560.96940699 16091.86019588
0.06100000 1458228.16905988 14917.67486661
0.06200000 1450810.38256217 15081.17463168
0.06300000 1443310.55185087 16626.93833472
0.06400000 1435726.92262262 16798.00578027
0.06500000 1428065.46023257 16965.41846117
0.06600000 1420324.61744095 17129.11568778
0.06700000 1412507.28912795 14407.57502336
0.06800000 1404616.30380728 21806.66913736
0.06900000 1396652.58913180 19064.30873422
0.07000000 1388615.57832793 14788.75660173
0.07100000 1380510.15665267 14909.51039018
0.07200000 1372335.15137079 15027.07061148
0.07300000 1364096.02986140 22712.19996139
0.07400000 1355791.30815890 16777.91822475
0.07500000 1347424.00156480 16896.69777161
0.07600000 1338994.25993017 23198.07664083
0.07700000 1330507.34013043 17123.63027038
0.07800000 1321961.22153018 26630.91005661
0.07900000 1313358.55971157 22064.42483806
0.08000000 1304703.36404334 17437.36127844
0.08100000 1295995.50328816 17534.81998219
0.08200000 1287236.09192845 17628.69910619
0.08300000 1278428.23356184 24162.29474830
0.08400000 1269572.38694527 16187.04869335
0.08500000 1260672.69245803 17888.94634578
0.08600000 1251728.46771605 24502.58590597
0.08700000 1242743.09372492 16404.20960747
0.08800000 1233715.59914139 18117.11442424
0.08900000 1224651.72598915 26452.47852383
0.09000000 1215550.10563351 16592.25972133
0.09100000 1206414.07339128 18313.36649446
0.09200000 1197244.46010976 20041.87320394
0.09300000 1188044.51716783 18426.57132718
0.09400000 1178812.50092388 16798.07892763
0.09500000 1169553.06627922 18525.72144062
0.09600000 1160267.08595169 20258.26427301
0.09700000 1150957.92910295 18610.99058855
0.09800000 1141626.15343132 16953.14917555
0.09900000 1132273.48393405 20380.92366917
0.10000000 1122900.20182717 18713.13274348
0.10100000 1113508.45781351 25555.02030872
0.10200000 1104101.15326135 23881.70906835
0.10300000 1094679.11153356 22200.09342621
0.10400000 1085245.01802249 29057.43672456
0.10500000 1075801.20607933 20526.28797774
0.10600001 1066344.64350462 20537.79880028
0.10700001 1056882.59169414 25682.24818671
0.10800001 1047412.52568771 17125.19560093
0.10900001 1037938.94431099 22263.79140333
0.11000001 1028461.55490120 23973.43997317
0.11100001 1018982.93762131 20542.69698946
0.11200001 1009504.94372151 18822.22056178
0.11300001 1000027.00873007 20520.55518527
0.11400001 990553.37878096 23921.86522391
0.11500001 981084.70849337 20485.04967794
0.11600001 971621.70210270 20462.35400989
0.11700001 962167.46831175 20436.43798939
0.11800001 952720.01349183 23808.47425850
0.11900001 943284.57617580 23770.77243927
0.12000001 933859.99652543 20339.47168241
0.12100001 924450.80882324 21992.68577794
0.12200001 915055.02175998 30388.97870431
0.12300001 905676.03758650 18530.13260206
0.12400001 896314.02196147 18486.47757399
0.12500001 886971.26646274 23469.26081649
0.12600001 877650.15397512 21735.00708742
0.12700001 868350.11369918 20006.78756248
0.12800001 859072.01415175 16623.04425727
0.12900001 849819.18415644 19885.76984652
0.13000001 840591.85783864 26428.20925614
0.13100001 831389.98955816 31276.89288150
0.13200001 822217.73627330 22964.54245667
0.13300001 813075.11643318 19611.37273291
0.13400001 803961.57761336 17908.24498563
0.13500001 794880.69118932 19458.68023776
0.13600001 785831.73788242 17763.72727241
0.13700001 776817.41372648 17688.13334461
0.13800001 767836.63144545 24014.09178086
0.13900001 758894.54991450 22311.50081966
0.14000001 749988.06857099 15862.24839835
0.14100001 741120.56069744 18943.04242484
0.14200001 732291.25599617 17278.41300017
0.14300001 723504.96694342 23441.56203465
0.14400001 714755.52104025 17100.52664752
0.14500001 706052.39307243 23193.82220653
0.14600001 697390.31829463 23066.18586573
0.14700001 688774.84679934 18348.96278437
0.14800001 680202.57299792 19763.28669086
0.14900001 671675.85693429 18135.24899286
0.15000001 663196.83898506 18025.69093412
0.15100001 654765.01076495 14928.64294985
0.15200001 646383.16231531 19284.84255767
0.15300001 638050.41832082 19160.65496635
0.15400001 629765.86976309 14642.05716297
0.15500001 621533.87159392 15998.28260983
0.15600001 613352.17240713 14444.44434189
0.15700001 605225.97093740 17212.62742584
0.15800001 597148.01910756 21362.97139188
0.15900001 589127.22010920 14139.05394999
0.16000001 581158.43593531 19648.96764645
0.16100001 573248.01424358 19501.89836514
0.16200001 565390.65733992 20735.70333679
0.16300001 557590.63735368 17831.74942437
0.16400001 549847.26396573 13608.72042561
0.16500001 542161.62519426 22949.70267796
0.16600001 534533.21871293 14729.06353704
0.16700001 526963.30832072 14607.42359634
0.16800001 519450.72034249 13168.07638243
0.16900001 512000.23687430 14361.60732245
0.17000001 504608.41154410 14237.52700401
0.17100001 497276.73749612 14112.71447656
0.17200001 490006.22036503 16530.36062463
0.17300001 482796.55892394 16381.28801789
0.17400001 475648.99410534 17480.10135889
0.17500001 468562.58841740 16081.06879396
0.17600001 461536.56165495 13479.17591974
0.17700001 454575.40768212 12137.16395836
0.17800001 447676.10512043 18030.15598533
0.17900001 440839.56986051 11902.66894844
0.18000001 434067.12556615 15320.39992052
0.18100001 427358.95489538 14000.28002370
0.18200001 420711.91015122 15013.10522293
0.18300001 414131.22642828 20574.04030086
0.18400001 407613.01510150 12442.38787376
0.18500001 401160.39861708 14550.08834522
0.18600001 394771.72824872 11073.34750052
0.18700001 388447.15630490 14240.47342293
0.18800001 382186.92049246 13001.99964945
0.18900001 375993.56216639 11787.39873084
0.19000001 369860.96282634 11656.16879421
0.19100001 363798.14185245 15716.08047061
0.19200001 357797.34020631 11394.05683725
0.19300001 351863.10042696 14334.90338876
0.19400001 345992.96298541 13156.38303921
0.19500001 340188.32247205 12001.84458396
0.19600001 334447.98543828 12847.81996775
0.19700001 328772.96659356 12693.92484006
0.19800001 323163.14329605 11575.70433992
0.19900001 317618.90659573 11434.28117783
0.20000001 312137.47000919 14116.41774832
0.20100001 306722.60009263 11152.43426646
0.20200001 301371.21905115 10094.42945922
0.20300001 296085.14995775 9966.22661863
0.20400001 290863.52039616 9838.45904242
0.20500001 285705.28420311 10593.95243899
0.20600001 280611.44181964 13069.47852052
0.20700001 275581.69629815 10317.77919711
0.20800001 270615.29776382 10180.54798311
0.20900001 265714.74679327 9207.01641161
0.21000001 260875.24473212 9908.04226330
0.21100001 256099.02561077 8143.94939941
0.21200001 251385.80498838 8834.95453398
0.21300001 246735.03218856 10296.25337999
0.21400001 242147.84276285 10932.97561762
0.21500001 237623.25856605 13088.28970060
0.21600001 233158.62855148 9107.17646179
0.21700001 228756.90166789 8228.38614203
0.21800001 224416.35844994 9583.70104073
0.21900001 220135.92370688 8717.38299096
0.22000001 215916.04358943 7157.61718342
0.22100001 211759.01023127 7756.73291154
0.22200001 207660.77102113 10419.37967866
0.22300001 203622.28599129 8894.22187267
0.22400001 199641.36656765 9433.05501638
0.22500001 195722.79166014 8625.50383634
0.22600001 191861.21128926 7186.16200866
0.22700001 188058.88502252 6431.61417192
0.22800001 184313.92321041 6964.30191785
0.22900001 180625.93684951 6854.75462761
0.23000001 176995.67447221 7359.48049260
0.23100001 173423.88382184 7845.69687514
0.23200001 169906.25435427 7125.86864463
0.23300001 166446.10879254 8179.16217289
0.23400001 163041.27680473 6896.64633502
0.23500001 159690.64716341 5653.04917695
0.23600001 156395.56921162 6671.83529813
0.23700001 153154.73850018 6014.38686537
0.23800001 149967.85965867 5376.34802306
0.23900001 146834.64263509 7400.46633885
0.24000001 143754.08579187 6236.05253662
0.24100001 140727.28480721 8684.28115623
0.24200001 137752.10820259 6527.38395594
0.24300001 134828.61511782 6908.61856543
0.24400001 131955.84630516 6304.19085544
0.24500001 129134.22619778 5718.06380653
0.24600001 126362.97138624 7022.62246700
0.24700001 123642.43987241 6439.29857317
0.24800001 120970.25483033 4970.06315482
0.24900001 118347.02924214 4881.81518718
0.25000001 115772.66086003 6538.26133138
0.25100001 113245.69765783 7705.23763317
0.25200001 110767.21644167 4203.61606283
0.25300001 108335.88279680 7016.91546072
0.25400001 105950.36118759 5268.38195931
0.25500001 103610.95674551 3978.66092727
0.25600001 101317.70744312 4296.37758740
0.25700001 99069.27294534  5750.97156657
0.25800001 96865.13145758  4892.17369573
0.25900001 94705.71934009  5540.28484353
0.26000001 92590.21814709  4712.37937556
0.26100001 90515.76201404  5335.90442320
0.26200001 88486.85273653  4188.96780676
0.26300001 86498.47529412  5138.00967559
0.26400001 84551.47925584  4033.10575134
0.26500001 82646.72649831  4616.64636065
0.26600001 80781.87632485  4205.90858987
0.26700001 78957.98224441  4126.34434735
0.26800001 77173.81176364  3736.75614242
0.26900001 75428.33891320  4887.75659287
0.27000001 73722.12479752  4195.52632077
0.27100001 72054.02036156  2939.80416987
0.27200001 70424.24182510  3172.26012313
0.27300001 68831.12722461  3677.64730165
0.27400001 67273.71319559  3330.04896078
0.27500001 65754.96461469  4627.83462860
0.27600001 64270.09844726  3204.50726024
0.27700001 62822.01743073  3929.51737626
0.27800001 61408.00313495  2826.91755811
0.27900001 60028.83135689  2773.33213994
0.28000001 58683.24876072  3215.54876803
0.28100001 57371.10657316  3640.19688435
0.28200001 56092.40605627  3571.68412468
0.28300001 54846.23724260  3037.38476226
0.28400001 53632.04166956  2292.76988989
0.28500001 52449.89003486  2925.13050569
0.28600001 51297.88404259  3091.72361758
0.28700001 50177.30376554  2384.42558780
0.28800001 49086.22806361  2553.46570473
0.28900001 48026.62901067  2924.82184519
0.29000001 46994.63230713  2871.84211623
0.29100001 45992.75670406  2014.48283899
0.29200001 45018.85847313  2770.01049297
0.29300001 44072.90698629  1943.61529010
0.29400001 43154.21089337  2100.53131467
0.29500001 42263.76202401  2439.46445950
0.29600001 41398.93356138  3135.34838169
0.29700001 40560.13832704  1994.34209595
0.29800001 39747.69424043  2674.02625661
0.29900001 38960.82494604  1928.56092613
0.30000001 38198.49893356  1897.12853934
0.30100001 37461.76463621  2375.82522570
0.30200001 36747.84824424  2338.26569448
0.30300001 36058.12573790  1973.10073379
0.30400001 35392.48242291  1619.20614750
0.30500001 34748.48030844  2073.44191817
0.30600001 34127.45547066  2200.19715836
0.30700001 33528.93316668  2013.74782133
0.30800001 32951.73881605  1985.50711636
0.30900001 32396.01301918  1657.05614438
0.31000001 31861.87243815  2229.53462942
0.31100001 31346.66570319  1907.13123168
0.31200001 30852.62917785  1593.38410933
0.31300001 30378.12579073  2003.13370948
0.31400001 29924.22779883  2262.27172870
0.31500001 29488.20072716  2376.15932710
0.31600002 29071.18477311  1658.80188169
0.31700002 28671.97508402  1641.18393152
0.31800002 28291.10630992  2165.96720164
0.31900002 27928.13040046  1474.60535497
0.32000002 27582.00173879  1460.88079127
0.32100002 27253.12866961  1974.48926561
0.32200002 26940.87862274  1566.34275729
0.32300002 26644.23397291  1424.40081564
0.32400002 26363.69451801  1413.75318547
0.32500002 26098.24259351  1659.06536023
0.32600002 25848.54462612  1775.01964353
0.32700002 25613.46624589  1260.18259897
0.32800002 25393.76144323  1378.50040522
0.32900002 25186.85817208  1371.42449241
0.33000002 24995.60583907  1613.34145528
0.33100002 24815.49184258  1482.97386274
0.33200002 24651.09349222  1846.98326737
0.33300002 24498.23561345  1350.09782859
0.33400002 24358.86913281  1224.03323189
0.33500002 24231.41988487  1343.38998204
0.33600002 24115.92637396  1584.77817671
0.33700002 24011.63251313  1582.60677389
0.33800002 23920.04141580  1216.33416360
0.33900002 23838.54173700  1702.07196063
0.34000002 23768.41136518  1580.48058858
0.34100002 23708.93325336  1459.52200020
0.34200002 23660.78002041  1460.81662764
0.34300002 23621.04716346  1462.61530963
0.34400002 23592.23422313  1220.89817887
0.34500002 23572.36419791  1712.76806374
0.34600002 23563.04609551  1349.10226809
0.34700002 23560.66984167  1229.86702398
0.34800002 23568.78557519  1727.35637662
0.34900002 23584.80630340  1857.30358436
0.35000002 23609.20688969  1367.32728178
0.35100002 23641.86778344  1497.94881371
0.35200002 23681.24986171  1755.49113539
0.35300002 23728.80696359  1511.99965133
0.35400002 23784.07568428  1266.50209017
0.35500002 23845.94462372  1655.38555418
0.35600002 23914.45119704  1536.74270671
0.35700002 23989.74928657  1417.07455748
0.35800002 24071.96503836  1555.53045446
0.35900002 24159.75585862  1435.08956598
0.36000002 24254.24055157  1838.71406331
0.36100002 24353.89898576  1851.38348859
0.36200002 24459.96598701  1465.02973219
0.36300002 24569.82595806  1743.96632911
0.36400002 24685.52563491  2027.29888880
0.36500002 24805.72289918  1770.38452717
0.36600002 24931.21078761  1784.20218453
0.36700002 25060.85395312  2213.37472598
0.36800002 25196.20777252  1812.99321615
0.36900002 25334.63276683  2109.10827774
0.37000002 25476.15974551  1701.29802839
0.37100002 25622.01150046  2144.56246418
0.37200002 25771.95683473  2451.29979045
0.37300002 25924.64035526  1745.24687139
0.37400002 26081.72626284  1467.09717178
0.37500002 26240.58581726  1479.96911020
0.37600002 26403.53843708  1941.05622015
0.37700002 26567.99440476  1807.68642493
0.37800002 26735.92626267  2583.89371606
0.37900002 26906.11472774  1840.37833456
0.38000002 27078.59598564  1857.05020067
0.38100002 27252.76103068  2342.37492155
0.38200002 27429.14987330  2363.70710231
0.38300002 27607.21591228  1908.21085426
0.38400002 27787.41785978  1604.72345742
0.38500002 27968.18057227  1943.22927822
0.38600002 28151.27275427  1797.59960688
0.38700002 28334.75774251  1649.08297874
0.38800002 28519.26856439  2163.32921944
0.38900002 28704.80519010  1847.15430149
0.39000002 28892.01752790  2202.87198078
0.39100002 29078.92070159  2051.80874191
0.39200002 29267.07880379  2242.88269039
0.39300002 29455.05742195  2263.03216894
0.39400002 29644.44133381  2283.36320192
0.39500002 29832.89167182  1949.28123419
0.39600002 30021.58166158  1966.56379991
0.39700002 30209.86827615  2164.23506584
0.39800002 30399.29157716  2547.15676193
0.39900002 30587.38608990  2018.76757758
0.40000002 30774.93782279  2406.44637707
0.40100002 30962.05945952  2240.41472864
0.40200002 31149.72154121  2071.30083202
0.40300002 31335.48931907  2088.82381698
0.40400002 31520.71194473  2106.37167551
0.40500002 31704.97433007  2316.99963382
0.40600002 31888.70155949  2141.48585469
0.40700002 32071.02094200  3532.94383437
0.40800002 32252.38122113  2176.55204984
0.40900002 32431.87632093  2991.84073236
0.41000002 32610.90634095  2412.55496542
0.41100002 32788.10755386  2634.19668569
0.41200002 32963.05365141  2246.26739751
0.41300002 33137.21141877  2469.38511193
0.41400002 33309.20249135  2280.84774867
0.41500002 33480.23722290  3133.75035255
0.41600002 33648.11520924  2525.62764728
0.41700002 33814.96910922  2332.21852997
0.41800002 33980.69435993  2349.25541589
0.41900002 34142.45709943  3441.55983870
0.42000002 34302.88840003  2599.47300613
0.42100002 34461.67056775  2181.42385030
0.42200002 34618.09482527  3294.77733112
0.42300002 34771.60566384  2653.76907001
0.42400002 34922.96289155  3339.50848475
0.42500002 35072.33624677  2689.34687084
0.42600002 35217.87902042  3383.55788722
0.42700002 35362.16164202  3632.40141599
0.42800002 35503.41814303  3198.50309207
0.42900002 35642.56346126  2988.62908785
0.43000002 35779.07611176  3469.67607036
0.43100002 35911.49767151  3257.89122314
0.43200002 36041.97956421  2809.11202035
0.43300002 36169.44470839  4002.87263557
0.43400002 36294.44129525  3552.31861011
0.43500002 36415.97348951  3096.08621280
0.43600002 36535.56291657  2873.88751521
0.43700002 36651.27991671  2648.78812510
0.43800002 36763.23505520  2662.94505742
0.43900002 36873.29711947  3893.82036034
0.44000002 36979.49400739  2446.19364451
0.44100002 37083.41240610  3196.21946675
0.44200002 37183.76687946  2470.86142623
0.44300002 37281.18711975  2482.92717984
0.44400002 37375.02525398  3742.17458090
0.44500002 37464.64069459  3258.29995562
0.44600002 37552.11193074  4280.37768128
0.44700002 37636.40476269  3793.74977987
0.44800002 37716.22292053  4064.30037453
0.44900002 37794.27283808  3316.44759871
0.45000002 37868.70220120  3074.18139039
0.45100002 37938.48663755  2829.45246752
0.45200002 38005.84274298  3615.49599149
0.45300002 38069.13482723  3370.26066598
0.45400002 38129.73791450  2862.59020960
0.45500002 38186.82950750  3134.37511452
0.45600002 38240.34159924  2883.51309495
0.45700002 38290.20871079  3945.80619465
0.45800002 38336.11998095  3167.33038294
0.45900002 38378.92646803  2912.96065698
0.46000002 38418.93072475  3188.00302263
0.46100002 38454.31559841  2664.88419727
0.46200002 38486.90816483  3207.49907848
0.46300002 38515.92090103  3216.84986612
0.46400002 38540.82291626  4301.15604131
0.46500002 38563.35982323  3234.69477528
0.46600002 38581.37342103  3243.15040348
0.46700002 38595.91825660  3251.32030804
0.46800002 38607.85574535  3802.48789258
0.46900002 38615.47367834  2994.63012569
0.47000002 38619.27919348  3001.29742477
0.47100002 38620.20047637  3007.74135566
0.47200002 38617.41688049  4383.84937205
0.47300002 38611.87618667  3294.36543239
0.47400002 38601.17969580  3025.36760205
0.47500002 38588.40619212  3030.73356598
0.47600002 38572.51565186  3035.84998827
0.47700002 38551.88377734  3593.42125721
