# SAXS profile: number of points = 501, q_min = 0, q_max = 0.5, delta_q = 0.001
#    q    intensity    error
0.00000000 1682732.95097189 302.89193117
0.00100000 1682663.35467177 656.23872391
0.00200000 1682454.51135263 1059.94637572
0.00300000 1682106.59264217 1312.04318900
0.00400000 1681619.47123266 1513.45758162
0.00500000 1680993.60400391 2118.05202488
0.00600000 1680228.69405723 2117.08824070
0.00700000 1679325.48089159 2216.70972690
0.00800000 1678283.31830379 3851.66037812
0.00900000 1677103.66036990 2515.65559809
0.01000000 1675785.59512027 3871.06489188
0.01100000 1674330.40391504 3315.17434409
0.01200000 1672737.59945859 3261.83846196
0.01300000 1671008.48400278 4210.94156541
0.01400000 1669142.34419007 4131.12748501
0.01500000 1667141.04147273 5201.48028101
0.01600000 1665003.36593556 5944.06228211
0.01700000 1662731.46521416 5387.25018896
0.01800000 1660324.86598342 5205.11868908
0.01900000 1657784.34096030 5470.68857202
0.02000000 1655110.58573124 6256.31829707
0.02100000 1652305.21805012 5997.86821346
0.02200000 1649366.41352705 7397.40870075
0.02300000 1646297.09699585 8297.33774654
0.02400000 1643097.10865757 8010.09876995
0.02500000 1639767.87266773 7034.60449502
0.02600000 1636309.56057736 7289.75942579
0.02700000 1632723.23935687 9600.41308713
0.02800000 1629008.81243656 7794.80752498
0.02900000 1625168.78388642 13163.86775389
0.03000000 1621203.50556618 12061.75463583
0.03100000 1617113.30304974 9314.57305416
0.03200000 1612899.21725672 10379.00694108
0.03300000 1608563.98083329 16407.35336089
0.03400000 1604105.64227271 15158.79901891
0.03500000 1599527.55009883 12092.42883715
0.03600000 1594829.46427339 10621.56472292
0.03700000 1590013.32042855 9969.38398015
0.03800000 1585080.13524971 12981.80690849
0.03900000 1580031.65208526 10428.20938669
0.04000000 1574866.55856797 15496.68765441
0.04100000 1569588.78569321 11866.09177003
0.04200000 1564198.62511111 11097.98976003
0.04300000 1558696.34303596 11316.13597571
0.04400000 1553085.73592999 11531.66212483
0.04500000 1547366.08663281 13879.87444202
0.04600000 1541537.93560399 11954.62724634
0.04700000 1535604.68695150 13267.62511231
0.04800000 1529566.23996106 12366.54362548
0.04900000 1523425.61591162 17138.53897676
0.05000000 1517182.08987902 18570.30964487
0.05100000 1510839.23945963 17676.81992514
0.05200000 1504395.35585744 15547.92672734
0.05300000 1497855.71493583 16985.68459921
0.05400000 1491218.75786390 15993.32192392
0.05500000 1484488.48622206 12469.70386597
0.05600000 1477663.46261530 16424.23015339
0.05700000 1470748.65349824 14075.06527098
0.05800000 1463742.74455296 14249.53628357
0.05900000 1456647.60683003 15731.79488853
0.06000000 1449466.12739753 15915.13882236
0.06100000 1442200.04624770 17436.19937395
0.06200000 1434849.67366266 17627.12906490
0.06300000 1427418.14590577 15073.53632553
0.06400000 1419903.72137286 17997.28051007
0.06500000 1412312.53936794 16778.27375254
0.06600000 1404642.54244745 15528.32403330
0.06700000 1396896.88647857 17098.01869067
0.06800000 1389078.35591793 20127.74631941
0.06900000 1381187.99250737 21753.71190048
0.07000000 1373224.99490154 17549.81625667
0.07100000 1365194.49209131 19167.33156672
0.07200000 1357095.30997103 14860.19434034
0.07300000 1348932.53795260 16470.46706013
0.07400000 1340704.99987880 18099.51834658
0.07500000 1332415.62992324 22784.30833964
0.07600000 1324064.38042277 19880.82760407
0.07700000 1315656.67854478 23089.77579111
0.07800000 1307190.66044060 18588.25206318
0.07900000 1298668.77615236 20259.23385821
0.08000000 1290094.85627037 20377.04921070
0.08100000 1281469.05139830 18914.48408607
0.08200000 1272792.37510606 17430.89239503
0.08300000 1264067.66502709 19112.70399221
0.08400000 1255295.83880021 19206.02723515
0.08500000 1246480.67495405 19295.52175412
0.08600000 1237621.57785385 17766.05858424
0.08700000 1228721.95276417 21084.86969953
0.08800000 1219780.45876770 34196.54676755
0.08900000 1210803.65219805 27787.94512314
0.09000000 1201789.50987823 18044.87033849
0.09100000 1192741.41642109 23043.76524788
0.09200000 1183660.03210664 16512.05822374
0.09300000 1174549.03852990 19873.37066582
0.09400000 1165406.46392387 18267.74718054
0.09500000 1156236.91258150 21644.75602089
0.09600000 1147041.49386675 25034.18178044
0.09700000 1137823.05371694 16725.99967597
0.09800000 1128582.49150241 18435.39586548
0.09900000 1119321.64230805 18468.80796653
0.10000000 1110040.31363619 16817.11154245
0.10100000 1100741.29316631 20209.61109303
0.10200000 1091426.79677213 25293.81720492
0.10300000 1082097.98690267 23633.02114567
0.10400000 1072757.47931204 16895.93109404
0.10500000 1063407.83795019 16908.18541893
0.10600001 1054045.32050411 18609.17100913
0.10700001 1044677.97059406 20308.54070402
0.10800001 1035302.94868657 22005.36520994
0.10900001 1025924.55055389 20313.30705703
0.11000001 1016542.56112918 20310.52132737
0.11100001 1007159.61085548 25380.42338830
0.11200001 997777.82858219 16912.33499065
0.11300001 988396.05828040 20281.88807080
0.11400001 979019.03244320 23643.31074674
0.11500001 969646.99058951 28682.15933222
0.11600001 960280.64385851 21908.80392135
0.11700001 950923.53145093 25247.02094903
0.11800001 941573.30660938 16807.08431456
0.11900001 932235.12467597 21814.30294491
0.12000001 922908.23457744 20100.94229595
0.12100001 913596.44435221 21734.46043501
0.12200001 904298.61331117 18352.74122177
0.12300001 895017.64771734 18312.06193506
0.12400001 885753.50553798 19929.45481363
0.12500001 876508.69860953 18222.61670275
0.12600001 867285.63984099 24782.68832630
0.12700001 858083.79808485 24712.81454947
0.12800001 848904.04743992 19711.55291055
0.12900001 839749.34660907 24562.66954601
0.13000001 830620.01021971 22850.35755819
0.13100001 821516.56058527 16266.02866633
0.13200001 812442.36387204 17829.04851564
0.13300001 803398.00955226 19377.96090394
0.13400001 794382.65967890 17694.87457858
0.13500001 785399.92804651 24033.23893135
0.13600001 776448.81406675 20742.83104583
0.13700001 767532.41249071 17476.71385650
0.13800001 758649.38086416 17399.62437061
0.13900001 749805.04031698 18895.08790705
0.14000001 740996.18843550 18806.48414942
0.14100001 732226.21814068 20275.34493656
0.14200001 723494.08725061 20174.63357453
0.14300001 714804.99734512 16983.76753800
0.14400001 706152.52303951 24574.10896093
0.14500001 697546.31376994 16803.89149139
0.14600001 688980.69840794 25826.44269817
0.14700001 680461.81941034 21148.75434500
0.14800001 671985.72536699 18022.65800463
0.14900001 663554.79309707 22394.97532364
0.15000001 655171.41537623 17807.55991014
0.15100001 646835.37341074 19172.20137253
0.15200001 638548.64314922 19051.09966732
0.15300001 630310.87920244 16016.20019632
0.15400001 622120.90973234 18803.60538402
0.15500001 613983.30256024 17240.65194953
0.15600001 605895.50859290 17122.60788094
0.15700001 597863.12125658 21254.03496379
0.15800001 589878.67148020 15475.46767671
0.15900001 581951.07598219 18156.87442766
0.16000001 574074.83447282 13863.90790693
0.16100001 566256.67054954 13760.03774389
0.16200001 558491.18874045 13655.11020931
0.16300001 550782.94078164 24388.66976915
0.16400001 543130.63550949 20163.72579521
0.16500001 535535.73960668 18668.77676407
0.16600001 527997.86568127 14548.98187575
0.16700001 520517.84310830 18363.87037191
0.16800001 513094.97705916 13006.95828259
0.16900001 505733.51031868 20633.92819530
0.17000001 498430.31512636 19177.10728002
0.17100001 491186.73505178 22810.71305296
0.17200001 484003.75350571 18839.84699488
0.17300001 476881.34811999 13691.26415109
0.17400001 469820.59908115 16032.62870080
0.17500001 462820.41986701 12218.45966154
0.17600001 455880.13996572 14524.34194528
0.17700001 449004.23015325 16783.77891584
0.17800001 442189.45709264 11872.78748371
0.17900001 435437.09794299 15283.84285971
0.18000001 428748.18929952 16296.71944505
0.18100001 422123.20038124 14981.15308919
0.18200001 415558.51881475 12547.79006834
0.18300001 409059.77976851 16935.07568242
0.18400001 402623.12658323 14524.62997764
0.18500001 396251.17975302 14372.03096861
0.18600001 389942.73471233 15313.05191559
0.18700001 383697.81350224 15148.39039275
0.18800001 377516.72626790 12843.11963442
0.18900001 371401.71019214 12701.93908871
0.19000001 365346.93341081 11513.90915046
0.19100001 359361.36227927 15524.41158399
0.19200001 353436.67120063 14324.78896063
0.19300001 347578.59628480 12137.44515579
0.19400001 341783.82972892 9997.17749198
0.19500001 336053.90182958 12843.98073487
0.19600001 330387.28349887 11715.53362650
0.19700001 324785.87701539 14469.21150482
0.19800001 319248.63272992 12388.44377855
0.19900001 313776.38788217 13178.60891387
0.20000001 308366.29697123 11156.69315170
0.20100001 303022.11465464 11936.04166037
0.20200001 297740.74583013 9972.82675293
0.20300001 292523.97498679 14321.97449228
0.20400001 287370.81180177 8836.65288058
0.20500001 282280.42376241 8722.46550654
0.20600001 277253.92446361 8608.73476151
0.20700001 272290.71146197 9345.01765911
0.20800001 267390.09045025 14250.55554417
0.20900001 262554.67808722 8270.47275070
0.21000001 257779.59219279 8974.59692644
0.21100001 253067.04714776 10461.79222365
0.21200001 248416.61824614 10317.98472663
0.21300001 243828.12178010 9392.25969499
0.21400001 239302.40655910 9261.00357167
0.21500001 234838.56449502 12174.03175898
0.21600001 230434.12763970 9000.75745115
0.21700001 226091.75155913 8871.84075064
0.21800001 221809.76081593 8743.74118477
0.21900001 217587.18611484 10052.52847380
0.22000001 213424.35597974 8490.02128230
0.22100001 209323.58603547 10455.71361685
0.22200001 205281.05944760 6866.65176321
0.22300001 201297.29044561 9469.02499031
0.22400001 197370.58398600 7327.38327697
0.22500001 193505.53468619 9183.77311048
0.22600001 189696.37748971 9042.82674255
0.22700001 185945.92586882 8267.15625507
0.22800001 182252.09554932 8764.50368944
0.22900001 178614.59817540 6778.42432131
0.23000001 175033.96574600 7277.91263990
0.23100001 171510.95119019 7759.15579880
0.23200001 168041.54893018 7634.96813673
0.23300001 164628.71250304 6934.16169858
0.23400001 161270.60093025 7958.70453232
0.23500001 157965.82427236 7269.58757684
0.23600001 154715.92870416 5500.15152557
0.23700001 151519.48835740 5950.17058923
0.23800001 148376.20292356 7447.00197697
0.23900001 145285.83398976 5230.29027102
0.24000001 142247.42907852 6684.91824574
0.24100001 139262.11547359 5560.73653389
0.24200001 136327.55310324 4969.13954566
0.24300001 133443.99924973 6349.26578464
0.24400001 130610.36358867 7199.89663341
0.24500001 127827.20480266 7075.23612052
0.24600001 125093.78789018 5098.19756664
0.24700001 122410.14918717 5009.02354170
0.24800001 119774.22963982 5368.28122641
0.24900001 117186.48440610 6591.74005968
0.25000001 114646.90640681 4748.10185346
0.25100001 112153.88047041 5511.24194705
0.25200001 109708.77869149 5412.48285281
0.25300001 107310.14038843 4906.21985067
0.25400001 104956.42914215 6824.79212786
0.25500001 102648.35160447 5518.37564334
0.25600001 100385.55478443 3869.86332003
0.25700001 98166.89318707  3799.05894609
0.25800001 95991.86390039  4102.21249788
0.25900001 93860.79341201  3660.57111627
0.26000001 91773.01682623  4670.78791237
0.26100001 89725.59188522  4584.08070632
0.26200001 87722.92290164  4498.87031388
0.26300001 85760.14503230  4414.93247517
0.26400001 83838.23072549  3665.82681193
0.26500001 81957.72465912  5886.20406355
0.26600001 80116.34111023  4171.25749729
0.26700001 78315.60919140  5037.26022156
0.26800001 76553.64617289  3397.83374617
0.26900001 74829.78826959  3636.72788200
0.27000001 73144.57863079  2973.32726205
0.27100001 71496.85721570  3208.77910369
0.27200001 69886.73703863  3434.23442060
0.27300001 68312.70418039  2807.65227468
0.27400001 66773.76464974  2754.41792215
0.27500001 65272.73298239  4053.43691004
0.27600001 63805.05173896  3711.54003531
0.27700001 62373.70133219  2861.08181551
0.27800001 60975.57998936  3062.19377199
0.27900001 59611.79790507  2503.69563051
0.28000001 58281.01686923  2702.19947503
0.28100001 56982.98269916  2892.45633871
0.28200001 55717.92961145  2365.22622395
0.28300001 54484.80531743  3249.47394293
0.28400001 53283.15044413  2733.42574716
0.28500001 52112.80049587  2459.20317180
0.28600001 50972.16214391  2413.78685257
0.28700001 49862.43880895  2369.46320435
0.28800001 48781.52531760  2537.61506713
0.28900001 47731.47353584  2283.95111680
0.29000001 46708.73241096  2446.60351949
0.29100001 45715.52460502  2402.80808698
0.29200001 44749.66355507  2163.42258698
0.29300001 43811.24783031  2704.90656908
0.29400001 42899.76159841  2467.80890277
0.29500001 42015.91619383  1865.50676731
0.29600001 41157.13632628  2383.61566317
0.29700001 40323.97087992  1982.72974202
0.29800001 39516.76610049  2835.72326961
0.29900001 38734.45165546  2265.96552911
0.30000001 37976.26400175  1886.09124093
0.30100001 37243.25211117  1855.83134055
0.30200001 36532.62394394  1826.44862054
0.30300001 35845.87812235  1961.48654371
0.30400001 35182.58441511  1609.60331319
0.30500001 34540.60895095  2061.03823368
0.30600001 33921.05610038  2030.68411959
0.30700001 33323.70152727  1539.55508345
0.30800001 32747.31049821  1973.18928749
0.30900001 32191.79323973  2245.37768478
0.31000001 31657.64963622  1624.51236799
0.31100001 31142.02210450  1748.93604419
0.31200001 30647.28776317  1726.66827433
0.31300001 30171.41899949  1847.39607281
0.31400001 29715.96888947  2246.52735441
0.31500001 29278.16881156  1665.34232085
0.31600002 28858.80828631  1783.90731868
0.31700002 28457.07674557  2036.10393755
0.31800002 28073.24142476  1746.29606551
0.31900002 27707.01369167  1595.92406421
0.32000002 27357.28446752  1448.97864043
0.32100002 27024.49600666  1435.81154082
0.32200002 26708.16456642  1423.41169797
0.32300002 26407.05868857  1283.38311303
0.32400002 26121.76885467  1273.43629196
0.32500002 25851.25216786  1896.18943630
0.32600002 25596.27356254  1632.14646100
0.32700002 25355.56621778  1871.24087548
0.32800002 25130.00248479  1364.18224948
0.32900002 24917.05418630  1356.73366469
0.33000002 24719.50010548  2086.44950520
0.33100002 24532.82599055  2076.94914671
0.33200002 24361.60250730  1825.29315430
0.33300002 24201.84274115  1333.76361663
0.33400002 24055.33264121  1329.65857471
0.33500002 23920.40937155  1687.82416519
0.33600002 23797.33000401  1202.95508867
0.33700002 23685.17566588  1320.92230944
0.33800002 23585.64638817  1319.26319320
0.33900002 23495.96391106  1437.95305946
0.34000002 23417.59502036  1796.71506303
0.34100002 23349.58443010  1557.18385939
0.34200002 23292.75208189  1198.41215137
0.34300002 23244.31628323  1199.40677702
0.34400002 23206.49183620  1561.21681222
0.34500002 23177.65527741  1202.92036587
0.34600002 23159.20573934  1687.61140215
0.34700002 23147.52051600  1933.28100506
0.34800002 23146.10198329  1332.86834583
0.34900002 23152.72729563  1215.51824059
0.35000002 23167.50759675  1463.72319929
0.35100002 23190.35550616  1346.89591159
0.35200002 23220.07993770  1967.20526549
0.35300002 23257.77573568  1234.98795006
0.35400002 23303.09601885  1364.97891395
0.35500002 23355.07479571  1621.30936911
0.35600002 23413.46031418  1755.30720289
0.35700002 23478.64155586  1512.96373352
0.35800002 23550.69107707  1521.84572948
0.35900002 23628.41522831  1403.52793104
0.36000002 23712.69282043  1412.44661475
0.36100002 23802.04380963  1680.18635211
0.36200002 23897.97956958  1431.36955412
0.36300002 23997.49871075  1703.34253917
0.36400002 24102.95657211  1583.56432180
0.36500002 24212.81746165  1595.14048993
0.36600002 24328.11157372  1741.04138724
0.36700002 24447.49071199  1619.40186147
0.36800002 24572.52567703  1496.09829671
0.36900002 24700.79778475  1507.98377619
0.37000002 24832.16228658  1796.48286572
0.37100002 24967.88178450  1671.84944349
0.37200002 25107.71831764  1685.73228770
0.37300002 25250.34636903  1558.19894825
0.37400002 25397.32328442  1571.45945266
0.37500002 25546.32460689  2305.30044173
0.37600002 25699.31114008  2034.61455934
0.37700002 25853.97128305  1465.92024119
0.37800002 26012.14877820  2070.30701933
0.37900002 26172.64385487  1939.39300152
0.38000002 26335.57950186  2257.61765975
0.38100002 26500.22989809  1670.30956960
0.38200002 26667.13959666  1991.63541513
0.38300002 26835.83789205  1700.31876939
0.38400002 27006.89273445  1871.57775516
0.38500002 27178.42817020  2045.72038529
0.38600002 27352.56584877  1905.37982729
0.38700002 27527.13113229  2082.70284014
0.38800002 27702.83235809  2101.39844808
0.38900002 27879.75953237  2283.35241388
0.39000002 28058.41344681  1645.62602662
0.39100002 28236.95056681  2490.49915798
0.39200002 28416.79280115  1675.17001499
0.39300002 28596.70318442  2028.07828592
0.39400002 28778.02380022  1875.60779004
0.39500002 28958.66638781  2236.18832441
0.39600002 29139.65987007  2082.32019297
0.39700002 29320.44906660  1925.47398143
0.39800002 29502.35773834  2648.57429144
0.39900002 29683.12586210  1959.08639972
0.40000002 29863.71673138  2155.56317580
0.40100002 30043.90217767  2355.14160329
0.40200002 30224.77789256  2192.50549221
0.40300002 30404.03245631  2210.98134498
0.40400002 30582.73322368  2415.27147078
0.40500002 30760.86354888  2060.67034678
0.40600002 30938.42108912  2077.66976668
0.40700002 31114.95401392  2094.65880346
0.40800002 31290.66936807  2687.55571936
0.40900002 31464.61638083  2128.58139902
0.41000002 31638.26651002  2145.54914504
0.41100002 31810.34722115  2162.46750656
0.41200002 31980.44173594  2575.54499724
0.41300002 32149.76211336  2595.45041839
0.41400002 32317.35725540  2414.10670137
0.41500002 32483.98575843  2229.70088811
0.41600002 32647.73404130  3063.17379157
0.41700002 32810.61531637  2057.22567782
0.41800002 32972.57979571  3522.95545521
0.41900002 33130.77947424  3130.85880867
0.42000002 33287.83440322  3363.40294748
0.42100002 33443.51354383  3175.46176146
0.42200002 33596.98702516  2131.72892776
0.42300002 33747.90117034  3219.54992421
0.42400002 33896.67825490  2160.91334115
0.42500002 34043.77747236  2828.01672864
0.42600002 34187.26031644  2408.66353973
0.42700002 34329.69529909  3085.55315970
0.42800002 34469.27428183  2439.90769566
0.42900002 34606.98823838  2678.58101658
0.43000002 34742.29983039  2246.08979047
0.43100002 34873.68082960  2259.81462484
0.43200002 35003.45353423  3182.86418070
0.43300002 35130.23631366  2973.07204011
0.43400002 35254.85499340  3220.53115626
0.43500002 35376.29640363  2313.60989444
0.43600002 35495.97560967  2559.43744262
0.43700002 35611.95503580  3041.61722375
0.43800002 35724.40354753  3999.16854465
0.43900002 35835.21905739  3784.19931179
0.44000002 35942.33495528  2377.58556997
0.44100002 36047.36172384  3345.91627377
0.44200002 36149.13388977  3362.95408514
0.44300002 36248.16106047  2414.12764103
0.44400002 36343.71324481  2425.94297406
0.44500002 36435.43634883  2437.53080725
0.44600002 36525.04157949  2938.80498476
0.44700002 36611.78045668  2952.37411594
0.44800002 36694.33217361  3212.77240572
0.44900002 36775.20526510  2482.32647304
0.45000002 36852.57425112  3240.99979611
0.45100002 36925.64399644  4005.69405057
0.45200002 36996.45575143  3016.69114494
0.45300002 37063.52186857  2776.42855476
0.45400002 37128.01309018  3294.18311755
0.45500002 37189.15698611  5087.47691681
0.45600002 37246.81529455  3319.25010228
0.45700002 37301.25796016  3075.11585198
0.45800002 37351.83377949  2828.84126536
0.45900002 37399.50576865  3096.67922441
0.46000002 37444.64968862  2589.29764869
0.46100002 37485.25112471  3117.27363127
0.46200002 37523.44682141  3648.40490736
0.46300002 37557.95845949  3136.84083921
0.46400002 37588.73479386  2621.81437613
0.46500002 37617.21110092  3944.16477087
0.46600002 37641.45382838  3164.14075878
0.46700002 37662.45757301  2643.90464694
0.46800002 37680.91581513  2915.93780856
0.46900002 37695.23558043  2657.51423438
0.47000002 37706.02955712  3463.11044881
0.47100002 37714.01029746  3204.18246674
0.47200002 37718.42539208  2943.73464925
0.47300002 37720.25764813  3486.48357967
0.47400002 37717.26155558  3224.82601585
0.47500002 37712.21934419  3231.18310656
0.47600002 37704.17960211  2697.73417840
0.47700002 37691.67160692  3783.49017523
