# SAXS profile: number of points = 501, q_min = 0, q_max = 0.5, delta_q = 0.001
#    q    intensity    error
0.00000000 1664650.74656091 324.60689558
0.00100000 1664581.75702467 549.31199286
0.00200000 1664374.73476398 898.76238523
0.00300000 1664029.85033257 1297.94332950
0.00400000 1663546.97660077 1247.66027986
0.00500000 1662926.57577412 1945.62417067
0.00600000 1662168.34593677 1745.27683429
0.00700000 1661273.00774040 2392.23323057
0.00800000 1660239.93441779 2465.45640670
0.00900000 1659070.56301933 3235.18773618
0.01000000 1657764.00362441 4376.49715854
0.01100000 1656321.53474579 2981.37889235
0.01200000 1654742.61814316 3872.09789622
0.01300000 1653028.61313630 3471.36024069
0.01400000 1651178.78321068 5201.21339769
0.01500000 1649194.97056313 5145.48853728
0.01600000 1647075.97732215 4620.04832292
0.01700000 1644823.93761629 5329.22979694
0.01800000 1642438.42327588 4680.94971697
0.01900000 1639920.10836235 5411.73660179
0.02000000 1637269.76085962 6188.87997601
0.02100000 1634488.98779015 5393.81390425
0.02200000 1631575.86612417 6191.83069325
0.02300000 1628533.48864819 7035.26499119
0.02400000 1625361.57801007 6704.61681501
0.02500000 1622061.49822657 8856.45618480
0.02600000 1618633.56762312 9177.65274819
0.02700000 1615078.73152997 7461.66408142
0.02800000 1611396.92053656 9813.40769611
0.02900000 1607590.67417122 12298.06922207
0.03000000 1603660.28130618 8948.42478101
0.03100000 1599606.12581753 7678.10975722
0.03200000 1595429.12833577 10266.58691370
0.03300000 1591132.10174643 12172.16113950
0.03400000 1586713.00104498 12495.36545977
0.03500000 1582175.32571574 10252.49658408
0.03600000 1577518.77571530 12257.32145376
0.03700000 1572745.11307164 9861.11231501
0.03800000 1567855.63670001 11006.34707900
0.03900000 1562851.72836544 11252.53296534
0.04000000 1557732.42235259 10538.06032554
0.04100000 1552501.41721531 12714.98719654
0.04200000 1547159.08793811 12972.92955421
0.04300000 1541705.62193214 13227.83485019
0.04400000 1536144.86595319 12442.77399209
0.04500000 1530476.14761427 13728.37168199
0.04600000 1524699.78740495 10749.13400090
0.04700000 1518819.41561448 13122.60036121
0.04800000 1512834.77456495 12231.26972146
0.04900000 1506748.94568932 14690.80290429
0.05000000 1500561.20925678 13775.15254243
0.05100000 1494275.10255816 12820.88097720
0.05200000 1487888.70609591 15377.33049410
0.05300000 1481407.81991657 15599.22507092
0.05400000 1474830.31429554 15817.55585845
0.05500000 1468160.56437257 13565.80424764
0.05600000 1461396.84238228 13744.43794398
0.05700000 1454544.15255492 15185.44166151
0.05800000 1447601.38130132 14092.40010498
0.05900000 1440570.34112872 12965.13367571
0.06000000 1433453.67600877 19674.15262237
0.06100000 1426253.14088184 17243.40127907
0.06200000 1418969.34167388 17432.03917730
0.06300000 1411605.16224962 13551.41019120
0.06400000 1404158.78842809 13690.54882744
0.06500000 1396636.60438540 20740.05454530
0.06600000 1389036.34318972 16751.77908266
0.06700000 1381361.25718212 15498.87403091
0.06800000 1373613.97728353 18481.97692947
0.06900000 1365795.55901040 22945.36646565
0.07000000 1357905.39293575 17354.03173438
0.07100000 1349948.34647156 16037.38710724
0.07200000 1341923.41843995 22041.09318043
0.07300000 1333835.50645683 19247.24726001
0.07400000 1325683.68525752 16405.33637388
0.07500000 1317470.43121996 16521.07998188
0.07600000 1309196.19159447 21169.70341053
0.07700000 1300866.15843113 22830.20215094
0.07800000 1292478.43164079 16847.45714652
0.07900000 1284035.35686507 18490.11000611
0.08000000 1275540.98407790 20147.17078864
0.08100000 1266995.06476530 18700.84803335
0.08200000 1258399.19185378 18800.48480851
0.08300000 1249755.74008198 22045.69228969
0.08400000 1241065.70026886 18988.30610540
0.08500000 1232332.88635107 19076.51397626
0.08600000 1223556.58284455 19160.89698698
0.08700000 1214740.49516551 27258.77799152
0.08800000 1205882.93345223 16098.53791764
0.08900000 1196990.60351920 17775.31129716
0.09000000 1188061.27918122 19460.44466715
0.09100000 1179098.62571128 16271.56179927
0.09200000 1170103.08526296 24484.40820957
0.09300000 1161078.33241837 18008.32578206
0.09400000 1152022.36488465 21341.21531247
0.09500000 1142940.08282607 21395.83935617
0.09600000 1133832.19416662 19796.71104075
0.09700000 1124701.54249251 16533.11345191
0.09800000 1115549.17300063 21535.67779733
0.09900000 1106377.02299785 24893.48418800
0.10000000 1097184.83653143 19946.82126618
0.10100000 1087974.93184842 19975.22068821
0.10200000 1078750.05961987 16666.68920507
0.10300000 1069511.25416632 23358.12688978
0.10400000 1060260.99717201 16699.11149107
0.10500000 1051001.72648587 20053.11388484
0.10600001 1041729.99844639 21735.69744033
0.10700001 1032453.91941027 20070.90513783
0.10800001 1023170.05164222 26766.12981062
0.10900001 1013883.10964792 28439.42256414
0.11000001 1004592.75932301 20071.76427604
0.11100001 995301.67569484 25081.60340819
0.11200001 986011.98002113 26740.64615705
0.11300001 976722.69064754 18372.15467606
0.11400001 967437.94552685 23363.62748454
0.11500001 958158.44546095 30009.52392493
0.11600001 948884.76474513 21648.80692713
0.11700001 939620.41687563 21620.66681053
0.11800001 930363.19271908 24910.47565829
0.11900001 921117.97868065 19896.14927664
0.12000001 911884.20691007 26481.11861606
0.12100001 902665.46268543 19822.53449437
0.12200001 893460.81907110 18132.78817731
0.12300001 884272.91684766 21381.72013676
0.12400001 875102.05654978 16408.16433342
0.12500001 865950.62788377 22913.05469348
0.12600001 856820.86430429 17954.68205758
0.12700001 847712.24353312 26041.72134859
0.12800001 838625.73483193 22718.37222730
0.12900001 829564.35254894 22647.10789199
0.13000001 820528.10230246 20960.39136128
0.13100001 811517.76184355 17674.85768610
0.13200001 802536.60216250 27218.03014541
0.13300001 793585.27631563 22331.49072830
0.13400001 784662.57732824 22245.18511602
0.13500001 775772.78560120 15825.76557242
0.13600001 766914.33174952 20488.11733872
0.13700001 758090.43441241 17261.72000552
0.13800001 749299.77742561 15622.90109603
0.13900001 740547.73545222 18661.80381345
0.14000001 731830.84073752 20121.68991503
0.14100001 723152.62612797 15403.15166298
0.14200001 714512.34644967 19924.17772048
0.14300001 705914.57223319 22871.63321916
0.14400001 697353.46876866 18200.92639340
0.14500001 688838.29468119 22628.33904770
0.14600001 680363.39635705 18002.41631686
0.14700001 671935.16995498 19392.04991975
0.14800001 663549.38223304 23728.52702813
0.14900001 655208.70126486 19164.85541621
0.15000001 646915.06921672 23444.20321458
0.15100001 638668.69628260 16017.81165857
0.15200001 630470.99658934 14469.31005449
0.15300001 622322.23782993 14375.64437224
0.15400001 614220.97140932 17136.76591102
0.15500001 606171.75099514 14184.41964269
0.15600001 598171.66734842 15495.63777398
0.15700001 590227.09496431 15387.22109195
0.15800001 582330.02721971 19444.00052660
0.15900001 574489.47179106 15166.52277115
0.16000001 566699.71670609 23265.85796757
0.16100001 558967.74984025 14941.20865852
0.16200001 551288.17269545 16174.79575043
0.16300001 543665.34004308 17386.41839535
0.16400001 536098.14570278 18575.80162556
0.16500001 528587.93726207 18426.57636290
0.16600001 521134.37768093 15665.30013270
0.16700001 513738.09490379 15535.44072339
0.16800001 506398.59891055 15404.64610621
0.16900001 499120.07913007 15273.07514254
0.17000001 491899.31578314 18925.82706843
0.17100001 484737.84733986 15007.48446231
0.17200001 477636.69073710 16113.07452292
0.17300001 470595.41406015 12282.54088701
0.17400001 463615.22974100 14603.88042652
0.17500001 456695.30937501 12056.75673691
0.17600001 449834.68962760 14331.73388841
0.17700001 443038.17906581 13012.03193373
0.17800001 436301.99853420 12886.18013535
0.17900001 429627.88739826 17399.93026149
0.18000001 423016.74468560 13781.88619284
0.18100001 416468.99334018 12506.56446077
0.18200001 409981.13525116 14630.17750254
0.18300001 403558.46376605 13365.85695133
0.18400001 397197.62239333 11022.23454211
0.18500001 390900.72951163 16359.19630290
0.18600001 384666.96193844 14026.88142976
0.18700001 378495.94891675 10673.58626372
0.18800001 372388.48404184 14780.09962992
0.18900001 366346.46573284 16705.39962671
0.19000001 360363.99989299 13421.75781018
0.19100001 354450.40076992 14291.44083431
0.19200001 348596.77268232 13119.44015981
0.19300001 342809.43351465 11970.90598399
0.19400001 337084.77069803 11831.67601059
0.19500001 331424.45319978 13641.43113833
0.19600001 325826.92638341 9628.18612962
0.19700001 320293.92582555 15220.36807451
0.19800001 314824.40490155 9397.50893043
0.19900001 309419.41347510 11139.09941154
0.20000001 304076.01681319 11001.47080824
0.20100001 298797.87091132 13580.36387476
0.20200001 293581.98961461 10727.48640754
0.20300001 288430.08994847 9708.55728654
0.20400001 283341.10788954 8712.73947942
0.20500001 278314.38019032 10319.89770525
0.20600001 273351.00912885 8487.54923464
0.20700001 268450.13441583 10888.33796659
0.20800001 263611.54867991 9090.64468594
0.20900001 258837.24596691 11414.72308673
0.21000001 254122.77776278 11260.18081496
0.21100001 249470.20316356 9519.78340275
0.21200001 244879.22680261 8606.28083284
0.21300001 240349.54107473 8486.74269656
0.21400001 235881.97644103 9128.63291984
0.21500001 231475.72868531 8999.77675677
0.21600001 227128.27596590 8871.63087867
0.21700001 222842.20493052 8015.63449033
0.21800001 218616.04075238 8617.84473392
0.21900001 214448.45555097 9907.51911490
0.22000001 210340.18424554 6972.77743743
0.22100001 206293.18913413 9617.38893218
0.22200001 202303.97220867 8120.48182843
0.22300001 198372.73657243 8664.92154321
0.22400001 194498.12882617 7220.74337411
0.22500001 190684.57757955 6464.20748562
0.22600001 186926.14936545 7001.31925556
0.22700001 183225.97398934 8146.22718879
0.22800001 179581.70070784 8636.08439544
0.22900001 175993.16852640 9714.82336208
0.23000001 172460.84017632 6573.34523419
0.23100001 168985.64897887 8232.98120761
0.23200001 165563.36334196 5786.43982246
0.23300001 162196.98247809 7401.04866050
0.23400001 158884.80463380 7280.89651670
0.23500001 155625.44185485 6060.05499245
0.23600001 152420.23656843 7044.10156617
0.23700001 149268.02524422 6927.52937924
0.23800001 146168.19206992 5764.14292691
0.23900001 143120.85297965 6182.82114117
0.24000001 140124.63992983 6585.15776498
0.24100001 137181.19719384 5975.61323242
0.24200001 134287.80606074 4894.79076245
0.24300001 131444.80227585 6254.14398812
0.24400001 128651.20398107 4727.93196995
0.24500001 125907.45991371 5110.58403965
0.24600001 123213.00440760 6391.05884095
0.24700001 120567.61592102 5382.13862932
0.24800001 117969.30850767 4846.76926932
0.24900001 115418.75623011 5193.84427606
0.25000001 112915.78379987 4676.40740730
0.25100001 110458.77348182 4175.34183514
0.25200001 108049.09400156 5330.60230476
0.25300001 105685.45609575 5637.26249485
0.25400001 103366.03221611 5535.25128705
0.25500001 101091.73307224 6211.07637382
0.25600001 98862.08861669  5716.70054473
0.25700001 96676.11575860  5986.18537100
0.25800001 94533.21923387  4039.87731510
0.25900001 92433.84217187  5407.38002290
0.26000001 90377.19455495  4599.74753451
0.26100001 88360.39956395  3819.82025389
0.26200001 86387.69686438  4430.39324332
0.26300001 84454.38654718  4013.27263862
0.26400001 82561.58208900  5250.91686932
0.26500001 80709.63605282  4830.47194633
0.26600001 78896.23265034  4107.73254732
0.26700001 77122.93426129  3410.37631441
0.26800001 75388.00618742  3041.90619361
0.26900001 73690.60508546  3282.91661191
0.27000001 72031.45521228  3513.69455153
0.27100001 70409.14319832  3159.96249628
0.27200001 68824.14654474  4509.35829501
0.27300001 67274.63861961  4423.98044499
0.27400001 65759.77014820  3255.10877638
0.27500001 64282.43109735  2927.42205071
0.27600001 62837.81606825  2872.00251932
0.27700001 61429.26921420  3330.08084170
0.27800001 60053.26113408  3769.84364611
0.27900001 58711.42825576  3698.82015517
0.28000001 57401.83377369  3871.17985291
0.28100001 56124.77761262  3086.30166699
0.28200001 54880.18217165  3494.49576517
0.28300001 53667.06451316  3429.32558470
0.28400001 52485.08541977  2916.85876026
0.28500001 51333.83078706  2422.44358950
0.28600001 50212.04678776  4107.09456140
0.28700001 49120.58475631  2758.61217049
0.28800001 48057.66638105  2499.95992347
0.28900001 47025.01953396  2659.26498052
0.29000001 46019.47595659  2410.50026471
0.29100001 45043.09310613  2959.33135715
0.29200001 44093.43273038  2519.27839830
0.29300001 43171.06928689  1903.84424567
0.29400001 42275.08737977  2618.94178715
0.29500001 41406.68438693  2022.30256119
0.29600001 40562.62128734  2168.47783667
0.29700001 39743.94462226  2309.52073133
0.29800001 38950.80299291  2096.33231632
0.29900001 38182.35886023  2405.48872207
0.30000001 37437.53612928  2197.39628713
0.30100001 36717.52196031  1829.63420590
0.30200001 36019.57639805  1964.50778975
0.30300001 35345.23772955  2095.26579180
0.30400001 34693.96608973  1587.24902375
0.30500001 34063.70524411  1876.22897367
0.30600001 33455.70016191  2310.95259809
0.30700001 32869.35542500  1974.13358029
0.30800001 32303.70049728  1647.00424783
0.30900001 31758.71095498  1772.13615519
0.31000001 31234.77397067  1748.52272966
0.31100001 30728.91383000  1581.92455886
0.31200001 30243.85389981  1703.93880939
0.31300001 29777.17249117  1542.75537981
0.31400001 29330.64225492  1524.46020338
0.31500001 28901.74026441  1643.93106408
0.31600002 28490.70191579  1761.15282231
0.31700002 28097.07523293  1608.27666248
0.31800002 27721.22806739  1591.75299100
0.31900002 27362.64201266  1444.74756668
0.32000002 27020.25257922  1691.33279028
0.32100002 26694.57764856  1418.28297762
0.32200002 26385.18986556  1789.70751332
0.32300002 26090.70311633  1394.80905464
0.32400002 25811.81899372  1384.15885908
0.32500002 25547.51772572  1624.05577873
0.32600002 25298.51935835  1364.98167661
0.32700002 25063.52745191  1233.12560903
0.32800002 24843.48043712  1839.03872644
0.32900002 24635.81933088  1219.47311462
0.33000002 24443.28280527  1577.69176338
0.33100002 24261.52859029  1449.86901721
0.33200002 24094.89725772  1444.24821002
0.33300002 23939.64215109  1439.25135428
0.33400002 23797.35490303  1315.39885456
0.33500002 23666.54923849  1192.79413811
0.33600002 23547.43300626  1785.48419225
0.33700002 23438.95121586  1426.02585951
0.33800002 23342.99610893  1424.38969002
0.33900002 23256.55499985  1423.30123340
0.34000002 23181.48518821  1422.87962824
0.34100002 23116.52178077  1541.64091057
0.34200002 23062.47279776  1661.18999429
0.34300002 23016.80171273  1425.20042955
0.34400002 22981.46289375  1427.14891329
0.34500002 22954.98442274  1429.63649756
0.34600002 22938.79228835  1432.75703419
0.34700002 22929.19663076  1675.66576914
0.34800002 22929.80962014  1680.52582665
0.34900002 22938.26204155  1324.68469564
0.35000002 22954.72812420  1450.27979158
0.35100002 22979.18350262  1455.96113568
0.35200002 23010.37337022  1340.23926043
0.35300002 23049.32997752  1346.31142775
0.35400002 23095.89752370  2090.75622236
0.35500002 23148.99182274  1607.00308845
0.35600002 23208.40401320  1491.37211253
0.35700002 23274.41596172  1249.83619634
0.35800002 23347.24203025  1257.24904288
0.35900002 23425.65653805  1644.48116686
0.36000002 23510.54077725  1527.71501207
0.36100002 23600.31695137  1537.79672539
0.36200002 23696.62445151  1419.30938875
0.36300002 23796.41608766  1429.21281792
0.36400002 23902.04892079  1832.09213656
0.36500002 24012.14458769  1977.40020046
0.36600002 24127.44643515  1461.03758809
0.36700002 24246.74595872  1606.10452838
0.36800002 24371.70954623  1483.87160601
0.36900002 24499.86855466  1903.63987687
0.37000002 24630.97620011  1370.71389047
0.37100002 24766.46926738  1796.55976576
0.37200002 24905.88297861  1532.83264053
0.37300002 25048.07348844  1826.75608605
0.37400002 25194.60625175  1558.91633567
0.37500002 25343.08426420  1429.35002021
0.37600002 25495.47809053  2306.83096691
0.37700002 25649.50418123  1890.62504276
0.37800002 25807.06635056  1907.27132899
0.37900002 25966.77608648  1924.13819916
0.38000002 26129.01424715  2090.58252895
0.38100002 26292.85927823  2109.21327122
0.38200002 26458.90280804  1672.07044217
0.38300002 26626.77556997  3067.40469097
0.38400002 26796.85430306  1857.02209118
0.38500002 26967.35757676  1873.69209320
0.38600002 27140.66465928  1733.06722392
0.38700002 27314.24052305  1748.65776113
0.38800002 27488.97093666  2566.37044823
0.38900002 27664.80379466  1942.06931839
0.39000002 27842.50029262  2286.14780734
0.39100002 28019.92665086  1977.08611815
0.39200002 28198.61564385  2327.23185934
0.39300002 28377.48435633  1844.82034541
0.39400002 28557.66673372  2368.85856779
0.39500002 28737.23891893  2048.39048719
0.39600002 28917.12098140  2755.22341764
0.39700002 29096.76742535  2084.49251711
0.39800002 29277.47652236  2803.61128461
0.39900002 29457.16470535  2297.65895588
0.40000002 29636.70128671  2317.44196691
0.40100002 29815.66048997  2157.46129527
0.40200002 29995.42862709  1994.54612106
0.40300002 30173.62321964  2377.07814987
0.40400002 30351.16424900  2028.21664704
0.40500002 30528.15205146  2230.99745763
0.40600002 30704.58418423  2249.41794392
0.40700002 30880.01083022  2456.81377806
0.40800002 31054.72059649  2476.76935853
0.40900002 31227.51439329  2112.54144880
0.41000002 31400.16059094  3290.89398666
0.41100002 31571.16728386  2926.64734588
0.41200002 31740.25780397  2162.93997054
0.41300002 31908.58671074  1981.52332863
0.41400002 32075.15733545  2595.68223036
0.41500002 32240.86201978  2816.56183951
0.41600002 32403.60867332  3242.95330969
0.41700002 32565.58074311  2450.23441121
0.41800002 32726.64574231  2262.55676060
0.41900002 32883.92637744  2693.19369793
0.42000002 33040.15461266  2921.08020772
0.42100002 33195.04720731  2521.49590535
0.42200002 33347.74538864  2115.91454517
0.42300002 33497.81730095  2343.50740942
0.42400002 33645.90633955  3217.38994618
0.42500002 33792.26132401  2375.25816102
0.42600002 33935.09201476  2608.25129585
0.42700002 34076.87428678  3281.60314932
0.42800002 34215.85773291  2201.79054945
0.42900002 34353.01084110  3323.65395637
0.43000002 34487.74912731  2675.55970408
0.43100002 34618.57912187  3813.58285678
0.43200002 34747.89803981  2708.25130156
0.43300002 34874.32280241  2724.38222643
0.43400002 34998.51756042  2512.01871694
0.43500002 35119.67182143  2296.82664597
0.43600002 35238.96751081  2540.90587278
0.43700002 35354.60869394  2787.35748152
0.43800002 35466.88889028  3503.24211615
0.43900002 35577.46597237  2582.92415200
0.44000002 35684.40811870  2360.52370892
0.44100002 35789.32808618  2610.11582102
0.44200002 35890.99645133  3338.93955810
0.44300002 35989.95678218  2636.62435881
0.44400002 36085.59271524  2649.58477068
0.44500002 36177.33330879  3630.39556959
0.44600002 36267.01437693  3647.55514382
0.44700002 36353.78282648  3420.16405040
0.44800002 36436.61355667  3435.60845508
0.44900002 36517.67621338  2464.94326122
0.45000002 36595.29856121  2970.80647799
0.45100002 36668.67070141  2983.36318966
0.45200002 36739.81512024  2746.11761131
0.45300002 36807.27284842  2757.23293975
0.45400002 36872.18948817  2768.17975702
0.45500002 36933.85280875  3284.15834740
0.45600002 36991.99311598  3550.12174759
0.45700002 37047.00083710  3054.15489376
0.45800002 37098.22376627  3065.05539283
0.45900002 37146.53279687  3588.35523824
0.46000002 37192.36521300  3343.40782928
0.46100002 37233.83338885  3870.45716421
0.46200002 37272.75632223  3106.31165912
0.46300002 37308.07689098  3635.29918455
0.46400002 37339.72222841  2864.89032376
0.46500002 37369.11205084  2873.31116177
0.46600002 37394.38101558  2881.42416572
0.46700002 37416.35974039  4465.26858305
0.46800002 37435.89154365  3687.06113289
0.46900002 37451.30184436  3168.38028620
0.47000002 37463.29743745  2646.78208940
0.47100002 37472.46207483  2653.05044064
0.47200002 37478.14882392  2659.07478509
0.47300002 37481.15739720  3464.38354243
0.47400002 37479.53708184  2670.41714365
0.47500002 37475.82997424  2943.35182568
0.47600002 37469.23400829  3485.20096647
0.47700002 37458.18735608  4297.20345717
