# SAXS profile: number of points = 501, q_min = 0, q_max = 0.5, delta_q = 0.001
#    q    intensity    error
0.00000000 1664650.74656091 249.69761198
0.00100000 1664581.75120219 798.99925955
0.00200000 1664374.71173636 823.86550840
0.00300000 1664029.79889123 1497.62687235
0.00400000 1663546.89188914 1621.95828122
0.00500000 1662926.43197163 1646.29723281
0.00600000 1662168.13912147 2094.33194056
0.00700000 1661272.73489791 2192.88010120
0.00800000 1660239.56769831 2241.32351102
0.00900000 1659070.09639157 2737.46577607
0.01000000 1657763.45263971 5197.08864843
0.01100000 1656320.83669979 3875.79092663
0.01200000 1654741.80908905 3226.74666920
0.01300000 1653027.66854690 5554.17321128
0.01400000 1651177.67816017 5572.72491083
0.01500000 1649193.70266572 4749.67807518
0.01600000 1647074.55517233 4620.04433379
0.01700000 1644822.30735886 4885.12247200
0.01800000 1642436.60009704 7489.51123345
0.01900000 1639918.10021064 7871.60723620
0.02000000 1637267.52353064 6188.87151890
0.02100000 1634486.52480859 5393.80577642
0.02200000 1631573.18809024 7880.49885651
0.02300000 1628530.54688134 8207.79432989
0.02400000 1625358.38774862 6095.09423198
0.02500000 1622058.02893307 6958.62926193
0.02600000 1618629.81039929 7866.54123834
0.02700000 1615074.67907306 6783.31396279
0.02800000 1611392.58853111 8411.46969788
0.02900000 1607586.03959755 7234.13751034
0.03000000 1603655.33235845 8948.39716588
0.03100000 1599600.84202727 9213.70127403
0.03200000 1595423.50879356 11846.02009840
0.03300000 1591126.12618975 9737.69234119
0.03400000 1586706.69366008 14161.35789433
0.03500000 1582168.64967589 9398.08221306
0.03600000 1577511.70172956 10506.22841905
0.03700000 1572737.65492288 9861.06555242
0.03800000 1567847.75618452 11923.48273760
0.03900000 1562843.50723735 10314.76762544
0.04000000 1557723.78711146 10538.00190813
0.04100000 1552492.38054178 10758.77269600
0.04200000 1547149.58617806 14968.67294071
0.04300000 1541695.71325844 11192.71139780
0.04400000 1536134.50110540 11405.79920042
0.04500000 1530465.30247194 12672.25329328
0.04600000 1524688.52478353 12898.86551930
0.04700000 1518807.66976123 14216.04045012
0.04800000 1512822.59930068 13343.09594666
0.04900000 1506736.29954866 11300.52277263
0.05000000 1500547.99659533 17218.78906274
0.05100000 1494261.39585135 12820.76337365
0.05200000 1487874.54760038 17742.90480698
0.05300000 1481393.13059782 13199.21340895
0.05400000 1474815.12225245 14600.67039118
0.05500000 1468144.78617146 22198.35020245
0.05600000 1461380.58862859 14993.76553900
0.05700000 1454527.39796802 21512.46122012
0.05800000 1447584.03680037 12811.11932387
0.05900000 1440552.47110473 20743.95655277
0.06000000 1433435.20449284 18362.30582742
0.06100000 1426234.18426073 15916.77424016
0.06200000 1418949.78674482 17431.79894498
0.06300000 1411585.03906672 18971.70381208
0.06400000 1404138.06800715 15059.38148365
0.06500000 1396615.37924510 16591.79148156
0.06600000 1389014.48794006 16751.51550834
0.06700000 1381338.86275908 16907.58847143
0.06800000 1373590.94792995 18481.66706951
0.06900000 1365771.91298386 14340.60575774
0.07000000 1357881.16031102 15907.57853797
0.07100000 1349923.57699663 16037.09284586
0.07200000 1341898.03789187 19101.91946425
0.07300000 1333809.52412552 19246.87233495
0.07400000 1325657.05058111 17896.37102154
0.07500000 1317443.19783785 16520.73847525
0.07600000 1309168.37428241 16632.98497502
0.07700000 1300837.71369666 22829.70294583
0.07800000 1292449.32641662 16847.07775990
0.07900000 1284005.70550075 23112.10378306
0.08000000 1275510.62872913 20146.69132588
0.08100000 1266964.05554646 18700.39033725
0.08200000 1258367.61583972 17233.34530760
0.08300000 1249723.50257545 20470.47193291
0.08400000 1241032.91520452 15823.17041158
0.08500000 1232299.42722950 27024.32770780
0.08600000 1223522.52510494 20757.06061298
0.08700000 1214705.80793718 20844.35264301
0.08800000 1205847.61220773 16098.06637900
0.08900000 1196954.59031030 21006.55404662
0.09000000 1188024.76024807 17838.19261308
0.09100000 1179061.38461879 16271.04787217
0.09200000 1170065.19207561 22851.37427495
0.09300000 1161039.85163198 19644.79521276
0.09400000 1151983.22205809 16415.76168583
0.09500000 1142900.29042257 19749.31794677
0.09600000 1133791.84569602 24745.00819552
0.09700000 1124660.61998063 23145.51664734
0.09800000 1115507.48997708 21534.87310653
0.09900000 1106334.83644050 21573.53032503
0.10000000 1097142.03183462 19946.04307676
0.10100000 1087931.62821153 19974.42563340
0.10200000 1078706.04173799 26665.61460602
0.10300000 1069466.61467812 20020.41596855
0.10400000 1060215.73090039 16698.39854726
0.10500000 1050955.93671447 21723.26023395
0.10600001 1041683.58710402 21734.72906762
0.10700001 1032406.94705638 21742.49132816
0.10800001 1023122.45103445 25092.07929250
0.10900001 1013834.90745505 20073.93211240
0.11000001 1004544.03336128 23415.92251983
0.11100001 995252.32276080 18392.26379041
0.11200001 985962.07743323 23396.88119895
0.11300001 976672.30260919 18371.20687701
0.11400001 967386.94759643 18356.16819493
0.11500001 958106.94800981 25006.59252057
0.11600001 948832.66165732 18317.21539588
0.11700001 939567.84627800 21619.45716102
0.11800001 930310.05967856 16606.03534738
0.11900001 921064.32564302 18237.07450673
0.12000001 911830.07282398 18204.68826146
0.12100001 902610.67566683 21473.10898567
0.12200001 893405.57664016 19780.00039867
0.12300001 884217.29716688 19735.73100260
0.12400001 875045.85202218 22969.95469787
0.12500001 865893.94896300 19638.47568786
0.12600001 856763.64972638 21217.75278533
0.12700001 847654.62737996 22784.95745775
0.12800001 838567.58627558 19471.54027100
0.12900001 829505.88543967 17792.90208130
0.13000001 820469.00711165 17734.43842463
0.13100001 811458.33413977 20886.93850532
0.13200001 802476.72874732 22413.17609048
0.13300001 793525.07562300 20734.81120353
0.13400001 784601.89058608 17477.00793677
0.13500001 775711.66905879 17406.97067439
0.13600001 766852.85579652 17334.70962262
0.13700001 758028.43316347 17260.30823701
0.13800001 749237.49083694 15621.60242060
0.13900001 740485.00223665 18660.22293635
0.14000001 731767.87141647 23215.33681554
0.14100001 723089.30555021 21562.52410846
0.14200001 714448.66846492 21454.89452593
0.14300001 705850.54190092 22869.55863629
0.14400001 697289.08148422 18199.24588519
0.14500001 688773.65765652 21117.80133992
0.14600001 680298.44989149 16500.63968052
0.14700001 671870.00378878 16407.06626655
0.14800001 663483.95907695 14828.86718498
0.14900001 655142.93887456 19162.93186620
0.15000001 646849.11994351 21976.69988701
0.15100001 638602.37369836 26208.24265322
0.15200001 630404.53085641 15914.56313243
0.15300001 622255.47357227 17248.92254138
0.15400001 614154.01151537 15706.98958573
0.15500001 606104.60844424 19855.98790970
0.15600001 598104.33206078 14085.35768479
0.15700001 590159.59981340 15385.46149328
0.15800001 582262.36149159 15275.65377472
0.15900001 574421.66664926 17921.95684538
0.16000001 566631.86014553 21894.65610950
0.16100001 558899.67144615 14939.38892296
0.16200001 551220.05340258 22911.46260124
0.16300001 543597.02676997 14709.73623881
0.16400001 536029.77319959 15920.08501561
0.16500001 528519.56336294 15792.16529885
0.16600001 521066.02410926 19579.05678029
0.16700001 513669.59313032 12944.47435805
0.16800001 506330.04045790 17969.65398431
0.16900001 499051.47354813 17816.13844691
0.17000001 491830.71910055 18923.18781094
0.17100001 484669.25554759 17506.25433705
0.17200001 477568.03343975 13632.18015829
0.17300001 470526.82428136 14736.90083243
0.17400001 463546.67678157 13384.91092418
0.17500001 456626.83598054 14465.93884705
0.17600001 449766.30165082 11941.29587281
0.17700001 442969.88048178 14192.75564097
0.17800001 436233.74080744 15226.73944207
0.17900001 429559.73222442 17397.16997682
0.18000001 422948.73852712 11483.05879341
0.18100001 416401.09366853 12504.52543354
0.18200001 409913.27207448 12377.33183497
0.18300001 403490.87561621 13363.61843170
0.18400001 397130.14062736 16530.54288453
0.18500001 390833.45525441 14175.53009176
0.18600001 384599.89729066 12945.63315440
0.18700001 378428.98862506 16007.54697511
0.18800001 372321.85323331 14777.45505301
0.18900001 366279.98637243 11482.87811531
0.19000001 360297.79121438 11354.78542662
0.19100001 354384.51548336 12247.52943380
0.19200001 348531.12405348 10089.97651811
0.19300001 342744.01971341 9973.85144495
0.19400001 337019.72720331 12815.17573247
0.19500001 331359.71522417 11690.37130554
0.19600001 325762.44276976 14439.42095812
0.19700001 320229.79479986 12364.07296152
0.19800001 314760.64705344 11274.72691028
0.19900001 309356.01414270 13921.02129433
0.20000001 304012.93828991 17415.38199301
0.20100001 298735.21519341 10862.01293780
0.20200001 293519.71536243 9831.44333073
0.20300001 288368.25496173 11471.28972456
0.20400001 283279.63968512 12195.18906486
0.20500001 278253.43832784 11177.44114595
0.20600001 273290.39160139 8485.66706032
0.20700001 268390.06935377 8373.77055966
0.20800001 263551.90595652 9914.82317076
0.20900001 258778.09387584 8966.66137666
0.21000001 254064.09876500 8845.24201664
0.21100001 249412.06305741 9517.56477620
0.21200001 244821.54956100 9386.45865391
0.21300001 240292.43878923 8484.72641477
0.21400001 235825.36150123 15971.27336274
0.21500001 231419.70868047 9747.39859045
0.21600001 227072.79952846 10347.70796374
0.21700001 222787.34287945 10199.20503924
0.21800001 218561.71266062 8615.70312044
0.21900001 214394.72611945 8490.03155575
0.22000001 210287.08616275 9759.42413026
0.22100001 206240.69727768 7554.59709849
0.22200001 202252.11155090 10824.53352204
0.22300001 198321.51109641 9995.40463190
0.22400001 194447.54938151 6562.60510195
0.22500001 190634.66371442 7108.76694606
0.22600001 186876.88954273 10181.05342373
0.22700001 183177.34685135 6264.66555857
0.22800001 179533.75762855 10483.87427250
0.22900001 175946.02588633 6677.15199816
0.23000001 172414.29310539 5974.15553863
0.23100001 168939.86986479 7054.92929920
0.23200001 165518.32491919 6363.35230246
0.23300001 162152.65554037 7399.02602224
0.23400001 158841.22110508 10078.47595578
0.23500001 155582.61651020 6609.14986194
0.23600001 152378.09882001 8125.56250389
0.23700001 149226.72036920 6392.87300299
0.23800001 146127.64896944 7334.14704867
0.23900001 143081.09235990 6181.10348231
0.24000001 140085.62338619 5064.09552494
0.24100001 137143.04799061 6471.78074080
0.24200001 134250.48430236 5382.77342272
0.24300001 131408.29884063 6252.40715459
0.24400001 128615.46067699 6617.26576485
0.24500001 125872.59395352 6967.04840490
0.24600001 123178.91113018 5476.53464792
0.24700001 120534.43919226 5380.65762008
0.24800001 117936.99212459 6166.92560993
0.24900001 115387.24788073 4327.02200023
0.25000001 112885.14554667 6375.18889635
0.25100001 110428.97951088 5426.48030989
0.25200001 108020.22134664 7378.86166928
0.25300001 105657.42693997 6038.32223530
0.25400001 103338.83301212 3952.71054972
0.25500001 101065.46212914 4269.00532231
0.25600001 98836.73812438  4191.17207846
0.25700001 96651.62974143  5236.58554715
0.25800001 94509.66027756  4773.21061816
0.25900001 92411.18517239  5766.45822760
0.26000001 90355.44415093  4952.38212824
0.26100001 88339.58186127  5207.61859713
0.26200001 86367.79378389  4088.65155119
0.26300001 84435.43104682  4346.73619597
0.26400001 82543.49684561  3937.32498584
0.26500001 80692.51807455  3541.59478588
0.26600001 78880.01077258  4738.71687140
0.26700001 77107.65587515  3409.70070415
0.26800001 75373.66357016  3041.32746897
0.26900001 73677.27002983  3580.71549289
0.27000001 72019.02197599  3513.08805824
0.27100001 70397.65075120  3733.89157254
0.27200001 68813.54316990  2817.91472616
0.27300001 67264.99837133  3870.42818945
0.27400001 65751.14320426  4068.35217830
0.27500001 64274.72681673  3459.26596099
0.27600001 62831.05866954  4699.13510029
0.27700001 61423.45108313  2561.35803139
0.27800001 60048.40544965  3769.53883050
0.27900001 58707.52850375  2958.85957663
0.28000001 57398.89330420  2903.23616073
0.28100001 56122.75860344  3086.19064167
0.28200001 54879.12063588  3494.42817188
0.28300001 53666.95655628  2514.83370325
0.28400001 52485.93074690  2468.15101019
0.28500001 51335.61633634  3743.90667661
0.28600001 50214.77459705  2377.92076360
0.28700001 49124.30140832  2971.03788980
0.28800001 48062.26692094  2708.54918053
0.28900001 47030.57402721  2045.83006702
0.29000001 46025.97291930  3214.45410084
0.29100001 45050.54292265  3157.14219746
0.29200001 44101.81083472  2519.75708132
0.29300001 43180.33908544  2475.52895695
0.29400001 42285.31529668  2245.35034854
0.29500001 41417.86844767  2206.74413535
0.29600001 40574.68091903  1988.36233256
0.29700001 39756.93716121  1777.13517523
0.29800001 38964.73316199  2446.59571106
0.29900001 38197.21066048  2578.31184164
0.30000001 37453.31861208  1860.11915693
0.30100001 36734.16860114  2496.08687461
0.30200001 36037.13066533  2620.62026604
0.30300001 35363.69602305  1773.84307649
0.30400001 34713.29110153  1905.75977170
0.30500001 34084.00198466  1720.90134168
0.30600001 33476.80171324  1849.92815025
0.30700001 32891.35383778  2127.41286695
0.30800001 32326.50248871  2397.33353806
0.30900001 31782.41714859  1477.88246738
0.31000001 31259.33062828  1458.24784285
0.31100001 30754.33967436  1583.23348139
0.31200001 30270.08917371  1705.41690479
0.31300001 29804.27693471  1544.15966110
0.31400001 29358.51547722  1664.62790637
0.31500001 28930.46329258  1508.43442750
0.31600002 28520.25332306  1491.75192069
0.31700002 28127.42692787  1744.18182638
0.31800002 27752.35785978  2257.51565699
0.31900002 27394.57089747  1446.43341187
0.32000002 27052.93873643  1432.85896802
0.32100002 26728.10130879  1420.06408978
0.32200002 26419.45715029  1792.03186336
0.32300002 26125.75121696  1523.65388312
0.32400002 25847.55483759  1638.08886540
0.32500002 25584.01144518  2001.69315025
0.32600002 25335.73874768  1366.98984886
0.32700002 25101.49881527  1358.49318021
0.32800002 24882.15955255  1227.93463206
0.32900002 24675.21328677  1465.70773864
0.33000002 24483.35999115  1337.15876924
0.33100002 24302.29495365  1331.27978060
0.33200002 24136.33692169  1567.29311223
0.33300002 23981.72009828  1441.78108058
0.33400002 23840.10212308  1677.15126378
0.33500002 23709.97780210  1314.48123160
0.33600002 23591.45501065  1431.05772872
0.33700002 23483.59837118  1190.61849380
0.33800002 23388.22404178  1665.00774838
0.33900002 23302.40972989  1663.79213351
0.34000002 23227.91380350  1425.72941678
0.34100002 23163.53139342  1188.28921676
0.34200002 23110.07332913  1545.71732782
0.34300002 23064.98622420  1190.15334553
0.34400002 23030.15593897  1430.17275154
0.34500002 23004.21920289  1671.48664644
0.34600002 22988.52538114  1675.17392386
0.34700002 22979.45314135  1199.52751079
0.34800002 22980.59450372  1443.64101510
0.34900002 22989.52567409  1448.34018606
0.35000002 23006.44008550  1453.54695345
0.35100002 23031.38381131  1216.05712283
0.35200002 23063.01494473  1587.54270891
0.35300002 23102.41783377  1472.08613409
0.35400002 23149.40276513  1355.97633119
0.35500002 23202.92198263  1239.03609256
0.35600002 23262.70576413  1619.43333847
0.35700002 23329.12396319  1753.88362263
0.35800002 23402.30036127  2142.36368805
0.35900002 23481.07205056  1775.16913110
0.36000002 23566.29409961  1914.17232891
0.36100002 23656.42075460  1412.99807860
0.36200002 23753.06166602  1810.69597657
0.36300002 23853.15651878  2214.05009295
0.36400002 23959.08269139  1836.46377528
0.36500002 24069.46306439  2510.68581117
0.36600002 24185.02894072  1331.38590625
0.36700002 24304.58743420  1609.93594790
0.36800002 24429.77079131  1487.40666509
0.36900002 24558.17310304  1499.27653896
0.37000002 24689.49558183  1511.36754363
0.37100002 24825.18935356  2077.86844732
0.37200002 24964.79635893  1536.45846469
0.37300002 25107.15729378  1831.06506817
0.37400002 25253.85300558  1562.58222874
0.37500002 25402.47569769  1862.50960638
0.37600002 25554.97919304  1878.67438437
0.37700002 25709.17746547  2040.79460389
0.37800002 25866.80379927  1617.58065222
0.37900002 26026.58195996  2225.27286299
0.38000002 26188.92131614  1796.03630894
0.38100002 26352.84939994  1963.02384480
0.38200002 26518.92386723  2132.91714768
0.38300002 26686.87716115  2152.02987622
0.38400002 26856.94622440  1550.98871794
0.38500002 27027.46476265  2347.33542584
0.38600002 27200.73841809  1579.00293998
0.38700002 27374.34729158  2230.46192299
0.38800002 27549.03519111  1928.98353547
0.38900002 27724.81093466  1784.09166817
0.39000002 27902.42731113  1636.47743933
0.39100002 28079.78069055  1816.20030111
0.39200002 28258.37719185  1998.99769726
0.39300002 28437.13553537  2520.95218465
0.39400002 28617.23979493  2712.91446109
0.39500002 28796.68762732  1881.57565871
0.39600002 28976.44498984  2760.87580944
0.39700002 29155.90180473  1914.66816223
0.39800002 29336.43714079  1931.36443067
0.39900002 29515.96966811  2125.14991679
0.40000002 29695.30283016  2500.64156981
0.40100002 29874.05425856  1981.54611285
0.40200002 30053.59229755  1816.73974046
0.40300002 30231.58147024  2748.05088585
0.40400002 30408.88000282  2032.07350247
0.40500002 30585.59237200  2607.72772919
0.40600002 30761.76360767  2629.20806012
0.40700002 30936.91440257  2650.67495160
0.40800002 31111.34536768  3053.88980599
0.40900002 31283.77689167  2308.74284400
0.41000002 31456.11482618  2714.97739929
0.41100002 31626.78697148  2345.44263294
0.41200002 31795.55670985  2363.68179781
0.41300002 31963.51868581  2778.90844622
0.41400002 32129.69935037  2000.07387933
0.41500002 32295.02532606  3022.81451375
0.41600002 32457.37270173  2639.27138630
0.41700002 32618.96412234  2045.20914738
0.41800002 32779.62086997  2266.21919623
0.41900002 32936.43375947  2074.99542517
0.42000002 33092.21283551  2298.75067354
0.42100002 33246.65097810  2314.96441730
0.42200002 33398.93150947  3178.74345704
0.42300002 33548.48275047  2347.05196444
0.42400002 33696.12594574  2148.12813083
0.42500002 33841.98488906  2595.00352426
0.42600002 33984.30901520  2829.70362424
0.42700002 34125.56999330  2848.12020660
0.42800002 34264.01319161  2645.86722404
0.42900002 34400.65432123  2662.61077064
0.43000002 34534.84251179  3349.01651128
0.43100002 34665.10172773  2470.92856824
0.43200002 34793.86573640  2485.84785534
0.43300002 34919.67679914  2500.59817408
0.43400002 35043.32297600  2286.57693254
0.43500002 35163.83980146  3909.51589439
0.43600002 35282.55013900  2775.32552545
0.43700002 35397.57387118  3023.30692761
0.43800002 35509.23502619  2572.11156101
0.43900002 35619.18128094  2585.95268354
0.44000002 35725.46844392  4253.83172921
0.44100002 35829.76046789  3800.82117055
0.44200002 35930.76891649  2865.11964918
0.44300002 36029.03875645  2879.44091387
0.44400002 36124.00966754  2411.27775958
0.44500002 36215.05535467  3634.18097707
0.44600002 36304.04236807  2677.60477175
0.44700002 36390.14630251  2934.50153690
0.44800002 36472.24552102  3193.32760793
0.44900002 36552.59565693  3207.49042091
0.45000002 36629.52390588  3964.77985547
0.45100002 36702.13442189  3234.92628126
0.45200002 36772.55003387  2748.56438254
0.45300002 36839.26506776  3010.50488401
0.45400002 36903.42598801  3274.25662596
0.45500002 36964.35901666  2781.19850422
0.45600002 37021.76617298  2537.84219144
0.45700002 37076.01045672  3311.25865082
0.45800002 37126.44875951  2811.77173006
0.45900002 37173.99665219  3078.00706868
0.46000002 37219.05435940  3088.43727712
0.46100002 37259.75223481  2582.10095225
0.46200002 37297.87594066  3108.40512822
0.46300002 37332.36610661  3377.83264542
0.46400002 37363.23942088  3387.91189506
0.46500002 37391.83572026  3659.16521701
0.46600002 37416.30825130  2621.01251723
0.46700002 37437.46422600  2890.92112455
0.46800002 37456.20769372  2898.54876976
0.46900002 37470.79594114  4755.04423030
0.47000002 37481.96349322  3177.72101557
0.47100002 37490.31720976  3981.47187639
0.47200002 37495.18275965  3458.36834575
0.47300002 37497.36229660  3732.48761991
0.47400002 37494.90345332  3472.96559697
0.47500002 37490.35673212  3212.17391706
0.47600002 37482.90837368  4022.85333188
0.47700002 37471.06844140  4030.01360189
