# SAXS profile: number of points = 501, q_min = 0, q_max = 0.5, delta_q = 0.001
#    q    intensity    error
0.00000000 1682732.95097189 252.40994265
0.00100000 1682663.50126408 555.27896860
0.00200000 1682455.09554329 757.10481697
0.00300000 1682107.90886651 1312.04421565
0.00400000 1681621.81530090 1765.70297316
0.00500000 1680997.26478514 1966.76687765
0.00600000 1680233.98200948 2293.51947882
0.00700000 1679332.62379051 2821.27892522
0.00800000 1678292.69635631 3625.11237718
0.00900000 1677115.51251808 3018.80805158
0.01000000 1675800.19957319 3041.57749356
0.01100000 1674348.08685576 3616.59202507
0.01200000 1672758.58824474 4240.44320712
0.01300000 1671033.09398779 3860.08661736
0.01400000 1669170.90436391 5633.45205196
0.01500000 1667173.76517362 5201.58237896
0.01600000 1665040.53460065 4245.85355304
0.01700000 1662773.30120071 6734.23217195
0.01800000 1660371.77367946 5678.47172150
0.01900000 1657836.53198426 7460.26473056
0.02000000 1655168.32528779 6256.53655261
0.02100000 1652368.68667348 5998.09860457
0.02200000 1649435.93179723 5690.55422324
0.02300000 1646372.95421536 7705.02577645
0.02400000 1643179.51834227 6778.11582223
0.02500000 1639857.10273967 8953.62018988
0.02600000 1636405.89520987 7290.18859660
0.02700000 1632826.90266142 10286.80995791
0.02800000 1629119.94487059 8504.00650221
0.02900000 1625287.77962368 8045.17487853
0.03000000 1621330.51061250 9800.94338716
0.03100000 1617248.60830258 8539.07304475
0.03200000 1613042.95429084 8783.01929064
0.03300000 1608716.34974458 11486.23526670
0.03400000 1604266.91370528 10949.12219124
0.03500000 1599697.93350058 9502.20616379
0.03600000 1595009.20251300 8852.30148305
0.03700000 1590202.57515809 12689.81713663
0.03800000 1585279.18429215 11128.66038876
0.03900000 1580240.49112957 10429.58772445
0.04000000 1575085.45739599 12592.80881542
0.04100000 1569817.92260213 11867.82404514
0.04200000 1564438.32264383 14126.87870886
0.04300000 1558946.75730323 10289.04907580
0.04400000 1553346.62995978 12582.10828701
0.04500000 1547638.06235690 14950.18437703
0.04600000 1541820.93016979 10869.83806300
0.04700000 1535898.81544491 12164.31918406
0.04800000 1529871.83060491 12369.01432595
0.04900000 1523742.58570355 14856.49090214
0.05000000 1517510.73901208 15091.64500223
0.05100000 1511179.56450066 12965.92126742
0.05200000 1504747.57426410 15551.56690474
0.05300000 1498219.84329560 13349.13942607
0.05400000 1491594.98162104 14766.79100668
0.05500000 1484876.93893658 13720.26355581
0.05600000 1478064.07574106 17692.42781222
0.05700000 1471161.64487693 15358.92828945
0.05800000 1464168.10442879 12957.88832923
0.05900000 1457085.51076913 18359.27829318
0.06000000 1449916.66233550 17246.75950423
0.06100000 1442663.08171270 13416.76728691
0.06200000 1435325.28286252 14920.20701278
0.06300000 1427906.49187433 20561.85444437
0.06400000 1420404.66311303 15233.84072432
0.06500000 1412826.16498156 15385.67765636
0.06600000 1405169.10874696 15534.14522402
0.06700000 1397436.32556295 14253.85118781
0.06800000 1389630.59689177 17259.21282128
0.06900000 1381752.94594768 14508.40661172
0.07000000 1373802.84861530 21946.50153435
0.07100000 1365785.18272586 20650.67293005
0.07200000 1357698.75365099 16353.48225383
0.07300000 1349548.51566629 20971.98491611
0.07400000 1341333.98591762 19617.01046338
0.07500000 1333057.07371922 16716.53648798
0.07600000 1324718.42844742 19890.64813562
0.07700000 1316323.24008117 15400.98263108
0.07800000 1307869.94080709 15498.25952537
0.07900000 1299360.43792377 17151.55858507
0.08000000 1290799.03127581 17251.52986229
0.08100000 1282185.66387289 17347.97284614
0.08200000 1273520.92409710 17440.86987393
0.08300000 1264808.57151880 17530.24762398
0.08400000 1256048.56791745 22420.46798971
0.08500000 1247245.46785543 20916.30747785
0.08600000 1238398.13954633 19393.31577584
0.08700000 1229510.16764830 17852.48847257
0.08800000 1220580.55379705 22812.65162184
0.08900000 1211614.84117931 22899.52157387
0.09000000 1202612.18878200 19698.78857761
0.09100000 1193575.23884534 21412.74079088
0.09200000 1184504.83647582 24785.76486786
0.09300000 1175404.72494156 26517.13184078
0.09400000 1166272.84683670 21605.20550304
0.09500000 1157113.86173350 21661.17250978
0.09600000 1147928.55406637 28394.01411957
0.09700000 1138720.51349950 16739.19233540
0.09800000 1129489.80395453 16772.92437735
0.09900000 1120238.71612701 18483.93968526
0.10000000 1110966.91641534 20197.37949026
0.10100000 1101677.32799729 20226.79669333
0.10200000 1092372.26529778 21940.29798050
0.10300000 1083052.30704523 21964.30182009
0.10400000 1073720.51214393 23675.53840659
0.10500000 1064379.17906687 18615.99271775
0.10600001 1055025.30861426 20319.78840003
0.10700001 1045665.98747261 18633.76877362
0.10800001 1036298.67518386 22026.52937764
0.10900001 1026927.77244597 23722.03265999
0.11000001 1017553.36448388 18636.49074773
0.11100001 1008177.36520799 18631.11858607
0.11200001 998802.52169196 18622.67389365
0.11300001 989427.20891982 23686.88849674
0.11400001 980056.53443004 23668.36642090
0.11500001 970690.27546227 25335.01738254
0.11600001 961329.88067741 21932.74226050
0.11700001 951978.22698740 20220.01849347
0.11800001 942633.33608228 28604.20993063
0.11900001 933299.93084722 18479.33950118
0.12000001 923977.80746585 18447.21779501
0.12100001 914670.44856433 30129.24599504
0.12200001 905376.49076083 25056.29556224
0.12300001 896099.24670774 20000.93612885
0.12400001 886838.74710715 23279.51820843
0.12500001 877596.98227966 19903.90049598
0.12600001 868376.94784356 16542.58163596
0.12700001 859177.80531425 18145.83610338
0.12800001 850000.20930084 19737.00579016
0.12900001 840847.46340791 19675.83157111
0.13000001 831719.84157927 17977.62522311
0.13100001 822617.48629496 19545.39239569
0.13200001 813544.15433461 21099.26863729
0.13300001 804500.71796437 22638.65127077
0.13400001 795485.54750604 28995.44957360
0.13500001 786502.84111943 17649.12458684
0.13600001 777551.39869964 19174.41839602
0.13700001 768634.63128535 19092.88514142
0.13800001 759750.75019626 19008.96466629
0.13900001 750905.03943966 20499.70854343
0.14000001 742094.74985802 20403.89610961
0.14100001 733322.67733231 20305.70589301
0.14200001 724588.16349403 24867.86694402
0.14300001 715896.59593554 21648.71408221
0.14400001 707241.59258879 26150.25911948
0.14500001 698631.88416134 18360.04678184
0.14600001 690062.90920395 19780.65422547
0.14700001 681540.07861462 16643.20950494
0.14800001 673059.68537343 18051.46161336
0.14900001 664624.32905562 16449.45292022
0.15000001 656236.28892797 16350.12791009
0.15100001 647895.05175726 22158.01181562
0.15200001 639602.96121954 19082.55524843
0.15300001 631359.13991025 21876.59523023
0.15400001 623163.22878055 18835.10947874
0.15500001 615019.37672476 20148.03573235
0.15600001 606924.73532425 20010.30946803
0.15700001 598885.21746228 15612.93835612
0.15800001 590893.68513774 16911.37806684
0.15900001 582958.21404215 19587.39691635
0.16000001 575073.95603550 18054.44770195
0.16100001 567247.61492208 13784.11769328
0.16200001 559473.55205002 16414.95479203
0.16300001 551756.55984952 17645.17561698
0.16400001 544095.11260328 17506.26107447
0.16500001 536490.84881768 20037.93414936
0.16600001 528943.09614189 18550.03525750
0.16700001 521452.87453711 24967.16481165
0.16800001 514019.89591601 14333.44547439
0.16900001 506647.67006356 15503.41943599
0.17000001 499333.61719580 14088.69867444
0.17100001 492079.19315466 13965.20816118
0.17200001 484884.69886800 18874.13779473
0.17300001 477750.27324381 12469.28272052
0.17400001 470677.64904663 13590.81775806
0.17500001 463665.43813017 13464.84495921
0.17600001 456712.66500581 12125.72182859
0.17700001 449824.17014349 16814.42827412
0.17800001 442996.50956702 17841.68526551
0.17900001 436230.82503612 20022.99581492
0.18000001 429528.61943651 12827.87282540
0.18100001 422889.98248630 13853.87648066
0.18200001 416311.27190863 13713.29394446
0.18300001 409798.58941994 11310.44160229
0.18400001 403347.49133993 13431.47209613
0.18500001 396961.09330747 12182.73652914
0.18600001 390638.00734049 10957.39662357
0.18700001 384378.17145181 10839.46494705
0.18800001 378181.71020656 16082.17798635
0.18900001 372051.59764108 13784.51234389
0.19000001 365981.15163405 11533.89653871
0.19100001 359979.89423317 12440.90573253
0.19200001 354039.30359640 12299.32598810
0.19300001 348165.23630995 11144.76974090
0.19400001 342354.30865850 14019.40960204
0.19500001 336608.02413444 10885.90401492
0.19600001 330925.04942377 20535.55491243
0.19700001 325306.78292377 12560.09548225
0.19800001 319752.70930762 11453.54258868
0.19900001 314263.70059931 10370.70260990
0.20000001 308836.58191178 12104.85040012
0.20100001 303475.36442761 11034.36477210
0.20200001 298176.47577454 9987.42152811
0.20300001 292942.30882409 11653.24559581
0.20400001 287771.63836622 10618.77395762
0.20500001 282663.69239485 13101.46276177
0.20600001 277619.76086254 11206.12217691
0.20700001 272638.60330250 8506.32482512
0.20800001 267720.04405369 10071.62853339
0.20900001 262866.76244686 15732.57647614
0.21000001 258073.53564459 11435.23890498
0.21100001 253343.04947885 10473.20216056
0.21200001 248674.63772298 7945.15505085
0.21300001 244068.00947415 9401.50016940
0.21400001 239523.82098766 7724.64359205
0.21500001 235041.78459733 9138.42501719
0.21600001 230619.20134729 11259.98303814
0.21700001 226258.42119294 10358.11101194
0.21800001 221958.34103665 9478.73140213
0.21900001 217717.36780424 10777.01021586
0.22000001 213536.23285740 7786.59909932
0.22100001 209417.12218250 8368.30859810
0.22200001 205356.22419763 8242.99922906
0.22300001 201354.17141601 11501.35081513
0.22400001 197409.35797645 10660.10583481
0.22500001 193525.84502691 11152.89497629
0.22600001 189698.51888961 7105.15836100
0.22700001 185929.98551909 7630.56696655
0.22800001 182217.99303493 6885.10719242
0.22900001 178562.43475485 6776.44471941
0.23000001 174963.89840039 7274.99923954
0.23100001 171422.82094970 8948.27167676
0.23200001 167935.47834320 7630.14881938
0.23300001 164504.88925478 6351.53407452
0.23400001 161129.09059979 7383.74092595
0.23500001 157806.47625488 8938.15923782
0.23600001 154539.25244024 6592.64482091
0.23700001 151325.26251095 8643.69940345
0.23800001 148164.65437833 5311.70311070
0.23900001 145056.99575088 7310.87293165
0.24000001 142001.57460895 7186.70003089
0.24100001 138999.20343896 9082.20838230
0.24200001 136047.75079360 6942.51705139
0.24300001 133147.40753663 5360.51488099
0.24400001 130297.28302666 7661.48060438
0.24500001 127497.64773209 5645.59610864
0.24600001 124747.78884486 5084.09637488
0.24700001 122048.03829251 6810.28085889
0.24800001 119396.06221576 4905.38744819
0.24900001 116792.38911462 4817.68627889
0.25000001 114237.10052197 5591.33514956
0.25100001 111728.57926476 6757.34479362
0.25200001 109268.32676166 4146.73319679
0.25300001 106854.47140773 4885.38666389
0.25400001 104485.85300351 4396.24247311
0.25500001 102162.92526836 4315.36216750
0.25600001 99885.34265016  5005.75418375
0.25700001 97652.25246303  3779.14234912
0.25800001 95463.20904731  5563.11877045
0.25900001 93318.07939714  4731.22684929
0.26000001 91216.52368927  4999.57789997
0.26100001 89155.55553391  4554.95754775
0.26200001 87139.40613359  4125.17968155
0.26300001 85163.49386703  4721.46432340
0.26400001 83228.63653613  4631.67384240
0.26500001 81335.46846882  3569.81388002
0.26600001 79481.57928097  3183.23740083
0.26700001 77668.62228774  3746.73451646
0.26800001 75894.75650148  3981.05964067
0.26900001 74159.10933191  3904.47729109
0.27000001 72462.36570695  3534.71436646
0.27100001 70803.46702325  4044.29422776
0.27200001 69182.18227816  3116.31154819
0.27300001 67597.33140091  3611.72558767
0.27400001 66047.91276406  3814.26714263
0.27500001 64536.78015314  4809.28108461
0.27600001 63058.81801908  3144.11281523
0.27700001 61617.71460101  3597.24234865
0.27800001 60210.08108911  3779.68801925
0.27900001 58837.22984235  3953.86203253
0.28000001 57497.53664539  3150.57766960
0.28100001 56190.84004506  3327.62170496
0.28200001 54917.36180142  3263.73896633
0.28300001 53675.99676830  2515.25732761
0.28400001 52466.50461297  2691.53181404
0.28500001 51288.47475721  3520.44107396
0.28600001 50140.66914987  2374.41149998
0.28700001 49023.62298151  2753.16679696
0.28800001 47936.05229479  2078.02796534
0.28900001 46879.34550087  2447.10195098
0.29000001 45850.43667659  2401.64598680
0.29100001 44851.30061620  2553.83317797
0.29200001 43879.69730201  2314.21534525
0.29300001 42935.89138812  1893.47289985
0.29400001 42019.21596152  2789.02559147
0.29500001 41130.57513362  2191.43714686
0.29600001 40267.26360562  2690.86001782
0.29700001 39429.75528987  1938.76115938
0.29800001 38618.51608720  1732.04052850
0.29900001 37832.43413171  2383.44346313
0.30000001 37070.89418898  2008.50114224
0.30100001 36334.63236230  2139.74660111
0.30200001 35621.12727541  2104.67440470
0.30300001 34931.63559253  1911.45919011
0.30400001 34266.04508329  2037.97312781
0.30500001 33622.06681494  1697.57823385
0.30600001 33000.74043764  1823.62100292
0.30700001 32401.75310556  1646.65717078
0.30800001 31824.15213948  1622.55447365
0.30900001 31267.67666628  1599.34173720
0.31000001 30732.77338526  1720.42073556
0.31100001 30216.70150371  1838.38420652
0.31200001 29721.85083020  1814.07325131
0.31300001 29245.92831447  1652.97994660
0.31400001 28790.90322605  1496.40726602
0.31500001 28353.66243020  1478.36002911
0.31600002 27935.24719698  1992.48160066
0.31700002 27534.48373466  1313.39493633
0.31800002 27152.11667209  1818.92038199
0.31900002 26787.52357086  1542.96143074
0.32000002 26439.73966234  1400.38087752
0.32100002 26109.18661493  1513.28852786
0.32200002 25795.16077123  1624.70827811
0.32300002 25496.62004474  1486.96295142
0.32400002 25214.21820226  1352.11251512
0.32500002 24946.86366155  1341.89185990
0.32600002 24695.24205317  1695.82235209
0.32700002 24458.21574324  1444.01312586
0.32800002 24236.42682849  1674.49480887
0.32900002 24027.53884434  1189.36322912
0.33000002 23834.18541485  1420.04083426
0.33100002 23651.98432089  1177.86887496
0.33200002 23485.64238324  1759.66183889
0.33300002 23330.75500879  1285.75796942
0.33400002 23189.41857321  1631.37567388
0.33500002 23059.82552548  1162.21526152
0.33600002 22942.44454825  1623.63687757
0.33700002 22836.02854286  1389.34404234
0.33800002 22742.51224583  1503.39384321
0.33900002 22659.04472682  2080.10040443
0.34000002 22587.02711362  1155.32649158
0.34100002 22525.60305539  1733.34523720
0.34200002 22475.53413060  1272.00291436
0.34300002 22434.00176065  1736.39181851
0.34400002 22403.35932221  1275.31128982
0.34500002 22381.86575345  1161.61888762
0.34600002 22370.93436334  1513.72934539
0.34700002 22366.89025598  1167.55172666
0.34800002 22373.34398533  1288.36907441
0.34900002 22387.82758220  1292.89710411
0.35000002 22410.88556447  1415.91981702
0.35100002 22442.02265816  1658.91439346
0.35200002 22480.30888397  1428.39889414
0.35300002 22526.61501397  1315.77964529
0.35400002 22580.71644375  1803.63481137
0.35500002 22641.67506017  2176.31790986
0.35600002 22709.08072875  1702.49986287
0.35700002 22783.47135232  1223.47246957
0.35800002 22864.82394190  2093.16040690
0.35900002 22951.96942945  1239.40640790
0.36000002 23045.89625976  1372.72887573
0.36100002 23144.87660584  1633.79691699
0.36200002 23250.61681500  1772.39460376
0.36300002 23360.09822391  1275.46142344
0.36400002 23475.63109915  1670.87812263
0.36500002 23595.53179974  2331.71056290
0.36600002 23721.10628493  1567.01635541
0.36700002 23850.82000709  1448.22185943
0.36800002 23986.36169537  1460.40970100
0.36900002 24125.05427281  1338.94057557
0.37000002 24267.15866300  1485.51418792
0.37100002 24413.44969492  2179.63289201
0.37200002 24564.07659565  1786.66819582
0.37300002 24717.57094500  1525.32137527
0.37400002 24875.48936638  2378.71878334
0.37500002 25035.37194755  1835.59355815
0.37600002 25199.52134054  1995.04619904
0.37700002 25365.13726562  1438.20335109
0.37800002 25534.57366490  1741.96869794
0.37900002 25706.25341042  1465.25651381
0.38000002 25880.43241219  2070.69349539
0.38100002 26056.33217487  1493.02790435
0.38200002 26234.68963513  1808.61958913
0.38300002 26414.68767891  2130.08051534
0.38400002 26597.12183986  1689.58224492
0.38500002 26780.10951600  1860.68209732
0.38600002 26965.79539690  1878.43739634
0.38700002 27151.77039216  1896.27973402
0.38800002 27339.08464641  1754.75923116
0.38900002 27527.58300448  1932.43641846
0.39000002 27717.69112040  2113.33545960
0.39100002 27907.70276291  1969.16760024
0.39200002 28099.05437597  1987.72720073
0.39300002 28290.55225266  1839.16888908
0.39400002 28483.40610066  1856.40608056
0.39500002 28675.61655214  1703.33170390
0.39600002 28868.17161058  1891.00967094
0.39700002 29060.39482247  2081.88678372
0.39800002 29253.91162821  2276.10070207
0.39900002 29446.20879826  2296.80439508
0.40000002 29638.22247349  1961.01308287
0.40100002 29829.84014107  2698.10916859
0.40200002 30022.16301093  1996.32382400
0.40300002 30212.78030791  2013.98403075
0.40400002 30402.88473057  1846.97533489
0.40500002 30592.37746535  2421.99863869
0.40600002 30781.21648775  2067.11269118
0.40700002 30968.98146439  2653.42245759
0.40800002 31155.85155008  2102.55274148
0.40900002 31341.00273926  2698.46046371
0.41000002 31525.76724738  2137.92000718
0.41100002 31708.94222883  2743.45781163
0.41200002 31890.01958822  2370.70416852
0.41300002 32070.26603224  2190.71997646
0.41400002 32248.75883813  2408.98239935
0.41500002 32426.18635230  2832.75177396
0.41600002 32600.70688034  2447.00917439
0.41700002 32774.30235522  2671.43351156
0.41800002 32946.90663218  2484.85581594
0.41900002 33115.61065689  2086.28357024
0.42000002 33283.25279852  2312.02126520
0.42100002 33449.26074158  3176.00745791
0.42200002 33613.09132175  2346.02581997
0.42300002 33774.31362779  2148.04644851
0.42400002 33933.27760813  2595.89586003
0.42500002 34090.41035737  2178.37732506
0.42600002 34243.82853921  3289.97598280
0.42700002 34396.25687508  2429.06377562
0.42800002 34545.66171135  2445.31478011
0.42900002 34693.16717280  3356.56408303
0.43000002 34838.06524534  3153.19343478
0.43100002 34978.99358975  2266.63889203
0.43200002 35118.26489965  2737.11769598
0.43300002 35254.41726508  2983.58147453
0.43400002 35388.29201719  2539.99477990
0.43500002 35518.86341411  3252.10728831
0.43600002 35647.66322699  3271.38620937
0.43700002 35772.56144188  2350.25739811
0.43800002 35893.90169298  2363.61353849
0.43900002 36013.46444482  2376.88876600
0.44000002 36129.24887918  2867.93991194
0.44100002 36242.74179177  2402.89389467
0.44200002 36352.89508718  3140.34499093
0.44300002 36460.30936219  2671.08239046
0.44400002 36563.97405706  2684.70992237
0.44500002 36663.89449351  3679.22198679
0.44600002 36761.45573850  3204.31244130
0.44700002 36856.07730927  3467.41991758
0.44800002 36946.36073696  2488.33751356
0.44900002 37034.83953672  3499.79250208
0.45000002 37119.80681317  3013.38605990
0.45100002 37200.27184779  2522.17855081
0.45200002 37278.37161945  3292.98511307
0.45300002 37352.57322293  2798.08139274
0.45400002 37424.13006972  2809.61669814
0.45500002 37492.16559908  4872.48207218
0.45600002 37556.67558456  3861.76535001
0.45700002 37617.80607717  3101.21207998
0.45800002 37674.92959747  3112.70283087
0.45900002 37729.10301350  2863.63905444
0.46000002 37780.54812692  2873.77752947
0.46100002 37827.29458663  4194.29062255
0.46200002 37871.58828918  2893.20012447
0.46300002 37912.06893872  3958.02018479
0.46400002 37948.69854477  2646.92184895
0.46500002 37982.81667366  3185.99881359
0.46600002 38012.69510056  3994.18412700
0.46700002 38039.15110841  4005.52280156
0.46800002 38062.96862278  3213.27596343
0.46900002 38082.55281866  2684.82010097
0.47000002 38098.37347551  5114.13540588
0.47100002 38111.38408787  2698.28612131
0.47200002 38120.60764832  2975.12296493
0.47300002 38127.16048213  3795.17773427
0.47400002 38128.78952707  2988.34402082
0.47500002 38128.23167770  2722.35587082
0.47600002 38124.49696423  3000.58867579
0.47700002 38116.26306290  3279.52342937
