# SAXS profile: number of points = 501, q_min = 0, q_max = 0.5, delta_q = 0.001
#    q    intensity    error
0.00000000 1664650.74656090 349.57665678
0.00100000 1664581.88348900 798.99932305
0.00200000 1664375.24079761 823.86577028
0.00300000 1664030.99094023 1397.78608218
0.00400000 1663549.01514652 1247.66180877
0.00500000 1662929.73555017 1646.30050336
0.00600000 1662172.93530689 2094.33798375
0.00700000 1661279.18874454 2591.59564215
0.00800000 1660248.05987796 2689.60197056
0.00900000 1659080.82208015 3484.06987530
0.01000000 1657776.66042090 3555.93109015
0.01100000 1656336.84714669 4173.96903654
0.01200000 1654760.80336873 3549.46207885
0.01300000 1653049.92013721 3471.40498539
0.01400000 1651203.55377992 4458.24979284
0.01500000 1649223.30872117 4353.94972890
0.01600000 1647108.18375081 4620.13866196
0.01700000 1644860.20986260 5329.34731902
0.01800000 1642479.11559727 5617.27882811
0.01900000 1639965.40566022 6395.86537067
0.02000000 1637319.85131039 5673.31354143
0.02100000 1634544.02828786 8630.39286065
0.02200000 1631636.19817151 9006.63222310
0.02300000 1628599.34632414 8794.43687046
0.02400000 1625433.13816714 6095.37454606
0.02500000 1622138.97387711 8856.87920187
0.02600000 1618717.29123101 10489.28852694
0.02700000 1615168.78960901 6783.70922706
0.02800000 1611493.47208426 7710.99661755
0.02900000 1607694.16739453 10128.47371963
0.03000000 1603770.74690543 10440.54804226
0.03100000 1599723.80618872 8446.54208533
0.03200000 1595554.12556756 11057.19059946
0.03300000 1591264.67105126 9738.54023578
0.03400000 1586853.43107726 9164.07898731
0.03500000 1582323.74496890 12816.82292610
0.03600000 1577675.34326992 8756.09855980
0.03700000 1572910.00815069 9862.14620720
0.03800000 1568029.20402834 14676.75402894
0.03900000 1563033.94914444 10316.02454209
0.04000000 1557923.43428724 11497.47547782
0.04100000 1552701.48765032 14673.02973863
0.04200000 1547368.46681314 14970.79061095
0.04300000 1541924.41420124 14247.38224855
0.04400000 1536372.96062206 13481.67335557
0.04500000 1530713.96674636 12674.31223357
0.04600000 1524947.43590473 19351.58386123
0.04700000 1519076.93830122 10937.35446444
0.04800000 1513102.40217065 14457.69412543
0.04900000 1507026.68693147 12432.97074591
0.05000000 1500849.33114862 12629.64770973
0.05100000 1494573.63985313 19818.04738766
0.05200000 1488197.93410358 13014.29154022
0.05300000 1481727.64644088 13202.19394525
0.05400000 1475160.97876598 17038.11009930
0.05500000 1468502.14730530 19736.66978048
0.05600000 1461749.29907664 16247.34421741
0.05700000 1454907.82682908 13923.46855268
0.05800000 1447976.08571804 14096.04785264
0.05900000 1440956.29366819 15562.32869847
0.06000000 1433851.07517103 15743.68554090
0.06100000 1426661.86447021 18575.13834344
0.06200000 1419389.39259208 24143.81469656
0.06300000 1412036.74430587 13555.55337913
0.06400000 1404601.89176807 16433.84290224
0.06500000 1397091.28489317 19363.68611441
0.06600000 1389502.78328532 15360.95398794
0.06700000 1381839.41335252 15504.23894340
0.06800000 1374103.87344049 18488.56848257
0.06900000 1366297.15323357 17215.34493675
0.07000000 1358418.83360509 18807.30963198
0.07100000 1350473.69086477 21877.67481671
0.07200000 1342460.57851450 17639.93282805
0.07300000 1334384.26881665 31104.49876354
0.07400000 1326244.43463755 16412.27564779
0.07500000 1318042.85781239 19533.39606836
0.07600000 1309780.41144805 27230.33603058
0.07700000 1301462.00718203 16749.81681781
0.07800000 1293086.27895572 18387.68774906
0.07900000 1284654.92742313 20040.61780778
0.08000000 1276172.27235199 20157.14198739
0.08100000 1267638.35747584 15591.95252850
0.08200000 1259053.67427037 25080.35036837
0.08300000 1250421.83762265 17330.84748282
0.08400000 1241743.30669486 17415.45069385
0.08500000 1233022.06036677 15905.98532544
0.08600000 1224257.33036546 19171.87069367
0.08700000 1215452.49407079 20857.16577766
0.08800000 1206606.34305380 20940.65406715
0.08900000 1197724.92805305 17786.21601700
0.09000000 1188807.01549192 22718.10313324
0.09100000 1179855.27909894 26051.20578642
0.09200000 1170870.54760628 19600.37388789
0.09300000 1161856.61461370 19658.61484306
0.09400000 1152811.43332343 19713.07643630
0.09500000 1143739.74928566 21410.80911299
0.09600000 1134642.15681074 21461.75740494
0.09700000 1125522.14134271 18199.69388113
0.09800000 1116379.97614680 34814.31119303
0.09900000 1107217.83176001 16608.26825736
0.10000000 1098035.38323087 26616.37894121
0.10100000 1088835.57392977 19991.02207756
0.10200000 1079620.58382875 18348.15268520
0.10300000 1070391.20772300 20037.72435116
0.10400000 1061150.18844337 21727.05113053
0.10500000 1051900.17853548 20070.25635075
0.10600001 1042637.72741595 16734.33631244
0.10700001 1033370.45438184 28459.02365289
0.10800001 1024095.33419501 20092.75140250
0.10900001 1014816.93891009 16744.48028011
0.11000001 1005535.06873175 18416.37565067
0.11100001 996252.09817206 20084.44324459
0.11200001 986970.76303534 18402.07074311
0.11300001 977688.86456163 16718.48037112
0.11400001 968412.04906571 16705.10863293
0.11500001 959139.75117311 20026.83894752
0.11600001 949873.57774693 16670.28207449
0.11700001 940616.14826516 19978.68793005
0.11800001 931365.88173864 18287.36994924
0.11900001 922127.09564267 26557.26160540
0.12000001 912899.84585667 18226.04628106
0.12100001 903687.30223076 19844.97409185
0.12200001 894488.67049193 19803.98009768
0.12300001 885306.58836457 27993.39564298
0.12400001 876141.49054281 21355.94983822
0.12500001 866995.11261981 19663.45008077
0.12600001 857870.56172615 16342.43497100
0.12700001 848767.07166438 17925.96139834
0.12800001 839685.24482094 17872.70127834
0.12900001 830628.08366517 17816.97323437
0.13000001 821596.06154306 22602.10871840
0.13100001 812589.55449202 19307.12872482
0.13200001 803611.95380190 17635.26515751
0.13300001 794664.18811269 20764.57621429
0.13400001 785744.81718832 17502.46662803
0.13500001 776857.71132617 15847.89805825
0.13600001 768001.90822528 26830.14792891
0.13700001 759180.56743999 20429.55003313
0.13800001 750392.28048095 17210.24776439
0.13900001 741642.05714967 24919.17429537
0.14000001 732926.94985288 15501.40572044
0.14100001 724249.98372812 18511.83045716
0.14200001 715610.74286453 18419.82139011
0.14300001 707013.84468825 18325.79971870
0.14400001 698453.78529369 16710.50760138
0.14500001 689938.86104547 16620.62794662
0.14600001 681464.20907464 16528.91517085
0.14700001 673035.75471584 16435.53390553
0.14800001 664649.60928988 17825.90336216
0.14900001 656308.28017535 16243.63070073
0.15000001 648013.71143569 20548.51575916
0.15100001 639766.25972430 17504.00569198
0.15200001 631567.18144751 21741.70124726
0.15300001 623416.54087019 23041.47643787
0.15400001 615313.52931950 17167.24827815
0.15500001 607262.23564654 19893.91177863
0.15600001 599259.61989595 18346.33412897
0.15700001 591312.18352001 15415.50935193
0.15800001 583412.33067386 16697.26169198
0.15900001 575568.35202247 13813.64110055
0.16000001 567775.07269071 17825.29924852
0.16100001 560039.50502351 16330.75273737
0.16200001 552355.79868716 13505.09991542
0.16300001 544728.87979816 18760.46350589
0.16400001 537157.14684194 18612.49601676
0.16500001 529642.17208543 14506.89977831
0.16600001 522183.58517915 18312.97919684
0.16700001 514781.78257204 14269.75168664
0.16800001 507437.03127785 15436.23522032
0.16900001 500152.74204590 16580.06418170
0.17000001 492926.02900204 12643.55324093
0.17100001 485758.46744762 12532.56905195
0.17200001 478650.62148629 14905.18105695
0.17300001 471602.32404519 17232.34973440
0.17400001 464615.39354169 14635.38558773
0.17500001 457688.32166139 15707.86394126
0.17600001 450820.39003538 11969.28192074
0.17700001 444016.22775416 11855.23384097
0.17800001 437272.33851130 15262.99169664
0.17900001 430590.01898054 12788.52416777
0.18000001 423970.71391595 13812.96651184
0.18100001 417414.35391446 13674.49488017
0.18200001 410917.68316974 13535.62912301
0.18300001 404486.16653877 16745.72808576
0.18400001 398115.97281697 11047.71876757
0.18500001 391809.79023430 12024.64303036
0.18600001 385566.42587372 11896.65263237
0.18700001 379385.74467921 13908.28205703
0.18800001 373268.13809863 13756.79787958
0.18900001 367216.08010052 13605.35641054
0.19000001 361223.22116235 11383.95035281
0.19100001 355299.07842075 12279.13673041
0.19200001 349434.53992844 11127.74344982
0.19300001 343636.45004567 14999.73175327
0.19400001 337900.67122282 11860.31412037
0.19500001 332229.22233044 13674.55543731
0.19600001 326620.28045022 9651.62974340
0.19700001 321075.54038931 12396.72720027
0.19800001 315594.28511025 10362.53884132
0.19900001 310177.47920228 9305.32481584
0.20000001 304822.06388122 11028.46279244
0.20100001 299531.82393553 13613.72204129
0.20200001 294303.31790715 12546.15103536
0.20300001 289138.78848459 10617.17681497
0.20400001 284037.30894078 13101.22149413
0.20500001 278997.70147002 14655.74995095
0.20600001 274021.80692720 9359.21525799
0.20700001 269107.60263439 10075.38911889
0.20800001 264255.87586682 12426.63315005
0.20900001 259468.42705088 8990.58142231
0.21000001 254740.30728719 8062.53110677
0.21100001 250074.19557229 10338.06773367
0.21200001 245469.79514245 9411.31239068
0.21300001 240926.52014101 9280.48999457
0.21400001 236444.73432923 8387.87734688
0.21500001 232024.58060861 7517.59676713
0.21600001 227663.38001104 8151.48770669
0.21700001 223363.01327869 10225.55923136
0.21800001 219122.82115577 7198.18501530
0.21900001 214941.04940172 7802.36046219
0.22000001 210818.40570309 9085.21962335
0.22100001 206757.03593212 8262.01154650
0.22200001 202753.22799387 8816.72453621
0.22300001 198807.56787719 6679.93459654
0.22400001 194918.46069679 8552.04786747
0.22500001 191090.14350315 8421.34302241
0.22600001 187317.05198059 7015.96051371
0.22700001 183602.19032789 6907.11472677
0.22800001 179943.11806446 8035.36031716
0.22900001 176339.82017623 6083.72408378
0.23000001 172792.75777344 8980.90401000
0.23100001 169302.57553751 6480.90289808
0.23200001 165865.50232900 6376.69953862
0.23300001 162484.26937175 7414.15756208
0.23400001 159157.19269097 6732.34956924
0.23500001 155882.66182437 6070.07113853
0.23600001 152662.82488081 7055.31278556
0.23700001 149495.67935908 7471.79440777
0.23800001 146380.84218671 5247.75344061
0.23900001 143318.58083180 5675.41606938
0.24000001 140307.58317452 7608.17905751
0.24100001 137349.15262114 7977.23916157
0.24200001 134440.86183260 7840.59143295
0.24300001 131583.15583109 7223.91559684
0.24400001 128774.76068446 4732.47267902
0.24500001 126016.08248570 5114.99303006
0.24600001 123306.78515085 5939.07158774
0.24700001 120646.72743280 5385.67016737
0.24800001 118033.73625094 5290.27230903
0.24900001 115468.41358550 5196.07885716
0.25000001 112950.92342123 5953.64345519
0.25100001 110479.33737683 4593.73106545
0.25200001 108055.40141528 4920.84321326
0.25300001 105677.25970823 6844.71643513
0.25400001 103343.51854381 5929.33465697
0.25500001 101054.94758077 4268.56118777
0.25600001 98811.01703385  4190.08137556
0.25700001 96610.83740473  4486.60750135
0.25800001 94454.09765600  4036.49605431
0.25900001 92340.59903019  3601.28353257
0.26000001 90270.14984436  3534.07653362
0.26100001 88239.52460716  4854.93887360
0.26200001 86252.93038326  4083.21391755
0.26300001 84306.09746800  4340.07810301
0.26400001 82399.69034998  3275.38784640
0.26500001 80534.27082785  3213.31755808
0.26600001 78707.47915354  4413.12856497
0.26700001 76921.05356422  4019.89444949
0.26800001 75173.01324116  3336.55435060
0.26900001 73462.57287668  2975.23434230
0.27000001 71790.58261959  3793.77351806
0.27100001 70155.56218406  4865.99002336
0.27200001 68557.68759816  3649.66867200
0.27300001 66995.69171372  3579.57997766
0.27400001 65468.49618402  2970.63315493
0.27500001 63978.84942427  3178.46938982
0.27600001 62521.85214425  3117.33969544
0.27700001 61101.20235654  2802.71228474
0.27800001 59713.42096749  3248.70882149
0.27900001 58359.80780425  2696.22324816
0.28000001 57038.68890800  3846.68936201
0.28100001 55750.17629069  3301.52559619
0.28200001 54494.23637669  2544.60848804
0.28300001 53269.82616074  2723.15364222
0.28400001 52076.83498710  2671.54176128
0.28500001 50914.66990469  3276.35916344
0.28600001 49782.18490573  3000.37242628
0.28700001 48679.96535482  2733.86698373
0.28800001 47606.61628904  2063.74691381
0.28900001 46563.59888563  3038.27497110
0.29000001 45547.86172918  2385.79711030
0.29100001 44561.58325711  2342.15692686
0.29200001 43602.01411875  2299.57033347
0.29300001 42669.92250982  2069.91803893
0.29400001 41764.43325040  2217.69151057
0.29500001 40886.60901441  2178.43863141
0.29600001 40033.38447013  2140.18483508
0.29700001 39205.65014197  1752.49264431
0.29800001 38403.61695994  2066.88276263
0.29900001 37626.38066489  2878.41825713
0.30000001 36873.21607707  1831.30836316
0.30100001 36144.78500352  1964.83060581
0.30200001 35438.63059608  2093.89158790
0.30300001 34756.14631668  2218.83248590
0.30400001 34097.05946948  1715.93459904
0.30500001 33459.30357534  1689.36031750
0.30600001 32843.64967633  1663.69515312
0.30700001 32249.95724886  1638.94290498
0.30800001 31677.12424960  1908.70521202
0.30900001 31125.10360951  2170.97607955
0.31000001 30594.35610543  1712.67213587
0.31100001 30081.87584543  1970.96459871
0.31200001 29590.37066117  2778.53593664
0.31300001 29117.27868036  2057.13583616
0.31400001 28664.69595416  1896.16972715
0.31500001 28229.78417131  1739.51938300
0.31600002 27813.05581834  1587.01304014
0.31700002 27413.76588338  1961.45504183
0.31800002 27032.48377748  1293.50441000
0.31900002 26668.65682292  1536.11470573
0.32000002 26321.24669148  1901.05213231
0.32100002 25990.77189924  1631.96064483
0.32200002 25676.58793253  1368.43381866
0.32300002 25377.56845389  1480.01986231
0.32400002 25094.24501371  1345.67895258
0.32500002 24825.80096256  1335.37989701
0.32600002 24572.78580139  1687.41328088
0.32700002 24334.02172416  1197.23392552
0.32800002 24110.18084483  1546.78872535
0.32900002 23899.11272824  1183.00613607
0.33000002 23703.09332429  1647.60209499
0.33100002 23518.17348157  1639.68713278
0.33200002 23348.76066166  1282.89771531
0.33300002 23190.59691864  1278.03385671
0.33400002 23045.72153254  1158.04756185
0.33500002 22912.39544757  1270.26326377
0.33600002 22791.00436601  1497.71092284
0.33700002 22680.36247976  1724.84164827
0.33800002 22582.44354740  1263.14903964
0.33900002 22494.26500641  1606.09059752
0.34000002 22417.48982310  1375.98559051
0.34100002 22351.01901764  1605.25026187
0.34200002 22295.64354880  1491.24418939
0.34300002 22248.81111967  1148.03870815
0.34400002 22212.50813707  1379.39682064
0.34500002 22185.30779084  1381.70103465
0.34600002 22168.44990876  1730.80180860
0.34700002 22158.31953918  1619.33006862
0.34800002 22158.53997914  1159.99962285
0.34900002 22166.68755454  1629.25161242
0.35000002 22183.17652878  1518.32758942
0.35100002 22207.77184566  1641.59857258
0.35200002 22239.32403422  1530.84394240
0.35300002 22278.66966254  1182.99741511
0.35400002 22325.83977521  1426.62122921
0.35500002 22379.71226053  1792.61503697
0.35600002 22439.88719963  1321.82161810
0.35700002 22507.02806943  1329.49021103
0.35800002 22580.92796523  1945.57284564
0.35900002 22660.63470013  1713.14406447
0.36000002 22747.05220498  1354.92822877
0.36100002 22838.37363562  1488.14849659
0.36200002 22936.40911077  1623.55379581
0.36300002 23038.14614254  1761.03597455
0.36400002 23145.80526738  1520.67947810
0.36500002 23257.94830298  1532.23370678
0.36600002 23375.56048584  1415.50713227
0.36700002 23497.30666136  1815.87194480
0.36800002 23624.90406928  1438.40235239
0.36900002 23755.68875496  1582.12894602
0.37000002 23889.69398160  1595.35383966
0.37100002 24028.00452040  1742.99153047
0.37200002 24170.48764822  1487.57273278
0.37300002 24315.97575568  1500.53893496
0.37400002 24465.76918723  1513.81954017
0.37500002 24617.68466489  2082.65622131
0.37600002 24773.73859269  1541.05048216
0.37700002 24931.34095484  1413.60709910
0.37800002 25092.75602267  1997.13254645
0.37900002 25256.40478307  1727.53816900
0.38000002 25422.58802511  1743.48116936
0.38100002 25590.61460491  1906.24497222
0.38200002 25760.98452870  2219.95294693
0.38300002 25933.13487533  2091.24809542
0.38400002 26107.74659475  2261.58365591
0.38500002 26282.82034475  2130.48551808
0.38600002 26460.85605302  1843.26331998
0.38700002 26639.22651446  1550.40305659
0.38800002 26818.87143705  2034.34558924
0.38900002 26999.72253630  2211.27738048
0.39000002 27182.44095991  2231.95033296
0.39100002 27365.06174926  2091.78541921
0.39200002 27548.94088566  1948.81217058
0.39300002 27733.28621059  2130.74848051
0.39400002 27918.92833648  2481.29487346
0.39500002 28104.11389023  2003.26133300
0.39600002 28289.64206376  2695.43722354
0.39700002 28474.97573114  1869.95174486
0.39800002 28661.59260940  2401.55495852
0.39900002 28847.22268341  2423.16682021
0.40000002 29032.72505749  1920.95034444
0.40100002 29217.72881241  2818.92660938
0.40200002 29403.71243038  2488.43630088
0.40300002 29588.09051982  2330.94988159
0.40400002 29772.03319479  1989.51621251
0.40500002 29955.39318266  2736.42529689
0.40600002 30138.32128735  2207.93352212
0.40700002 30320.26499482  2412.28039728
0.40800002 30501.62404924  2058.40219649
0.40900002 30681.15917123  2075.58051628
0.41000002 30860.48950018  2092.80419462
0.41100002 31038.38153812  2301.80648393
0.41200002 31214.39920167  2513.85175882
0.41300002 31389.66700432  1949.29841333
0.41400002 31563.23336647  2750.73591823
0.41500002 31736.00991627  2772.45795765
0.41600002 31905.91669749  2993.57277599
0.41700002 32075.07949359  2413.32909545
0.41800002 32243.43200773  2229.14977748
0.41900002 32407.98176730  2858.38412732
0.42000002 32571.59473028  2673.96519609
0.42100002 32733.90605776  2486.46762197
0.42200002 32894.01951972  2713.26332865
0.42300002 33051.71070467  3153.13335064
0.42400002 33207.32013411  3387.14681418
0.42500002 33361.27569092  3197.67842650
0.42600002 33511.72184482  3004.99624022
0.42700002 33661.28566161  2377.16010607
0.42800002 33807.95145299  2393.09595700
0.42900002 33952.99942329  3503.94970653
0.43000002 34095.50090049  3306.41135651
0.43100002 34234.15018356  2662.04764442
0.43200002 34371.43159371  2678.90950536
0.43300002 34505.77412958  2920.22380297
0.43400002 34637.89701323  2938.15975338
0.43500002 34767.01009059  2955.89133798
0.43600002 34894.40376465  2287.32827517
0.43700002 35018.02007362  2530.75243065
0.43800002 35138.45951738  2545.25443576
0.43900002 35257.11383294  3955.84835952
0.44000002 35372.21782002  3041.83401558
0.44100002 35485.27776504  2587.94143005
0.44200002 35595.04552202  2838.34906444
0.44300002 35702.32016287  2615.55209908
0.44400002 35806.08338389  2390.05617914
0.44500002 35906.11428037  2642.33107512
0.44600002 36004.04033552  2896.88522268
0.44700002 36099.15136739  3396.20832160
0.44800002 36190.21956894  3168.63482453
0.44900002 36279.54322967  2938.64314087
0.45000002 36365.50748176  2706.13936750
0.45100002 36447.15156530  3212.45209121
0.45200002 36526.66951113  2978.38477309
0.45300002 36602.41516001  3489.67442674
0.45400002 36675.69157577  3254.05088928
0.45500002 36745.66179281  2513.40338575
0.45600002 36812.13481495  2523.47196116
0.45700002 36875.52144515  3040.01813202
0.45800002 36935.07914622  2797.27835171
0.45900002 36991.73828074  3062.91607481
0.46000002 37045.93167844  3842.58944546
0.46100002 37095.62565321  2827.79967757
0.46200002 37142.91808868  3869.36367528
0.46300002 37186.56701113  3882.27777996
0.46400002 37226.55458023  3894.82845755
0.46500002 37264.17354565  2604.76585429
0.46600002 37297.74672710  3135.24873848
0.46700002 37328.05709874  3668.60162554
0.46800002 37355.81665768  2890.78000907
0.46900002 37379.54021782  2635.25771026
0.47000002 37399.71370060  2906.51888800
0.47100002 37417.13298471  3708.78639723
0.47200002 37430.99425317  3186.87500176
0.47300002 37442.15828442  3194.56509624
0.47400002 37448.74835627  4269.15751496
0.47500002 37453.17870027  3743.81992033
0.47600002 37454.58303320  2947.86309735
0.47700002 37451.71500564  4027.93213977
