# SAXS profile: number of points = 501, q_min = 0, q_max = 0.5, delta_q = 0.001
#    q    intensity    error
0.00000000 1700912.83420644 331.67800267
0.00100000 1700842.74438955 612.30340252
0.00200000 1700632.42504416 1300.98384635
0.00300000 1700282.03610291 1020.16925800
0.00400000 1699791.46319830 1274.84364584
0.00500000 1699161.15921826 2446.79216612
0.00600000 1698390.85666207 2853.29675536
0.00700000 1697481.17474939 2851.76849210
0.00800000 1696431.65203195 3664.29252310
0.00900000 1695243.63596525 3305.72523144
0.01000000 1693916.19287782 3074.45802283
0.01100000 1692450.69890044 3960.33480786
0.01200000 1690846.56329162 3626.86603728
0.01300000 1689105.12581775 3901.83301273
0.01400000 1687225.80382828 4935.13569498
0.01500000 1685210.18618500 5257.85601502
0.01600000 1683057.29017652 4291.79628181
0.01700000 1680769.16549304 5899.50003552
0.01800000 1678345.42054958 5261.61313018
0.01900000 1675786.73142410 9551.98480013
0.02000000 1673093.87412530 7378.34431866
0.02100000 1670268.34322344 7716.64009555
0.02200000 1667308.51267023 8053.10048207
0.02300000 1664217.20816926 7189.41866654
0.02400000 1660994.17706743 6851.60129282
0.02500000 1657641.01213107 7757.76029108
0.02600000 1654157.84495235 7369.27353632
0.02700000 1650545.65489001 7625.52127485
0.02800000 1646804.38142089 11461.75902032
0.02900000 1642936.68668856 10350.50160137
0.03000000 1638942.66872883 7621.08375989
0.03100000 1634822.88990727 8631.86525589
0.03200000 1630578.10666705 12914.17919961
0.03300000 1626211.30393239 9123.04583564
0.03400000 1621720.49347074 10216.83958027
0.03500000 1617109.02807352 14845.06156323
0.03600000 1612376.58102031 8948.69043822
0.03700000 1607525.21493838 15576.92005315
0.03800000 1602555.83632461 10312.44728400
0.03900000 1597470.22873737 12460.26836119
0.04000000 1592267.07307780 12730.17583916
0.04100000 1586950.36718546 9997.78777683
0.04200000 1581520.38812456 11220.88767431
0.04300000 1575977.51183791 13521.88767923
0.04400000 1570325.05276551 15899.54189766
0.04500000 1564562.77152215 10795.48362511
0.04600000 1558691.25568268 10988.77386340
0.04700000 1552713.51975278 12297.49164837
0.04800000 1546629.85138684 13641.27592393
0.04900000 1540443.00843664 13863.98772126
0.05000000 1534152.56802895 17604.40153790
0.05100000 1527761.83872949 13108.19718693
0.05200000 1521269.31939883 16931.72831395
0.05300000 1514679.90812414 12268.90782776
0.05400000 1507992.61430939 13685.03361304
0.05500000 1501211.13413432 15132.20893798
0.05600000 1494333.75174128 15331.86500831
0.05700000 1487366.00251401 12940.08482590
0.05800000 1480306.12017703 17030.92270785
0.05900000 1473156.25934033 15910.08834397
0.06000000 1465919.45715108 16095.79639150
0.06100000 1458596.99171396 16277.94318822
0.06200000 1451189.33280784 13713.73983606
0.06300000 1443699.84807667 15245.47110850
0.06400000 1436126.68800814 14002.23586292
0.06500000 1428475.87267753 14141.91180103
0.06600000 1420745.44734794 15706.34165531
0.06700000 1412938.57110899 15853.17150975
0.06800000 1405058.38958501 21813.53251938
0.06900000 1397105.14829567 16136.56521831
0.07000000 1389078.78672674 17752.42772569
0.07100000 1380984.10152074 20880.48059299
0.07200000 1372819.79709636 16535.61523067
0.07300000 1364591.12187104 21205.74702748
0.07400000 1356297.22334387 16784.17892546
0.07500000 1347940.53573012 19976.47967587
0.07600000 1339521.36559790 23207.20874695
0.07700000 1331044.94770354 17130.54928017
0.07800000 1322509.66045144 17238.91423242
0.07900000 1313917.45790277 22073.81432811
0.08000000 1305272.90384089 17444.97317820
0.08100000 1296575.83491607 22327.03692480
0.08200000 1287826.67056191 17636.78708095
0.08300000 1279029.34411723 19338.92459067
0.08400000 1270183.88915626 25911.75255505
0.08500000 1261294.61145724 22778.98175228
0.08600000 1252360.51643909 21246.29715893
0.08700000 1243385.40397614 21336.49453414
0.08800000 1234367.92079949 24718.21877487
0.08900000 1225314.38957609 19850.09404349
0.09000000 1216222.79751608 31542.73973532
0.09100000 1207096.73049456 23321.10992881
0.09200000 1197936.78557663 20053.46273280
0.09300000 1188746.54938789 20113.59256082
0.09400000 1179524.38547540 18489.04561127
0.09500000 1170274.47579342 18537.14856786
0.09600000 1160998.04196894 18581.77453520
0.09700000 1151698.21288519 18622.96097787
0.09800000 1142375.68052340 20357.13558407
0.09900000 1133032.00181062 22094.12507423
0.10000000 1123667.53469379 17023.56395118
0.10100000 1114284.77492921 25572.83678736
0.10200000 1104886.36394271 18777.54463843
0.10300000 1095472.76768016 30760.87676347
0.10400000 1086047.19253979 18815.76849594
0.10500000 1076611.91506661 20541.75630595
0.10600001 1067163.60988231 22266.36976791
0.10700001 1057709.36083397 27415.82792294
0.10800001 1048247.35803775 18852.72962155
0.10900001 1038781.34342020 23995.85016239
0.11000001 1029311.65787829 27420.86385657
0.11100001 1019840.45816345 18846.65255404
0.11200001 1010369.81510173 20550.92300665
0.11300001 1000898.62892675 18826.90409650
0.11400001 991432.07059971 22232.86523002
0.11500001 981969.99572516 32463.92958733
0.11600001 972513.70956204 23894.66296917
0.11700001 963065.69472352 25569.39539910
0.11800001 953624.54544589 18724.41883172
0.11900001 944194.88956574 25493.26321905
0.12000001 934776.13195914 20359.42511310
0.12100001 925372.64705983 20321.18428673
0.12200001 915982.25017160 21969.83530539
0.12300001 906608.64924014 23608.09033849
0.12400001 897251.54758654 20188.16077191
0.12500001 887913.55112200 21816.03697905
0.12600001 878597.00968167 18411.00120547
0.12700001 869301.51899376 18359.64894637
0.12800001 860027.67351223 18305.68989344
0.12900001 850778.64546222 19908.22124213
0.13000001 841554.96230098 16536.55578866
0.13100001 832356.59085443 19776.79353093
0.13200001 823187.67112622 19707.11377576
0.13300001 814048.17428639 19634.84288943
0.13400001 804937.74256912 16299.99005550
0.13500001 795859.46526140 22729.74739953
0.13600001 786812.78875221 22636.60499973
0.13700001 777800.80952850 17710.52526807
0.13800001 768822.01295663 17632.93369865
0.13900001 759881.57985548 27127.77368014
0.14000001 750976.59731688 19059.78693877
0.14100001 742110.23664690 20549.03342191
0.14200001 733281.82909152 23593.34396381
0.14300001 724496.43428532 20343.86083430
0.14400001 715747.73262806 17124.26531088
0.14500001 707045.04316332 17032.71589327
0.14600001 698383.03686895 20019.15069624
0.14700001 689767.32135588 19906.68583346
0.14800001 681194.69871251 24359.52357521
0.14900001 672667.34130414 21189.02225080
0.15000001 664187.51279188 16548.23266200
0.15100001 655754.75918775 17941.45105794
0.15200001 647371.65119358 22285.77014394
0.15300001 639037.27876132 20666.46657037
0.15400001 630750.82029195 17597.94871661
0.15500001 622517.00476143 17480.27831865
0.15600001 614332.95633285 17361.05016532
0.15700001 606204.11068898 15803.74191155
0.15800001 598123.68132673 21397.87570942
0.15900001 590099.85579798 16994.87664915
0.16000001 582127.76733311 15464.22486915
0.16100001 574213.88439110 13953.39804936
0.16200001 566352.78069816 19386.25659845
0.16300001 558549.19662821 17862.40415142
0.16400001 550801.57014076 17722.04135593
0.16500001 543111.60246330 16228.17544776
0.16600001 535478.75198489 18779.24071874
0.16700001 527903.80503537 14633.49416650
0.16800001 520386.37226821 15830.15419184
0.16900001 512930.76407495 15695.68212181
0.17000001 505533.35626409 19450.39680070
0.17100001 498196.22801359 14138.80961868
0.17200001 490919.50257145 15287.23403198
0.17300001 483703.43123309 15149.59218165
0.17400001 476549.86957003 15011.32160038
0.17500001 469457.08458687 17351.13466578
0.17600001 462424.19403925 14732.83551791
0.17700001 455456.13512931 14592.81525877
0.17800001 448549.63651883 14452.26997125
0.17900001 441705.71773086 14311.26593045
0.18000001 434925.58869133 15350.69937795
0.18100001 428209.76383274 19873.21607822
0.18200001 421554.64727516 12728.84317576
0.18300001 414965.84438557 12598.36363068
0.18400001 408439.35117627 13601.03103669
0.18500001 401978.24361478 11215.19352668
0.18600001 395580.72924827 12205.64397759
0.18700001 389247.59928736 13172.13938220
0.18800001 382977.91801531 15200.39428419
0.18900001 376775.30761111 13959.52580654
0.19000001 370633.45267765 15927.97338140
0.19100001 364560.90383024 11549.28997905
0.19200001 358549.78495108 12456.02011776
0.19300001 352606.15620222 11286.92359337
0.19400001 346725.70505194 13184.24555761
0.19500001 340910.88689454 12027.33665799
0.19600001 335160.06480182 16836.76665096
0.19700001 329474.46511957 13699.54890708
0.19800001 323853.83642092 11600.44496882
0.19900001 318298.87229388 14323.44993015
0.20000001 312806.40046847 13203.55878779
0.20100001 307380.36057062 12107.71297512
0.20200001 302017.56782859 10116.07891254
0.20300001 296720.02741110 11803.52324830
0.20400001 291486.92732339 11652.19047050
0.20500001 286317.00290602 9731.91538877
0.20600001 281211.51673769 8731.61800743
0.20700001 276169.61422102 12924.73855648
0.20800001 271191.10110528 10202.20970584
0.20900001 266278.38027313 12581.65406266
0.21000001 261426.51157587 10756.39432727
0.21100001 256638.09151687 8977.20086564
0.21200001 251912.32332076 9658.31893271
0.21300001 247249.00917885 8730.36292684
0.21400001 242648.96736036 8607.97252406
0.21500001 238111.58082510 10800.74181686
0.21600001 233634.32494363 9125.75716375
0.21700001 229219.54811912 8994.57549345
0.21800001 224866.10345178 9602.90740194
0.21900001 220572.45529520 8734.66964268
0.22000001 216339.41626546 10040.31278361
0.22100001 212169.11172146 7771.75492983
0.22200001 208057.49507301 10439.28530890
0.22300001 204005.73087175 7540.05216955
0.22400001 200011.38229019 7425.42291864
0.22500001 196079.24789753 7976.50418166
0.22600001 192204.12631887 8507.91605383
0.22700001 188388.26468973 7087.16685277
0.22800001 184629.60591406 6976.22998937
0.22900001 180928.02104787 7490.42042561
0.23000001 177284.23747019 7371.47894262
0.23100001 173698.43359105 7858.11750729
0.23200001 170167.19543030 5947.34376156
0.23300001 166693.15729372 8776.39514659
0.23400001 163274.75499996 7482.06600174
0.23500001 159910.13506029 5660.81904887
0.23600001 156601.36966586 5567.17895493
0.23700001 153346.58079631 6021.92051270
0.23800001 150145.91777188 6997.55082873
0.23900001 146998.77681677 5291.95621571
0.24000001 143904.46847311 6762.79081578
0.24100001 140863.91906854 6647.36865527
0.24200001 137874.77056968 6533.19631248
0.24300001 134937.41404807 6420.32246411
0.24400001 132050.90845427 6308.73244983
0.24500001 129215.46687125 6675.27133434
0.24600001 126430.43408221 7494.79648694
0.24700001 123696.18980802 6902.24771780
0.24800001 121010.38635920 6779.60721649
0.24900001 118373.28197168 5770.69776912
0.25000001 115785.31422706 4795.24901557
0.25100001 113244.70764550 4708.71516666
0.25200001 110752.85895965 5043.68543564
0.25300001 108307.94538759 4126.53291450
0.25400001 105908.94516248 4456.11907854
0.25500001 103556.12282950 4374.21083527
0.25600001 101249.42102921 5074.11497495
0.25700001 98987.64670467  4213.90431959
0.25800001 96770.42853974  5639.29698997
0.25900001 94597.67630706  4796.10241569
0.26000001 92469.14164998  6154.28401371
0.26100001 90381.76294904  4972.80483275
0.26200001 88339.64847449  4181.99915666
0.26300001 86338.35110800  4102.79863879
0.26400001 84378.58367719  4360.26351784
0.26500001 82461.05361972  4277.25505365
0.26600001 80583.48123667  3872.84229150
0.26700001 78747.11462309  4115.32440494
0.26800001 76950.48933886  3415.44763093
0.26900001 75192.52540277  3654.35690750
0.27000001 73474.01551179  3584.06264627
0.27100001 71793.82985715  3515.02607615
0.27200001 70151.78755584  3159.98741999
0.27300001 68546.62863908  2817.26657039
0.27400001 66977.29672531  4420.50179307
0.27500001 65446.89043786  3251.40167083
0.27600001 63950.08888308  2922.83895073
0.27700001 62490.41974154  3387.60581451
0.27800001 61064.90523492  3577.79296704
0.27900001 59674.35766792  2756.95545474
0.28000001 58317.70611044  2949.70971467
0.28100001 56994.31271312  3375.20335862
0.28200001 55704.61074140  2601.12692168
0.28300001 54447.44951307  2319.46145904
0.28400001 53222.57078101  2275.26500858
0.28500001 52029.66815418  2901.69473030
0.28600001 50867.34533340  2846.79111633
0.28700001 49736.15679799  3222.90311306
0.28800001 48634.84224177  2951.64871536
0.28900001 47564.91906724  2482.88889283
0.29000001 46523.01303878  2233.80257679
0.29100001 45511.26917170  2192.73305249
0.29200001 44527.60056227  2544.08457855
0.29300001 43571.97796988  2305.82918331
0.29400001 42643.86577045  2453.08849457
0.29500001 41743.99010749  2594.80654791
0.29600001 40870.08734621  2002.83872521
0.29700001 40022.11688652  1967.88758047
0.29800001 39200.81636551  2637.23504583
0.29900001 38405.04152993  1901.04964573
0.30000001 37634.13394759  2039.01747381
0.30100001 36888.83615230  2005.27722817
0.30200001 36166.63952183  1643.77384408
0.30300001 35468.73723140  2102.58684262
0.30400001 34795.02170486  1591.87231836
0.30500001 34143.19197213  2977.62791286
0.30600001 33514.31316354  1697.66761367
0.30700001 32908.06466128  1824.42319120
0.30800001 32323.59554663  1648.01859697
0.30900001 31760.45958611  1476.86144067
0.31000001 31219.20951133  1747.65143119
0.31100001 30696.99596318  1436.61947909
0.31200001 30196.17471880  2126.56570526
0.31300001 29714.78130340  2379.26265161
0.31400001 29254.52127826  2073.41429377
0.31500001 28812.04370722  2321.67459185
0.31600002 28388.76487367  1619.86300039
0.31700002 27983.39142387  1868.73096777
0.31800002 27596.60986048  1584.59741322
0.31900002 27227.79617561  1829.70798964
0.32000002 26876.20421072  1811.72501163
0.32100002 26541.88594601  1281.97315189
0.32200002 26224.30079305  1270.56743359
0.32300002 25922.37694747  1511.79309516
0.32400002 25636.89633545  1499.75850664
0.32500002 25366.61571649  1364.47032400
0.32600002 25112.22321930  1231.75460723
0.32700002 24872.60879970  1835.59861634
0.32800002 24648.48347384  1581.32353214
0.32900002 24437.37206399  1572.54496678
0.33000002 24242.01180395  1323.97753737
0.33100002 24057.88359247  1557.50745753
0.33200002 23889.82350367  1431.95608862
0.33300002 23733.38639583  1545.75552916
0.33400002 23590.61021729  1422.51386347
0.33500002 23459.72278060  1891.79213462
0.33600002 23341.16978188  1297.88580718
0.33700002 23233.77034127  1413.54265450
0.33800002 23139.47486187  1411.97082294
0.33900002 23055.24876088  1293.39951674
0.34000002 22982.61707417  1763.34137852
0.34100002 22920.62529878  1293.41094686
0.34200002 22870.21061209  1412.00687006
0.34300002 22828.39395835  1177.94518404
0.34400002 22797.60724867  1179.77623099
0.34500002 22776.02585495  1418.49095743
0.34600002 22765.16060233  1303.41933202
0.34700002 22761.17348815  1306.94664359
0.34800002 22767.86318779  1311.08746376
0.34900002 22782.59495145  1315.69492076
0.35000002 22806.14312453  1200.74349238
0.35100002 22837.65761520  1446.99405503
0.35200002 22876.40018700  1453.56653673
0.35300002 22923.32908851  1217.22883225
0.35400002 22978.07581699  1345.94085473
0.35500002 23039.73682228  1599.41860596
0.35600002 23107.99534224  1856.14981378
0.35700002 23183.19135598  1618.41866522
0.35800002 23265.49793601  1252.84712320
0.35900002 23353.58303115  1387.20289776
0.36000002 23448.48429450  1396.70903316
0.36100002 23548.40913939  1406.54654452
0.36200002 23655.24863387  1803.23968877
0.36300002 23765.82267442  1427.37537744
0.36400002 23882.49055499  1438.32306180
0.36500002 24003.62638173  1449.57906586
0.36600002 24130.35838574  1992.56443809
0.36700002 24261.27230544  1473.14452417
0.36800002 24398.09248233  2025.65172430
0.36900002 24537.90787539  1361.85395159
0.37000002 24681.35131679  1922.92417218
0.37100002 24828.87339550  1662.54144132
0.37200002 24980.83280990  1816.98096050
0.37300002 25135.62019757  1833.14086785
0.37400002 25294.79598704  1565.11557584
0.37500002 25455.99599072  1435.71824189
0.37600002 25621.50489895  2173.34425601
0.37700002 25788.40923571  1608.42316023
0.37800002 25959.14016583  1475.77718834
0.37900002 26132.14618048  1936.39212371
0.38000002 26307.54214442  1804.17132573
0.38100002 26484.72888138  1972.84754783
0.38200002 26664.31186318  1838.23774693
0.38300002 26845.54270514  2319.45499961
0.38400002 27029.28174584  2029.22342320
0.38500002 27213.48345541  2993.75545676
0.38600002 27400.36011311  2067.76827390
0.38700002 27587.40120922  1605.58682644
0.38800002 27775.82014020  2269.00685475
0.38900002 27965.45475716  1963.17501696
0.39000002 28156.61588707  2311.93984002
0.39100002 28347.71678728  2500.26873909
0.39200002 28540.12480108  2523.66065510
0.39300002 28732.58441684  1867.90540143
0.39400002 28926.46180789  2399.45012064
0.39500002 29119.48287495  1729.69736472
0.39600002 29312.93722171  1920.14404368
0.39700002 29505.99182704  2113.80935464
0.39800002 29700.36799701  1955.32381972
0.39900002 29893.34325245  2511.04095218
0.40000002 30086.06223632  2533.54742096
0.40100002 30278.44941275  3103.84399636
0.40200002 30471.26960267  2210.38600171
0.40300002 30662.48705052  2043.96148363
0.40400002 30853.13306867  2624.05909182
0.40500002 31043.08637013  3024.83847922
0.40600002 31232.36944631  2097.40986954
0.40700002 31420.58375275  1922.93981678
0.40800002 31607.70088302  1939.13254105
0.40900002 31793.21610021  2150.81117109
0.41000002 31978.21716866  3154.33149098
0.41100002 32161.55096309  2385.10073243
0.41200002 32342.71625966  2805.08391411
0.41300002 32523.04062414  2625.58519399
0.41400002 32701.52133703  2239.23677965
0.41500002 32878.88817971  2461.97126355
0.41600002 33053.38405471  2480.98712470
0.41700002 33226.79662746  2916.64834616
0.41800002 33399.21421031  2728.88292636
0.41900002 33567.62347306  2537.71245481
0.42000002 33734.97218547  2982.50903224
0.42100002 33900.63211973  2789.68314932
0.42200002 34063.98269480  2593.63176528
0.42300002 34224.68254516  3265.03486952
0.42400002 34383.03948179  3068.68641916
0.42500002 34539.62131526  2427.79009729
0.42600002 34692.34815051  2444.24950477
0.42700002 34844.01110798  2684.38274296
0.42800002 34992.66960343  2702.13407482
0.42900002 35139.31165144  2719.78285070
0.43000002 35283.26144174  2509.16925633
0.43100002 35423.30385928  2524.97321874
0.43200002 35561.45152593  2771.65966327
0.43300002 35696.56167385  2788.61553011
0.43400002 35829.27802609  2571.64655219
0.43500002 35958.57279568  2586.85984951
0.43600002 36086.06779914  2601.98604196
0.43700002 36209.67693915  3092.66865393
0.43800002 36329.64080911  4306.15252917
0.43900002 36447.66801425  4089.42854499
0.44000002 36562.02883716  2660.43615441
0.44100002 36673.90088338  3647.21961569
0.44200002 36782.47911849  2688.61543858
0.44300002 36888.15853199  2456.75147466
0.44400002 36990.07381043  2469.08754386
0.44500002 37088.20648230  3225.56147063
0.44600002 37184.00422841  2493.18760167
0.44700002 37276.66582268  2504.99206200
0.44800002 37364.87431952  2768.17684515
0.44900002 37451.39609648  3286.36016321
0.45000002 37534.22430961  2793.10943437
0.45100002 37612.65060524  3315.17918146
0.45200002 37688.52904054  3585.30993754
0.45300002 37760.43462821  3085.78286406
0.45400002 37829.73120338  3356.44306009
0.45500002 37895.40332254  3110.45485213
0.45600002 37957.54959590  3382.58719255
0.45700002 38016.21483665  3656.39971628
0.45800002 38070.78157844  3407.52546667
0.45900002 38122.41253254  3156.53590730
0.46000002 38171.22692496  2903.49451366
0.46100002 38215.29893825  3972.48051291
0.46200002 38256.82649312  3188.32407105
0.46300002 38294.63354696  3198.36794543
0.46400002 38328.44870239  3475.43225081
0.46500002 38359.71777958  4290.15103980
0.46600002 38386.66775862  2688.98620394
0.46700002 38410.17239193  2696.39422971
0.46800002 38430.94540986  3244.34056527
0.46900002 38447.54960496  3794.77332587
0.47000002 38460.23313677  3532.38027987
0.47100002 38470.13622595  2996.05435128
0.47200002 38476.22901955  3821.84400966
0.47300002 38479.64999213  3009.49356853
0.47400002 38477.98602984  3015.71229803
0.47500002 38474.16347983  3571.17202346
0.47600002 38467.09842917  3027.55312537
0.47700002 38455.42543243  2757.25413419
