# SAXS profile: number of points = 501, q_min = 0, q_max = 0.5, delta_q = 0.001
#    q    intensity    error
0.00000000 1700912.83420644 280.65061764
0.00100000 1700842.73680796 612.30339979
0.00200000 1700632.38876456 841.81305909
0.00300000 1700281.95911117 1122.18613299
0.00400000 1699791.32266953 1657.29660258
0.00500000 1699160.95231462 2293.86737642
0.00600000 1698390.53568593 2139.97216209
0.00700000 1697480.75725037 2444.37239203
0.00800000 1696431.10381889 2977.23671290
0.00900000 1695242.94451929 4831.44259841
0.01000000 1693915.33418957 3912.94459094
0.01100000 1692449.66626291 3351.05048510
0.01200000 1690845.31701363 4286.29306656
0.01300000 1689103.68792622 4256.54148131
0.01400000 1687224.08308154 4175.87979075
0.01500000 1685208.26859499 5662.30003461
0.01600000 1683055.10368779 4720.96977689
0.01700000 1680766.66028127 7260.91229813
0.01800000 1678342.62255119 5261.60435846
0.01900000 1675783.63651333 6535.55647730
0.02000000 1673090.44517997 8432.37622515
0.02100000 1670264.57027936 6063.06066500
0.02200000 1667304.35861333 8628.30044783
0.02300000 1664212.63945224 6590.28235221
0.02400000 1660989.23575070 7474.45190169
0.02500000 1657635.69922409 7111.25747445
0.02600000 1654152.04808085 10048.97415171
0.02700000 1650539.47313989 9705.17254657
0.02800000 1646797.73444194 7879.92752068
0.02900000 1642929.49219335 9611.13797062
0.03000000 1638934.99986676 9145.25771962
0.03100000 1634814.68110401 8631.82191341
0.03200000 1630569.40714793 8878.45083085
0.03300000 1626202.04394588 9122.99388711
0.03400000 1621710.71615010 11919.57431368
0.03500000 1617098.61610228 10478.79951623
0.03600000 1612365.63651387 9843.49266582
0.03700000 1607513.64908635 10079.11104591
0.03800000 1602543.63088436 9374.88067454
0.03900000 1597457.34885836 14377.11680553
0.04000000 1592253.53172079 13709.30354339
0.04100000 1586936.16544398 10997.46813644
0.04200000 1581505.51408812 11220.78214302
0.04300000 1575961.85749841 11441.48361653
0.04400000 1570308.66855133 15899.37600748
0.04500000 1564545.82717569 10795.36670912
0.04600000 1558673.48887680 17581.83777185
0.04700000 1552694.99328132 22358.80894311
0.04800000 1546610.61431996 14777.86510741
0.04900000 1540422.95089646 12708.48993644
0.05000000 1534131.69523889 11736.10801508
0.05100000 1527740.10232239 17874.56002984
0.05200000 1521246.80224814 19350.26022634
0.05300000 1514656.55733896 18403.07802958
0.05400000 1507968.38021438 13684.81368862
0.05500000 1501185.97082889 13870.95901753
0.05600000 1494307.73020574 19164.49753418
0.05700000 1487339.08523529 14233.83571012
0.05800000 1480278.31842379 14410.51010272
0.05900000 1473127.59264098 17235.59363890
0.06000000 1465889.76245507 14754.18114841
0.06100000 1458566.36009421 16277.60133933
0.06200000 1451157.81064871 15084.78614681
0.06300000 1443667.32276839 23560.65180917
0.06400000 1436093.19274708 19602.67299775
0.06500000 1428441.31634519 18384.04060133
0.06600000 1420709.97599827 19989.39029757
0.06700000 1412902.10957760 20176.24306900
0.06800000 1405020.74316858 23267.14459599
0.06900000 1397066.56969337 20536.87953601
0.07000000 1389039.13375821 20710.57445418
0.07100000 1380943.41928621 17897.02755221
0.07200000 1372777.94486621 18038.30304058
0.07300000 1364548.22916108 16661.13465872
0.07400000 1356253.34761769 16783.63596332
0.07500000 1347895.49219851 16902.61026444
0.07600000 1339475.18123304 17018.03297538
0.07700000 1330997.65137899 17129.94057644
0.07800000 1322461.16742213 18805.39868264
0.07900000 1313867.89340938 20496.34009854
0.08000000 1305222.20056858 20615.98562510
0.08100000 1296523.90511800 23920.86717175
0.08200000 1287773.60161387 22445.89492941
0.08300000 1278975.24001378 17726.59765854
0.08400000 1270128.44508668 19432.96612198
0.08500000 1261237.99696483 22777.95929450
0.08600000 1252302.77756867 22879.57282041
0.08700000 1243326.40233784 16411.90928153
0.08800000 1234307.89687178 19773.61343653
0.08900000 1225252.88727912 18195.00623071
0.09000000 1216160.14211187 23240.82140751
0.09100000 1207032.88425658 28316.99279502
0.09200000 1197871.68810971 21723.40408458
0.09300000 1188680.26958659 20112.47110653
0.09400000 1179456.76106886 20168.71156216
0.09500000 1170205.62461993 16850.96178657
0.09600000 1160927.76730937 18580.64978922
0.09700000 1151626.81999251 20314.69805972
0.09800000 1142302.89939570 23748.47839503
0.09900000 1132958.07979592 27190.99519369
0.10000000 1123592.33110856 18724.66707849
0.10100000 1114208.36367333 22161.60539576
0.10200000 1104808.66042173 18776.22406703
0.10300000 1095393.81247379 18796.95870627
0.10400000 1085966.89392641 20524.77526080
0.10500000 1076530.17146047 18828.51358471
0.10600001 1067080.68088016 18839.31030740
0.10700001 1057625.19788602 23986.94061682
0.10800001 1048161.81924022 20564.93586131
0.10900001 1038694.57365336 18852.30739910
0.11000001 1029223.61532532 23991.20360249
0.11100001 1019751.00906028 29124.09018973
0.11200001 1010279.10055772 17124.23156061
0.11300001 1000806.74963195 23959.31471421
0.11400001 991338.81335980 25650.89300344
0.11500001 981875.38561720 18793.09576564
0.11600001 972417.64382168 18772.52349800
0.11700001 962968.54269096 18748.99840918
0.11800001 953526.05278768 18722.48492828
0.11900001 944095.12323766 18693.08432058
0.12000001 934675.19207379 22053.66219582
0.12100001 925270.44233575 20318.93987088
0.12200001 915878.61394646 18587.75734574
0.12300001 906503.67540802 25291.45373548
0.12400001 897145.42545456 18503.62527184
0.12500001 887806.10993809 18457.48989534
0.12600001 878488.40338832 23429.28682244
0.12700001 869191.61140262 18357.32769794
0.12800001 859916.39187648 19967.25956041
0.12900001 850666.20132965 28199.58590318
0.13000001 841441.29784168 23148.05119470
0.13100001 832241.66929124 24717.57874308
0.13200001 823071.50126659 16420.27722433
0.13300001 813930.87783640 16360.01141577
0.13400001 804818.94845334 17927.34292199
0.13500001 795739.54170647 19479.70489941
0.13600001 786691.69591387 21016.46964728
0.13700001 777678.58630938 16097.94749568
0.13800001 768698.49984319 20835.57382077
0.13900001 759756.86580571 17550.38442776
0.14000001 750850.85029718 19056.59547926
0.14100001 741983.38224030 25286.79485935
0.14200001 733153.75500805 17298.76366532
0.14300001 724367.32000223 18775.60182006
0.14400001 715617.48830967 21790.55354689
0.14500001 706913.46829445 20125.82739172
0.14600001 698250.38759314 21554.99048184
0.14700001 689633.71687382 15309.86923687
0.14800001 681059.94403420 15221.69046730
0.14900001 672531.46406165 15131.95865533
0.15000001 664050.62706809 15040.74741276
0.15100001 655616.73347319 23916.89956562
0.15200001 647232.71905094 17824.78992376
0.15300001 638897.22706333 22137.78996241
0.15400001 630609.88968314 17594.01675244
0.15500001 622375.03017441 14563.57639338
0.15600001 614190.05638410 18803.42946363
0.15700001 606060.27540524 15799.99212552
0.15800001 597978.88120380 17114.15638782
0.15900001 589954.10959185 15574.78922836
0.16000001 581981.19424460 19676.78510620
0.16100001 574066.33562778 13949.81261425
0.16200001 566204.49239005 16612.44059093
0.16300001 558399.93406177 15110.30292904
0.16400001 550651.56086021 16354.35212963
0.16500001 542960.68942542 14871.69398547
0.16600001 535326.95714051 14750.93500044
0.16700001 527751.35772226 14629.26832678
0.16800001 520233.16351241 14506.70244950
0.16900001 512776.65193144 15690.96629000
0.17000001 505378.54430388 12962.96027350
0.17100001 498040.77166441 16704.28827042
0.17200001 490763.47401969 12735.31275221
0.17300001 483546.76318555 15144.68533817
0.17400001 476392.37544808 13755.83049070
0.17500001 469299.01322137 13628.44398759
0.17600001 462265.52473806 15955.09533988
0.17700001 455296.90101657 13372.07061443
0.17800001 448389.93516047 14447.12439324
0.17900001 441545.41863570 17882.59029940
0.18000001 434764.76689908 12984.25037675
0.18100001 428048.47253160 12854.29623732
0.18200001 421392.70186691 15037.39927646
0.18300001 414803.64728031 12593.43932634
0.18400001 408276.70083714 14728.58267849
0.18500001 401815.09489598 12331.70584493
0.18600001 395417.37813100 12200.60377863
0.18700001 389083.84159244 13166.59782154
0.18800001 382813.78222500 10852.77123883
0.18900001 376611.00701370 17173.46273123
0.19000001 370468.65724698 10613.92753162
0.19100001 364395.92258571 12593.52367961
0.19200001 358384.89508218 13487.81616374
0.19300001 352440.75770724 15384.03980086
0.19400001 346560.39231264 13177.95954040
0.19500001 340745.31789680 10017.91281956
0.19600001 334994.41727903 10888.99404823
0.19700001 329308.76101886 16626.80012958
0.19800001 323687.99481712 10628.29581210
0.19900001 318132.94434969 15270.38205046
0.20000001 312640.46480273 14139.16568894
0.20100001 307214.53467572 14893.76134499
0.20200001 301851.81662238 12867.94355080
0.20300001 296554.36471200 9982.02038800
0.20400001 291321.23517289 9853.94124548
0.20500001 286151.50749134 8842.08199942
0.20600001 281046.17263945 9599.13248023
0.20700001 276004.66757610 17222.69207085
0.20800001 271026.27443383 10196.00892617
0.20900001 266113.88957760 14250.39946051
0.21000001 261262.32826114 10749.63900447
0.21100001 256474.22213402 8155.88064942
0.21200001 251748.75780026 12065.05978795
0.21300001 247085.79029384 8724.59966774
0.21400001 242486.15161718 8602.19663530
0.21500001 237949.25874274 10793.37888686
0.21600001 233472.36492084 11399.28875620
0.21700001 229058.31626937 7490.20729614
0.21800001 224705.22643764 10334.19385247
0.21900001 220412.20943672 11637.76520851
0.22000001 216179.75139329 10749.53864630
0.22100001 212010.08255905 11295.89773286
0.22200001 207899.19451142 8345.07406228
0.22300001 203848.08268460 10273.94385311
0.22400001 199854.53507282 9443.12722872
0.22500001 195923.08426424 14611.94431539
0.22600001 192048.76525066 7193.18684262
0.22700001 188233.69115553 7725.11105034
0.22800001 184475.96793870 7604.09975803
0.22900001 180775.23542683 6236.74591717
0.23000001 177132.35936411 8592.69115912
0.23100001 173547.43023586 7247.34102940
0.23200001 170017.13861544 6536.30920320
0.23300001 166544.17242544 5845.70072860
0.23400001 163126.82398484 10350.39747136
0.23500001 159763.25674201 7352.30542300
0.23600001 156455.55506577 6674.39429478
0.23700001 153201.89578056 9844.75428849
0.23800001 150002.44205213 7528.62292269
0.23900001 146856.48524399 7930.25057827
0.24000001 143763.50059523 6756.16603004
0.24100001 140724.09012017 6129.94165559
0.24200001 137736.29872066 6024.58599102
0.24300001 134800.26744842 4933.69002199
0.24400001 131915.09224055 6302.24382991
0.24500001 129081.10017404 5239.40210391
0.24600001 126297.35260640 5615.18056251
0.24700001 123564.65699617 5515.92654925
0.24800001 120880.19814058 5869.33829837
0.24900001 118244.66914985 5764.42789376
0.25000001 115658.19892896 6096.34395395
0.25100001 113119.15929544 5558.67575075
0.25200001 110628.91292807 5038.04093309
0.25300001 108185.59468012 6182.80702848
0.25400001 105788.28274083 4451.04220690
0.25500001 103437.12237739 4766.38282466
0.25600001 101132.13110864 5847.96575804
0.25700001 98872.18370332  4208.98905939
0.25800001 96656.59191802  5257.15228316
0.25900001 94485.72309388  5158.92072502
0.26000001 92358.97014120  4339.02462254
0.26100001 90273.28599301  3902.51433813
0.26200001 88233.14639973  4176.95734820
0.26300001 86233.73435880  3756.34164641
0.26400001 84275.94259848  4019.96265216
0.26500001 82360.36728593  3286.17881021
0.26600001 80484.65637516  3868.09276843
0.26700001 78650.40473965  4426.44498821
0.26800001 76855.77862271  4341.58313984
0.26900001 75099.93567764  4258.16655443
0.27000001 73383.46936713  3281.34198803
0.27100001 71705.37706917  4388.36928430
0.27200001 70065.45739187  4016.85286237
0.27300001 68462.42271956  3095.18627763
0.27400001 66895.34237467  4691.03610603
0.27500001 65367.04483290  3247.43494098
0.27600001 63872.46722653  2919.29125275
0.27700001 62415.04801893  2862.97838812
0.27800001 60991.90084785  3318.26452267
0.27900001 59603.65628870  4756.37199695
0.28000001 58249.25254463  2946.24733315
0.28100001 56928.21746505  2889.67645529
0.28200001 55640.80660797  4015.31899891
0.28300001 54386.06377539  2548.53106914
0.28400001 53163.49991426  2954.56164758
0.28500001 51973.06031451  2675.57327163
0.28600001 50813.09916922  2406.25442505
0.28700001 49684.43021040  2575.64098402
0.28800001 48585.53419245  2106.18300693
0.28900001 47518.08685127  3720.66637657
0.29000001 46478.69595609  2434.55420942
0.29100001 45469.46790944  2190.71906757
0.29200001 44488.34402840  2737.36793764
0.29300001 43535.23684555  2879.85605365
0.29400001 42609.66027068  2639.66857872
0.29500001 41712.37733887  2222.43556982
0.29600001 40840.97012233  2729.19795762
0.29700001 39995.65958173  2324.14788832
0.29800001 39177.03799601  2108.50828476
0.29900001 38383.80095869  2245.45246238
0.30000001 37615.50186901  1868.17398876
0.30100001 36872.88373382  2171.44422588
0.30200001 36153.33233474  1971.80283888
0.30300001 35458.10730126  2101.95670033
0.30400001 34787.08678897  2068.96208472
0.30500001 34137.91517362  1880.31645678
0.30600001 33511.68393435  2006.17705371
0.30700001 32908.21808886  1976.46767199
0.30800001 32326.40813153  1947.82781418
0.30900001 31766.01579113  1624.83178464
0.31000001 31227.38815790  1893.78504450
0.31100001 30707.92556386  2011.98337820
0.31200001 30209.86429815  1843.85915474
0.31300001 29731.19958066  1960.47539317
0.31400001 29273.60430828  1936.44901668
0.31500001 28833.90004203  2050.09039005
0.31600002 28413.42311453  1621.26999968
0.31700002 28010.81350044  1469.72745396
0.31800002 27626.77526856  1586.32951103
0.31900002 27260.65526605  1439.36266620
0.32000002 26911.74565107  2462.02116746
0.32100002 26580.17075486  1668.96900072
0.32200002 26265.34158193  1527.06703188
0.32300002 25966.20483954  1514.34913795
0.32400002 25683.43610589  1252.06756945
0.32500002 25415.92092625  1615.69016979
0.32600002 25164.19371254  1728.02526407
0.32700002 24927.35804272  1471.71128853
0.32800002 24705.94735434  1341.16241564
0.32900002 24497.52229776  1576.41563451
0.33000002 24304.85325665  1448.08322560
0.33100002 24123.47096063  2162.42803931
0.33200002 23958.11317826  1196.70780992
0.33300002 23804.27343621  1550.37240232
0.33400002 23664.17849909  1545.86253366
0.33500002 23536.00035265  1423.45736874
0.33600002 23420.05381328  1420.66053159
0.33700002 23315.39370571  1773.13577529
0.33800002 23223.62800811  1417.10584817
0.33900002 23142.04913114  1416.29347390
0.34000002 23072.02163923  1416.16075528
0.34100002 23012.64182448  1652.76801411
0.34200002 22964.77437998  1299.69146759
0.34300002 22925.54284071  2011.02871323
0.34400002 22897.35735223  1184.93829910
0.34500002 22878.22597125  2137.28397146
0.34600002 22869.88413244  2380.75505094
0.34700002 22868.44610660  1551.85282629
0.34800002 22877.65501075  1676.70341515
0.34900002 22894.83091083  1923.16588759
0.35000002 22920.72553995  1568.80913388
0.35100002 22954.72814608  1333.21067387
0.35200002 22995.85555639  1339.39367032
0.35300002 23045.23706761  1468.44257550
0.35400002 23102.32534391  1599.25854768
0.35500002 23166.31499024  1731.91379070
0.35600002 23236.82788347  1244.33219210
0.35700002 23314.35004460  2003.16905071
0.35800002 23398.91961770  1890.04782164
0.35900002 23489.22955097  1395.26030142
0.36000002 23586.33107114  1404.91987680
0.36100002 23688.57835988  1286.28986587
0.36200002 23797.52148568  1554.93012753
0.36300002 23910.25431993  2088.79991633
0.36400002 24029.04506126  1578.70833530
0.36500002 24152.22150624  1325.95702350
0.36600002 24281.02865430  1470.33775981
0.36700002 24414.00260341  2156.24481207
0.36800002 24552.82944412  1630.79900893
0.36900002 24694.68613099  1644.66617423
0.37000002 24840.00568298  1658.81565809
0.37100002 24989.48117920  1533.85442744
0.37200002 25143.25422946  1828.79468301
0.37300002 25299.91110397  1987.05511223
0.37400002 25460.96089637  1575.39703009
0.37500002 25623.95591330  1734.22941836
0.37600002 25791.12919613  1604.33726764
0.37700002 25959.81955441  1913.49839000
0.37800002 26132.20345195  1634.17742028
0.37900002 26306.80805193  1649.43694299
0.38000002 26483.89515184  1513.55467963
0.38100002 26662.62553206  2291.65277304
0.38200002 26843.81122905  1696.39473098
0.38300002 27026.52714002  1556.72803701
0.38400002 27211.65099538  2200.06208720
0.38500002 27397.36798359  1903.56921768
0.38600002 27585.56632555  1761.47642117
0.38700002 27774.03131844  1616.44869931
0.38800002 27963.82566538  1794.85823536
0.38900002 28154.68673292  1811.75417710
0.39000002 28347.10371446  2161.32502510
0.39100002 28539.37418808  1845.92680994
0.39200002 28733.01305304  2032.57343967
0.39300002 28926.54224403  2051.47047314
0.39400002 29121.51968299  1897.99513526
0.39500002 29315.58131525  2437.88385768
0.39600002 29510.05003584  2108.78827547
0.39700002 29704.06915430  2659.99951879
0.39800002 29899.36609377  2147.37257459
0.39900002 30093.32687125  2708.39954673
0.40000002 30286.83259081  2732.62959998
0.40100002 30479.96619794  2021.73625370
0.40200002 30673.63926200  2225.06589749
0.40300002 30865.46707378  2244.53687195
0.40400002 31056.87884722  2075.37602730
0.40500002 31247.46604165  1902.97077210
0.40600002 31437.39983259  2495.02935593
0.40700002 31626.07334965  2322.61893685
0.40800002 31813.69077866  2537.30102827
0.40900002 31999.61269336  2558.36915605
0.41000002 32185.08097761  2182.63136991
0.41100002 32368.77706674  2800.54672451
0.41200002 32550.28135665  2218.13902815
0.41300002 32730.95088058  2439.11057519
0.41400002 32909.60910435  2663.21024296
0.41500002 33087.20103231  2477.56973069
0.41600002 33261.86202829  2704.68843899
0.41700002 33435.39303515  2515.67909117
0.41800002 33607.87183586  2323.48032947
0.41900002 33776.35392503  2340.70143792
0.42000002 33943.59917998  3429.66142366
0.42100002 34109.19088532  3238.66782803
0.42200002 34272.49080540  3696.80239590
0.42300002 34433.03186804  2846.92320975
0.42400002 34591.21408032  2866.74700275
0.42500002 34747.53091079  2442.40406346
0.42600002 34899.96672023  3353.01446153
0.42700002 35051.29599797  2700.35197164
0.42800002 35199.57000449  2491.60168084
0.42900002 35345.75595093  2735.76164024
0.43000002 35489.27689870  3212.13460432
0.43100002 35628.80353461  3001.37055198
0.43200002 35766.43464781  3019.93905260
0.43300002 35900.91622692  3272.00965998
0.43400002 36033.00319714  3056.49964104
0.43500002 36161.65075521  3310.96090005
0.43600002 36288.45461343  3330.19163769
0.43700002 36411.28426610  2631.44363861
0.43800002 36530.42707120  2646.08161030
0.43900002 36647.69756531  3386.24741551
0.44000002 36761.08986475  3647.61931469
0.44100002 36872.02550589  2444.61540689
0.44200002 36979.65260135  2948.75763817
0.44300002 37084.34052049  2716.79891528
0.44400002 37185.23411013  2482.11449448
0.44500002 37282.21425134  2993.01630194
0.44600002 37376.82254694  3257.95089170
0.44700002 37468.34269798  4028.59639781
0.44800002 37555.34115910  3288.15805102
0.44900002 37640.60890364  3302.96358783
0.45000002 37722.22208367  3062.29013388
0.45100002 37799.24018130  3075.34632690
0.45200002 37873.74610383  2573.52116972
0.45300002 37944.21878489  3100.80170606
0.45400002 38012.11278032  4929.22095840
0.45500002 38076.27436766  4948.39285134
0.45600002 38136.92413128  2875.71490041
0.45700002 38194.02434684  3935.89439548
0.45800002 38246.96597917  2896.63410572
0.45900002 38296.95274137  3170.98783727
0.46000002 38344.10620360  3977.24260447
0.46100002 38386.51660351  2660.18572670
0.46200002 38426.30012862  3469.31867154
0.46300002 38462.33344463  3212.37424155
0.46400002 38494.31480788  3758.97001915
0.46500002 38523.78429535  2962.09391486
0.46600002 38548.86350939  3510.45242186
0.46700002 38570.45335291  3249.17514445
0.46800002 38589.34656901  2986.23672578
0.46900002 38603.96931428  4354.52794504
0.47000002 38614.65000092  3273.75018224
0.47100002 38622.48753883  3007.91947209
0.47200002 38626.48635349  3562.71413768
0.47300002 38627.84056738  3295.72751342
0.47400002 38624.05595008  2751.96411688
0.47500002 38618.05418902  3860.26087970
0.47600002 38608.87703744  3314.95833956
0.47700002 38595.02064561  2767.26311145
