# SAXS profile: number of points = 501, q_min = 0, q_max = 0.5, delta_q = 0.001
#    q    intensity    error
0.00000000 1682732.95097188 353.37391970
0.00100000 1682663.43990356 706.71866154
0.00200000 1682454.85361743 984.23612053
0.00300000 1682107.35696334 1110.19089514
0.00400000 1681620.83318064 2270.18821106
0.00500000 1680995.72995758 3025.79243369
0.00600000 1680231.79272152 2117.09214502
0.00700000 1679329.61813008 2015.19562551
0.00800000 1678288.75732092 2492.25890984
0.00900000 1677110.53717159 2767.23250463
0.01000000 1675794.06807626 3594.57843124
0.01100000 1674340.69057877 3315.19471169
0.01200000 1672749.78124470 3588.04843808
0.01300000 1671022.74877952 3509.14792721
0.01400000 1669158.96041045 5633.41174112
0.01500000 1667160.02564504 4801.42108766
0.01600000 1665024.94579935 4670.39518175
0.01700000 1662755.74595815 6285.21700167
0.01800000 1660352.12895370 5678.40453654
0.01900000 1657814.65314691 5470.78860224
0.02000000 1655144.10767980 5735.07459254
0.02100000 1652342.01718810 5452.72890394
0.02200000 1649406.71253992 9104.72546687
0.02300000 1646341.10528020 7112.19389855
0.02400000 1643144.89788478 6777.97301283
0.02500000 1639819.58863541 6395.29668776
0.02600000 1636365.44716198 9278.19250978
0.02700000 1632783.32865882 9600.76641224
0.02800000 1629073.20442104 7086.46876421
0.02900000 1625237.78974696 8044.92742862
0.03000000 1621277.12206058 9800.62065334
0.03100000 1617191.72264708 12420.03300141
0.03200000 1612982.41695178 8782.68966482
0.03300000 1608652.18012530 10665.36444591
0.03400000 1604199.00669168 10948.65872585
0.03500000 1599626.15685818 10365.57797510
0.03600000 1594933.46584601 12392.63360233
0.03700000 1590122.77862779 10876.44030882
0.03800000 1585195.27425118 12055.41061860
0.03900000 1580152.39200493 12325.18922842
0.04000000 1574993.06105566 11623.44932921
0.04100000 1569721.23046255 10878.16863149
0.04200000 1564337.12514950 12107.96991038
0.04300000 1558840.99631289 12346.02126388
0.04400000 1553236.41524198 12581.21554776
0.04500000 1547523.06439773 12813.49156859
0.04600000 1541701.31076733 13042.79369541
0.04700000 1535774.36464443 15480.60631559
0.04800000 1529742.41181267 15741.05014995
0.04900000 1523608.25192228 15997.88738985
0.05000000 1517371.42640625 15090.25953831
0.05100000 1511035.27907859 11786.07572586
0.05200000 1504598.19195174 14353.86742013
0.05300000 1498065.36667396 12134.33003574
0.05400000 1491435.35608325 15995.64493993
0.05500000 1484712.10608646 14965.89872750
0.05600000 1477893.83708458 13899.59218639
0.05700000 1470986.09662817 16636.85352945
0.05800000 1463987.06525728 15547.54335898
0.05900000 1456899.08550553 15734.51085835
0.06000000 1449724.83989433 15917.97948571
0.06100000 1442465.76537213 13414.93224486
0.06200000 1435122.49587449 16274.28986393
0.06300000 1427698.10496519 16447.08293819
0.06400000 1420190.88713332 20770.29269568
0.06500000 1412606.80792375 13984.80805262
0.06600000 1404943.98500435 15531.65648093
0.06700000 1397205.49215916 18526.94569307
0.06800000 1389394.27028830 17256.27764473
0.06900000 1381510.96573149 15956.45240126
0.07000000 1373555.25250139 14628.36412416
0.07100000 1365531.98734896 16222.52076953
0.07200000 1357439.80448687 14863.96655546
0.07300000 1349283.91343843 25460.98863957
0.07400000 1341063.68186050 19613.05726636
0.07500000 1332781.13670402 16713.07623765
0.07600000 1324436.91878172 18356.69655489
0.07700000 1316036.09564831 20016.90995337
0.07800000 1307577.18314226 20143.22745095
0.07900000 1299061.97735066 21824.24224313
0.08000000 1290494.95978915 17247.46594668
0.08100000 1281876.03375536 20497.19874144
0.08200000 1273205.76499163 20606.83627337
0.08300000 1264487.84742747 15932.54762533
0.08400000 1255722.44205387 25616.73902031
0.08500000 1246913.86202507 17693.70853277
0.08600000 1238061.07068345 17772.36750410
0.08700000 1229167.84833975 21092.52126797
0.08800000 1220232.70253304 16290.10734386
0.08900000 1211261.92962001 16352.03681792
0.09000000 1202253.85414883 24616.14882005
0.09100000 1193211.72373207 19759.58707333
0.09200000 1184136.13440308 18170.56983619
0.09300000 1175030.79656577 23195.10901420
0.09400000 1165893.99940198 19936.78832675
0.09500000 1156730.03151322 19988.29588405
0.09600000 1147539.89447711 18366.37687447
0.09700000 1138326.87228223 21753.42755200
0.09800000 1129091.44802290 25150.51318723
0.09900000 1119835.49997207 26876.05326311
0.10000000 1110559.09373295 16824.97106129
0.10100000 1101264.81667242 16849.35248754
0.10200000 1091955.10686329 16870.70719457
0.10300000 1082630.73663164 18577.94431452
0.10400000 1073294.56402359 18594.82919650
0.10500000 1063949.09524224 23683.50797439
0.10600001 1054590.95483142 27081.89699437
0.10700001 1045227.45772892 18625.95417322
0.10800001 1035856.14919345 20323.49860363
0.10900001 1026481.36627863 16936.94334075
0.11000001 1017102.89556086 16934.76400820
0.11100001 1007723.29076134 20315.70249808
0.11200001 998344.78002072 25382.91722698
0.11300001 988965.75520692 18602.44673126
0.11400001 979591.61240235 16897.95610957
0.11500001 970222.10024937 18570.05187320
0.11600001 960858.53403183 21921.98848628
0.11700001 951503.54749725 21894.09765901
0.11800001 942155.60393815 21862.72181908
0.11900001 932819.25002830 25186.12093707
0.12000001 923494.14559029 18437.56148521
0.12100001 914184.09400792 25094.35456267
0.12200001 904887.58303316 18364.69436284
0.12300001 895607.76169873 24987.45772866
0.12400001 886344.83689558 16618.96647484
0.12500001 877100.85513184 21550.36902605
0.12600001 867878.51352729 18186.39510797
0.12700001 858677.32837008 21432.58712616
0.12800001 849497.88986930 19725.34193241
0.12900001 840343.19220321 18025.36232233
0.13000001 831213.82172786 17966.68760351
0.13100001 822110.02802990 22788.89105120
0.13200001 813035.46706474 17842.06416582
0.13300001 803990.46792444 25856.33466739
0.13400001 794974.28192206 20927.69895825
0.13500001 785990.41035948 19241.04615278
0.13600001 777038.15603612 17564.94834540
0.13700001 768120.45239016 22260.13175990
0.13800001 759235.86061828 17413.07528441
0.13900001 750389.66743028 17334.00213508
0.14000001 741578.84147254 15684.39323683
0.14100001 732806.38424033 20291.40973662
0.14200001 724071.92897032 20190.74669164
0.14300001 715380.14438361 16997.43303228
0.14400001 706725.18155764 24594.03747830
0.14500001 698115.95745657 18346.48822740
0.14600001 689547.16659788 16724.96731482
0.14700001 681024.74664052 16630.62509754
0.14800001 672545.10807417 18037.66064954
0.14900001 664110.64546826 17930.98827364
0.15000001 655723.29728561 19307.77339957
0.15100001 647383.08405048 20664.46901794
0.15200001 639092.10738880 17600.59746801
0.15300001 630849.72650202 24773.46992877
0.15400001 622655.19460316 15924.40735346
0.15500001 614512.88485066 14379.60218412
0.15600001 606419.88051693 14281.18886017
0.15700001 598382.13093955 21272.48575889
0.15800001 590392.43647049 18305.11835675
0.15900001 582459.10279883 13979.01912699
0.16000001 574577.07620014 19426.45186330
0.16100001 566752.97561638 15149.30775334
0.16200001 558981.43743630 21867.35486478
0.16300001 551266.96234756 18985.63507952
0.16400001 543608.22762589 17490.59554959
0.16500001 536006.66324062 13346.56654480
0.16600001 528462.01110517 15885.56880383
0.16700001 520974.80053200 14441.42215259
0.16800001 513544.91510767 18225.70989772
0.16900001 506176.21360165 14198.24346194
0.17000001 498865.47159792 20473.43992113
0.17100001 491614.53825770 13952.02125459
0.17200001 484423.81245346 16342.03808484
0.17300001 477293.20130697 14948.82377088
0.17400001 470224.48735983 13577.73271374
0.17500001 463216.28444229 13451.80153550
0.17600001 456267.58453956 14536.68592999
0.17700001 449383.29055905 14398.24130955
0.17800001 442560.02191851 17824.10572464
0.17900001 435798.91419777 15296.54261085
0.18000001 429101.13702400 15145.12534664
0.18100001 422467.10978692 14993.35843457
0.18200001 415893.37734160 15982.78324623
0.18300001 409385.39669657 19208.36372039
0.18400001 402939.39816696 14536.03947557
0.18500001 396558.04325317 15489.55790123
0.18600001 390240.01500978 14230.10281961
0.18700001 383985.64754837 15159.75408143
0.18800001 377794.42186054 10710.47236577
0.18900001 371669.69950298 10592.58693631
0.19000001 365604.96622732 12569.49933279
0.19100001 359609.33386593 11392.42423517
0.19200001 353674.29751633 14334.41995566
0.19300001 347806.22146402 11133.27767514
0.19400001 342000.96364742 14004.94012315
0.19500001 336260.64206296 15817.70135011
0.19600001 330583.80789474 15630.00317588
0.19700001 324971.70694882 10616.82616774
0.19800001 319423.82745306 14302.20255012
0.19900001 313941.00944252 12243.69994690
0.20000001 308520.23289034 11162.26255351
0.20100001 303165.28193039 13778.86271496
0.20200001 297872.93804271 9977.25453130
0.20300001 292645.22023163 9850.43857857
0.20400001 287481.27896219 12376.06964429
0.20500001 282379.89544390 12215.75485430
0.20600001 277342.61543605 14639.53064777
0.20700001 272368.08525983 11047.25006033
0.20800001 267456.54721359 9223.23946664
0.20900001 262609.95808714 9099.43547786
0.21000001 257823.62331220 11424.16528901
0.21100001 253099.88848552 8048.57683432
0.21200001 248438.48621389 10318.89301271
0.21300001 243838.90485795 9392.67505917
0.21400001 239301.79046022 8489.23141792
0.21500001 234826.82339957 14455.93993192
0.21600001 230411.33051809 8999.86699554
0.21700001 226057.62639544 8870.50167915
0.21800001 221764.56675216 9470.45627092
0.21900001 217530.81519846 8614.22068915
0.22000001 213356.87751550 9194.61507128
0.22100001 209244.97865392 8361.42974237
0.22200001 205191.24567536 8922.74174010
0.22300001 201196.53034832 8788.26486117
0.22400001 197258.78437815 8654.72957384
0.22500001 193382.56961624 9177.93718799
0.22600001 189562.53203102 7745.52542506
0.22700001 185801.22654116 6989.84247302
0.22800001 182096.45725252 8131.51768315
0.22900001 178448.11524843 6772.10629394
0.23000001 174856.79268288 6664.66696829
0.23100001 171322.82794503 6558.23816389
0.23200001 167842.87180866 7625.94124128
0.23300001 164419.33496806 7502.45460942
0.23400001 161050.81419668 5677.04146893
0.23500001 157735.37996057 6142.21598617
0.23600001 154475.20762139 6040.75327974
0.23700001 151268.38098067 7020.36589336
0.23800001 148114.80911504 5840.90777372
0.23900001 145014.29992841 6264.61805322
0.24000001 141965.80228788 5132.06399546
0.24100001 138970.50628384 6053.55554006
0.24200001 136025.92980440 5949.77445108
0.24300001 133132.53187788 5359.91598694
0.24400001 130289.23163670 5266.94243806
0.24500001 127496.37806005 5175.07823026
0.24600001 124753.40845539 5084.32540211
0.24700001 122060.36046590 7265.03299861
0.24800001 119415.07857368 7136.24543316
0.24900001 116817.96880925 4818.74144134
0.25000001 114269.32924505 5162.68853953
0.25100001 111767.37700341 5914.72987084
0.25200001 109313.54631995 4563.29420701
0.25300001 106906.08493563 4480.43423162
0.25400001 104543.78671749 4398.68003424
0.25500001 102227.14172759 5495.73139929
0.25600001 99955.81464952  3853.29683705
0.25700001 97728.94274268  4160.32128939
0.25800001 95545.85018616  4083.15210090
0.25900001 93406.70867503  5100.00653496
0.26000001 91311.15449292  3932.31505430
0.26100001 89256.04857181  3507.76287485
0.26200001 87245.58472684  3441.83848033
0.26300001 85275.39440807  3714.59635618
0.26400001 83346.09498456  3975.60891888
0.26500001 81458.45382983  3575.21170777
0.26600001 79610.04961540  5420.25048455
0.26700001 77802.42842783  4065.95510204
0.26800001 76033.73520438  3988.34976888
0.26900001 74303.23200237  3611.13724620
0.27000001 72611.64869418  3541.99639092
0.27100001 70957.67020033  3184.58038929
0.27200001 69341.30428822  3691.38450847
0.27300001 67761.26874846  4455.98124377
0.27400001 66216.50007784  3550.85998472
0.27500001 64709.94762244  2678.99195835
0.27600001 63236.50573487  3152.97232516
0.27700001 61799.75447908  3350.16484886
0.27800001 60396.48344444  3285.87083731
0.27900001 59027.71108073  2727.08038100
0.28000001 57692.13749481  3647.58556574
0.28100001 56389.34431159  2623.79631500
0.28200001 55119.69871986  3041.78071782
0.28300001 53882.12586314  3213.53013857
0.28400001 52676.23185827  3152.67262594
0.28500001 51501.77154248  3093.19654525
0.28600001 50357.41954129  2384.67571525
0.28700001 49243.68234267  3190.99076684
0.28800001 48159.25854557  2714.01514380
0.28900001 47105.67499249  2868.73574283
0.29000001 46079.72350309  2614.79403395
0.29100001 45083.48223316  2369.58793834
0.29200001 44114.61353176  2326.60482780
0.29300001 43173.41879214  1903.94785886
0.29400001 42259.25175195  2056.96917640
0.29500001 41372.98829163  2020.65684381
0.29600001 40511.94506535  2165.76868572
0.29700001 39676.54530197  2128.24999074
0.29800001 38867.40428551  2614.80474709
0.29900001 38083.20024379  2056.49291052
0.30000001 37323.45313854  1853.66938788
0.30100001 36588.86058541  2154.71810188
0.30200001 35876.93050851  1630.60656881
0.30300001 35188.98920806  2246.46517739
0.30400001 34524.66174650  2369.25502452
0.30500001 33881.91209873  1710.69782285
0.30600001 33261.61842608  2450.71616166
0.30700001 32663.59256766  1659.96385288
0.30800001 32086.91763204  2082.12018372
0.30900001 31531.14515954  1906.05781514
0.31000001 30996.89385481  1590.60568347
0.31100001 30481.31712402  1569.17827984
0.31200001 29986.82366741  2111.82215676
0.31300001 29511.19407227  1667.97276794
0.31400001 29056.40797849  1922.08147878
0.31500001 28619.15787892  1627.85777723
0.31600002 28200.67068802  1743.22454112
0.31700002 27799.72714411  1591.25645707
0.31800002 27417.02681371  1705.47623370
0.31900002 27052.00964075  1947.74478636
0.32000002 26703.75427542  2185.83590971
0.32100002 26372.47788420  1655.92796476
0.32200002 26057.76989958  1262.49901141
0.32300002 25758.37036555  1627.41391675
0.32400002 25475.02035840  1241.90730128
0.32500002 25206.60774631  1848.90476574
0.32600002 24953.75555068  1713.57447481
0.32700002 24715.50264350  1337.60306641
0.32800002 24492.28807635  1450.43336856
0.32900002 24281.92076851  1562.54167545
0.33000002 24086.95343709  1315.50902426
0.33100002 23903.09722783  1309.41172815
0.33200002 23734.88662546  1185.55764308
0.33300002 23578.17746909  1299.39342185
0.33400002 23434.80404614  1413.11875090
0.33500002 23303.10231243  1174.47641217
0.33600002 23183.50082640  1406.31122673
0.33700002 23074.82582914  1403.87246993
0.33800002 22979.03346070  1519.02907886
0.33900002 22893.01185961  1634.56112419
0.34000002 22818.52472475  1984.18491141
0.34100002 22754.34345995  1750.94681217
0.34200002 22701.55347025  1518.39347577
0.34300002 22657.25664439  1519.84884769
0.34400002 22623.69485512  1639.08676988
0.34500002 22599.26000153  1524.77214452
0.34600002 22585.26647009  1175.56317544
0.34700002 22578.07385835  1885.72081796
0.34800002 22581.29928248  1654.98350280
0.34900002 22592.49603731  1779.15914720
0.35000002 22612.18421929  1428.63786664
0.35100002 22639.82286060  1195.38270366
0.35200002 22674.57088669  1320.68044385
0.35300002 22717.33713624  1447.54879088
0.35400002 22767.75082476  1697.33590438
0.35500002 22825.03295144  2437.71363467
0.35600002 22888.69686019  1593.39670739
0.35700002 22959.21102739  1726.07356679
0.35800002 23036.70624206  1364.57935888
0.35900002 23119.93210324  1747.86694979
0.36000002 23209.87087201  1256.81456725
0.36100002 23304.69941381  1265.44523811
0.36200002 23406.35788525  1401.92387194
0.36300002 23511.62037996  1668.85489362
0.36400002 23622.94308842  1422.69181489
0.36500002 23738.61975357  1303.25028620
0.36600002 23859.87796540  1576.18361306
0.36700002 23985.20353392  2250.77160624
0.36800002 24116.38602854  1735.29463888
0.36900002 24250.57907548  2018.86080367
0.37000002 24388.26661564  1628.64852174
0.37100002 24530.08022308  1368.77854129
0.37200002 24676.12996492  2347.07021279
0.37300002 24825.08029653  1810.49319179
0.37400002 24978.36969883  1405.03336212
0.37500002 25133.67131017  1559.29304195
0.37600002 25293.16054519  2145.49244488
0.37700002 25454.10363796  2597.84594035
0.37800002 25618.85139437  2039.00447907
0.37900002 25785.83931583  1616.77220169
0.38000002 25955.22590761  1928.34360016
0.38100002 26126.44481740  1946.15896664
0.38200002 26299.95771731  1813.11917092
0.38300002 26475.21644685  2287.45880937
0.38400002 26652.95181372  2462.73286426
0.38500002 26831.08353650  2019.57575347
0.38600002 27012.04278234  2665.68356826
0.38700002 27193.14605471  1582.64117536
0.38800002 27375.67166262  1597.37051719
0.38900002 27559.31451370  1934.66397052
0.39000002 27744.68201611  1789.94824507
0.39100002 27929.94494336  2956.10551285
0.39200002 28116.49134646  1657.46724340
0.39300002 28303.20496108  2341.80728943
0.39400002 28491.31982949  1688.11077988
0.39500002 28678.76496296  2044.22246341
0.39600002 28866.55146837  2062.80386566
0.39700002 29054.11276756  2948.70204448
0.39800002 29242.86454224  2100.22263093
0.39900002 29430.43289843  1942.40866333
0.40000002 29617.82756247  1959.66365352
0.40100002 29804.79625736  2875.56687915
0.40200002 29992.43332296  2175.65121633
0.40300002 30178.48758936  2194.57972148
0.40400002 30363.99358850  2029.07396769
0.40500002 30548.91324096  3162.72913769
0.40600002 30733.22572324  2439.14257509
0.40700002 30916.52713697  2270.50986052
0.40800002 31098.96117730  2671.08990208
0.40900002 31279.74349978  2116.07474802
0.41000002 31460.13206747  2521.37240402
0.41100002 31638.92728593  1955.28579892
0.41200002 31815.74603455  2168.08411625
0.41300002 31991.72527419  2185.35485703
0.41400002 32165.97607696  2803.26494793
0.41500002 32339.19425891  3430.54188954
0.41600002 32509.66732999  2440.17574541
0.41700002 32679.11458870  2663.67475634
0.41800002 32847.72058509  2477.37520392
0.41900002 33012.44635758  2495.74106289
0.42000002 33176.13619863  2304.58041024
0.42100002 33338.31291441  2743.40989972
0.42200002 33498.31732807  2338.01516870
0.42300002 33655.75652470  2568.60745968
0.42400002 33810.89597430  2370.98919255
0.42500002 33964.46607549  3255.49422760
0.42600002 34114.30846907  2403.52371708
0.42700002 34263.17718020  3079.57451089
0.42800002 34409.11246686  3321.33973825
0.42900002 34553.17103420  2897.28352851
0.43000002 34694.69930199  2691.61489940
0.43100002 34832.37080997  3159.99282962
0.43200002 34968.39652284  2952.55670032
0.43300002 35101.41484285  2742.12265747
0.43400002 35232.14930934  3448.34677706
0.43500002 35359.70525658  3006.28228338
0.43600002 35485.53324979  3023.89985918
0.43700002 35607.50846355  3743.06146707
0.43800002 35726.07386930  2587.81828336
0.43900002 35842.79486619  2838.74948793
0.44000002 35955.94827824  2616.33470045
0.44100002 36066.81487800  2630.35293370
0.44200002 36174.43907383  4086.44570363
0.44300002 36279.38683101  2899.44873294
0.44400002 36380.68980098  3642.61673895
0.44500002 36478.22884803  3172.51171326
0.44600002 36573.61788500  2697.48731495
0.44700002 36665.99983277  2463.95530553
0.44800002 36754.19557670  2475.39518940
0.44900002 36840.67267491  2735.42007575
0.45000002 36923.60614644  3247.24669644
0.45100002 37002.26150503  3763.13017341
0.45200002 37078.55736373  3275.33451995
0.45300002 37151.00777539  2782.98212435
0.45400002 37220.94377479  5334.69201935
0.45500002 37287.42072002  3315.59760756
0.45600002 37350.38461687  3072.44278420
0.45700002 37410.15468580  3084.09329846
0.45800002 37465.92183096  2837.48172435
0.45900002 37518.81537644  2847.67822204
0.46000002 37569.08798202  2597.90255708
0.46100002 37614.77974537  3910.05653985
0.46200002 37657.97385848  3138.41569011
0.46300002 37697.54273493  2886.12400857
0.46400002 37733.29660674  2631.89756306
0.46500002 37766.60283615  3695.83992871
0.46600002 37795.77996685  3706.63231703
0.46700002 37821.57980830  3186.09003406
0.46800002 37844.78728730  3461.09518540
0.46900002 37863.89179756  4537.98764702
0.47000002 37879.31943444  3211.40885386
0.47100002 37891.96715741  2951.02654209
0.47200002 37900.96421006  3764.70295342
0.47300002 37907.32331430  3503.77406001
0.47400002 37908.90154381  3511.31217192
0.47500002 37908.27796198  2977.31629225
0.47600002 37904.56516613  2983.27894280
0.47700002 37896.40255213  3532.32384931
