# SAXS profile: number of points = 501, q_min = 0, q_max = 0.5, delta_q = 0.001
#    q    intensity    error
0.00000000 1682732.95097189 302.89193117
0.00100000 1682663.46882200 757.19857895
0.00200000 1682454.97236744 832.81523769
0.00300000 1682107.62639951 1009.26461179
0.00400000 1681621.31050225 1891.82404620
0.00500000 1680996.46696770 1512.89688015
0.00600000 1680232.85421617 2822.79131000
0.00700000 1679331.07591532 3022.79606228
0.00800000 1678290.65974857 3171.96948085
0.00900000 1677112.93881205 3018.80341891
0.01000000 1675797.03736097 3594.58480035
0.01100000 1674344.23959196 3315.20173873
0.01200000 1672754.04339706 3261.87052764
0.01300000 1671027.75539152 4561.90597342
0.01400000 1669164.73933340 5257.86916199
0.01500000 1667166.67433472 5601.68027520
0.01600000 1665032.49184774 5094.99965282
0.01700000 1662764.27622573 7632.08837024
0.01800000 1660361.68401576 5205.23411361
0.01900000 1657825.30364580 5968.17136242
0.02000000 1655155.86162866 5735.11531998
0.02100000 1652355.00551981 5998.04894198
0.02200000 1649420.95907480 6828.60308081
0.02300000 1646356.62730938 9483.01460495
0.02400000 1643161.77664975 7394.22833208
0.02500000 1639837.91421703 8953.51542054
0.02600000 1636385.19900095 9278.30450271
0.02700000 1632804.66492711 13029.78182290
0.02800000 1629096.06596944 7086.56821195
0.02900000 1625262.32509942 8045.04887862
0.03000000 1621303.32795416 12062.49731443
0.03100000 1617219.68118893 9315.18579227
0.03200000 1613012.18850286 10379.73391109
0.03300000 1608683.80569278 10665.57412343
0.03400000 1604232.51742799 8422.22110510
0.03500000 1599661.66467321 10365.80806576
0.03600000 1594970.93643093 8852.08910628
0.03700000 1590162.29295053 9063.92548900
0.03800000 1585236.91006455 12983.09089428
0.03900000 1580196.19584537 16118.00194405
0.04000000 1575039.11922076 17435.68385773
0.04100000 1569769.47940096 10878.50299665
0.04200000 1564387.67211361 11099.33104858
0.04300000 1558893.91871028 12346.44040928
0.04400000 1553291.69155129 12581.66328588
0.04500000 1547580.84878611 10678.30835279
0.04600000 1541761.54388171 10869.41938965
0.04700000 1535837.11921305 16587.04165893
0.04800000 1529807.77704099 13492.90522130
0.04900000 1523676.26218269 12570.32974812
0.05000000 1517442.11041386 12769.27595375
0.05100000 1511108.70522072 15322.64298473
0.05200000 1504674.25410567 13158.37696535
0.05300000 1498144.29541027 13348.46629438
0.05400000 1491517.10572890 14766.02003531
0.05500000 1484796.63502792 16213.98001088
0.05600000 1477981.35230227 16427.76349743
0.05700000 1471076.64102087 14078.20411172
0.05800000 1464080.60809551 22027.09377729
0.05900000 1456995.65162654 15735.55377251
0.06000000 1449824.48421998 14592.48411542
0.06100000 1442568.55820399 14757.47704006
0.06200000 1435228.41098504 16275.49094134
0.06300000 1427807.19333817 20560.42454538
0.06400000 1420303.00719167 18002.34145806
0.06500000 1412722.28028148 20978.92684353
0.06600000 1405062.82775520 14120.88207964
0.06700000 1397327.60915295 17103.29073645
0.06800000 1389519.71685328 17257.83569114
0.06900000 1381639.69301715 20310.10443825
0.07000000 1373687.38997920 16092.74852721
0.07100000 1365667.46848296 19173.97215557
0.07200000 1357578.82640631 16352.03773010
0.07300000 1349426.52699048 16476.49866657
0.07400000 1341209.73386028 16597.47123435
0.07500000 1332930.70066313 24312.65711969
0.07600000 1324590.10574144 18358.81972625
0.07700000 1316192.74885600 16939.40147204
0.07800000 1307737.43153227 15496.68929039
0.07900000 1299225.96299543 24945.13965953
0.08000000 1290662.53563437 21954.17076103
0.08100000 1282047.39934653 18923.02050219
0.08200000 1273380.76306360 20609.66861730
0.08300000 1264666.45528011 22308.71731813
0.08400000 1255904.78936998 19215.34417930
0.08500000 1247099.93805848 25740.14392990
0.08600000 1238251.02204017 19391.01191559
0.08700000 1229361.47516979 16227.57223425
0.08800000 1220430.06954546 17922.01641296
0.08900000 1211462.98945940 17990.22623847
0.09000000 1202458.91870764 19696.27801367
0.09100000 1193420.52715835 23056.88566794
0.09200000 1184348.68340922 19825.99789183
0.09300000 1175247.29337643 23199.38266144
0.09400000 1166114.28978775 19940.55529253
0.09500000 1156954.12944955 21658.18232129
0.09600000 1147767.75272792 23380.03022211
0.09700000 1138558.72487996 25105.22106387
0.09800000 1129327.08535386 18447.55880662
0.09900000 1120075.12771582 20161.35324692
0.10000000 1110802.33649195 25242.98428389
0.10100000 1101512.02381730 20223.76170845
0.10200000 1092206.32095901 23624.42383355
0.10300000 1082885.82034726 21960.92546970
0.10400000 1073553.48214509 18599.31495317
0.10500000 1064211.86717921 27073.55117483
0.10600001 1054857.54999537 22009.60381628
0.10700001 1045497.86855465 16937.06626760
0.10800001 1036130.36156654 16940.73220887
0.10900001 1026759.35980897 18635.68325763
0.11000001 1017384.83109945 25409.18735271
0.11100001 1008008.95789264 16934.55128976
0.11200001 998634.32578451 27082.96419026
0.11300001 989259.01866718 21991.22902034
0.11400001 979888.67739817 23664.31267339
0.11500001 970522.93133978 23641.93972069
0.11600001 961162.97035760 26989.45747862
0.11700001 951811.69859215 18531.77464434
0.11800001 942467.65195772 18505.35321776
0.11900001 933134.87512877 21835.35710649
0.12000001 923813.59108225 18443.93921476
0.12100001 914507.04231157 20082.57559521
0.12200001 905214.15268522 21711.56247501
0.12300001 895938.09126732 19997.33913925
0.12400001 886678.79169977 21612.79656602
0.12500001 877438.21550711 19900.29966541
0.12600001 868219.45959833 23155.41407865
0.12700001 859021.91334067 18142.54366475
0.12800001 849846.02261090 19733.42557505
0.12900001 840694.76474908 18032.90355380
0.13000001 831568.87580620 24510.49376969
0.13100001 822468.43034854 19541.85082624
0.13200001 813397.01221008 16227.27115855
0.13300001 804355.58155084 16167.54795136
0.13400001 795342.66446289 20937.39662909
0.13500001 786362.12507891 17645.96691875
0.13600001 777412.94861940 28756.50632532
0.13700001 768498.52263323 20680.29621920
0.13800001 759617.16871874 25340.82994342
0.13900001 750774.08128004 18919.50774047
0.14000001 741966.31137690 21969.62351597
0.14100001 733197.04697920 23425.64675581
0.14200001 724465.50906127 17093.76449253
0.14300001 715776.76289122 20099.01245001
0.14400001 707124.79176546 19993.95443028
0.14500001 698518.27884364 21416.57143961
0.14600001 689952.31251690 18256.13905042
0.14700001 681432.88661097 19666.15403537
0.14800001 672955.91084473 15040.56531697
0.14900001 664524.09158582 14951.79276612
0.15000001 656139.54097579 19320.02969561
0.15100001 647801.97231954 17723.86279896
0.15200001 639513.32341561 14676.83146494
0.15300001 631273.55185621 17498.90368321
0.15400001 623081.49609294 15935.31001458
0.15500001 614941.64953390 20145.48938946
0.15600001 606850.95240958 14291.34060372
0.15700001 598815.54255683 22707.08644546
0.15800001 590828.14913601 21136.87803297
0.15900001 582897.09285658 16787.43706665
0.16000001 575017.08166247 18052.66213092
0.16100001 567195.04368518 19295.97629702
0.16200001 559425.55289349 15045.75095532
0.16300001 551713.02697446 21715.42576685
0.16400001 544056.12696762 17505.00671159
0.16500001 536456.58779675 18700.87753349
0.16600001 528913.62011844 15899.14417141
0.16700001 521428.12061534 14453.98818590
0.16800001 513999.96026958 16938.86949048
0.16900001 506632.92198370 14211.05413266
0.17000001 499323.59284437 19211.47614185
0.17100001 492074.26359654 13965.06826032
0.17200001 484884.77482430 16357.58865115
0.17300001 477755.51465542 14963.30342564
0.17400001 470688.20540765 14826.67917055
0.17500001 463681.13542739 13465.30080875
0.17600001 456733.69077866 20614.67610691
0.17700001 449850.50521278 12011.00905647
0.17800001 443028.18746001 15463.89961368
0.17900001 436268.01649746 11779.23700181
0.18000001 429571.09132640 11662.85568041
0.18100001 422937.92946057 15010.06782558
0.18200001 416364.89342509 18286.74698306
0.18300001 409857.65491166 13574.48617192
0.18400001 403412.21902781 12314.15856755
0.18500001 397031.45067204 13292.61359647
0.18600001 390713.96797134 10959.52731936
0.18700001 384459.74374412 14094.29487154
0.18800001 378268.98160014 11796.31874853
0.18900001 372144.45439432 12727.34094162
0.19000001 366079.90573908 15732.28469247
0.19100001 360084.44243999 12444.51891873
0.19200001 354149.36961194 11277.88720819
0.19300001 348281.21276267 17229.47240951
0.19400001 342475.93174712 10017.42147697
0.19500001 336735.50059359 12870.03144086
0.19600001 331058.29012456 13695.88210967
0.19700001 325445.74167300 14498.60847670
0.19800001 319897.56607652 10503.83707852
0.19900001 314414.32143718 9432.43008889
0.20000001 308992.84175990 11179.36154322
0.20100001 303637.39849283 11040.25633099
0.20200001 298344.29327497 11809.95940747
0.20300001 293115.84293298 10763.21426122
0.20400001 287950.86352551 12396.28526069
0.20500001 282848.58561368 10488.02605029
0.20600001 277810.35477511 9488.61311585
0.20700001 272834.72147482 10214.93245487
0.20800001 267922.00386772 12599.03282744
0.20900001 263074.19458199 8286.83752106
0.21000001 258286.51522396 11444.67603059
0.21100001 253561.44462105 10482.23061616
0.21200001 248898.55974591 9542.77123179
0.21300001 244297.49934839 12547.12015970
0.21400001 239758.68311642 8505.43968566
0.21500001 235281.99475940 10672.39178685
0.21600001 230864.76637875 8266.11335100
0.21700001 226509.19809356 9628.90646621
0.21800001 222214.31260816 7299.74051431
0.21900001 217978.60113118 8631.95301293
0.22000001 213802.53763277 8505.06534917
0.22100001 209688.57140141 6982.62975783
0.22200001 205632.59126831 8254.09260380
0.22300001 201635.52262607 7452.44926865
0.22400001 197695.53139902 7339.44695024
0.22500001 193816.83658692 8541.50839229
0.22600001 189994.29310822 10997.82017664
0.22700001 186230.47878021 7642.89921057
0.22800001 182523.03603672 9404.49987653
0.22900001 178871.99236457 6788.19243126
0.23000001 175277.79957398 7895.38885520
0.23100001 171741.15731157 7769.57032422
0.23200001 168258.16611492 7056.74782060
0.23300001 164831.71860348 6942.71231593
0.23400001 161460.08220225 9106.34906689
0.23500001 158141.46966089 6158.02911985
0.23600001 154878.17687628 6056.51139320
0.23700001 151668.11216548 7580.37260457
0.23800001 148511.25143768 5856.54147745
0.23900001 145407.32790941 6805.06326804
0.24000001 142355.32873833 6175.37445277
0.24100001 139356.45991819 7082.09562803
0.24200001 136408.32656245 6463.70885991
0.24300001 133511.38939766 6352.47220803
0.24400001 130664.36258258 5762.29866247
0.24500001 127867.72255169 6133.81494096
0.24600001 125120.82764101 7880.73570177
0.24700001 122423.90405536 5920.42028019
0.24800001 119774.65991828 6263.01726341
0.24900001 117173.67370555 4833.41426901
0.25000001 114620.87884541 5610.11918049
0.25100001 112114.80182822 5509.32162248
0.25200001 109656.81624570 4993.77164808
0.25300001 107245.06813774 4086.03728936
0.25400001 104878.50012014 4813.92338327
0.25500001 102557.50739121 3938.20847015
0.25600001 100281.85526409 4639.03884400
0.25700001 98050.33944252  4553.45797915
0.25800001 95862.91052425  4841.55652510
0.25900001 93719.11364369  5117.06384706
0.26000001 91618.96257043  5021.63557609
0.26100001 89559.20649295  4223.61237805
0.26200001 87544.06276558  4144.33612742
0.26300001 85569.14636281  3727.39219193
0.26400001 83635.07259220  4986.74143927
0.26500001 81742.60548729  3261.53011327
0.26600001 79889.27486462  4159.43529265
0.26700001 78076.68731827  3452.55127659
0.26800001 76303.15479448  4002.48217415
0.26900001 74567.60592623  4227.98345609
0.27000001 72870.94505696  4147.08567944
0.27100001 71211.84440584  4358.16508388
0.27200001 69590.38221311  3134.69891513
0.27300001 68005.21811527  4472.02335489
0.27400001 66455.27782906  3015.40837420
0.27500001 64943.51183989  4301.85842786
0.27600001 63464.77912940  3428.05020691
0.27700001 62022.75759101  2586.34911395
0.27800001 60614.13956298  3551.38260507
0.27900001 59240.02019759  2736.88906266
0.28000001 57899.01471163  3660.66537840
0.28100001 56590.92334588  3351.31463916
0.28200001 55315.86385085  3052.60609109
0.28300001 54072.76633108  2764.19994568
0.28400001 52861.44763124  2259.82699319
0.28500001 51681.49384024  2438.84980976
0.28600001 50531.56058095  2827.99892177
0.28700001 49412.32053792  2348.07358310
0.28800001 48322.27486866  2723.20192912
0.28900001 47263.17029847  2672.73240689
0.29000001 46231.58736377  2623.41154913
0.29100001 45229.73905028  2971.59399626
0.29200001 44255.25838585  2334.02243775
0.29300001 43308.40131592  2482.87076497
0.29400001 42388.58966186  2438.40373572
0.29500001 41496.66123836  2579.43258468
0.29600001 40629.95707670  1991.07114080
0.29700001 39788.92585598  2134.27808395
0.29800001 38974.00169783  1747.98405889
0.29900001 38184.14991383  2405.60155845
0.30000001 37418.75824221  1858.40271608
0.30100001 36678.49494517  2159.99666958
0.30200001 35960.84076670  1797.86231924
0.30300001 35267.13654073  1608.18150239
0.30400001 34597.10008654  2374.22610584
0.30500001 33948.71074633  2337.36884554
0.30600001 33322.71900435  1994.86466764
0.30700001 32719.08464076  1965.10831656
0.30800001 32136.59488734  1936.39061661
0.30900001 31575.24035466  1615.07362061
0.31000001 31035.34444504  2026.91844167
0.31100001 30514.04840079  1856.47479260
0.31200001 30013.95001907  1550.07052212
0.31300001 29532.71672717  1808.28833082
0.31400001 29072.23178069  1511.02931834
0.31500001 28629.47946765  1492.74113012
0.31600002 28205.37862477  1743.51556224
0.31700002 27798.80350745  1989.00448513
0.31800002 27410.62064421  1836.23756390
0.31900002 27040.00316006  1687.29627708
0.32000002 26686.22878945  1413.43617476
0.32100002 26349.49224462  2036.28885708
0.32200002 26029.29644016  1513.34336669
0.32300002 25724.44772492  1500.24986236
0.32400002 25435.67813928  1239.98936800
0.32500002 25161.88979321  1476.49976298
0.32600002 24903.72098029  1710.13860070
0.32700002 24660.10255609  1577.26023417
0.32800002 24431.54994585  1567.40616100
0.32900002 24215.94387865  1438.42713451
0.33000002 24015.70961404  1192.38003880
0.33100002 23826.65748943  1542.53787891
0.33200002 23653.32504697  1890.37382727
0.33300002 23491.39086511  1647.68623331
0.33400002 23342.91271703  1290.27956154
0.33500002 23206.23230604  1520.47241270
0.33600002 23081.61201430  1516.80820535
0.33700002 22967.93125062  1746.71125433
0.33800002 22867.12239182  1279.07255156
0.33900002 22776.27674986  1393.90820310
0.34000002 22696.81067121  1277.03611289
0.34100002 22627.97507040  1160.81517609
0.34200002 22570.36898682  1161.24553937
0.34300002 22521.35538803  1278.31219236
0.34400002 22483.12067131  1512.55201480
0.34500002 22454.03362215  1864.58304029
0.34600002 22435.43459841  1751.64663923
0.34700002 22423.66999352  1287.56719201
0.34800002 22422.45397559  1173.81552122
0.34900002 22429.24256147  1530.79587732
0.35000002 22444.49522194  1299.87300234
0.35100002 22467.89553504  1186.30494044
0.35200002 22498.34139173  1310.41595643
0.35300002 22536.84185356  1196.70635910
0.35400002 22583.20701446  1563.32257962
0.35500002 22636.35197889  2175.80625527
0.35600002 22695.95293590  2309.19984084
0.35700002 22762.54872312  1711.28849406
0.35800002 22836.04169647  1475.66508432
0.35900002 22915.37278728  1732.40226477
0.36000002 23001.49904120  1494.63747849
0.36100002 23092.65046989  1379.32407790
0.36200002 23190.52151525  1262.72395632
0.36300002 23292.26000695  1398.93320228
0.36400002 23399.91111393  1665.48875242
0.36500002 23512.15904235  1678.06287034
0.36600002 23629.96314449  1560.99543927
0.36700002 23751.92510303  1573.32759335
0.36800002 23879.78357268  1586.09530003
0.36900002 24010.89342326  1465.86511293
0.37000002 24145.28255669  1612.42204552
0.37100002 24283.96467773  1761.55888117
0.37200002 24427.01602754  1776.69909493
0.37300002 24573.01749288  1929.96488531
0.37400002 24723.37969555  1668.82820850
0.37500002 24875.85534716  1964.19763126
0.37600002 25032.62482252  1981.83300108
0.37700002 25190.87801318  1571.15513611
0.37800002 25352.95894246  1729.57894099
0.37900002 25517.42110816  2036.29030090
0.38000002 25684.35011960  2055.00495042
0.38100002 25853.18204789  1777.66488183
0.38200002 26024.34172444  1644.60835319
0.38300002 26197.35621780  2565.24524237
0.38400002 26372.81218183  2132.24196591
0.38500002 26548.89203919  1690.89901408
0.38600002 26727.73496854  2172.16312380
0.38700002 26906.97056323  2348.97864145
0.38800002 27087.55239158  2212.78225970
0.38900002 27269.38868745  1754.78524517
0.39000002 27453.01444849  1932.14324842
0.39100002 27636.52560712  1787.53056095
0.39200002 27821.42388327  2132.09492031
0.39300002 28006.66416317  1820.71332351
0.39400002 28193.28286112  1837.49729753
0.39500002 28379.40785111  2360.03166871
0.39600002 28565.83214667  2381.53353890
0.39700002 28752.16239451  2574.75626442
0.39800002 28939.73305969  2771.26896909
0.39900002 29126.25543706  2621.36311353
0.40000002 29312.61986987  2644.73125306
0.40100002 29498.59787562  2134.51864341
0.40200002 29685.44506823  1973.93376334
0.40300002 29870.70439822  2172.19772676
0.40400002 30055.50189871  2008.45900954
0.40500002 30239.69667131  2394.07689890
0.40600002 30423.49916592  2600.29659691
0.40700002 30606.21521163  2060.41050567
0.40800002 30788.29467341  1888.86196771
0.40900002 30968.61691136  2285.48403635
0.41000002 31148.75606249  2688.44926314
0.41100002 31327.37941360  2904.04820924
0.41200002 31504.00905131  2146.84079852
0.41300002 31679.99749626  2557.52631906
0.41400002 31854.18405632  2379.50766176
0.41500002 32027.52829731  1998.51786045
0.41600002 32198.08025034  2416.78801811
0.41700002 32367.77124848  2029.45935344
0.41800002 32536.65163934  2249.42151767
0.41900002 32701.73503685  3090.31410742
0.42000002 32865.82997587  2490.57271359
0.42100002 33028.52929671  2299.77660390
0.42200002 33189.07952032  2527.01663442
0.42300002 33347.07832715  3817.57370779
0.42400002 33502.99672692  2776.56098531
0.42500002 33657.26862622  2150.69956713
0.42600002 33807.92940483  2598.47757719
0.42700002 33957.71017647  2398.09360630
0.42800002 34104.59055375  2194.63050613
0.42900002 34249.69591155  2650.92658917
0.43000002 34392.29920585  3335.19337353
0.43100002 34531.08696748  3356.42181229
0.43200002 34668.36983117  2251.71072724
0.43300002 34802.63906640  3171.91267482
0.43400002 34934.76024845  2735.39185708
0.43500002 35063.64518259  2981.11125469
0.43600002 35190.95843226  3921.50463873
0.43700002 35314.40575617  2552.17222494
0.43800002 35434.61166701  3033.38007550
0.43900002 35552.93047367  2346.49352246
0.44000002 35667.75315992  3067.24857834
0.44100002 35780.42314001  2846.69059992
0.44200002 35889.82425040  3815.80629513
0.44300002 35996.60221134  3116.58596715
0.44400002 36099.87153171  3132.56650062
0.44500002 36199.33213622  2906.08252162
0.44600002 36296.66978476  2920.43018928
0.44700002 36391.22840466  3423.68693056
0.44800002 36481.51950104  2948.43654581
0.44900002 36570.17546905  2468.48696115
0.45000002 36655.35894409  2479.73515009
0.45100002 36736.23046782  3736.07481564
0.45200002 36814.91129647  3001.88800938
0.45300002 36889.68299546  2763.40628416
0.45400002 36962.01348971  2774.92329425
0.45500002 37030.98899418  4559.25558104
0.45600002 37096.49854461  4323.04066278
0.45700002 37158.76166108  3318.64916123
0.45800002 37217.15231228  2818.64116396
0.45900002 37272.66104958  3086.17648117
0.46000002 37325.61964337  3097.28006480
0.46100002 37373.96956945  2849.01783531
0.46200002 37419.98272358  3378.46330032
0.46300002 37462.38310280  3128.85838504
0.46400002 37500.91588576  2877.25790770
0.46500002 37537.14339542  3411.00038201
0.46600002 37569.16574291  3158.06422203
0.46700002 37597.92872094  2903.31219344
0.46800002 37624.16390312  3440.91807285
0.46900002 37646.27953127  2919.46911602
0.47000002 37664.71529007  3193.21471364
0.47100002 37680.42060878  3201.32868665
0.47200002 37692.55591222  2941.71566560
0.47300002 37702.05373863  3752.86260702
0.47400002 37706.67935684  2955.26113466
0.47500002 37709.27566600  2692.44241017
0.47600002 37708.84229406  4047.10169103
0.47700002 37703.89096173  3244.04293211
