# SAXS profile: number of points = 501, q_min = 0, q_max = 0.5, delta_q = 0.001
#    q    intensity    error
0.00000000 1682732.95097189 277.65093691
0.00100000 1682663.49284516 656.23877779
0.00200000 1682455.06230891 1135.65720302
0.00300000 1682107.83573480 1513.89710609
0.00400000 1681621.68707805 1639.58120720
0.00500000 1680997.04402351 1966.76661935
0.00600000 1680233.68925193 2293.51907920
0.00700000 1679332.22130777 2418.23849919
0.00800000 1678292.14648254 2492.26394275
0.00900000 1677114.81282564 3270.37402481
0.01000000 1675799.33809754 3594.58973543
0.01100000 1674347.04580307 3315.20729503
0.01200000 1672757.38640266 4240.44016045
0.01300000 1671031.66372878 3860.08331346
0.01400000 1669169.27118619 4506.75723199
0.01500000 1667171.83302024 4801.45509290
0.01600000 1665038.36493213 6793.35683261
0.01700000 1662770.91544683 5836.32617503
0.01800000 1660369.08503845 8990.89900005
0.01900000 1657833.50360619 7957.60117638
0.02000000 1655164.99637374 5213.76997443
0.02100000 1652365.03655402 7088.64632821
0.02200000 1649431.94061634 7397.70258976
0.02300000 1646368.58608302 7705.00533359
0.02400000 1643174.74677366 6778.09613951
0.02500000 1639851.92320159 7674.50735108
0.02600000 1636400.30197433 7290.16367874
0.02700000 1632820.88986989 10286.77207733
0.02800000 1629113.51194061 9921.30174271
0.02900000 1625280.91578866 8045.14090254
0.03000000 1621323.20174996 9800.89920508
0.03100000 1617240.83391871 12420.41017600
0.03200000 1613034.66392043 8782.97414957
0.03300000 1608707.56575451 10665.73165265
0.03400000 1604257.56655403 10106.82313562
0.03500000 1599688.15182841 11229.81134441
0.03600000 1594998.84752617 10622.69281544
0.03700000 1590191.68712488 9064.09303580
0.03800000 1585267.70889217 10201.19817883
0.03900000 1580228.48910464 10429.50851108
0.04000000 1575072.94584064 10655.36897237
0.04100000 1569804.80234940 12856.70192736
0.04200000 1564424.50336878 15135.80777229
0.04300000 1558932.45602553 13375.64109357
0.04400000 1553331.76165075 13630.48684151
0.04500000 1547622.42286762 16017.89282095
0.04600000 1541804.74160586 11956.69632698
0.04700000 1535882.02761174 12164.18622442
0.04800000 1529854.32444883 13493.31576946
0.04900000 1523724.49386273 13713.52108309
0.05000000 1517491.97693219 19734.98407898
0.05100000 1511160.21622763 11787.05023566
0.05200000 1504727.54156738 15551.35986681
0.05300000 1498199.11343752 23057.28543068
0.05400000 1491573.61207141 13536.03116079
0.05500000 1484854.90204853 16214.61628677
0.05600000 1478041.35796266 13900.97962032
0.05700000 1471138.23013803 12798.90319963
0.05800000 1464144.01413247 14253.44264311
0.05900000 1457060.66367001 17047.61056116
0.06000000 1449891.20052127 15919.80612548
0.06100000 1442637.01002010 18783.13474822
0.06200000 1435298.43040648 14919.92788149
0.06300000 1427878.91513435 15078.40204881
0.06400000 1420376.40577565 22157.87296635
0.06500000 1412797.38494215 13986.69476519
0.06600000 1405139.52311227 18358.14872841
0.06700000 1397405.89271168 21380.31115906
0.06800000 1389599.76370059 21573.53734129
0.06900000 1381721.19555631 18860.49520237
0.07000000 1373770.42707852 17556.78688022
0.07100000 1365752.05796039 14750.12291683
0.07200000 1357664.98306523 20813.00516541
0.07300000 1349514.14027251 19473.48995657
0.07400000 1341298.81944807 19616.49615374
0.07500000 1333021.34820469 19755.37730638
0.07600000 1324682.12662121 15300.07927975
0.07700000 1316286.29359445 20020.71546431
0.07800000 1307832.34800561 20147.15826585
0.07900000 1299322.13573091 18710.23963211
0.08000000 1290760.00957067 18819.28182237
0.08100000 1282146.05781470 15770.39725104
0.08200000 1273480.81380053 22196.77162613
0.08300000 1264767.74657072 22310.50409658
0.08400000 1256007.32434481 17615.50355078
0.08500000 1247203.47278737 20915.60322053
0.08600000 1238355.49347478 17776.59394347
0.08700000 1229467.01207167 21097.65491785
0.08800000 1220536.65498424 21182.41464206
0.08900000 1211570.70202747 17991.82577018
0.09000000 1202567.38722994 18056.55016747
0.09100000 1193529.94554449 16470.71402233
0.09200000 1184459.07107268 21480.16626319
0.09300000 1175358.27734039 18229.80773821
0.09400000 1166226.07636417 16618.72236923
0.09500000 1157066.59947211 16661.75981555
0.09600000 1147881.04990941 18371.83706742
0.09700000 1138672.27493170 21760.02819694
0.09800000 1129441.25210245 16772.20338231
0.09900000 1120189.68180897 16802.84601725
0.10000000 1110917.44610677 20196.48012000
0.10100000 1101627.41929858 21911.37040038
0.10200000 1092321.98372478 27002.20070776
0.10300000 1083001.64572448 18584.30911485
0.10400000 1073669.58372099 20292.35608698
0.10500000 1064328.12228082 18615.09973452
0.10600001 1054973.85278569 18625.56424733
0.10700001 1045614.10345007 20326.73912760
0.10800001 1036246.68397486 18636.89748837
0.10900001 1026875.48162859 16943.44624433
0.11000001 1017500.78019987 22023.80542408
0.11100001 1008124.68275927 20323.79456114
0.11200001 998749.58172957 20314.56744873
0.11300001 989374.08357685 16918.29762569
0.11400001 980003.21174791 20286.06743834
0.11500001 970636.99153568 21955.80978239
0.11600001 961276.50069623 21931.52439617
0.11700001 951924.63831945 21903.78695929
0.11800001 942579.76992523 16825.04968560
0.11900001 933246.26607042 21837.96365465
0.12000001 923923.99109385 23476.90971957
0.12100001 914616.71798581 23432.48141866
0.12200001 905322.73949114 28395.44906189
0.12300001 896045.62016761 18333.09425238
0.12400001 886784.99299555 19952.66328252
0.12500001 877543.43561248 16585.57171460
0.12600001 868323.35075541 24812.34091708
0.12700001 859124.40081319 16495.18927297
0.12800001 849946.87467263 23025.06192004
0.12900001 840794.31847158 19674.58797954
0.13000001 831666.81380683 21244.92976007
0.13100001 822564.64708786 19544.13693607
0.13200001 813491.60870375 19474.99003043
0.13300001 804448.39569119 16169.41351567
0.13400001 795433.72442808 19329.04041488
0.13500001 786451.29642332 17647.96792381
0.13600001 777500.13256226 19173.15417301
0.13700001 768583.59113849 28637.42595617
0.13800001 759700.17092722 30095.52369046
0.13900001 750854.84587031 20498.33825892
0.14000001 742044.79453558 18833.09777349
0.14100001 733273.20714656 18742.46405862
0.14200001 724539.32215159 17095.50611248
0.14300001 715848.00535193 21647.24470289
0.14400001 707193.38273946 23072.18520019
0.14500001 698584.44558659 19888.70010404
0.14600001 690015.92170812 21300.79250798
0.14700001 681493.70370995 18154.99312332
0.14800001 673013.92425668 18050.23430015
0.14900001 664579.28001586 14953.03450585
0.15000001 656191.72502492 23780.38923693
0.15100001 647851.29762641 16248.11131114
0.15200001 639559.65269815 17613.47366643
0.15300001 631316.74637538 16041.75928239
0.15400001 623121.39086868 20282.60222993
0.15500001 614978.31549681 17268.59191411
0.15600001 606884.39169091 17150.55371860
0.15700001 598845.70303103 15611.90821485
0.15800001 590854.89913671 15501.07901048
0.15900001 582920.28297479 20985.13117760
0.16000001 575036.95201647 15275.85735138
0.16100001 567211.22924431 17918.20357764
0.16200001 559438.14194818 19149.56850286
0.16300001 551722.02304045 23073.01609278
0.16400001 544061.46704654 13465.52194510
0.16500001 536458.09362451 16029.36859427
0.16600001 528911.53174046 13249.23449564
0.16700001 521422.18047585 15767.80748206
0.16800001 513990.05821490 15635.57830915
0.16900001 506619.05858467 15502.54392469
0.17000001 499305.94294488 20491.51686606
0.17100001 492052.55336647 15233.94777159
0.17200001 484859.06783023 13840.30274479
0.17300001 477725.79472195 12468.64383107
0.17400001 470654.37570775 16061.08132953
0.17500001 463643.23233061 26928.40020552
0.17600001 456691.48700729 13337.67550797
0.17700001 449804.12578392 19215.63316105
0.17800001 442977.56302586 14272.73775482
0.17900001 436213.08347924 12955.52919127
0.18000001 429511.98047873 12827.37590290
0.18100001 422874.54493789 12698.92318434
0.18200001 416297.20438158 11427.35880008
0.18300001 409785.65551819 14703.11001456
0.18400001 403335.82099024 15669.59738571
0.18500001 396950.73500061 14397.40383864
0.18600001 390628.71400816 15339.99032381
0.18700001 384370.28929803 17342.78827248
0.18800001 378175.13458709 11793.39212929
0.18900001 372046.13483822 11663.64687826
0.19000001 365977.23327772 15727.87234323
0.19100001 359977.20385481 10367.34396088
0.19200001 354037.66109215 10249.39077292
0.19300001 348165.24083412 12157.93078442
0.19400001 342355.47571135 11015.28795153
0.19500001 336610.65106000 11875.62433058
0.19600001 330928.85634420 9778.94816709
0.19700001 325312.05116585 13526.47572670
0.19800001 319759.37985334 10499.29973367
0.19900001 314271.68301851 14142.22640419
0.20000001 308845.99061433 10242.87776281
0.20100001 303485.92544225 12873.87356571
0.20200001 298188.60310319 10895.81207236
0.20300001 292955.73144384 12550.22412824
0.20400001 287786.57588362 9734.38138937
0.20500001 282680.01229280 13102.21918907
0.20600001 277637.31277792 10344.76676308
0.20700001 272657.46519518 11909.67864269
0.20800001 267740.43180946 9233.02922740
0.20900001 262888.39872287 10765.28043659
0.21000001 258096.62599296 8985.63445872
0.21100001 253367.50415817 8862.79571443
0.21200001 248700.40539957 10329.77182661
0.21300001 244095.19431483 7835.45610793
0.21400001 239552.42305137 8498.12260951
0.21500001 235071.65445751 8377.95416095
0.21600001 230650.54499100 7507.67559441
0.21700001 226291.11748568 7399.71989164
0.21800001 221992.38724367 8750.94031889
0.21900001 217752.67841879 9341.59034585
0.22000001 213572.91296588 7079.94239958
0.22100001 209455.15874861 7672.34282774
0.22200001 205395.51284430 10992.76836721
0.22300001 201394.86878166 9473.61507545
0.22400001 197451.15573436 7330.37450326
0.22500001 193569.09732646 8530.59052257
0.22600001 189743.08486320 10337.20375218
0.22700001 185975.74895692 8904.51928114
0.22800001 182265.06011021 6886.88562195
0.22900001 178610.73078224 6162.07050340
0.23000001 175013.41623900 6670.63667542
0.23100001 171473.52214809 8354.19039415
0.23200001 167987.51697142 7045.39679498
0.23300001 164558.00838550 6931.18364100
0.23400001 161183.47688346 7954.40496040
0.23500001 157862.16894986 5588.32104513
0.23600001 154595.93399728 7144.65142761
0.23700001 151383.10547861 6485.25254544
0.23800001 148223.66687080 7970.72806298
0.23900001 145117.09499464 7313.90193367
0.24000001 142062.66031924 7189.79157884
0.24100001 139061.50684668 6057.51952477
0.24200001 136111.07911700 7441.87360274
0.24300001 133211.75314522 5850.66047489
0.24400001 130362.59541468 7665.32097298
0.24500001 127563.95331349 5648.53211992
0.24600001 124815.12535188 6011.72079696
0.24700001 122116.30871643 5451.27227898
0.24800001 119465.37923555 5354.43855064
0.24900001 116862.51859621 5258.81358561
0.25000001 114308.23557349 5164.44632753
0.25100001 111800.60772456 4226.06317192
0.25200001 109341.16326956 4149.49734239
0.25300001 106928.05199431 4888.75076847
0.25400001 104560.27201593 5199.25977198
0.25500001 102238.10242525 4711.13198265
0.25600001 99961.41112318  4238.86383923
0.25700001 97728.95016926  4916.74371564
0.25800001 95540.63191281  4825.27984306
0.25900001 93396.12305319  5099.42855998
0.26000001 91295.29114733  3931.63189929
0.26100001 89235.03115274  4559.01795731
0.26200001 87219.42903057  4473.04862948
0.26300001 85244.07443336  5401.06481166
0.26400001 83309.85780652  3973.88040541
0.26500001 81417.17382249  3898.25446708
0.26600001 79563.84556247  3823.83859867
0.26700001 77751.28740062  3125.60190141
0.26800001 75977.89202429  3372.27889708
0.26900001 74242.62413578  3006.82641979
0.27000001 72546.38109529  3538.81263729
0.27100001 70887.77818610  3181.44363555
0.27200001 69266.82386994  3120.12422888
0.27300001 67682.29867904  3894.43965029
0.27400001 66133.13700181  3819.18884260
0.27500001 64622.22135287  3210.43210875
0.27600001 63144.57563718  4197.85158703
0.27700001 61703.59759206  2830.34415550
0.27800001 60296.18949359  2523.39564973
0.27900001 58923.38340424  3217.21688614
0.28000001 57583.80224348  3883.45180710
0.28100001 56277.15006472  2380.52356041
0.28200001 55003.72087457  3969.34370478
0.28300001 53762.31970487  2977.35740617
0.28400001 52552.81485845  3819.27600061
0.28500001 51374.72407959  2644.77092080
0.28600001 50226.88884294  2378.49443374
0.28700001 49109.76435613  2121.54192060
0.28800001 48021.98904626  2498.10398843
0.28900001 46965.15249993  2655.87949958
0.29000001 45935.97791863  2205.61608416
0.29100001 44936.59079801  2165.04504713
0.29200001 43964.78688176  2125.47772241
0.29300001 43020.61849473  2466.37217505
0.29400001 42103.73479325  2049.39938807
0.29500001 41214.61635116  2012.92195788
0.29600001 40350.95389404  1977.39858918
0.29700001 39512.96495293  2825.96738721
0.29800001 38701.30470316  2430.05503735
0.29900001 37914.72259343  1876.77885722
0.30000001 37152.71778762  3019.40151754
0.30100001 36415.90217167  2144.53258041
0.30200001 35701.82507455  1622.64802646
0.30300001 35011.75145341  1596.53594186
0.30400001 34345.51633004  2042.69968043
0.30500001 33700.84862673  1701.55592772
0.30600001 33078.82873172  2284.92020282
0.30700001 32479.09598545  1650.58773612
0.30800001 31900.76582278  1922.18073565
0.30900001 31343.50112329  1894.71473261
0.31000001 30807.82873185  1580.90380622
0.31100001 30290.91112569  1559.37617858
0.31200001 29795.16365408  1818.54789973
0.31300001 29318.42033253  1933.25672826
0.31400001 28862.46530117  1500.12670505
0.31500001 28424.30670887  1347.31220179
0.31600002 28004.80744091  1864.28011961
0.31700002 27603.08005246  1448.33367893
0.31800002 27219.73259496  1562.95711961
0.31900002 26854.04989024  1546.79334692
0.32000002 26505.19526100  1531.47025469
0.32100002 26173.52997160  1264.18155749
0.32200002 25858.38114837  1628.69021375
0.32300002 25558.62771102  1366.36430213
0.32400002 25275.08478386  1355.37648571
0.32500002 25006.53511920  1467.38355028
0.32600002 24753.70483582  1214.16927969
0.32700002 24515.37296922  1326.77204792
0.32800002 24292.28562640  1798.23652865
0.32900002 24082.10098413  1311.27046068
0.33000002 23887.42727051  1304.61190216
0.33100002 23703.92486212  1652.63771965
0.33200002 23536.14469315  1645.88267633
0.33300002 23379.90711712  1288.46674224
0.33400002 23237.16054452  2218.56800805
0.33500002 23106.11007284  1513.91240367
0.33600002 22987.26794339  1278.20709452
0.33700002 22879.39521721  1275.98393169
0.33800002 22784.49854534  1390.31016708
0.33900002 22699.45151885  1852.27533166
0.34000002 22625.94884005  1273.04907177
0.34100002 22562.92390132  1620.46927134
0.34200002 22511.26857357  1274.02530526
0.34300002 22468.20730263  1275.29550689
0.34400002 22435.98488002  1393.27472703
0.34500002 22412.86058174  1279.55027121
0.34600002 22400.30321183  1632.31017235
0.34700002 22394.61047033  1870.39795507
0.34800002 22399.37924896  1641.65058291
0.34900002 22412.22888186  1294.30627923
0.35000002 22433.67468207  1299.24633075
0.35100002 22463.09254119  1541.86674505
0.35200002 22499.61729797  1429.62575082
0.35300002 22544.23932673  1436.51899794
0.35400002 22596.58066158  1804.90196583
0.35500002 22655.84247512  1693.75086366
0.35600002 22721.53302971  1703.43341192
0.35700002 22794.13938366  1224.04534288
0.35800002 22873.73354213  1354.92567054
0.35900002 22959.17771157  1239.79565515
0.36000002 23051.29014604  1497.87290464
0.36100002 23148.41531367  1508.35081328
0.36200002 23252.41940668  1772.53201533
0.36300002 23360.07000336  1785.64383564
0.36400002 23473.80657654  1413.71006804
0.36500002 23591.95535041  1295.19841009
0.36600002 23715.70638539  1305.54969836
0.36700002 23843.56643924  1447.78142277
0.36800002 23977.31002657  1858.00184197
0.36900002 24114.17620781  2141.33894869
0.37000002 24254.49717221  1349.76283157
0.37100002 24398.94681504  1906.04581548
0.37200002 24547.73185692  1648.13479495
0.37300002 24699.42829385  1801.32939080
0.37400002 24855.46529745  1817.55598598
0.37500002 25013.55591380  1410.76462037
0.37600002 25175.90973695  1850.80709199
0.37700002 25339.74048009  1724.11602394
0.37800002 25507.35166186  1885.12091387
0.37900002 25677.25539208  2488.12616536
0.38000002 25849.60865708  1772.76624568
0.38100002 26023.72083903  2236.73891208
0.38200002 26200.24398809  2107.28572379
0.38300002 26378.44305439  1671.33823110
0.38400002 26559.15532277  1687.17042181
0.38500002 26740.32216378  1703.09119929
0.38600002 26924.32073626  1719.25258206
0.38700002 27108.48335518  1893.25656722
0.38800002 27293.99929266  2070.38641443
0.38900002 27480.77669565  2732.96337186
0.39000002 27669.15986030  1947.35556323
0.39100002 27857.49869692  1965.62520118
0.39200002 28047.11527403  1984.05302848
0.39300002 28236.99566149  2503.20978399
0.39400002 28428.16701215  2358.11656538
0.39500002 28618.68599861  2209.93503751
0.39600002 28809.58604803  2058.73311653
0.39700002 29000.20167155  1731.31212182
0.39800002 29192.03803862  1921.85791533
0.39900002 29382.64865317  2115.55080326
0.40000002 29573.13931706  2312.47173846
0.40100002 29763.21859233  1974.19438277
0.40200002 29953.89931332  1810.71329928
0.40300002 30142.98172959  2191.99773523
0.40400002 30331.55302877  2395.43451394
0.40500002 30519.47346617  2602.09043101
0.40600002 30706.79046423  2999.43943466
0.40700002 30893.17364366  2268.79477989
0.40800002 31078.58425017  1906.67123409
0.40900002 31262.30310856  2114.89490550
0.41000002 31445.61749565  2520.20913360
0.41100002 31627.38446855  2540.94418860
0.41200002 31807.08021813  2364.53845545
0.41300002 31985.95370410  2582.22616489
0.41400002 32163.13082862  2602.80148563
0.41500002 32339.23007308  2623.35846783
0.41600002 32512.47372151  2847.11745870
0.41700002 32684.79243584  3278.93853253
0.41800002 32856.16325468  2271.51095425
0.41900002 33023.64694353  2704.63681283
0.42000002 33190.02849559  2305.54543869
0.42100002 33354.91767349  3378.18622205
0.42200002 33517.61458263  2126.69274604
0.42300002 33677.66148367  2356.08930904
0.42400002 33835.50248425  3019.81873982
0.42500002 33991.60752156  4995.74679417
0.42600002 34144.01498821  3280.38639544
0.42700002 34295.37425001  2421.93944430
0.42800002 34443.79867083  2438.10440445
0.42900002 34590.33382020  2677.29196455
0.43000002 34734.29887656  2919.24428742
0.43100002 34874.32635779  2485.84210058
0.43200002 35012.68047399  3183.70318637
0.43300002 35148.03172968  2745.76436884
0.43400002 35281.00778844  3453.12880093
0.43500002 35410.77047612  2547.45094877
0.43600002 35538.74936375  2795.47815743
0.43700002 35662.94516296  4920.41677731
0.43800002 35783.58243218  2591.98391631
0.43900002 35902.40690940  2843.47076198
0.44000002 36017.59607009  3335.58973012
0.44100002 36130.39930834  4551.34661656
0.44200002 36240.00898331  2889.77845328
0.44300002 36346.81993112  2662.76815434
0.44400002 36449.96020289  3162.94544650
0.44500002 36549.37941351  3423.21503810
0.44600002 36646.50579860  2702.86316327
0.44700002 36740.61324769  3456.55705815
0.44800002 36830.44748834  2976.63690708
0.44900002 36918.57941092  3239.60549684
0.45000002 37003.09724641  2753.58561209
0.45100002 37083.28773563  3268.52113592
0.45200002 37161.09401299  3787.64468678
0.45300002 37235.06245643  3549.99102284
0.45400002 37306.37354091  3564.62416077
0.45500002 37374.19070475  3323.31319497
0.45600002 37438.49451262  3079.69070457
0.45700002 37499.50320042  3606.70238875
0.45800002 37556.51193062  2844.34256587
0.45900002 37610.55061960  3373.66655047
0.46000002 37661.97377436  3906.48841489
0.46100002 37708.70507561  3397.17740127
0.46200002 37752.98380840  2884.13933474
0.46300002 37793.48659899  2893.46947115
0.46400002 37830.18862226  3166.38693775
0.46500002 37864.37549644  2911.39196991
0.46600002 37894.39275728  3716.30327384
0.46700002 37921.01066187  2928.26058210
0.46800002 37944.92645688  2936.36827304
0.46900002 37964.75900230  3211.81876382
0.47000002 37980.85386945  2951.68219836
0.47100002 37994.11848135  3496.97883077
0.47200002 38003.68072510  3235.63353029
0.47300002 38010.50022934  3513.31070272
0.47400002 38012.53634541  4062.59001447
0.47500002 38012.36745305  3528.30811423
0.47600002 38009.03078945  2991.50091007
0.47700002 38001.23267373  4359.50161896
