# SAXS profile: number of points = 501, q_min = 0, q_max = 0.5, delta_q = 0.001
#    q    intensity    error
0.00000000 1682732.95097188 328.13292544
0.00100000 1682663.48494989 605.75886897
0.00200000 1682455.02580721 832.81526415
0.00300000 1682107.75613113 1513.89703445
0.00400000 1681621.54054486 1639.58106433
0.00500000 1680996.82859073 2118.05608786
0.00600000 1680233.35957826 3175.64117889
0.00700000 1679331.78873298 2418.23787628
0.00800000 1678291.57581992 2945.40183992
0.00900000 1677114.09709076 2515.67125318
0.01000000 1675798.45552859 3318.08108522
0.01100000 1674345.97549103 3315.20517581
0.01200000 1672756.09680415 4566.62434449
0.01300000 1671030.18230112 4210.99624512
0.01400000 1669167.50250803 4131.18975185
0.01500000 1667169.84986599 4401.32859963
0.01600000 1665036.11430929 4670.42650942
0.01700000 1662768.33406777 4938.42217371
0.01800000 1660366.20031116 5678.45266058
0.01900000 1657830.31398164 6962.88763291
0.02000000 1655161.45171338 5735.13468962
0.02100000 1652361.14431720 7633.90883286
0.02200000 1649427.65490752 6259.57823476
0.02300000 1646363.88344894 7112.29230024
0.02400000 1643169.64755601 8010.45239709
0.02500000 1639846.43195586 6395.40137671
0.02600000 1636394.31377835 9941.09591089
0.02700000 1632814.49954965 9600.94969709
0.02800000 1629106.62762944 9212.59840173
0.02900000 1625273.48910412 8045.10414045
0.03000000 1621315.28100777 9800.85132419
0.03100000 1617232.36677425 9315.25886124
0.03200000 1613025.68663121 11178.26852320
0.03300000 1608698.01237114 9845.23228958
0.03400000 1604247.45786608 9264.52949665
0.03500000 1599677.41368183 8638.25843278
0.03600000 1594987.54457761 8852.18128150
0.03700000 1590179.73734606 11783.23239868
0.03800000 1585255.09382051 12983.23981925
0.03900000 1580215.18692123 11377.54987273
0.04000000 1575058.96654417 9686.61309311
0.04100000 1569790.13814269 10878.64616173
0.04200000 1564409.13681698 10090.43940059
0.04300000 1558916.30457093 11317.73289653
0.04400000 1553314.83637843 11533.36319574
0.04500000 1547604.91349897 12814.16927918
0.04600000 1541786.39068994 14130.47292755
0.04700000 1535862.88849146 12164.03464258
0.04800000 1529834.46043585 12368.71218812
0.04900000 1523703.78527732 18284.44627442
0.05000000 1517470.40868349 12769.51408370
0.05100000 1511137.76298071 12965.56261036
0.05200000 1504704.25110614 17943.59903064
0.05300000 1498175.00504731 14562.26172792
0.05400000 1491548.57966402 18457.91453411
0.05500000 1484828.92232403 13719.81988229
0.05600000 1478014.48506223 13900.72688068
0.05700000 1471110.44166731 15358.39372791
0.05800000 1464115.25147969 15548.90469673
0.05900000 1457031.05251906 18358.59211919
0.06000000 1449860.54221574 14592.84703916
0.06100000 1442605.37960860 18782.72292025
0.06200000 1435265.84265022 18988.56798585
0.06300000 1427845.34915367 15078.04759204
0.06400000 1420341.81106471 13848.33330552
0.06500000 1412761.68557653 13986.34134146
0.06600000 1405102.89664488 16945.54172639
0.06700000 1397368.22372365 19954.41916862
0.06800000 1389560.86210539 15820.15115560
0.06900000 1381681.33094568 15958.42011958
0.07000000 1373729.46438844 14630.21948085
0.07100000 1365710.05668923 16224.63623339
0.07200000 1357621.74831337 17839.15060854
0.07300000 1349469.84000146 14979.11592587
0.07400000 1341253.48526128 18106.92289959
0.07500000 1332974.81056021 19754.68761845
0.07600000 1324634.40771106 24479.24500210
0.07700000 1316237.45480572 16939.97683764
0.07800000 1307782.26650305 15497.22058482
0.07900000 1299270.93330505 20268.62751023
0.08000000 1290707.65112441 20386.72830587
0.08100000 1282092.41936887 18923.68499775
0.08200000 1273425.99787777 17439.56985929
0.08300000 1264711.87822074 17528.90745481
0.08400000 1255950.02814343 27222.71813781
0.08500000 1247145.02134326 17696.98868365
0.08600000 1238295.83351953 32319.52277231
0.08700000 1229406.05572688 21096.60890692
0.08800000 1220474.61372779 19552.00423016
0.08900000 1211507.19745966 16355.34793391
0.09000000 1202502.64968850 22979.82671504
0.09100000 1193463.94306288 23057.72446325
0.09200000 1184391.75764070 23131.17211358
0.09300000 1175289.82607111 19885.90479160
0.09400000 1166156.18975077 23264.81707892
0.09500000 1156995.42419783 18326.80838070
0.09600000 1147808.43706719 20040.73625326
0.09700000 1138598.52435944 16737.39909496
0.09800000 1129366.05600008 18448.19539215
0.09900000 1120113.36568768 20162.04153045
0.10000000 1110839.79621200 21877.99081526
0.10100000 1101548.48204412 18539.06182473
0.10200000 1092241.70968478 21937.67577089
0.10300000 1082920.03879048 23650.97475974
0.10400000 1073586.62647138 21981.68721113
0.10500000 1064243.68688895 18613.62295945
0.10600001 1054888.16555999 18624.05143929
0.10700001 1045527.18892796 25406.31188651
0.10800001 1036158.30413600 22023.54579088
0.10900001 1026785.83129718 20330.36041655
0.11000001 1017409.79755188 20327.84871191
0.11100001 1008032.24920252 18628.43684217
0.11200001 998655.80782053 20312.66008733
0.11300001 989279.12782612 18608.34127050
0.11400001 979906.80223271 23664.75038816
0.11500001 970539.22945182 20264.86006519
0.11600001 961177.24210958 21929.25981141
0.11700001 951824.19839045 25270.93365740
0.11800001 942477.97995188 21870.20255483
0.11900001 933143.15862374 20155.89317565
0.12000001 923819.68740171 16767.32811616
0.12100001 914511.04148885 18409.10813239
0.12200001 905215.58886013 18371.35124141
0.12300001 895937.11827685 24996.64677763
0.12400001 886675.31162570 24937.74431448
0.12500001 877432.36648024 19900.16700948
0.12600001 868211.00543366 19847.30451949
0.12700001 859010.77860973 16493.00772656
0.12800001 849831.78536343 21377.51956832
0.12900001 840678.06626019 21311.18998414
0.13000001 831549.29324013 16339.94438235
0.13100001 822445.80825555 17912.87054818
0.13200001 813371.46551161 21094.78995246
0.13300001 804327.12077352 19400.37106765
0.13400001 795310.86611719 22547.06411742
0.13500001 786327.30413281 24061.61664093
0.13600001 777374.93842101 20767.57245912
0.13700001 768457.20039537 19088.47775791
0.13800001 759572.42392152 22171.92009980
0.13900001 750725.90144725 18918.29360862
0.14000001 741914.76344301 17260.64778552
0.14100001 733142.00435319 21862.29560090
0.14200001 724406.79935351 15538.52657901
0.14300001 715714.44414685 26281.03562869
0.14400001 707058.68207341 23067.79059075
0.14500001 698448.37118726 15296.02005055
0.14600001 689878.70294507 19775.37395281
0.14700001 681355.48708162 16638.70177949
0.14800001 672874.47438817 19550.36877571
0.14900001 664438.67298340 16444.85793222
0.15000001 656050.15262922 16345.49032398
0.15100001 647708.50298739 20674.85639090
0.15200001 639415.88091433 27881.73080292
0.15300001 631171.84461877 21870.10544807
0.15400001 622975.51791771 21726.27221266
0.15500001 614831.42512638 15825.76162962
0.15600001 606736.42568039 17146.37219895
0.15700001 598696.84082003 22702.58527539
0.15800001 590705.02446597 14088.31549846
0.15900001 582769.43341829 15385.11376843
0.16000001 574885.16366326 16660.17282936
0.16100001 567058.49771448 17913.37878839
0.16200001 559284.63829767 13674.51005190
0.16300001 551567.51183379 24423.41057698
0.16400001 543906.10495835 14807.84440656
0.16500001 536301.90052311 18695.48513487
0.16600001 528754.34937591 21192.47532355
0.16700001 521264.28087775 14449.44654816
0.16800001 513831.40980505 13025.62685358
0.16900001 506459.51351285 18080.60548614
0.17000001 499145.56358636 12803.08431055
0.17100001 491891.55691474 16498.04359798
0.17200001 484697.43053124 13835.68880788
0.17300001 477563.40342455 13710.84595981
0.17400001 470491.18094333 16055.51230793
0.17500001 463479.48937344 14683.03091679
0.17600001 456527.04699221 15757.03177113
0.17700001 449639.13866947 16807.51179729
0.17800001 442812.00686712 13078.45324054
0.17900001 436046.92941533 15305.24794540
0.18000001 429345.23674242 16319.41321943
0.18100001 422707.34393457 12693.90213797
0.18200001 416129.32982506 18276.40102926
0.18300001 409617.51302734 14697.07706170
0.18400001 403167.16663694 15663.04516378
0.18500001 396781.55590884 12177.22652612
0.18600001 390459.29693757 12047.62217618
0.18700001 384200.44270927 11917.89829590
0.18800001 378004.80332216 15003.01135269
0.18900001 371875.67647241 13777.99446428
0.19000001 365806.26862287 11528.38510035
0.19100001 359806.02576626 13471.13824120
0.19200001 353866.46634092 10244.43468463
0.19300001 347993.64253955 13164.60011933
0.19400001 342183.81152134 11009.76465595
0.19500001 336438.73052806 10880.42905943
0.19600001 330756.87847950 10751.25284304
0.19700001 325139.91035250 9656.65579382
0.19800001 319587.14776552 10493.64449280
0.19900001 314099.41091439 10365.28105004
0.20000001 308673.60584477 11167.81158727
0.20100001 303313.63936039 12866.56518977
0.20200001 298016.36662621 9074.59879267
0.20300001 292783.62918931 10751.01537197
0.20400001 287614.39793683 12381.80041642
0.20500001 282508.02475082 12221.29772838
0.20600001 277465.47676294 8615.30346072
0.20700001 272485.92922596 11902.18595120
0.20800001 267569.02650160 11743.60512828
0.20900001 262717.29841502 10758.27387865
0.21000001 257925.78306764 11428.69198799
0.21100001 253197.04285919 8856.83297791
0.21200001 248530.20922454 7940.54056011
0.21300001 243925.36646638 8613.00509711
0.21400001 239382.92620432 8492.10970858
0.21500001 234902.67784647 8371.93183425
0.21600001 230481.87868707 7502.18550596
0.21700001 226123.14944564 9612.49553741
0.21800001 221824.81056231 8015.63990865
0.21900001 217585.71008702 8616.39452684
0.22000001 213406.53120937 7781.86952850
0.22100001 209289.40360745 11150.93995146
0.22200001 205230.48845378 13729.92032677
0.22300001 201230.50788306 7437.47992304
0.22400001 197287.59683568 9321.83939128
0.22500001 193406.16241142 7867.76305894
0.22600001 189580.90245509 7746.27604062
0.22700001 185814.45163068 8261.31091017
0.22800001 182104.62944556 8757.41204418
0.22900001 178451.21190364 6772.22381201
0.23000001 174854.74712604 10299.81936656
0.23100001 171315.84476577 6557.97084778
0.23200001 167830.67870474 7625.38724758
0.23300001 164402.29262681 7501.67696735
0.23400001 161028.79561132 6811.51837651
0.23500001 157708.46666278 8932.60797426
0.23600001 154443.35584264 7686.64618384
0.23700001 151231.66784337 5398.97079737
0.23800001 148073.44521735 5839.27658834
0.23900001 144968.10727915 6262.62253068
0.24000001 141914.97267142 5130.22650473
0.24100001 138915.00411452 5042.61488788
0.24200001 135965.85850045 6938.33808748
0.24300001 133067.89996883 5844.34244308
0.24400001 130220.09007469 5264.14739028
0.24500001 127422.94898312 7523.05126384
0.24600001 124675.39100817 6004.99049198
0.24700001 121978.10988374 4991.34449256
0.24800001 119328.52784858 5793.99694378
0.24900001 116727.30505546 6128.18380532
0.25000001 114174.53436230 6018.13999094
0.25100001 111668.47752688 4221.06865021
0.25200001 109210.69918212 4559.00085304
0.25300001 106799.18948700 6510.47889914
0.25400001 104433.12136402 4394.02378928
0.25500001 102112.63519514 4313.23791471
0.25600001 99837.64709386  4618.48977307
0.25700001 97607.00075420  4155.13021870
0.25800001 95420.40402819  5189.91602065
0.25900001 93277.77639362  4001.61679662
0.26000001 91178.70074303  4283.57556359
0.26100001 89120.23991885  4553.15327289
0.26200001 87106.63137352  3779.99244731
0.26300001 85133.18301793  4045.52904844
0.26400001 83200.92177161  5953.02623445
0.26500001 81310.30829102  3893.13774519
0.26600001 79458.85361423  4137.02540919
0.26700001 77648.42186736  3433.61337745
0.26800001 75877.09953447  3367.80522220
0.26900001 74143.96584264  4203.96306222
0.27000001 72449.71942614  3534.09748085
0.27100001 70793.26979910  3754.87520784
0.27200001 69174.51044452  3682.50523778
0.27300001 67592.11929877  3611.44710504
0.27400001 66045.26709180  3269.24087576
0.27500001 64536.59608047  2671.81520418
0.27600001 63061.08609452  3668.26355172
0.27700001 61622.47257853  2569.65722814
0.27800001 60217.37145432  2772.10682610
0.27900001 58846.99837377  3954.51847788
0.28000001 57509.70813585  3151.24460645
0.28100001 56205.46130557  3328.48757605
0.28200001 54934.41145373  2565.16246424
0.28300001 53695.39923774  2516.16652737
0.28400001 52488.30148157  2468.26249400
0.28500001 51312.69366003  3081.84052709
0.28600001 50167.34413833  2807.61554759
0.28700001 49052.70298873  3178.61530412
0.28800001 47967.45069896  3534.96144658
0.28900001 46913.11244693  3265.15278086
0.29000001 45886.57726324  2804.12886929
0.29100001 44889.73610687  2752.63874837
0.29200001 43920.55930464  2123.33954009
0.29300001 42978.96576832  2653.52147214
0.29400001 42064.63344016  1861.36011784
0.29500001 41178.18804964  2925.29861752
0.29600001 40317.14673458  2155.35476646
0.29700001 39481.87645859  1941.32395737
0.29800001 38672.84497088  2254.82033277
0.29900001 37888.94496706  1875.50286465
0.30000001 37129.64444686  1844.04387875
0.30100001 36395.55466750  1813.59057494
0.30200001 35684.14646461  1784.02898696
0.30300001 34996.80969291  1595.85459755
0.30400001 34333.37098401  1727.82697657
0.30500001 33691.43427549  2010.36797839
0.30600001 33072.14416403  1675.26954194
0.30700001 32475.25787944  1950.46408058
0.30800001 31899.66347797  1922.11431386
0.30900001 31345.23733228  1457.55360496
0.31000001 30812.24900669  1868.60892948
0.31100001 30298.16108115  1701.54480688
0.31200001 29805.26854749  1679.22890947
0.31300001 29331.32143439  1381.50530497
0.31400001 28878.15494039  2319.63790541
0.31500001 28442.83141785  1617.82832765
0.31600002 28026.22909653  1732.44143363
0.31700002 27627.23681364  1844.94696177
0.31800002 27246.77377876  1434.13400575
0.31900002 26883.86447297  1419.46811138
0.32000002 26537.80119314  1533.35422554
0.32100002 26208.97528693  1772.25099282
0.32200002 25896.64665243  1631.10036664
0.32300002 25599.73558435  1617.39137080
0.32400002 25319.00317522  1728.02204853
0.32500002 25053.33490636  2450.21626986
0.32600002 24803.29247851  1581.58201978
0.32700002 24567.80129021  1692.23023300
0.32800002 24347.54034427  1441.86140746
0.32900002 24140.12584402  1314.42991445
0.33000002 23948.26092187  1783.54681661
0.33100002 23767.54642114  1183.62386782
0.33200002 23602.63969921  2240.00862673
0.33300002 23449.08643416  1527.23907178
0.33400002 23309.06286950  1288.40851113
0.33500002 23180.83525449  1752.47122823
0.33600002 23064.76442643  1282.51628667
0.33700002 22959.64492137  1396.86486317
0.33800002 22867.45131294  1976.77692236
0.33900002 22785.15577365  1859.26879918
0.34000002 22714.29274820  1394.20335491
0.34100002 22654.05168160  1394.58348756
0.34200002 22605.04555973  1628.24150878
0.34300002 22564.67806585  1513.63867634
0.34400002 22535.10375071  1399.43000920
0.34500002 22514.60836187  1285.35905225
0.34600002 22504.68139417  1171.36872204
0.34700002 22501.59826337  1174.58348498
0.34800002 22509.02328954  1296.18216752
0.34900002 22524.40459265  1655.54381597
0.35000002 22548.35987697  1662.03968525
0.35100002 22580.34460366  1192.24225154
0.35200002 22619.38754613  1197.69662729
0.35300002 22666.56995415  1444.31390589
0.35400002 22721.39193080  1451.89701315
0.35500002 22783.09106740  1946.58739300
0.35600002 22851.13967905  1346.04644655
0.35700002 22926.23953080  1477.36694534
0.35800002 23008.20151779  1610.68922354
0.35900002 23095.98581780  1371.90162256
0.36000002 23190.46755613  1381.34026541
0.36100002 23289.95726244  1896.96710888
0.36200002 23396.19514152  2038.27661728
0.36300002 23506.14100437  1668.46596752
0.36400002 23622.12589270  2069.29832622
0.36500002 23742.42927141  1694.49725737
0.36600002 23868.40992171  1445.35163127
0.36700002 23998.45115784  1589.65747999
0.36800002 24134.33043696  1469.41877826
0.36900002 24273.31685898  1347.16914949
0.37000002 24415.67682009  1766.35222322
0.37100002 24562.18378719  1644.68390430
0.37200002 24712.96665188  1382.69054967
0.37300002 24866.65340084  1674.02318624
0.37400002 25024.67867600  2111.45736331
0.37500002 25184.67523115  1562.45732536
0.37600002 25348.90629391  2150.22107824
0.37700002 25514.60000123  1591.34567746
0.37800002 25684.03046914  1752.16464161
0.37900002 25855.67766141  1621.15106617
0.38000002 26029.84095010  2380.16876923
0.38100002 26205.62215814  2102.21510911
0.38200002 26383.90067475  1818.90619868
0.38300002 26563.75698304  1989.09421712
0.38400002 26745.97941837  1699.03842304
0.38500002 26928.76332673  2182.84565868
0.38600002 27114.26866875  2203.57671910
0.38700002 27299.92541289  2065.51245459
0.38800002 27487.01361631  1764.25405254
0.38900002 27675.19079454  2590.39798109
0.39000002 27864.94923441  1961.13522003
0.39100002 28054.57415495  1979.53084616
0.39200002 28245.51790036  2331.10270276
0.39300002 28436.63587920  1848.66578609
0.39400002 28629.07932088  1865.90033314
0.39500002 28820.78832635  2567.93236154
0.39600002 29012.86146041  2591.57397273
0.39700002 29204.59182494  1917.86563601
0.39800002 29397.51321157  1759.44124907
0.39900002 29589.21188544  2307.95863641
0.40000002 29780.67565459  2328.70004314
0.40100002 29971.64743969  2168.74851149
0.40200002 30163.29235824  2735.05666417
0.40300002 30353.17971943  2207.28333378
0.40400002 30542.63072542  2041.01139493
0.40500002 30731.33122672  2807.30724057
0.40600002 30919.45128436  2453.92236745
0.40700002 31106.49440499  3045.94807646
0.40800002 31292.51403634  2495.73457522
0.40900002 31476.78356550  2129.40450910
0.41000002 31660.77612843  2732.64171712
0.41100002 31843.06607224  2361.48189181
0.41200002 32023.21372890  2182.22200296
0.41300002 32202.57339510  2199.75789285
0.41400002 32380.12580615  2418.79551233
0.41500002 32556.56226765  2031.52958176
0.41600002 32730.11763193  2251.99585037
0.41700002 32902.72263389  2269.30088759
0.41800002 33074.30042017  2286.59186790
0.41900002 33241.97513046  2513.09343894
0.42000002 33408.49516627  3586.56916852
0.42100002 33573.42613095  2975.27716471
0.42200002 33736.24220735  2568.67760339
0.42300002 33896.24063009  3449.28160996
0.42400002 34054.08331256  2822.23228826
0.42500002 34210.08374856  2404.62690063
0.42600002 34362.33824842  2861.18022984
0.42700002 34513.53747912  3102.07689562
0.42800002 34661.72341342  2899.62660955
0.42900002 34807.99805535  2469.62757906
0.43000002 34951.63614789  2937.51039925
0.43100002 35091.35178772  2956.09561468
0.43200002 35229.35090772  2745.77573986
0.43300002 35364.20436161  3223.09373825
0.43400002 35496.73850398  2547.77852686
0.43500002 35626.00260131  2795.92881665
0.43600002 35753.44313084  3281.09363160
0.43700002 35876.97468744  2592.82908353
0.43800002 35997.00641244  2607.44328305
0.43900002 36115.14624830  3575.39964802
0.44000002 36229.56637407  3355.22030091
0.44100002 36341.59773067  3614.17206559
0.44200002 36450.41507906  3633.19529518
0.44300002 36556.38933266  2678.12120943
0.44400002 36658.61857770  2691.65919663
0.44500002 36757.08141108  3934.47818070
0.44600002 36853.17082987  2965.20626550
0.44700002 36946.28047047  3972.46426445
0.44800002 37035.07180506  2993.17464514
0.44900002 37122.10447595  3508.03903923
0.45000002 37205.53179425  3020.34521420
0.45100002 37284.51889602  3033.46860114
0.45200002 37361.10006712  3046.42424385
0.45300002 37433.77121761  2804.16393481
0.45400002 37503.83408120  3071.56415682
0.45500002 37570.29150688  4625.65450955
0.45600002 37633.27109082  2579.76085554
0.45700002 37692.87840280  2848.45095590
0.45800002 37748.39483638  3378.67023996
0.45900002 37800.96564340  3129.92010361
0.46000002 37850.87421617  2879.12688371
0.46100002 37896.06933399  3939.29659397
0.46200002 37938.72993789  3161.81390288
0.46300002 37977.67989239  2643.24664579
0.46400002 38012.67686750  3977.07650576
0.46500002 38045.19886264  3989.03928981
0.46600002 38073.51843948  2933.75510240
0.46700002 38098.33583675  3209.40396300
0.46800002 38120.55948823  2681.78148710
0.46900002 38138.54553095  2688.76758737
0.47000002 38152.76164127  3773.68983280
0.47100002 38164.16003035  3242.42718986
0.47200002 38171.78478761  3520.77473676
0.47300002 38176.69095393  3528.67171212
0.47400002 38176.73016577  4352.14744518
0.47500002 38174.51579238  3815.92477947
0.47600002 38169.21491190  2731.00745639
0.47700002 38159.37984061  3283.23319710
