# SAXS profile: number of points = 501, q_min = 0, q_max = 0.5, delta_q = 0.001
#    q    intensity    error
0.00000000 1664650.74656091 324.60689558
0.00100000 1664581.86086883 848.93676920
0.00200000 1664375.14484504 898.76260668
0.00300000 1664030.78202044 1098.26035526
0.00400000 1663548.63906458 1621.95998472
0.00500000 1662929.14217678 1646.29991592
0.00600000 1662172.06869372 2617.92111477
0.00700000 1661278.04424467 2392.24048313
0.00800000 1660246.52953261 2913.73278235
0.00900000 1659078.89747596 3732.92767890
0.01000000 1657774.27706662 3008.86044280
0.01100000 1656333.96741343 3279.54139827
0.01200000 1654757.40118873 3872.13248855
0.01300000 1653045.93584944 4165.67594207
0.01400000 1651198.89708459 4829.75698808
0.01500000 1649217.96829863 5541.37262023
0.01600000 1647102.15443515 5880.15495420
0.01700000 1644853.40865497 4441.10440259
0.01800000 1642471.45458015 4681.04385619
0.01900000 1639956.88669005 5903.84505848
0.02000000 1637310.45124827 7220.53941663
0.02100000 1634533.70571252 7551.54606277
0.02200000 1631624.87529737 7880.74850573
0.02300000 1628586.95643292 7035.49597203
0.02400000 1625419.65059439 6704.85636443
0.02500000 1622124.41010920 9489.42823253
0.02600000 1618701.46249453 6555.74122295
0.02700000 1615151.82611520 12888.91216273
0.02800000 1611475.26694758 10514.87659904
0.02900000 1607674.63025406 7234.53616831
0.03000000 1603749.91867017 11186.15619690
0.03100000 1599701.58675348 8446.42476671
0.03200000 1595530.50731614 8687.66401247
0.03300000 1591239.60137229 9738.38680934
0.03400000 1586826.85602568 11663.17792993
0.03500000 1582295.67004153 13671.03522046
0.03600000 1577645.70451935 9631.52747120
0.03700000 1572878.78525167 14344.65518490
0.03800000 1567996.24956241 11007.33418134
0.03900000 1562999.32078380 11253.59563080
0.04000000 1557887.14703941 13413.40895757
0.04100000 1552663.42357979 10759.95802431
0.04200000 1547328.49335612 10978.29616968
0.04300000 1541882.73787675 11194.06919659
0.04400000 1536329.46854028 13481.29171254
0.04500000 1530668.53476399 14786.25873286
0.04600000 1524900.09510250 12900.65540428
0.04700000 1519027.70793781 16405.50000871
0.04800000 1513051.22204661 11120.92699948
0.04900000 1506973.54269082 15823.22293479
0.05000000 1500794.00936674 13777.28964754
0.05100000 1494516.26968113 16320.11842517
0.05200000 1488138.54676152 13013.77219789
0.05300000 1481666.14506149 12001.49633448
0.05400000 1475097.24971249 13386.50816541
0.05500000 1468436.23180967 13568.35141488
0.05600000 1461681.23721648 18746.06274207
0.05700000 1454837.56985947 13922.79619345
0.05800000 1447903.56987090 19220.92078751
0.05900000 1440881.56400920 14264.72814994
0.06000000 1433773.91870073 14430.93516592
0.06100000 1426582.57748263 19900.82788588
0.06200000 1419307.69179077 16094.94997724
0.06300000 1411952.69151438 23043.06900290
0.06400000 1404515.46482585 17802.23434922
0.06500000 1397002.62353577 13830.32661996
0.06600000 1389411.69606126 20945.38229813
0.06700000 1381745.75716964 15503.18812098
0.06800000 1374007.93636096 22753.57249121
0.06900000 1366198.66632001 15779.59533478
0.07000000 1358317.78463296 17359.30210052
0.07100000 1350370.23810533 20417.59895647
0.07200000 1342354.62032741 16168.66215929
0.07300000 1334275.99117783 17772.55703523
0.07400000 1326133.52359032 20886.60397538
0.07500000 1317929.54927868 19531.71683581
0.07600000 1309664.55480649 18151.95158059
0.07700000 1301343.71677618 22838.58330029
0.07800000 1292965.34610682 18385.96808387
0.07900000 1284531.49567349 18497.25440529
0.08000000 1276046.30498858 18604.75599950
0.08100000 1267509.66745930 21826.51749771
0.08200000 1258922.62399749 20375.66362553
0.08300000 1250288.37426243 22055.08795708
0.08400000 1241607.21606248 17413.54202264
0.08500000 1232883.29720500 15904.19528057
0.08600000 1224115.96174686 17572.18545592
0.08700000 1215308.58918366 19250.48895663
0.08800000 1206459.77487679 16106.23875101
0.08900000 1197575.97757588 21017.45939364
0.09000000 1188655.42431992 21092.69149540
0.09100000 1179701.20342708 19535.85284657
0.09200000 1170714.00727930 22864.04563647
0.09300000 1161697.53984957 22931.91051425
0.09400000 1152649.79452088 24637.89051580
0.09500000 1143575.53713963 18114.23735971
0.09600000 1134475.64513193 24759.93211891
0.09700000 1125352.99423066 21505.49673078
0.09800000 1116208.31358193 19890.83308325
0.09900000 1107043.86321237 19926.79047483
0.10000000 1097858.85740084 16632.56247181
0.10100000 1088656.72629393 28315.96278266
0.10200000 1079439.25530854 18345.07100685
0.10300000 1070207.38250475 21703.80673816
0.10400000 1060964.13985637 23394.26038442
0.10500000 1051711.82474457 21738.88444027
0.10600001 1042446.87424765 18404.40043083
0.10700001 1033177.26021669 16737.47240314
0.10800001 1023899.92400761 18414.84099991
0.10900001 1014619.14774813 26785.94676125
0.11000001 1005335.06863710 18412.71264877
0.11100001 996049.87340109 18407.00252693
0.11200001 986766.14122051 16725.68688108
0.11300001 977482.35211386 18386.44390891
0.11400001 968203.12958973 18371.65524898
0.11500001 958928.84739885 18353.89900346
0.11600001 949660.36446964 18333.19419942
0.11700001 940400.98461088 18309.60803266
0.11800001 931148.54731063 19945.20282278
0.11900001 921907.75801144 19913.20851099
0.12000001 912678.51621196 19878.13901945
0.12100001 903464.12076421 19840.07302661
0.12200001 894263.41554099 21448.90903224
0.12300001 885079.49766993 21401.22326196
0.12400001 875912.34378339 16423.35721977
0.12500001 866764.23809084 18020.02935902
0.12600001 857637.70286913 21239.39871243
0.12700001 848532.51953749 24437.73771434
0.12800001 839448.66819591 22740.66549318
0.12900001 830390.03926334 21050.38848747
0.13000001 821356.19267460 16139.64994680
0.13100001 812348.09067067 19301.39154416
0.13200001 803368.77394254 17629.92857525
0.13300001 794419.61004007 19161.40189749
0.13400001 785498.64781679 17496.98320503
0.13500001 776610.20515763 17427.13382540
0.13600001 767752.86654897 17355.05436664
0.13700001 758930.11326863 18851.82490252
0.13800001 750140.37262157 17204.47025737
0.13900001 741388.75313392 21796.83037004
0.14000001 732672.52340817 15496.02460088
0.14100001 723994.35238622 18505.29651976
0.14200001 715353.81161587 15344.33998288
0.14300001 706755.80703518 22898.88922803
0.14400001 698194.52755122 16704.30485960
0.14500001 689678.62154318 16614.35877671
0.14600001 681202.78792067 18024.62661868
0.14700001 672773.58097759 22403.36130347
0.14800001 664386.37772478 20788.65073979
0.14900001 656044.06074479 14760.99206319
0.15000001 647748.76608051 16138.66126836
0.15100001 639500.45011292 14580.61095056
0.15200001 631300.64719835 14488.35053686
0.15300001 623149.35350600 21592.12611789
0.15400001 615045.49767332 17159.77019487
0.15500001 606993.67733053 17044.38326382
0.15600001 598990.38486628 14106.22422934
0.15700001 591042.58321545 18210.02284832
0.15800001 583142.21175195 18080.32512874
0.15900001 575297.80681600 20710.72202293
0.16000001 567504.21402364 16446.27289871
0.16100001 559768.01295412 13602.36335687
0.16200001 552084.33368491 14848.30885539
0.16300001 544457.08882997 13393.64501750
0.16400001 536885.19792378 18603.07298630
0.16500001 529370.05071293 15817.57786207
0.16600001 521911.50721140 13073.88387290
0.16700001 514509.75749912 16855.34045149
0.16800001 507164.88173247 15427.95643075
0.16900001 499880.75075486 15296.35169536
0.17000001 492654.07034896 16427.55075149
0.17100001 485486.82172982 17535.78482894
0.17200001 478379.12169371 24827.87758835
0.17300001 471331.15593882 12301.74375095
0.17400001 464344.59668845 17064.66473420
0.17500001 457418.06918463 14491.00511614
0.17600001 450550.34449220 13158.32343235
0.17700001 443746.67689954 17772.05524921
0.17800001 437003.20067398 16426.95108921
0.17900001 430321.51292135 13942.41767720
0.18000001 423702.74579259 14954.58911913
0.18100001 417147.20967377 13665.74323443
0.18200001 410651.20194715 15781.32643631
0.18300001 404220.60214798 13387.78697557
0.18400001 397851.24083929 15456.52143678
0.18500001 391545.88281586 18571.02209929
0.18600001 385303.38713439 23777.07314337
0.18700001 379123.90621226 13898.68305838
0.18800001 373007.26682946 12689.70781708
0.18900001 366956.17314012 11504.07657148
0.19000001 360964.57985485 12409.96284177
0.19100001 355041.47168920 12270.23384135
0.19200001 349178.18591888 14152.19254400
0.19300001 343381.53815869 12990.12420236
0.19400001 337647.13070542 13826.65065575
0.19500001 331977.01800534 13664.17470680
0.19600001 326369.27391518 11573.05499993
0.19700001 320826.16973724 12387.09899894
0.19800001 315346.44470073 11295.71018300
0.19900001 309931.22709016 12087.31842776
0.20000001 304577.39026500 13774.51312573
0.20100001 299288.69998627 13602.67205727
0.20200001 294062.08123912 11640.44803602
0.20300001 288899.32742299 10608.38380437
0.20400001 283799.58026471 8726.83750562
0.20500001 278761.95416725 11197.86822819
0.20600001 273787.65574961 9351.21782414
0.20700001 268875.56130912 9227.80970032
0.20800001 264025.69529664 12415.80890822
0.20900001 259240.25294308 9799.28202447
0.21000001 254514.30383426 9666.45371658
0.21100001 249850.49806611 9534.29545692
0.21200001 245248.01742697 8619.24197994
0.21300001 240706.82126668 10044.69612633
0.21400001 236227.33343264 7618.33186337
0.21500001 231809.43833126 9012.75138842
0.21600001 227450.53875013 7403.51538634
0.21700001 223152.72867589 8026.80402998
0.21800001 218914.77763093 7191.35078519
0.21900001 214735.35413591 16298.41414953
0.22000001 210615.16130019 9076.46080539
0.22100001 206556.31066704 10317.48820567
0.22200001 202555.05248638 10163.20023907
0.22300001 198612.02275209 6673.36428002
0.22400001 194725.43209253 10515.17383022
0.22500001 190899.76805984 9060.10342055
0.22600001 187129.31341385 6371.75342305
0.22700001 183417.16566038 8782.01430711
0.22800001 179760.86167837 7409.74306879
0.22900001 176160.34299252 9116.29818098
0.23000001 172616.06410356 7177.37628486
0.23100001 169128.63702112 5885.67684668
0.23200001 165694.37275869 8686.52790269
0.23300001 162315.98952078 5697.29150163
0.23400001 158991.96590824 6164.91376966
0.23500001 155720.42522235 6615.00397631
0.23600001 152503.39882769 5963.64569322
0.23700001 149339.18758714 6930.83202373
0.23800001 146227.50927665 5766.48210107
0.23900001 143168.25243940 5669.46306476
0.24000001 140160.32875030 8106.87379838
0.24100001 137205.05693496 6474.70694302
0.24200001 134299.84895811 5384.75269868
0.24300001 131445.19228912 5291.98369189
0.24400001 128639.94542561 6618.52550523
0.24500001 125884.58105538 5574.16951281
0.24600001 123178.41783662 5020.13665641
0.24700001 120521.60529872 5828.42510797
0.24800001 117911.84359757 5284.80908005
0.24900001 115349.81632805 4325.61831694
0.25000001 112835.63723405 5947.56671998
0.25100001 110367.29745840 7092.20287020
0.25200001 107946.66053393 4096.57596107
0.25300001 105571.73863325 5228.96846189
0.25400001 103241.38074966 4738.77960061
0.25500001 100956.08640285 4652.05668154
0.25600001 98715.60752232  4566.58422004
0.25700001 96518.74434258  5229.38581590
0.25800001 94365.31965404  4032.70212622
0.25900001 92255.22004016  4317.54450216
0.26000001 90188.13032663  4237.03856322
0.26100001 88160.93062000  4850.61463222
0.26200001 86177.79180914  3399.71404773
0.26300001 84234.28015571  4002.81318240
0.26400001 82331.40671477  3272.67357177
0.26500001 80469.40575846  5458.24005087
0.26600001 78645.97287235  3149.77136258
0.26700001 76862.99579922  3089.89257734
0.26800001 75118.46195466  3637.23609996
0.26900001 73411.46123973  4162.43004927
0.27000001 71742.86627547  3499.61718253
0.27100001 70111.26410775  3432.64765316
0.27200001 68516.86191052  2805.76562801
0.27300001 66958.25760298  3577.57987303
0.27400001 65434.53155565  4588.59674249
0.27500001 63948.31375547  4235.93650363
0.27600001 62494.75035331  3375.65410009
0.27700001 61077.56619761  2546.93463098
0.27800001 59693.21034632  2498.16097122
0.27900001 58343.01463314  3185.52874973
0.28000001 57025.28854491  2403.61602593
0.28100001 55740.15033255  2593.58931773
0.28200001 54487.61362746  2544.29923875
0.28300001 53266.48821514  2722.98300644
0.28400001 52076.87360449  2894.17238755
0.28500001 50918.06509869  3495.01615380
0.28600001 49788.98051643  2572.09885522
0.28700001 48690.16689136  2524.09837112
0.28800001 47620.05796588  2477.19553264
0.28900001 46580.36225479  2228.87043939
0.29000001 45568.01001781  2187.94810457
0.29100001 44584.90584070  2148.10086508
0.29200001 43628.77793335  2300.98185712
0.29300001 42699.82439588  2071.36857949
0.29400001 41797.65345173  2219.45550335
0.29500001 40922.96937224  2725.46988921
0.29600001 40073.01207354  2320.82860410
0.29700001 39248.44425597  2280.72720368
0.29800001 38449.58396138  2414.24949122
0.29900001 37675.47292105  1864.93599788
0.30000001 36925.41263659  1833.90070541
0.30100001 36200.09045285  1803.85059266
0.30200001 35497.01154068  1936.00710108
0.30300001 34817.60662607  1746.45123104
0.30400001 34161.60803039  2188.05109793
0.30500001 33526.74518593  2616.09205071
0.30600001 32914.10597067  1667.26411688
0.30700001 32323.36540325  1642.67350756
0.30800001 31753.52052357  2060.48604433
0.30900001 31204.41875598  1886.30720310
0.31000001 30676.48094013  1860.37527469
0.31100001 30166.90298102  1835.35446426
0.31200001 29678.22586462  1672.07132438
0.31300001 29207.99168355  2888.96259420
0.31400001 28758.13904198  1630.58656088
0.31500001 28326.00723263  1476.91808704
0.31600002 27911.94023529  1459.93410313
0.31700002 27515.33717915  2099.97063294
0.31800002 27136.82031475  1558.19629625
0.31900002 26775.49450622  1413.74617687
0.32000002 26430.67807232  1399.90093038
0.32100002 26102.77364958  1891.14604046
0.32200002 25791.08655748  1499.49384345
0.32300002 25494.50000146  1239.03275874
0.32400002 25213.66082256  1474.99922796
0.32500002 24947.69006557  1707.91894276
0.32600002 24697.04378013  1574.80707121
0.32700002 24460.55610377  1564.49724248
0.32800002 24239.09041304  1913.91866964
0.32900002 24030.18974084  1427.39333820
0.33000002 23836.51975391  2130.26987128
0.33100002 23653.78509621  1295.75440893
0.33200002 23486.52222212  1525.09739271
0.33300002 23330.45626027  1168.85591399
0.33400002 23187.67305927  1514.73481433
0.33500002 23056.37504620  1278.24549309
0.33600002 22937.01488179  1391.35938862
0.33700002 22828.37324547  1620.35800970
0.33800002 22732.43392473  1155.94431981
0.33900002 22646.07193822  1154.94972354
0.34000002 22571.21401352  1500.87294691
0.34100002 22506.51126995  1500.95930768
0.34200002 22452.89045309  1155.20126852
0.34300002 22407.81962505  1503.11661163
0.34400002 22373.23731808  1273.59659465
0.34500002 22347.59262499  1507.79214582
0.34600002 22332.39091168  1394.88120241
0.34700002 22323.82749057  1398.36462024
0.34800002 22325.59154375  1285.61924994
0.34900002 22335.21671582  1289.85882643
0.35000002 22353.18175123  1294.58458244
0.35100002 22379.08913651  1536.10075108
0.35200002 22411.99526385  1424.05824651
0.35300002 22452.72641193  1669.13576052
0.35400002 22501.12617662  1198.18502566
0.35500002 22556.21298105  1806.75274536
0.35600002 22617.53321344  1453.40275314
0.35700002 22685.83664892  1583.69833147
0.35800002 22760.87686118  1348.24060473
0.35900002 22841.65346370  1850.17401819
0.36000002 22929.03714162  1489.92890403
0.36100002 23021.27975182  1750.07776963
0.36200002 23120.29281555  1258.90000344
0.36300002 23222.83025615  1521.55991045
0.36400002 23331.38297459  1532.87193404
0.36500002 23444.31057426  1544.51125379
0.36600002 23562.69490951  1556.55169945
0.36700002 23685.12425311  2222.61216519
0.36800002 23813.35061016  1581.68282245
0.36900002 23944.74124671  1727.61316279
0.37000002 24079.30591386  1474.01478134
0.37100002 24218.18312925  1486.51215089
0.37200002 24361.11956651  1771.90611561
0.37300002 24507.02498165  1374.84416660
0.37400002 24657.19903804  1525.66426275
0.37500002 24809.46791416  1679.10486797
0.37600002 24965.81504339  1552.99859834
0.37700002 25123.72388424  1851.86977523
0.37800002 25285.37479430  1581.22098767
0.37900002 25449.14396328  1595.66140209
0.38000002 25615.53872469  1610.32091821
0.38100002 25783.56868242  2216.09783324
0.38200002 25954.03870245  1789.27151291
0.38300002 26126.12218308  1956.32412175
0.38400002 26300.66588413  1822.63623212
0.38500002 26475.67415993  1992.82408843
0.38600002 26653.61540965  1547.24244783
0.38700002 26831.74778750  2186.25091330
0.38800002 27011.20555607  1576.10391887
0.38900002 27191.87733941  2067.94236963
0.39000002 27374.21086447  1766.04729759
0.39100002 27556.51909895  1620.32339978
0.39200002 27740.07909504  2125.86106216
0.39300002 27923.99284012  2310.43127705
0.39400002 28109.21886956  1832.01842662
0.39500002 28293.82742735  2689.04548610
0.39600002 28478.90334609  2204.69440699
0.39700002 28663.67327881  2053.46565098
0.39800002 28849.62883326  2071.98044097
0.39900002 29034.53305082  2438.90089182
0.40000002 29219.43724391  2460.56892689
0.40100002 29403.71194219  1773.04391412
0.40200002 29588.86904781  2325.24138429
0.40300002 29772.39494985  2525.89010722
0.40400002 29955.51428867  2547.71661096
0.40500002 30138.03382772  2386.02825119
0.40600002 30320.00516939  2036.14004362
0.40700002 30501.10517059  2053.33449737
0.40800002 30681.37162743  2635.22313394
0.40900002 30859.82117912  2277.45491093
0.41000002 31038.14289463  2104.85176013
0.41100002 31214.89961590  2700.71324273
0.41200002 31389.77468715  2527.97562421
0.41300002 31563.82845166  2548.14799164
0.41400002 31736.27163455  2765.81620400
0.41500002 31907.78152654  2190.15022776
0.41600002 32076.40253834  2608.29279599
0.41700002 32244.31105016  2426.06207837
0.41800002 32411.28573490  2851.86916695
0.41900002 32574.47805395  2257.41143610
0.42000002 32736.63859970  3514.44200340
0.42100002 32897.51274771  3123.61898341
0.42200002 33056.21241653  2307.15845494
0.42300002 33212.34287023  2323.53561730
0.42400002 33366.47552757  2552.53549881
0.42500002 33518.90167902  3641.15846193
0.42600002 33667.75131480  2372.06153129
0.42700002 33815.67805881  2388.06329768
0.42800002 33960.70256241  3059.51983883
0.42900002 34104.05065450  2419.68250860
0.43000002 34244.83950734  2656.71477487
0.43100002 34381.84636347  2227.94374993
0.43200002 34517.38375914  2690.28501767
0.43300002 34649.89645748  3383.56254941
0.43400002 34780.20175793  2723.28992670
0.43500002 34907.49735563  2739.54052229
0.43600002 35033.03750239  3214.98200395
0.43700002 35154.80695109  3002.57220398
0.43800002 35273.32012820  5110.04612913
0.43900002 35390.10034704  2569.32140695
0.44000002 35503.26700624  3053.10359089
0.44100002 35614.26477453  2361.22586645
0.44200002 35722.16667825  2848.48570591
0.44300002 35827.41583274  2624.71660829
0.44400002 35929.09594701  4077.05435580
0.44500002 36027.13719227  3133.28027010
0.44600002 36122.99272990  2906.45613279
0.44700002 36215.96265934  2920.45536725
0.44800002 36304.93726922  3178.67893325
0.44900002 36392.19167845  3684.70958207
0.45000002 36475.97323388  2467.59970622
0.45100002 36555.51105312  3469.84927361
0.45200002 36632.85048969  2738.12253962
0.45300002 36706.45162817  2749.68042178
0.45400002 36777.57255671  2510.06944596
0.45500002 36845.28081469  2772.23905988
0.45600002 36909.52769628  2530.14824349
0.45700002 36970.72302586  2793.87767148
0.45800002 37027.95596526  3314.18735574
0.45900002 37082.34586835  3326.28658204
0.46000002 37134.31123186  3081.40529206
0.46100002 37181.75099997  3092.03455970
0.46200002 37226.73784009  3361.01618519
0.46300002 37268.09927667  3372.01778237
0.46400002 37305.72450466  3903.11161129
0.46500002 37341.01287201  2871.15061581
0.46600002 37372.30638640  2879.72320509
0.46700002 37400.27941316  3675.69963494
0.46800002 37425.67998235  3949.34506732
0.46900002 37447.07679139  4224.03046227
0.47000002 37464.86269974  2911.58194271
0.47100002 37479.94707606  2918.93841663
0.47200002 37491.43364721  3724.02428069
0.47300002 37500.20895204  4266.02397258
0.47400002 37504.44320720  2672.19170517
0.47500002 37506.47637600  3213.55504821
0.47600002 37505.52396182  2683.52036666
0.47700002 37500.31538385  3764.28183665
