# SAXS profile: number of points = 501, q_min = 0, q_max = 0.5, delta_q = 0.001
#    q    intensity    error
0.00000000 1664650.74656091 299.63713438
0.00100000 1664581.86677395 649.18694346
0.00200000 1664375.16872534 973.65950454
0.00300000 1664030.83326800 1397.78594974
0.00400000 1663548.73293276 1247.66159711
0.00500000 1662929.28746666 1646.30005975
0.00600000 1662172.29766579 1745.28098360
0.00700000 1661278.32994862 2790.94771031
0.00800000 1660246.90880662 2913.73344797
0.00900000 1659079.37389987 3235.20491740
0.01000000 1657774.86971753 3829.46011440
0.01100000 1656334.68442709 3875.82333031
0.01200000 1654758.24867753 3872.13447167
0.01300000 1653046.92805553 4165.67844243
0.01400000 1651200.06216531 4829.76039594
0.01500000 1649219.29842493 4749.75179096
0.01600000 1647103.64381168 7980.21751101
0.01700000 1644855.11241499 5773.44170357
0.01800000 1642473.39263860 6553.46913152
0.01900000 1639959.01705215 6395.84045510
0.02000000 1637312.80558672 5673.28912799
0.02100000 1634536.28996994 8090.95500218
0.02200000 1631627.70933124 5629.11585294
0.02300000 1628590.04258133 6449.21686218
0.02400000 1625423.00224091 7314.40384360
0.02500000 1622128.02620508 6326.29959113
0.02600000 1618705.41325033 7211.33294586
0.02700000 1615156.06164543 6783.65576961
0.02800000 1611479.81679429 7710.93127698
0.02900000 1607679.50738192 9404.92555000
0.03000000 1603755.10942339 8203.20776176
0.03100000 1599707.11475361 7678.59450413
0.03200000 1595536.40664912 8687.69613434
0.03300000 1591245.86707026 8115.35429618
0.03400000 1586833.47089166 10830.13893854
0.03500000 1582302.66437837 11107.76521687
0.03600000 1577653.10300992 9631.57263899
0.03700000 1572886.58606685 9861.99935073
0.03800000 1568004.46406896 11007.39184718
0.03900000 1563007.95838413 11253.65782152
0.04000000 1557896.22566542 15329.69957091
0.04100000 1552672.93922437 11738.20796480
0.04200000 1547338.48942353 13972.46720772
0.04300000 1541893.17132215 10176.49540310
0.04400000 1536340.32828833 15555.44654634
0.04500000 1530679.90679086 13730.19940189
0.04600000 1524911.96431015 11825.69283296
0.04700000 1519040.01296839 10937.08860203
0.04800000 1513064.00264710 21129.93978010
0.04900000 1506986.83796362 14693.12235407
0.05000000 1500807.90734164 11481.18102580
0.05100000 1494530.70866738 16320.27609891
0.05200000 1488153.41994471 14196.98428787
0.05300000 1481681.57034724 15602.10766309
0.05400000 1475113.28849832 17037.55927668
0.05500000 1468452.79782055 16035.50530025
0.05600000 1461698.34079257 12497.52139696
0.05700000 1454855.22532244 15188.68926135
0.05800000 1447921.78469322 17939.75175000
0.05900000 1440900.31715766 12968.10346010
0.06000000 1433793.39056829 15743.05216394
0.06100000 1426602.53806266 18574.36591358
0.06200000 1419328.30489857 16095.18372990
0.06300000 1411973.88403289 13554.94992048
0.06400000 1404537.28515511 16433.08700484
0.06500000 1397024.96836253 20745.82175063
0.06600000 1389434.66485085 18152.96474563
0.06700000 1381769.38310953 16912.85804076
0.06800000 1374032.16055104 21331.85029108
0.06900000 1366223.50588843 17214.41698015
0.07000000 1358343.33373762 24592.80720896
0.07100000 1350396.38850997 23334.85068640
0.07200000 1342381.36088239 20578.70722637
0.07300000 1334303.31536289 16291.84424394
0.07400000 1326161.58450491 19395.11408232
0.07500000 1317958.21084573 19532.14160025
0.07600000 1309693.93360827 25715.84159197
0.07700000 1301373.64023496 19793.89399608
0.07800000 1292996.02582645 18386.40434950
0.07900000 1284562.77801447 16956.22946510
0.08000000 1276078.16789356 29458.26588774
0.08100000 1267542.30793264 26504.31090241
0.08200000 1258955.90328420 20376.20225081
0.08300000 1250322.21110356 18904.87271913
0.08400000 1241641.77226911 17414.02667347
0.08500000 1232918.60341994 20676.04594999
0.08600000 1224151.87570064 22365.25581913
0.08700000 1215345.23742396 19251.06946478
0.08800000 1206497.14224261 17717.41136591
0.08900000 1197613.96501252 24251.68393060
0.09000000 1188694.10126850 22715.94534233
0.09100000 1179740.52329843 16280.41998639
0.09200000 1170753.93955650 22864.82551388
0.09300000 1161738.05812334 18018.55812822
0.09400000 1152691.11804471 19711.01904493
0.09500000 1143617.55394225 18114.90290589
0.09600000 1134518.22149765 23110.13725826
0.09700000 1125396.27600764 16543.32603506
0.09800000 1116252.25252430 24864.52009405
0.09900000 1107088.41943013 21588.22519402
0.10000000 1097904.15983542 16633.24880372
0.10100000 1088702.54654536 18322.86472012
0.10200000 1079485.77159338 30020.50072007
0.10300000 1070254.60868175 16695.97268083
0.10400000 1061011.85729405 21724.21880011
0.10500000 1051760.20492974 21739.88445875
0.10600001 1042496.03194066 18405.26830995
0.10700001 1033226.97308411 21759.76107711
0.10800001 1023950.20767718 16741.58668341
0.10900001 1014670.14934900 23438.88155313
0.11000001 1005386.62670228 23435.56337153
0.11100001 996102.05929641 18407.96692232
0.11200001 986818.98446179 25089.87386110
0.11300001 977535.65803261 16715.86053935
0.11400001 968257.12006486 16702.43610754
0.11500001 958983.39342116 20023.57419750
0.11600001 949715.55164917 20001.01045961
0.11700001 940456.64518964 23304.51676532
0.11800001 931204.93843850 23270.81250759
0.11900001 921964.67112703 19914.43783435
0.12000001 912735.97607161 19879.39049526
0.12100001 903522.07868386 19841.34578259
0.12200001 894321.94091786 18150.26464601
0.12300001 885138.50231958 16463.57691882
0.12400001 875971.99686124 16424.47571503
0.12500001 866824.38178497 18021.27974648
0.12600001 857698.42331543 26142.64917459
0.12700001 848593.74128956 21180.90078077
0.12800001 839510.49213570 19493.43454610
0.12900001 830452.25323749 21051.96561179
0.13000001 821418.93649707 17754.97114926
0.13100001 812411.27337450 22520.04155948
0.13200001 803432.55767762 17631.32830938
0.13300001 794483.77318246 17566.03705318
0.13400001 785563.20686722 17498.42125794
0.13500001 776675.18981416 22181.84446693
0.13600001 767818.30662724 17356.53363968
0.13700001 758996.01212212 18853.46183012
0.13800001 750206.69361165 17205.99132934
0.13900001 741455.54221700 18684.68054500
0.14000001 732739.59051640 15497.44307029
0.14100001 724061.84578294 16964.76984680
0.14200001 715421.78086472 18414.95750800
0.14300001 706824.01660617 16794.13942670
0.14400001 698263.06136718 16705.94453123
0.14500001 689747.51449278 16616.01840794
0.14600001 681272.07294151 18026.45990042
0.14700001 672843.11103883 14937.11776974
0.14800001 664456.23363410 16335.65727459
0.14900001 656114.40471525 23620.11968417
0.15000001 647819.27775150 14673.10733339
0.15100001 639571.28117648 14582.22589889
0.15200001 631371.63674691 17387.97569650
0.15300001 623220.68598061 21594.59778826
0.15400001 615117.13932719 15731.62158068
0.15500001 607065.49228958 18466.93314696
0.15600001 599062.50318028 14107.92261572
0.15700001 591114.88680714 15410.36582638
0.15800001 583214.66001511 15300.63732767
0.15900001 575370.48819361 15189.78160528
0.16000001 567577.07820372 19189.78191987
0.16100001 559841.07101817 20406.20800187
0.16200001 552157.44945135 14850.27530402
0.16300001 544530.36407812 16074.53710643
0.16400001 536958.57635371 15947.67047059
0.16500001 529443.58660040 14501.46052162
0.16600001 521985.07644515 20921.16285167
0.16700001 514583.41557852 14264.25295332
0.16800001 507238.67826393 15430.20132135
0.16900001 499954.57232295 14023.72641583
0.17000001 492727.89642142 15166.16536799
0.17100001 485560.67324183 12527.46596120
0.17200001 478453.05810443 14899.02893295
0.17300001 471405.16773925 23376.98337216
0.17400001 464418.50064142 12190.98621757
0.17500001 457491.84643467 14493.34237954
0.17600001 450624.11891449 11964.07092223
0.17700001 443820.51899817 22515.01599218
0.17800001 437077.00139562 14082.62165012
0.17900001 430395.22984349 22079.27633385
0.18000001 423776.36021064 13806.63446782
0.18100001 417220.67156745 14807.16233337
0.18200001 410724.60950905 12401.83016996
0.18300001 404293.78844997 12274.35999717
0.18400001 397924.36326961 13250.88192286
0.18500001 391618.88027111 10926.16727574
0.18600001 385376.23524400 20538.62742764
0.18700001 379196.45714719 12832.00871611
0.18800001 373079.60889743 11634.48815315
0.18900001 367028.43314881 12552.37300676
0.19000001 361036.53853655 13446.80651314
0.19100001 355113.35398948 14318.17110939
0.19200001 349249.75191361 12132.93695478
0.19300001 343452.77530650 13992.26672716
0.19400001 337718.04003514 11853.90376538
0.19500001 332047.61667964 12690.86050920
0.19600001 326439.72359317 10610.92371683
0.19700001 320896.26741192 11436.74351103
0.19800001 315416.24679012 11298.21049396
0.19900001 310000.56720524 10230.01920124
0.20000001 304646.36942175 12859.12386103
0.20100001 299357.34948647 12698.73936539
0.20200001 294130.40769912 9851.89847152
0.20300001 288967.24189151 9726.63782179
0.20400001 283867.10250184 10474.69657741
0.20500001 278828.99594531 8615.81638195
0.20600001 273854.37730137 11054.13246228
0.20700001 268941.73052300 10908.27710564
0.20800001 264091.62218950 13246.83639521
0.20900001 259305.58588300 10618.56424386
0.21000001 254579.12899121 11280.40173885
0.21100001 249914.66982772 9536.74425146
0.21200001 245311.75504066 9405.25313289
0.21300001 240770.16610808 10047.33950668
0.21400001 236290.14103158 11430.53611280
0.21500001 231871.71171755 7512.64381483
0.21600001 227512.25873594 10367.73412077
0.21700001 223213.70997881 10948.63299211
0.21800001 218975.27293842 7912.67186175
0.21900001 214795.30596610 11341.19269124
0.22000001 210674.50336824 8380.63214025
0.22100001 206615.02296512 10320.42088509
0.22200001 202613.12749723 6777.40943525
0.22300001 198669.45334366 8677.88213239
0.22400001 194782.21315823 8546.07000643
0.22500001 190955.89382563 8415.42663884
0.22600001 187184.81543151 8285.73624689
0.22700001 183471.90929936 6902.21355424
0.22800001 179814.95881231 8647.30177822
0.22900001 176213.73416913 8511.12376287
0.23000001 172668.72574153 7179.56595587
0.23100001 169180.59175439 7064.98184579
0.23200001 165745.73260435 6951.37635418
0.23300001 162366.56273678 6268.97328375
0.23400001 159041.75214970 6727.46643411
0.23500001 155769.47079943 7719.93533794
0.23600001 152551.70813288 5965.53482869
0.23700001 149386.68228837 6399.72577193
0.23800001 146274.19572801 7865.89524732
0.23900001 143214.10560269 6186.84965467
0.24000001 140205.40400749 6082.11071353
0.24100001 137249.32659255 5480.36587007
0.24200001 134343.30076118 6365.85760769
0.24300001 131487.81465729 5293.69966851
0.24400001 128681.70867074 6147.76892256
0.24500001 125925.49938109 4646.65114697
0.24600001 123218.55281518 5934.82187709
0.24700001 120560.78336433 4484.86135331
0.24800001 117950.25758501 4405.44232921
0.24900001 115387.24490929 5192.42626656
0.25000001 112872.17599151 4674.60138984
0.25100001 110402.97808607 5007.87932290
0.25200001 107981.45397337 4097.89637216
0.25300001 105605.63862524 4828.29002637
0.25400001 103274.36513900 7110.44037622
0.25500001 100988.24936814 4653.53875105
0.25600001 98746.78134940  5329.36404157
0.25700001 96549.07388354  3736.44933608
0.25800001 94394.69391859  4767.40424192
0.25900001 92283.66653637  4678.78211477
0.26000001 90215.64151530  5297.91379866
0.26100001 88187.50645154  3465.76916753
0.26200001 86203.36552503  3740.79522396
0.26300001 84258.93353322  3670.31931838
0.26400001 82355.09718582  3273.61526804
0.26500001 80492.13274152  3532.79987319
0.26600001 78667.80566646  3465.71034263
0.26700001 76883.81236087  4327.02116443
0.26800001 75138.26906704  3031.82930032
0.26900001 73430.26771198  3568.71117968
0.27000001 71760.71418703  4375.60975462
0.27100001 70128.16454966  3147.35217393
0.27200001 68532.80092928  3087.06016395
0.27300001 66973.17354189  3853.63658797
0.27400001 65448.43417621  4049.62205630
0.27500001 63961.23891196  3177.59449953
0.27600001 62506.76952327  3116.58767593
0.27700001 61088.55577970  2802.13218623
0.27800001 59703.21338390  3747.86939755
0.27900001 58351.98222743  2940.94004345
0.28000001 57033.31558430  2884.74523878
0.28100001 55747.08065541  3065.53211033
0.28200001 54493.58985162  3238.55419816
0.28300001 53271.58250670  2269.36952220
0.28400001 52080.91328912  3562.33463758
0.28500001 50921.12687409  2402.96809092
0.28600001 49791.05884945  2786.55674040
0.28700001 48691.16364746  2313.80420605
0.28800001 47620.17930581  2064.33487062
0.28900001 46579.45127251  2431.44747151
0.29000001 45566.07615134  2784.54304541
0.29100001 44582.04978666  2147.96326039
0.29200001 43624.87872839  2109.04486196
0.29300001 42694.99375301  2635.98903909
0.29400001 41791.81457014  2219.14545872
0.29500001 40916.14232140  2725.01520760
0.29600001 40065.22982654  1963.39668059
0.29700001 39239.65690086  1754.01274650
0.29800001 38439.86639546  2413.63932523
0.29900001 37664.79553377  1864.40746718
0.30000001 36913.70248973  1999.98449557
0.30100001 36187.41054919  2295.00568568
0.30200001 35483.45730275  1773.99553183
0.30300001 34803.11432890  1904.42650624
0.30400001 34146.11786451  3124.36993252
0.30500001 33510.31705324  2153.37307579
0.30600001 32896.75807528  1969.36451541
0.30700001 32305.06122925  1790.99267934
0.30800001 31734.35205909  1912.15347385
0.30900001 31184.27556075  1740.08265867
0.31000001 30655.47572550  1716.09361236
0.31100001 30144.92217496  1692.93890950
0.31200001 29655.36853908  1949.24746636
0.31300001 29184.20907584  1649.49157506
0.31400001 28733.54080250  1900.72381408
0.31500001 28300.47284920  1475.58672422
0.31600002 27885.57636755  1458.55514096
0.31700002 27488.07922914  2097.89030610
0.31800002 27108.62124782  1426.86234694
0.31900002 26746.49811956  2054.13115284
0.32000002 26400.83784725  1398.32044279
0.32100002 26071.99960228  2014.84422467
0.32200002 25759.58645583  1372.85722517
0.32300002 25462.15331985  1484.95285193
0.32400002 25180.57952886  1350.30864117
0.32500002 24913.73323670  1583.76609685
0.32600002 24662.23567181  1451.61926038
0.32700002 24425.04417830  1802.56834572
0.32800002 24202.74792663  1313.84623341
0.32900002 23993.10980951  1306.42489099
0.33000002 23798.64580601  1299.76310224
0.33100002 23615.18684230  1176.03636044
0.33200002 23447.09877565  1639.65569503
0.33300002 23290.43325253  1400.22091345
0.33400002 23146.87199980  1512.06948499
0.33500002 23014.81396885  1275.94134686
0.33600002 22894.77739487  1504.53036775
0.33700002 22785.38898748  1617.30698692
0.33800002 22688.81664100  1615.21693317
0.33900002 22601.80052594  1959.57619840
0.34000002 22526.24246223  1267.43909216
0.34100002 22460.91437325  2189.26542764
0.34200002 22406.67579177  1268.10587649
0.34300002 22360.90487526  1615.35184469
0.34400002 22325.74830292  1270.89328233
0.34500002 22299.52575482  1273.07998564
0.34600002 22283.71122981  1623.81411422
0.34700002 22274.57779233  1744.09952374
0.34800002 22275.72148498  1749.20111245
0.34900002 22284.84283893  1169.95430446
0.35000002 22302.26153353  1291.63553789
0.35100002 22327.59989524  1414.67679636
0.35200002 22359.97631945  1420.75296263
0.35300002 22400.19273766  1189.45029071
0.35400002 22448.08034619  1434.43240206
0.35500002 22502.69430598  1441.97271942
0.35600002 22563.63127485  1449.93901440
0.35700002 22631.38307023  1336.83586128
0.35800002 22705.99322638  1222.71779315
0.35900002 22786.34837568  1476.55544468
0.36000002 22873.36221426  1486.31114708
0.36100002 22965.15329623  1371.70867136
0.36200002 23063.75683337  1381.40378097
0.36300002 23165.93968878  1391.34640361
0.36400002 23274.08342484  1401.68174065
0.36500002 23386.63873943  1283.92652761
0.36600002 23504.74074252  1293.93603917
0.36700002 23626.80600158  1565.03970368
0.36800002 23754.73297756  1709.27189237
0.36900002 23885.78193578  1590.79315228
0.37000002 24020.12855193  1470.39223896
0.37100002 24158.69391751  2156.88829513
0.37200002 24301.39577511  1631.59578963
0.37300002 24447.03857436  1782.92260769
0.37400002 24597.00075867  1521.93949404
0.37500002 24749.03735270  1675.01492738
0.37600002 24905.18841158  1408.38847139
0.37700002 25062.85733314  1705.27689373
0.37800002 25224.33000430  1577.40355154
0.37900002 25387.98267357  1447.11508095
0.38000002 25554.17067492  2190.63138488
0.38100002 25722.11274606  1621.26484319
0.38200002 25892.37515242  1785.02042757
0.38300002 26064.41695678  1801.57258540
0.38400002 26238.93395157  1969.88805974
0.38500002 26413.79658728  1529.35889486
0.38600002 26591.72319130  1698.01456482
0.38700002 26769.73272294  1557.99851829
0.38800002 26949.18049182  2515.97560991
0.38900002 27129.80549206  1904.51243577
0.39000002 27312.19423249  1601.86026763
0.39100002 27494.46577371  1940.00959690
0.39200002 27678.08351994  2284.27234112
0.39300002 27862.00079114  2140.63762220
0.39400002 28047.24401604  1827.97921535
0.39500002 28231.95273776  2515.46710811
0.39600002 28417.02416423  1861.45725607
0.39700002 28601.97990814  2049.04593770
0.39800002 28788.02728186  2067.55621734
0.39900002 28973.01922238  2607.57185356
0.40000002 29158.03117412  1753.85565822
0.40100002 29342.49374165  2477.09343903
0.40200002 29527.78494386  1784.95468443
0.40300002 29711.52147126  1980.57011511
0.40400002 29894.73944460  2360.93715950
0.40500002 30077.48302628  2381.23444401
0.40600002 30259.65671714  2032.08734312
0.40700002 30440.94844273  2049.28474626
0.40800002 30621.45016501  2630.07647929
0.40900002 30800.24205874  2462.47946927
0.41000002 30978.78012849  2100.82607395
0.41100002 31155.84805454  2695.60410140
0.41200002 31330.96102347  2329.14375284
0.41300002 31505.37694548  2152.13240112
0.41400002 31678.10348420  2563.55064593
0.41500002 31849.88822511  2782.40636719
0.41600002 32018.91745374  2603.61839612
0.41700002 32187.09804248  2219.94425718
0.41800002 32354.44257376  2440.17217454
0.41900002 32518.06452588  2253.50197842
0.42000002 32680.60675826  2476.53649749
0.42100002 32841.86421816  2702.55713457
0.42200002 33000.98960616  2303.30417870
0.42300002 33157.59137466  3163.23436703
0.42400002 33312.03675552  2548.37093255
0.42500002 33464.95043613  3635.29773814
0.42600002 33614.25459779  2368.29241991
0.42700002 33762.64581271  2601.07435667
0.42800002 33908.19007005  2400.19134785
0.42900002 34051.99070284  2415.98885485
0.43000002 34193.29110660  3536.95419967
0.43100002 34330.81055796  4004.34593324
0.43200002 34466.83726075  2686.34542340
0.43300002 34599.94520648  2477.70219365
0.43400002 34730.77560379  3172.65650175
0.43500002 34858.60939223  3875.58037589
0.43600002 34984.72284049  2751.89842904
0.43700002 35107.08848524  2306.53582278
0.43800002 35226.16269083  3015.53580005
0.43900002 35343.51819064  3032.47400446
0.44000002 35457.29975954  2345.50049025
0.44100002 35568.94008763  2594.04292352
0.44200002 35677.43165567  2370.76544587
0.44300002 35783.32044885  2383.16925483
0.44400002 35885.66294778  3832.58898445
0.44500002 35984.34798832  2407.35299451
0.44600002 36080.83501911  2903.06412322
0.44700002 36174.52262487  2674.02083916
0.44800002 36264.15975514  3907.82604041
0.44900002 36352.05594120  2453.76389232
0.45000002 36436.49668804  2957.91494132
0.45100002 36516.80772769  3218.59158566
0.45200002 36594.79782929  2983.93995642
0.45300002 36669.14415002  4494.90390294
0.45400002 36740.93214286  3761.35310639
0.45500002 36809.37022581  4280.19377271
0.45600002 36874.34255892  3033.28356265
0.45700002 36936.27331697  3552.53093599
0.45800002 36994.28882067  2547.05690602
0.45900002 37049.44331241  3067.69405166
0.46000002 37102.10501272  4104.97709316
0.46100002 37150.31264427  3346.87182475
0.46200002 37196.06898623  3616.57395894
0.46300002 37238.20410200  3110.13495400
0.46400002 37276.65475611  3640.06550946
0.46500002 37312.73422974  3390.60832016
0.46600002 37344.74781853  2877.59967954
0.46700002 37373.52090329  3673.06980846
0.46800002 37399.69579219  3420.38934079
0.46900002 37421.90091400  3693.54179527
0.47000002 37440.53639503  3967.76103252
0.47100002 37456.38635986  3712.67719196
0.47200002 37468.67965930  3190.08353739
0.47300002 37478.32636922  3730.59278361
0.47400002 37483.37486642  4006.03587872
0.47500002 37486.25629557  2944.17070900
0.47600002 37486.12358695  3218.55872373
0.47700002 37481.65724977  3224.92194263
