# SAXS profile: number of points = 501, q_min = 0, q_max = 0.5, delta_q = 0.001
#    q    intensity    error
0.00000000 1682732.95097188 252.40994265
0.00100000 1682663.32836555 605.75881260
0.00200000 1682454.40548645 832.81495709
0.00300000 1682106.35729688 1009.26385033
0.00400000 1681619.05387583 1513.45720600
0.00500000 1680992.94695755 1512.89371214
0.00600000 1680227.76396379 1940.66314639
0.00700000 1679324.18861605 2619.74584312
0.00800000 1678281.65455397 2492.24836224
0.00900000 1677101.56178086 3521.91343029
0.01000000 1675782.98024377 3318.05044415
0.01100000 1674327.28134127 3917.92600892
0.01200000 1672733.84161431 4240.38047441
0.01300000 1671004.08354575 3860.01960324
0.01400000 1669137.26588355 5257.78262062
0.01500000 1667135.21294875 4801.34962709
0.01600000 1664996.74418872 5519.46445372
0.01700000 1662723.95533442 4489.35488079
0.01800000 1660316.48103982 5678.28262067
0.01900000 1657775.02508967 6962.65541955
0.02000000 1655100.30060239 5734.92280101
0.02100000 1652293.85020239 7633.59793403
0.02200000 1649353.91724874 6828.32552764
0.02300000 1646283.51029118 6519.28299750
0.02400000 1643082.30814183 9858.49429837
0.02500000 1639751.80338766 7674.03879033
0.02600000 1636292.28967941 7952.38089157
0.02700000 1632704.60890957 7543.09563864
0.02800000 1628988.75864410 8503.32171008
0.02900000 1625147.38529381 9507.11264048
0.03000000 1621180.64277940 7538.49033543
0.03100000 1617088.92842170 12419.24354173
0.03200000 1612873.30374788 13572.32947615
0.03300000 1608536.43617761 9023.88982296
0.03400000 1604076.47899480 10947.82247428
0.03500000 1599496.69490288 11228.46731673
0.03600000 1594796.89519470 10621.34781285
0.03700000 1589978.99485405 12688.03296573
0.03800000 1585044.07327132 11127.00990932
0.03900000 1579993.68619474 10427.95881180
0.04000000 1574826.63503477 13559.25795597
0.04100000 1569546.97304117 10876.96102750
0.04200000 1564154.94871525 18159.83979707
0.04300000 1558650.73025301 10287.09529718
0.04400000 1553037.92312947 12579.60776157
0.04500000 1547316.28762545 13879.42774491
0.04600000 1541485.97342379 11954.22427962
0.04700000 1535550.61749415 13267.15795218
0.04800000 1529509.97051308 13490.27856760
0.04900000 1523367.10610004 14852.82997584
0.05000000 1517121.36701026 12766.57689788
0.05100000 1510776.18990671 17676.08224533
0.05200000 1504330.04113522 14351.30926122
0.05300000 1497788.16770655 18198.12708599
0.05400000 1491148.79285262 19683.16498356
0.05500000 1484416.27231477 16209.82644985
0.05600000 1477588.72193383 21476.75307550
0.05700000 1470671.55633400 21751.23333350
0.05800000 1463663.08761527 15544.10271627
0.05900000 1456565.56810411 20974.54516033
0.06000000 1449381.45380839 17240.39319850
0.06100000 1442112.91333823 16093.98086495
0.06200000 1434759.86085171 17626.02571447
0.06300000 1427325.81538085 13702.32846831
0.06400000 1419808.72061988 15227.44924079
0.06500000 1412214.83106310 13980.92748152
0.06600000 1404542.28425746 15527.21567896
0.06700000 1396794.02880118 19946.21966474
0.06800000 1388972.87309903 15813.45690045
0.06900000 1381079.75024910 14501.33805655
0.07000000 1373113.97150351 26322.59606637
0.07100000 1365080.88488370 14742.87424727
0.07200000 1356978.99913897 16344.81281033
0.07300000 1348813.37623146 16469.01209545
0.07400000 1340583.09643468 16589.71659584
0.07500000 1332290.87508167 15188.11668784
0.07600000 1323936.76296934 16820.61736209
0.07700000 1315526.21673111 23087.48618617
0.07800000 1307057.61021512 17037.49674815
0.07900000 1298532.78363305 20257.11237481
0.08000000 1289956.26868347 15672.96939974
0.08100000 1281327.56009339 18912.39567431
0.08200000 1272647.82207062 17428.91274111
0.08300000 1263920.45944053 20703.01809727
0.08400000 1255145.66263620 24004.66192466
0.08500000 1246327.75117628 24116.44311741
0.08600000 1237465.89957873 17763.82382249
0.08700000 1228563.39545649 19460.44509785
0.08800000 1219619.12044757 17910.10762490
0.08900000 1210639.39747310 27784.17547702
0.09000000 1201622.53021347 21322.79280029
0.09100000 1192571.54115796 19748.98564941
0.09200000 1183487.44550613 21462.54583271
0.09300000 1174373.50865805 18214.53397523
0.09400000 1165228.12115415 18264.95165750
0.09500000 1156055.76026072 16647.20373022
0.09600000 1146857.53558604 16686.77792719
0.09700000 1137636.35243570 21740.23171712
0.09800000 1128392.96484615 20107.96357899
0.09900000 1119129.26874027 21823.02176661
0.10000000 1109845.15512226 18495.57037991
0.10100000 1100543.42014578 30308.96721630
0.10200000 1091226.31170415 18545.39203972
0.10300000 1081894.67330993 20253.06923708
0.10400000 1072551.49122297 23649.76149407
0.10500000 1063199.01704282 23666.81123288
0.10600001 1053833.85701982 20296.84104124
0.10700001 1044463.99697694 20304.38105671
0.10800001 1035086.18029571 22000.75779758
0.10900001 1025704.99385604 18616.54651469
0.11000001 1016320.60429198 18613.91274376
0.11100001 1006935.14438526 18608.16234419
0.11200001 997550.69364997 25362.72758005
0.11300001 988166.32741982 23656.70299221
0.11400001 978786.75348084 18572.47952177
0.11500001 969412.13760193 21928.10358511
0.11600001 960043.30805911 25273.14127481
0.11700001 950683.90679179 26923.36950830
0.11800001 941331.09874260 26884.41744630
0.11900001 931990.43839037 18453.41154932
0.12000001 922661.25916640 18420.93290697
0.12100001 913347.22215864 20057.10594346
0.12200001 904047.05934225 18347.63593373
0.12300001 894763.65192257 18306.86518085
0.12400001 885497.27678969 16603.07472210
0.12500001 876250.11997889 19873.35365756
0.12600001 867024.82482177 16516.82369118
0.12700001 857821.00149004 18117.18040527
0.12800001 848639.03215706 19705.39925539
0.12900001 839482.17497631 22917.86445702
0.13000001 830350.85896863 26106.23223649
0.13100001 821245.38460215 21138.85719609
0.13200001 812168.84026874 19443.32295260
0.13300001 803122.63256373 16142.76567555
0.13400001 794105.34936484 19296.76089932
0.13500001 785120.63997646 27227.98507813
0.13600001 776167.54772048 23925.36578658
0.13700001 767249.44963047 23823.09653436
0.13800001 758364.61984671 20555.47399025
0.13900001 749518.49923433 22035.84491666
0.14000001 740707.99862240 21932.36487355
0.14100001 731936.15054017 21826.33703850
0.14200001 723202.14570146 20166.49278404
0.14300001 714511.45421723 16976.79295296
0.14400001 705857.57490801 16887.64327626
0.14500001 697249.91100691 21377.68327990
0.14600001 688682.75731384 19741.09216967
0.14700001 680162.23750523 15099.60238496
0.14800001 671684.66094828 16513.36816849
0.14900001 663252.29610283 14923.17736640
0.15000001 654867.74424708 14832.75510705
0.15100001 646530.30885246 17689.07008486
0.15200001 638242.28672593 14647.66117154
0.15300001 630003.18247552 17463.68904232
0.15400001 621812.06141543 15902.84422117
0.15500001 613673.53272424 17231.95361212
0.15600001 605584.34818639 15687.66328015
0.15700001 597550.89285999 19826.73956085
0.15800001 589565.61815683 14061.14065671
0.15900001 581636.84993626 20938.92758604
0.16000001 573759.43858658 23555.69486306
0.16100001 565940.49430267 15127.59012680
0.16200001 558174.11917919 20471.03678725
0.16300001 550465.23381933 23020.45716507
0.16400001 542812.10163080 13434.60014960
0.16500001 535216.61539729 13326.89435257
0.16600001 527677.75823388 14540.16131462
0.16700001 520197.08768360 14419.86395142
0.16800001 512773.65890721 16898.45672717
0.16900001 505411.56371189 16754.39412816
0.17000001 498107.87505158 12776.46759837
0.17100001 490863.94384098 16463.57745386
0.17200001 483680.29478725 18827.25636367
0.17300001 476557.30874829 12438.14634572
0.17400001 469496.28788700 14789.13376687
0.17500001 462495.93895152 19535.82938394
0.17600001 455555.22305021 13304.49091754
0.17700001 448679.14694556 13177.70716818
0.17800001 441864.13980491 14236.86325695
0.17900001 435111.55952757 14097.61519457
0.18000001 428422.61991390 13958.00961610
0.18100001 421797.53704180 17272.60995776
0.18200001 415232.79213629 14817.58288734
0.18300001 408734.09560644 18049.69851464
0.18400001 402297.44460517 12280.13007669
0.18500001 395925.52363065 14360.21942049
0.18600001 389617.18511710 13114.51507062
0.18700001 383372.59012159 11892.21830742
0.18800001 377191.53124301 10693.38041596
0.18900001 371076.82933470 11633.25914928
0.19000001 365022.26960224 10457.88851823
0.19100001 359036.95132556 14476.37056146
0.19200001 353112.56701844 10222.60929822
0.19300001 347254.97968314 12126.14446353
0.19400001 341460.55882335 10986.49399930
0.19500001 335731.12862602 10857.54521284
0.19600001 330065.01938995 14630.13267583
0.19700001 324464.02513943 11563.89840245
0.19800001 318927.39209187 9519.98310384
0.19900001 313455.87730438 12224.77979261
0.20000001 308046.42850196 13002.64036159
0.20100001 302703.00662597 11923.47199453
0.20200001 297422.19955635 9962.15704499
0.20300001 292206.14054107 10729.80998781
0.20400001 287053.84534209 11474.97800992
0.20500001 281964.18284652 13940.30985885
0.20600001 276938.78679051 12038.52963082
0.20700001 271976.24411829 11031.35698288
0.20800001 267076.57018865 9210.13595832
0.20900001 262242.03116917 13216.99899571
0.21000001 257467.83900623 8963.74323874
0.21100001 252756.32460075 8037.65150227
0.21200001 248107.07621160 9512.42575165
0.21300001 243519.66203572 8598.67967299
0.21400001 238994.87315883 7707.58502376
0.21500001 234532.20860423 8358.72830984
0.21600001 230129.06654308 8988.84176415
0.21700001 225787.60414894 11074.88250712
0.21800001 221507.11616954 12370.06548735
0.21900001 217285.67046710 7887.47021089
0.22000001 213124.05085386 9184.58140582
0.22100001 209024.60878737 8352.62376208
0.22200001 204983.28568151 8228.02947631
0.22300001 201000.90002699 13507.26112051
0.22400001 197075.62251216 8646.69334659
0.22500001 193211.88811530 7204.87164852
0.22600001 189404.14931443 9673.81738369
0.22700001 185655.12186614 6984.34601489
0.22800001 181962.75120137 8750.58911909
0.22900001 178326.73582883 8613.18174786
0.23000001 174747.66572861 7266.00828462
0.23100001 171226.10563238 8342.13626093
0.23200001 167758.26620667 7035.78201746
0.23300001 164346.98443470 7499.15325442
0.23400001 160990.40378643 10782.33280355
0.23500001 157687.16990365 7814.97651004
0.23600001 154439.15015364 5490.31204764
0.23700001 151244.18242578 6479.30108158
0.23800001 148102.56277017 6371.37255173
0.23900001 145013.81889742 6264.59727268
0.24000001 141977.14848864 5645.72157670
0.24100001 138993.52932195 5550.01188835
0.24200001 136060.66065085 4959.41131531
0.24300001 133178.75913318 4874.34281484
0.24400001 130346.98597000 5748.30235319
0.24500001 127565.54865473 6119.31965844
0.24600001 124834.03176002 7400.16175280
0.24700001 122152.10997219 4998.46457652
0.24800001 119517.95696803 4910.39549433
0.24900001 116931.94184812 4384.94802675
0.25000001 114394.23734725 6029.72053583
0.25100001 111903.04624991 5498.91595287
0.25200001 109459.85020018 5400.20196511
0.25300001 107063.09474903 4894.92492351
0.25400001 104711.30588371 4405.72840350
0.25500001 102405.04084720 5505.29525641
0.25600001 100144.04382872 5018.71899392
0.25700001 97927.20910590  4547.73980605
0.25800001 95754.26272874  5952.08525284
0.25900001 93625.02952371  4016.51395661
0.26000001 91539.16854508  3942.13447992
0.26100001 89493.71915243  4220.52399493
0.26200001 87492.83334914  3796.75168284
0.26300001 85532.11941179  4064.48650677
0.26400001 83612.07850829  5317.72844475
0.26500001 81733.45334063  3261.16494261
0.26600001 79894.13898376  4479.66458480
0.26700001 78095.29786870  4395.20357203
0.26800001 76335.37761920  3696.15915923
0.26900001 74613.36302498  3324.02548006
0.27000001 72930.10914196  3261.06998460
0.27100001 71284.50423912  3199.24870165
0.27200001 69676.25284965  3423.89122706
0.27300001 68104.13034835  3358.89586774
0.27400001 66567.12515290  3020.48344676
0.27500001 65068.20851852  2963.20635617
0.27600001 63602.40979293  3435.48432755
0.27700001 62173.00166340  3111.13715048
0.27800001 60776.73374875  3560.90899887
0.27900001 59414.97717067  2744.97207520
0.28000001 58086.24422701  2938.00237205
0.28100001 56790.16989586  3363.11402041
0.28200001 55527.19977242  2828.55569028
0.28300001 54295.90080814  2775.60658068
0.28400001 53096.32080785  2723.84138636
0.28500001 51927.86264367  2896.01703671
0.28600001 50789.32271407  2842.42458023
0.28700001 49681.30490687  2360.85572092
0.28800001 48602.51601097  2528.30300256
0.28900001 47554.35774439  2689.19905773
0.29000001 46533.55842950  2640.54689807
0.29100001 45542.25562917  2393.70106917
0.29200001 44578.36300186  2351.06297601
0.29300001 43641.90427655  2117.06887667
0.29400001 42732.35206611  2836.36000265
0.29500001 41850.39118462  2229.78894787
0.29600001 40993.65134623  2191.52070471
0.29700001 40162.41481262  2154.31203253
0.29800001 39357.01752701  3177.29217536
0.29900001 38576.62415210  2256.73261973
0.30000001 37820.38018055  1707.59024599
0.30100001 37089.28157693  2352.20234896
0.30200001 36380.54259283  1818.84531303
0.30300001 35695.58089512  2116.03413564
0.30400001 35034.27385743  2083.66353631
0.30500001 34394.16052095  1894.43045118
0.30600001 33776.59048032  2333.11809788
0.30700001 33180.92953032  2299.43852531
0.30800001 32606.51281068  1813.57432839
0.30900001 32052.83199695  2235.68513763
0.31000001 31520.47155583  1764.51608124
0.31100001 31006.78208602  2031.56445846
0.31200001 30513.91316343  2292.20526536
0.31300001 30039.79029698  1414.87418998
0.31400001 29586.24383200  1817.33511343
0.31500001 29150.18771729  1658.06275586
0.31600002 28732.68881758  2322.60701054
0.31700002 28332.65400012  1756.90795773
0.31800002 27950.72190136  1872.41894883
0.31900002 27586.30953884  1721.38579673
0.32000002 27238.40669839  2360.75282033
0.32100002 26907.41247421  1429.59089245
0.32200002 26592.83606834  1288.42296852
0.32300002 26293.41014326  1533.43175216
0.32400002 26009.96526040  1648.38162643
0.32500002 25741.20383890  1384.61942006
0.32600002 25488.00489180  1875.28004871
0.32700002 25249.02551168  1366.47732540
0.32800002 25025.22635084  1852.49246834
0.32900002 24813.99783431  1719.61013135
0.33000002 24618.18952618  1466.75180143
0.33100002 24433.14619793  1460.12488593
0.33200002 24263.71707151  1333.16999763
0.33300002 24105.76485778  1932.31820251
0.33400002 23960.92871439  1204.03672492
0.33500002 23827.60205943  1321.00232073
0.33600002 23706.38154878  2157.04375927
0.33700002 23595.81888702  1196.30807423
0.33800002 23498.06587216  1672.82738866
0.33900002 23410.02627784  1193.91139671
0.34000002 23333.37666637  1551.55295491
0.34100002 23266.95637533  1551.67339416
0.34200002 23211.82893482  1433.09838631
0.34300002 23165.00535968  1195.31433317
0.34400002 23128.89877790  1555.99673898
0.34500002 23101.71794803  1438.77506194
0.34600002 23084.95434129  1441.88631645
0.34700002 23074.89601382  1445.41155476
0.34800002 23075.08876273  1932.76952630
0.34900002 23083.30925782  1211.87379343
0.35000002 23099.91113895  1337.83141697
0.35100002 23124.29137765  1343.05890682
0.35200002 23155.70755751  1471.31372789
0.35300002 23194.98697883  1724.31541368
0.35400002 23241.98911710  1361.39957702
0.35500002 23295.59203749  1741.57854321
0.35600002 23355.65301034  1876.04291691
0.35700002 23422.40580146  1635.11822645
0.35800002 23496.15110665  1391.79457672
0.35900002 23575.45728451  1273.07475366
0.36000002 23661.44268220  1793.77405470
0.36100002 23752.29035369  1418.72437003
0.36200002 23849.88854104  1688.21444034
0.36300002 23950.94796356  1569.26618490
0.36400002 24058.08260896  1580.61610228
0.36500002 24169.52197732  1459.59750135
0.36600002 24286.46619637  1871.75803842
0.36700002 24407.44365107  2020.93643004
0.36800002 24534.13379499  1357.96436988
0.36900002 24663.92790865  1505.73287015
0.37000002 24796.98332140  1793.93784336
0.37100002 24934.26606653  1947.86495739
0.37200002 25075.77704184  1543.28877115
0.37300002 25219.97796064  1556.32491367
0.37400002 25368.60051419  1855.07900048
0.37500002 25519.12492639  1727.13445683
0.37600002 25673.81631717  1742.22525781
0.37700002 25829.98116583  2196.84000222
0.37800002 25989.86920699  1773.02896129
0.37900002 26151.95507410  2086.92611378
0.38000002 26316.48456372  1654.38588047
0.38100002 26482.75308127  1669.20800579
0.38200002 26651.28328349  1837.33955660
0.38300002 26821.52269895  2008.39571484
0.38400002 26994.27442471  1870.70330626
0.38500002 27167.36420732  2202.18664697
0.38600002 27343.27544383  2063.46037912
0.38700002 27519.34718098  2562.60173090
0.38800002 27696.71692035  1777.71385975
0.38900002 27875.31612956  1793.77667792
0.39000002 28055.56491374  1810.00485616
0.39100002 28235.73072023  2158.33935851
0.39200002 28417.17935116  1675.19280212
0.39300002 28598.71516301  2197.23939007
0.39400002 28781.63646262  1705.31204120
0.39500002 28963.93616237  2752.73262329
0.39600002 29146.56218972  2082.81343276
0.39700002 29329.01694053  1750.94239431
0.39800002 29512.58119122  1942.96087478
0.39900002 29694.88463128  2138.03179475
0.40000002 29877.13419291  2515.95358959
0.40100002 30059.02089484  2537.58266417
0.40200002 30241.47296680  2193.71655295
0.40300002 30422.39409660  2212.31660352
0.40400002 30602.73305969  2416.85095790
0.40500002 30782.57491543  2062.12479129
0.40600002 30961.68533029  2268.25317477
0.40700002 31139.91818240  2477.49200798
0.40800002 31317.25381559  2113.44497388
0.40900002 31492.93466560  1936.81557370
0.41000002 31668.14184988  2147.57514131
0.41100002 31841.94011195  2951.74798824
0.41200002 32013.69382013  2379.89811135
0.41300002 32184.60449217  1998.66403367
0.41400002 32353.89229180  2215.43287965
0.41500002 32522.18153181  2638.19949087
0.41600002 32687.54946553  2249.06694754
0.41700002 32852.08918095  2677.77391602
0.41800002 33015.70702318  2697.54847015
0.41900002 33175.52895199  2717.07594991
0.42000002 33334.31378187  2947.08682110
0.42100002 33491.57051601  2544.01981694
0.42200002 33646.71299021  2348.37244443
0.42300002 33799.32428445  2364.60083899
0.42400002 33949.70089908  3030.01094882
0.42500002 34098.43379016  2396.77902468
0.42600002 34243.52621242  3289.94693676
0.42700002 34387.64545480  2869.99302566
0.42800002 34528.86260770  2666.31889691
0.42900002 34668.24754935  2459.71228018
0.43000002 34805.14002958  2250.15240954
0.43100002 34938.16571139  2943.19121900
0.43200002 35069.60515622  3416.65644425
0.43300002 35198.03988280  2291.39250495
0.43400002 35324.22559351  2765.88699504
0.43500002 35447.25743239  3013.72596972
0.43600002 35568.55403630  2564.67071032
0.43700002 35686.16846896  2813.49765542
0.43800002 35800.18939036  3771.90813292
0.43900002 35912.63412769  3792.37434360
0.44000002 36021.37164650  2859.37661680
0.44100002 36127.93320139  2634.81029324
0.44200002 36231.25810714  3129.83737991
0.44300002 36331.89494068  2419.70431772
0.44400002 36428.87218003  2674.79006658
0.44500002 36522.32106821  3665.01509288
0.44600002 36613.45866625  2454.93251991
0.44700002 36701.71766152  2712.99109811
0.44800002 36785.82349469  2477.52532978
0.44900002 36868.22105021  3484.04705436
0.45000002 36947.05634570  3499.25587234
0.45100002 37021.73169232  2510.07352770
0.45200002 37094.04406675  2520.54041379
0.45300002 37162.60279975  4049.23739297
0.45400002 37228.54363768  3303.10269080
0.45500002 37291.17297171  3826.07452823
0.45600002 37350.24175657  2816.39511313
0.45700002 37406.17078950  3083.76486604
0.45800002 37458.20541452  3352.69683452
0.45900002 37507.35266011  3623.21043869
0.46000002 37553.84567798  2596.84855171
0.46100002 37595.82739553  2865.93005819
0.46200002 37635.43821092  4182.05009221
0.46300002 37671.36295214  3146.31238288
0.46400002 37703.47746988  3418.76298161
0.46500002 37733.25095432  3692.57611340
0.46600002 37758.86035819  3174.00995214
0.46700002 37781.19198995  3182.68776408
0.46800002 37800.87481270  3457.07916985
0.46900002 37816.56458407  3199.28151545
0.47000002 37828.58366880  3741.62538802
0.47100002 37837.89495444  2946.81539872
0.47200002 37843.50506285  2684.99681147
0.47300002 37846.58800791  2690.89253490
0.47400002 37844.82746206  4044.66612671
0.47500002 37841.00712860  4593.14166297
0.47600002 37834.08711622  3519.13777991
0.47700002 37822.73499531  3525.45729601
