# SAXS profile: number of points = 501, q_min = 0, q_max = 0.5, delta_q = 0.001
#    q    intensity    error
0.00000000 1682732.95097188 454.33789676
0.00100000 1682663.33355353 605.75881447
0.00200000 1682454.43024692 984.23587286
0.00300000 1682106.40879878 1110.19026936
0.00400000 1681619.14752925 1513.45729028
0.00500000 1680993.09471898 2269.34076769
0.00600000 1680227.98658823 2117.08734929
0.00700000 1679324.47455480 2216.70839854
0.00800000 1678282.03447209 3171.95317907
0.00900000 1677102.02849648 4025.04504045
0.01000000 1675783.57049205 3318.05161285
0.01100000 1674327.99030780 5424.82292479
0.01200000 1672734.67986475 3588.01604562
0.01300000 1671005.08896706 3509.11084160
0.01400000 1669138.41543852 5257.78624171
0.01500000 1667136.52864300 4801.35341629
0.01600000 1664998.24832433 4670.32029533
0.01700000 1662725.65475746 4489.35946923
0.01800000 1660318.41186255 5205.09845541
0.01900000 1657777.15059836 4973.33167620
0.02000000 1655102.62921378 6777.64557322
0.02100000 1652296.41979217 5452.57843253
0.02200000 1649356.73693704 6828.33720115
0.02300000 1646286.56791312 6519.29510568
0.02400000 1643085.66025205 6777.72865759
0.02500000 1639755.40037781 7034.55098889
0.02600000 1636296.21904899 8615.09998733
0.02700000 1632708.82746904 7543.11512839
0.02800000 1628993.29399673 9920.56961539
0.02900000 1625152.23532865 9507.14101319
0.03000000 1621185.81947293 12061.62305129
0.03100000 1617094.48112688 8538.25925322
0.03200000 1612879.16558032 11975.62835601
0.03300000 1608542.64687768 11484.99502817
0.03400000 1604083.06711326 10947.86743819
0.03500000 1599503.69533903 10364.78442442
0.03600000 1594804.27114375 10621.39693667
0.03700000 1589986.74428648 12688.09480620
0.03800000 1585052.27600760 11127.06749253
0.03900000 1580002.30055081 12324.01851502
0.04000000 1574835.72027601 9685.24012850
0.04100000 1569556.48781701 14832.30949759
0.04200000 1564164.90780106 12106.63694804
0.04300000 1558661.08810679 13373.31275672
0.04400000 1553048.73502811 10483.07944829
0.04500000 1547327.65399046 12811.87357034
0.04600000 1541497.80071257 11954.31600024
0.04700000 1535562.94214667 13267.26443718
0.04800000 1529522.78641874 12366.19230357
0.04900000 1523380.32250246 11425.35295059
0.05000000 1517135.23727156 15087.91063725
0.05100000 1510790.56014103 14141.00030166
0.05200000 1504344.87428577 14351.45076948
0.05300000 1497803.54400256 13345.43019920
0.05400000 1491164.76505436 15992.74285101
0.05500000 1484432.77517207 13716.15948244
0.05600000 1477605.73589866 20213.64741035
0.05700000 1470689.10259137 17912.99410572
0.05800000 1463681.19837287 18135.01089461
0.05900000 1456584.28807014 20974.81472786
0.06000000 1449400.85322493 13262.01842659
0.06100000 1442132.78453371 17435.38617979
0.06200000 1434780.36732408 17626.27763649
0.06300000 1427346.92913359 16443.03739242
0.06400000 1419830.42490120 13843.34729019
0.06500000 1412237.11961769 19573.60739351
0.06600000 1404565.21471140 22585.40970930
0.06700000 1396817.55771642 22796.06360876
0.06800000 1388996.95623680 15813.73108698
0.06900000 1381104.41795519 14501.59706748
0.07000000 1373139.44153254 14623.93573714
0.07100000 1365106.90304173 14743.15524339
0.07200000 1357005.62138533 17831.05470033
0.07300000 1348840.57299517 16469.34416795
0.07400000 1340611.08652382 16590.06297321
0.07500000 1332319.38825527 19744.97425944
0.07600000 1323966.01158475 22937.71222604
0.07700000 1315556.14960659 26166.41304258
0.07800000 1307088.17668533 20135.69430613
0.07900000 1298563.91095911 18699.32119488
0.08000000 1289988.01329314 20375.36162580
0.08100000 1281360.07511578 17336.80262973
0.08200000 1272681.02847797 15844.87954807
0.08300000 1263954.25511818 20703.57167050
0.08400000 1255180.10171816 24005.32057214
0.08500000 1246362.90886249 19293.69873494
0.08600000 1237501.67390569 17764.33736298
0.08700000 1228599.83684357 21082.77419023
0.08800000 1219656.33041545 19538.89533088
0.08900000 1210677.22652227 16344.14332573
0.09000000 1201660.99910618 22963.74277165
0.09100000 1192610.72086655 23041.24020965
0.09200000 1183527.18385544 26416.32798487
0.09300000 1174414.01202914 19871.08601732
0.09400000 1165269.24166867 28228.64870610
0.09500000 1156097.62867358 21642.14862601
0.09600000 1146899.94269608 18356.13444573
0.09700000 1137679.39499878 16723.88789272
0.09800000 1128436.72625103 23460.20064180
0.09900000 1119173.63675472 18466.36587479
0.10000000 1109890.22571957 18496.32148145
0.10100000 1100589.08332652 18522.91514355
0.10200000 1091272.60317709 20232.19501455
0.10300000 1081941.69434497 25317.43683862
0.10400000 1072599.07453730 27029.49794995
0.10500000 1063247.21128068 18596.19460024
0.10600001 1053882.72240025 25372.22773564
0.10700001 1044513.55530142 27073.79262744
0.10800001 1035136.28706419 16924.47908999
0.10900001 1025755.80007634 18617.46864763
0.11000001 1016371.97735498 20307.11306340
0.11100001 1006987.02067199 20300.85929238
0.11200001 997603.39663806 20291.25404287
0.11300001 988219.38685094 18588.40754182
0.11400001 978840.53008983 27015.99990251
0.11500001 969466.46099241 21929.33238026
0.11600001 960098.24138242 20219.66991569
0.11700001 950739.31164248 20193.70393031
0.11800001 941387.29855335 21844.89329179
0.11900001 932047.11844468 26842.95827555
0.12000001 922718.52603693 20096.81044374
0.12100001 913405.00130870 20058.37477365
0.12200001 904105.23869260 25021.11365959
0.12300001 894822.39635623 19972.43682766
0.12400001 885556.69339459 19925.02654020
0.12500001 876310.04956655 19874.71286068
0.12600001 867085.30136833 24776.96365418
0.12700001 857881.96429146 16471.33449063
0.12800001 848700.47638350 32844.70998399
0.12900001 839544.04027107 21282.44242396
0.13000001 830413.38739983 22844.67336415
0.13100001 821308.20360931 24392.85479702
0.13200001 812232.23465467 19444.84061427
0.13300001 803186.44475901 17758.45313081
0.13400001 794169.63616967 22514.71024688
0.13500001 785185.30563071 19221.33718809
0.13600001 776232.81583013 15951.58511744
0.13700001 767315.02039465 27001.81684091
0.13800001 758430.66568443 25301.24820033
0.13900001 749585.00617936 17315.41445931
0.14000001 740774.73339740 17234.12498526
0.14100001 732003.26458958 17150.83729822
0.14200001 723269.78171761 23271.20632436
0.14300001 714579.36726723 15434.91506100
0.14400001 705925.83388656 18424.66513353
0.14500001 697318.40504443 15271.27379085
0.14600001 688751.60375068 24299.15772662
0.14700001 680231.43349266 21141.59395034
0.14800001 671754.16700850 15013.70634097
0.14900001 663322.23554301 16417.22610427
0.15000001 654937.87351262 17801.21224199
0.15100001 646600.75613094 20639.49710957
0.15200001 638312.89229906 17579.13788342
0.15300001 630074.09534035 20376.59720486
0.15400001 621883.31165005 20242.30274946
0.15500001 613744.99040340 14361.63345321
0.15600001 605656.00601653 15689.51957632
0.15700001 597622.67322174 16996.38962860
0.15800001 589637.62890225 19688.00135829
0.15900001 581709.08179557 16753.22234647
0.16000001 573831.89142030 15243.84491513
0.16100001 566013.11314892 16504.94315853
0.16200001 558246.89184933 16378.96458005
0.16300001 550538.01402721 16251.88294130
0.16400001 542884.95789462 24185.52601599
0.16500001 535289.62600827 17327.32601193
0.16600001 527750.95588906 13220.16206918
0.16700001 520270.19141686 14421.89038700
0.16800001 512846.89370951 13000.66936938
0.16900001 505484.95575358 14178.85367839
0.17000001 498181.15457669 17889.68610559
0.17100001 490937.23743552 15199.41758874
0.17200001 483753.82430441 16319.43603356
0.17300001 476630.72748013 12440.06257471
0.17400001 469569.65808160 18489.30616014
0.17500001 462569.21237548 14654.19334014
0.17600001 455628.60377434 18145.41000230
0.17700001 448752.44390713 14378.02898187
0.17800001 441937.49402871 15425.82895767
0.17900001 435184.71992496 11749.98799297
0.18000001 428495.71148034 12797.02502783
0.18100001 421870.51532550 16123.89185738
0.18200001 415305.61403049 15960.19550112
0.18300001 408806.81507346 11283.06862903
0.18400001 402370.05336643 11165.76950840
0.18500001 395998.00509368 12153.17935047
0.18600001 389689.44229548 12023.86831008
0.18700001 383444.60828341 12975.76615735
0.18800001 377263.30220192 17112.66419639
0.18900001 371148.50875993 11635.50629937
0.19000001 365093.66819561 11505.92749683
0.19100001 359108.17156629 12410.77899574
0.19200001 353183.48838749 12269.59496634
0.19300001 347325.66160511 15160.76584545
0.19400001 341530.94679691 14984.67099880
0.19500001 335801.22048768 12834.32325353
0.19600001 330134.95077923 10731.03708219
0.19700001 324533.62933102 12530.24402062
0.19800001 318996.60585308 12378.66387513
0.19900001 313524.64081129 11286.88760262
0.20000001 308114.93001550 13934.49836851
0.20100001 302771.06708114 11008.75651937
0.20200001 297489.88366251 13587.85107849
0.20300001 292273.40673344 8943.56666876
0.20400001 287120.76226260 13243.44578532
0.20500001 282030.59390286 10457.69491622
0.20600001 277004.85536077 13761.60186481
0.20700001 272041.82214250 9336.47577726
0.20800001 267141.77707882 10887.36363949
0.20900001 262306.77073420 10741.46276933
0.21000001 257531.99556458 8965.97684942
0.21100001 252819.97120520 9647.61055727
0.21200001 248170.25721899 7929.04009299
0.21300001 243582.40188239 9382.79456409
0.21400001 239056.93437387 8480.54514784
0.21500001 234593.71087649 11401.25488762
0.21600001 230190.02475981 8991.22279221
0.21700001 225848.10867201 8123.75685302
0.21800001 221566.96192396 10189.86506067
0.21900001 217344.93449316 10758.57476609
0.22000001 213182.78112372 7773.71048124
0.22100001 209082.78348824 6962.45701937
0.22200001 205040.76554636 8916.19811138
0.22300001 201057.75008474 8106.64886674
0.22400001 197131.73897555 9979.79475755
0.22500001 193267.41270462 7206.94216055
0.22600001 189458.99684288 7096.18706232
0.22700001 185709.34149259 8891.76369115
0.22800001 182016.28049193 6877.48548362
0.22900001 178379.53667330 6769.50373689
0.23000001 174799.72902662 7268.17307665
0.23100001 171277.48463487 8344.63944605
0.23200001 167808.90669909 7037.90587981
0.23300001 164396.88307165 9232.52938995
0.23400001 161039.59616947 5676.64603345
0.23500001 157735.54452253 8934.14166431
0.23600001 154486.69763576 6041.20259678
0.23700001 151291.08766410 6481.31050208
0.23800001 148148.67539650 5842.24329059
0.23900001 145059.15747365 5222.12991606
0.24000001 142021.67758009 8727.94260852
0.24100001 139037.21245197 6561.16636596
0.24200001 136103.47494474 6945.36065496
0.24300001 133220.88116654 5363.47292947
0.24400001 130388.28353212 5750.12357577
0.24500001 127605.94172432 4708.65947237
0.24600001 124873.49207237 5089.21941016
0.24700001 122190.78527613 5454.59691276
0.24800001 119555.72924274 7144.65071754
0.24900001 116968.79012046 4824.96282073
0.25000001 114430.27043264 6893.27981697
0.25100001 111938.25976876 4231.26641944
0.25200001 109494.18583954 5401.89591396
0.25300001 107096.48711974 4488.41398754
0.25400001 104743.81168062 4807.74118360
0.25500001 102436.59701115 4326.92206247
0.25600001 100174.74683687 6951.12601189
0.25700001 97956.99239683  4549.12294214
0.25800001 95783.09779652  6325.99499328
0.25900001 93652.92414753  4017.71063603
0.26000001 91566.14041247  5018.74039347
0.26100001 89519.72543926  3869.93791385
0.26200001 87517.92856775  4833.61542351
0.26300001 85556.25811046  4065.63357779
0.26400001 83635.30704451  3989.40433479
0.26500001 81755.75672986  4240.67130224
0.26600001 79915.41928808  3520.67396333
0.26700001 78115.62802770  3454.27323484
0.26800001 76354.78203663  3389.00716107
0.26900001 74631.83162217  3627.10718848
0.27000001 72947.63422746  3558.38576601
0.27100001 71300.97036696  3199.98770150
0.27200001 69691.72757938  3139.26401737
0.27300001 68118.67263594  3079.64533561
0.27400001 66580.74474891  3295.74702104
0.27500001 65080.79410617  3233.21400421
0.27600001 63613.94755468  3171.79157518
0.27700001 62183.55441796  4667.49781551
0.27800001 60786.43037478  3307.08590106
0.27900001 59423.72181362  2994.95572115
0.28000001 58093.93919557  2938.39158358
0.28100001 56796.94851209  4084.26876081
0.28200001 55532.93543101  3300.32250887
0.28300001 54300.61671576  2775.84765789
0.28400001 53100.12154149  2724.03636401
0.28500001 51930.64493201  3118.95468224
0.28600001 50791.19641454  3061.18555280
0.28700001 49682.16160901  2575.52337972
0.28800001 48602.37461214  2106.91303916
0.28900001 47553.27530498  2895.99460315
0.29000001 46531.45573130  2031.09813881
0.29100001 45539.25602392  2194.08145909
0.29200001 44574.35451017  2742.66016284
0.29300001 43636.90824402  2116.82651912
0.29400001 42726.34757222  2079.70506652
0.29500001 41843.45701399  2415.20445318
0.29600001 40985.74009826  2191.09776937
0.29700001 40153.51221897  1974.34828927
0.29800001 39347.18958106  1941.19368987
0.29900001 38565.80461822  2429.64580597
0.30000001 37808.74282678  2048.47778333
0.30100001 37076.73122100  2183.44880497
0.30200001 36367.00803789  1818.16865293
0.30300001 35681.05637701  1952.46749738
0.30400001 35018.83904271  2082.74555067
0.30500001 34377.87561329  2209.12239149
0.30600001 33759.27381989  1554.61463301
0.30700001 33162.75621127  2144.96717329
0.30800001 32587.39714681  2718.76667268
0.30900001 32032.85015049  1638.48036277
0.31000001 31499.56623632  1469.45483450
0.31100001 30984.98453373  1595.10707932
0.31200001 30491.25806678  1574.72109741
0.31300001 30016.27138836  1696.51973919
0.31400001 29561.79239658  1955.51265962
0.31500001 29124.93307817  1794.67846125
0.31600002 28706.56414044  1501.49690846
0.31700002 28305.65354342  2025.26960692
0.31800002 27922.86984410  2271.38595502
0.31900002 27557.61669109  1587.31879656
0.32000002 27208.88798190  1441.11882020
0.32100002 26877.14116309  1298.16597965
0.32200002 26561.70040816  1415.60589028
0.32300002 26261.50378209  1403.94005867
0.32400002 25977.20397447  1646.30537984
0.32500002 25707.69179103  1634.23804454
0.32600002 25453.77599056  1997.61243433
0.32700002 25214.00142736  1488.63471476
0.32800002 24989.40964779  1603.19565187
0.32900002 24777.46241507  1962.37511620
0.33000002 24580.84225894  1952.70220152
0.33100002 24395.10026668  1579.33886605
0.33200002 24225.06380406  1331.04619375
0.33300002 24066.25635938  1326.29145077
0.33400002 23920.75096431  1322.21957217
0.33500002 23786.79287702  1198.85441777
0.33600002 23664.85199358  1435.50998991
0.33700002 23553.61434222  1910.66928592
0.33800002 23455.20731778  1192.69734859
0.33900002 23366.53700011  1668.37082082
0.34000002 23289.22674997  1786.86600701
0.34100002 23222.23017462  1310.43051081
0.34200002 23166.39158013  1311.10199357
0.34300002 23119.06103847  1312.23796669
0.34400002 23082.29464748  1313.95968504
0.34500002 23054.59342395  1316.18680091
0.34600002 23037.22688011  1438.90525908
0.34700002 23026.57865791  1562.58370173
0.34800002 23026.24452473  1205.42395796
0.34900002 23033.89367213  1330.20742257
0.35000002 23049.93461845  1456.29493817
0.35100002 23073.90194423  1705.62291250
0.35200002 23104.79295353  1345.73872932
0.35300002 23143.61780375  1228.92616359
0.35400002 23190.14577351  1605.33791721
0.35500002 23243.27697118  2482.38209810
0.35600002 23302.85527543  1372.65475501
0.35700002 23369.23690973  1631.40650594
0.35800002 23442.47221230  1388.61490727
0.35900002 23521.44104107  1524.18945166
0.36000002 23606.97100850  1661.81280286
0.36100002 23697.46468197  2058.83582909
0.36200002 23794.65405266  1813.86656435
0.36300002 23895.42137952  1435.15907603
0.36400002 24002.16084987  1708.35387941
0.36500002 24113.29670768  1588.58406235
0.36600002 24229.87309562  1600.62549252
0.36700002 24350.57491393  1612.98215870
0.36800002 24477.02426142  1761.24436416
0.36900002 24606.55550204  1911.92945307
0.37000002 24739.31856207  2753.48628639
0.37100002 24876.34743926  1388.10025286
0.37200002 25017.59349064  1539.70786432
0.37300002 25161.62693017  1552.72407141
0.37400002 25310.00211792  1993.16276120
0.37500002 25460.35413044  2441.13886967
0.37600002 25614.89439031  1593.37458103
0.37700002 25770.88654480  1753.45120357
0.37800002 25930.62496220  1768.98731872
0.37900002 26092.57301205  1487.27673214
0.38000002 26256.99055962  2100.82191420
0.38100002 26423.12270477  2119.66300379
0.38200002 26591.63507573  1833.22740897
0.38300002 26761.75987377  2312.21616263
0.38400002 26934.38123532  1711.00664903
0.38500002 27107.45261122  1726.47373860
0.38600002 27283.34312032  1583.79814317
0.38700002 27459.42488196  2237.39404538
0.38800002 27636.76121337  2096.38662116
0.38900002 27815.33698996  2278.07620740
0.39000002 27995.62513601  1806.13784122
0.39100002 28175.78378999  1822.40978188
0.39200002 28357.21718489  2340.32124515
0.39300002 28538.88876532  1855.31324653
0.39400002 28721.88826340  1871.94915625
0.39500002 28904.26925087  2060.29640981
0.39600002 29087.01229168  2251.77116324
0.39700002 29269.49100470  2446.34417408
0.39800002 29453.25399934  2996.72147014
0.39900002 29635.75855155  3378.47663495
0.40000002 29818.10832290  2152.27116072
0.40100002 30000.13176654  2351.71044060
0.40200002 30182.79418603  2189.45999399
0.40300002 30363.90206997  2760.07882893
0.40400002 30544.51651405  2597.81125260
0.40500002 30724.47932097  2245.34505516
0.40600002 30903.87283064  3018.69044112
0.40700002 31082.33056521  2282.68646487
0.40800002 31259.95293276  3068.47712527
0.40900002 31435.86610839  2319.96702872
0.41000002 31611.41111950  3118.14974057
0.41100002 31785.47732962  2946.51388807
0.41200002 31957.55094022  2969.65556183
0.41300002 32128.81952549  2394.23974449
0.41400002 32298.40845334  2814.80643008
0.41500002 32467.06957639  2228.53976132
0.41600002 32632.80559677  2245.30029548
0.41700002 32797.70156735  2467.69918286
0.41800002 32961.72785058  3107.46704036
0.41900002 33121.87952071  2921.34991215
0.42000002 33281.11580280  2732.21333130
0.42100002 33438.84772856  2540.01499382
0.42200002 33594.38617783  2557.87668479
0.42300002 33747.44451950  2790.23884509
0.42400002 33898.27373848  2377.11655855
0.42500002 34047.47908188  2610.76081971
0.42600002 34193.03244165  2190.06383167
0.42700002 34337.66596458  2865.82173720
0.42800002 34479.36609465  2440.62204466
0.42900002 34619.31267590  3796.00781479
0.43000002 34756.70497257  2921.12740784
0.43100002 34890.24574650  2713.06563781
0.43200002 35022.22610408  2957.10180123
0.43300002 35151.21001439  2517.17826841
0.43400002 35277.97628794  2762.26567425
0.43500002 35401.62546828  3009.84633995
0.43600002 35523.47647674  3027.13319142
0.43700002 35641.61819125  2341.65442613
0.43800002 35756.33635504  2590.01034662
0.43900002 35869.34360495  2604.11446913
0.44000002 35978.72472958  2855.99130438
0.44100002 36085.92610721  2392.49701429
0.44200002 36189.87787140  3126.26274807
0.44300002 36291.17459543  2658.69157686
0.44400002 36388.84585627  2428.95557602
0.44500002 36482.91734246  3172.91947164
0.44600002 36574.72674036  2697.56909858
0.44700002 36663.66769907  2463.79858614
0.44800002 36748.44803632  3465.01132956
0.44900002 36831.55512880  3729.19513352
0.45000002 36911.14731110  2497.03923394
0.45100002 36986.45793862  3009.21836050
0.45200002 37059.54238295  2518.19602427
0.45300002 37128.77725873  2781.31683627
0.45400002 37195.48323764  3554.02859179
0.45500002 37258.85159509  3058.20668386
0.45600002 37318.71244918  2814.01764560
0.45700002 37375.37764624  3337.99513579
0.45800002 37428.14447753  2834.62065635
0.45900002 37478.01513522  3361.77811696
0.46000002 37525.30711837  2854.36262124
0.46100002 37568.07174070  2863.81424452
0.46200002 37608.44570136  2873.09734553
0.46300002 37645.16182342  3144.12406451
0.46400002 37678.07869388  2628.04611346
0.46500002 37708.62706459  3426.58310376
0.46600002 37735.07200539  2643.34191926
0.46700002 37758.19491604  2650.62540873
0.46800002 37778.74577365  3455.05535849
0.46900002 37795.21498230  2931.01906080
0.47000002 37808.05854931  2938.25340942
0.47100002 37818.16192392  4284.04158579
0.47200002 37824.59314416  3220.38601293
0.47300002 37828.45350661  3227.52380616
0.47400002 37827.59376785  4042.82427556
0.47500002 37824.55774048  3780.94297095
0.47600002 37818.45767182  3247.09292961
0.47700002 37807.99560100  2981.91675439
