# SAXS profile: number of points = 501, q_min = 0, q_max = 0.5, delta_q = 0.001
#    q    intensity    error
0.00000000 1719190.39626458 438.39355105
0.00100000 1719119.54854196 670.45663985
0.00200000 1718906.95421975 850.85896928
0.00300000 1718552.77849135 1134.24487421
0.00400000 1718056.89567294 1546.25126486
0.00500000 1717419.77508370 2318.51678813
0.00600000 1716641.12746984 1802.47325723
0.00700000 1715721.62872617 2264.75264404
0.00800000 1714660.74128348 3240.70893785
0.00900000 1713459.89048136 3084.22793471
0.01000000 1712118.08028862 4237.49243169
0.01100000 1710636.72679865 3387.06086653
0.01200000 1709015.25444723 3665.83788151
0.01300000 1707254.99513193 3943.75921269
0.01400000 1705355.28148989 4988.16441949
0.01500000 1703317.89795026 4496.75945082
0.01600000 1701141.72274128 5639.28506298
0.01700000 1698828.85258185 5504.20572928
0.01800000 1696378.83256105 5801.61586842
0.01900000 1693792.45803312 5589.51536372
0.02000000 1691070.48474013 6924.93394826
0.02100000 1688214.39933874 6685.32932448
0.02200000 1685222.55672806 8721.02712728
0.02300000 1682097.74802740 6661.10738539
0.02400000 1678839.84956458 7554.77966752
0.02500000 1675450.40184962 9147.95961189
0.02600000 1671929.54844648 9479.84097328
0.02700000 1668278.27418911 7707.44597976
0.02800000 1664496.56217395 8688.67245301
0.02900000 1660586.90676159 8219.90556588
0.03000000 1656549.68385946 8473.25202242
0.03100000 1652385.24967100 9517.73947605
0.03200000 1648094.63292028 12237.10321305
0.03300000 1643680.49983919 10897.60221632
0.03400000 1639141.05732586 17210.98189604
0.03500000 1634479.66169184 10591.42869685
0.03600000 1629695.97686595 11758.25701648
0.03700000 1624792.12163922 12965.84173032
0.03800000 1619768.83796844 14213.47221097
0.03900000 1614628.20674891 9687.76968913
0.04000000 1609368.66937746 10887.37955285
0.04100000 1603994.39177167 12126.19816404
0.04200000 1598505.60913118 10310.36165722
0.04300000 1592902.61014416 10513.15771495
0.04400000 1587188.92988741 16070.28866145
0.04500000 1581364.25306850 12002.55523849
0.04600000 1575429.08030606 12217.45308572
0.04700000 1569386.63214804 13559.50113238
0.04800000 1563236.97287238 11489.79228521
0.04900000 1556983.05585773 16348.32284748
0.05000000 1550624.54323988 17793.41746225
0.05100000 1544164.47183403 15657.82847380
0.05200000 1537601.58921376 15891.11316507
0.05300000 1530940.71499008 13640.68240646
0.05400000 1524180.98091809 13831.94304687
0.05500000 1517325.91709361 17843.75361742
0.05600000 1510373.98819052 14205.06802180
0.05700000 1503330.68065315 19618.46629828
0.05800000 1496194.23714747 17213.71550213
0.05900000 1488966.76463276 17420.91195986
0.06000000 1481651.45869562 17624.24492457
0.06100000 1474249.67014534 16452.62708768
0.06200000 1466761.66434295 19405.25772633
0.06300000 1459190.90978526 19611.52674446
0.06400000 1451535.61410936 21228.70934915
0.06500000 1443801.68977420 17152.36487687
0.06600000 1435987.40918855 20204.34379261
0.06700000 1428095.83117191 21849.86723948
0.06800000 1420130.13436129 16168.18233652
0.06900000 1412090.56803824 17792.34199030
0.07000000 1403977.09494583 20933.29946592
0.07100000 1395794.54691202 19596.95635652
0.07200000 1387541.56344329 22790.37124721
0.07300000 1379223.68031913 19902.19863953
0.07400000 1370839.63312381 21590.72523353
0.07500000 1362392.27656508 17084.39994891
0.07600000 1353881.76236781 15637.33508844
0.07700000 1345313.32915424 18888.20002697
0.07800000 1336685.29681101 22175.61011405
0.07900000 1327999.76082541 20716.79724057
0.08000000 1319261.36774614 20837.73428107
0.08100000 1310469.79890707 25790.04685251
0.08200000 1301625.69825932 19446.28884452
0.08300000 1292732.79763361 21174.96421902
0.08400000 1283791.30859272 27826.17791987
0.08500000 1274805.51707853 19733.99033079
0.08600000 1265774.37867244 18170.19205896
0.08700000 1256701.76245120 23223.84966064
0.08800000 1247586.44064294 19986.33571773
0.08900000 1238434.57264929 21734.52777086
0.09000000 1229244.14930802 18457.10176889
0.09100000 1220018.97162680 18519.88885938
0.09200000 1210759.59031389 25335.14561773
0.09300000 1201469.56983914 20328.86607698
0.09400000 1192147.28196862 20385.71947974
0.09500000 1182796.91196265 18735.50396611
0.09600000 1173419.76638084 20487.91008410
0.09700000 1164018.87185056 17111.07822064
0.09800000 1154595.23638729 25718.61009976
0.09900000 1145150.04864732 22330.42699865
0.10000000 1135684.02173239 18926.17511221
0.10100000 1126199.20131471 24123.18802672
0.10200000 1116698.78058722 22428.89606307
0.10300000 1107183.10141194 20726.46863342
0.10400000 1097655.27841309 24203.30002766
0.10500000 1088117.53120691 19031.17651621
0.10600001 1078566.66067410 20773.19486204
0.10700001 1069009.79716966 22513.34738782
0.10800001 1059445.13813823 24250.70035326
0.10900001 1049876.45683144 17322.96235304
0.11000001 1040304.12646649 22517.38387725
0.11100001 1030730.33830900 22511.15164834
0.11200001 1021156.84533084 25962.91401480
0.11300001 1011582.96764736 20757.68347341
0.11400001 1002013.74014835 25927.10674710
0.11500001 992449.28527448 20722.34205230
0.11600001 982890.40469272 17249.72741467
0.11700001 973340.15570280 18950.93372403
0.11800001 963796.71725269 18924.14943455
0.11900001 954264.98862915 30918.18708788
0.12000001 944744.18250155 20576.52926414
0.12100001 935239.05964081 29095.28851605
0.12200001 925747.00453558 20496.03964601
0.12300001 916272.00533901 17042.66010226
0.12400001 906813.69289044 18703.03329711
0.12500001 897374.75204879 22048.49869677
0.12600001 887957.45840927 20298.70845578
0.12700001 878561.51249671 18555.22001837
0.12800001 869187.33984068 21864.40856415
0.12900001 859838.57734786 23473.59426796
0.13000001 850515.44998017 26740.20700777
0.13100001 841217.76597656 19987.33506176
0.13200001 831949.99747924 19916.88387854
0.13300001 822711.78812302 19843.80926502
0.13400001 813503.23839620 16473.44135417
0.13500001 804327.10849972 27894.06543793
0.13600001 795183.04292684 26145.61968422
0.13700001 786073.90250436 19526.07665893
0.13800001 776998.56686217 22680.58923623
0.13900001 767961.97180194 17739.92238521
0.14000001 758961.18151842 20867.63866998
0.14100001 749999.76562497 17572.49533736
0.14200001 741076.57482317 27023.35857549
0.14300001 732196.84964832 17396.99796822
0.14400001 723354.12899823 20452.83896218
0.14500001 714558.16564026 18778.58947885
0.14600001 705803.55151034 20231.85975847
0.14700001 697095.49610658 20118.17696674
0.14800001 688431.17087786 16925.08113454
0.14900001 679812.63430477 22943.67749029
0.15000001 671242.28879756 21285.09398206
0.15100001 662719.23768468 16620.99926539
0.15200001 654246.72120779 19519.45184830
0.15300001 645823.55608562 17902.22981948
0.15400001 637448.83397036 17784.82330706
0.15500001 629127.17965594 19138.04970832
0.15600001 620856.30137489 14621.16658742
0.15700001 612640.96442112 15971.55069627
0.15800001 604474.58669055 18741.73544493
0.15900001 596365.66662782 15744.05434210
0.16000001 588309.13527463 18469.96617377
0.16100001 580311.42057000 18332.03864116
0.16200001 572367.19618126 15393.81646798
0.16300001 564480.96593956 18052.10214295
0.16400001 556651.54892938 17910.26443234
0.16500001 548880.58310174 13667.12716448
0.16600001 541167.10167377 13556.23653696
0.16700001 533512.57652874 18822.32458862
0.16800001 525915.91305235 13331.96902536
0.16900001 518382.12303956 17184.36819017
0.17000001 510907.04486444 13104.76631958
0.17100001 503492.96520126 15588.14293872
0.17200001 496140.06741579 15449.80242891
0.17300001 488848.78103426 21690.22143880
0.17400001 481620.40594728 18963.80437976
0.17500001 474453.53460973 21293.47563892
0.17600001 467347.50317990 12408.07679545
0.17700001 460306.89267137 13519.21407628
0.17800001 453328.74392721 18257.81602402
0.17900001 446413.86140721 19285.07972369
0.18000001 439563.51434643 14320.97997386
0.18100001 432778.20049732 14177.81451800
0.18200001 426054.43295869 14034.23368461
0.18300001 419397.78229474 17363.06900722
0.18400001 412804.15369042 12600.84738667
0.18500001 406276.65653089 15869.16695379
0.18600001 399813.48570992 13457.72256479
0.18700001 393415.45560470 16641.47455830
0.18800001 387081.68593171 20850.15599780
0.18900001 380815.84234138 15194.55282733
0.19000001 374611.43705472 12879.14181446
0.19100001 368477.09422795 11673.35489671
0.19200001 362405.30239655 12589.96080015
0.19300001 356401.28202345 15556.91669543
0.19400001 350461.46057447 13326.29766806
0.19500001 344587.89473342 15196.32687585
0.19600001 338779.22448080 11012.01921214
0.19700001 333036.57943665 11869.42425204
0.19800001 327359.61678473 15634.69603652
0.19900001 321748.97838587 13513.45773085
0.20000001 316201.71515414 10486.83037871
0.20100001 310721.66410490 12239.32692755
0.20200001 305305.67976661 12085.52590477
0.20300001 299955.64626418 11014.37185141
0.20400001 294670.95174673 15403.92473064
0.20500001 289450.03466880 10732.80779283
0.20600001 284294.18498940 9710.06834729
0.20700001 279202.94411386 12195.58517537
0.20800001 274175.77644845 12893.11649695
0.20900001 269215.03166971 9328.30128832
0.21000001 264316.02670950 9202.16290490
0.21100001 259481.13409825 12377.25068160
0.21200001 254709.71042136 8951.77319595
0.21300001 250001.40149380 8827.54990407
0.21400001 245357.22098461 8704.04782593
0.21500001 240776.31359931 8581.26822238
0.21600001 236256.17691454 8459.15281436
0.21700001 231799.36080237 7579.83945661
0.21800001 227404.51912299 7470.23880639
0.21900001 223070.27078631 10305.84699760
0.22000001 218797.29950989 10879.69623255
0.22100001 214587.93294275 7145.77850487
0.22200001 210437.73942435 7039.14271659
0.22300001 206348.19511952 6933.29968386
0.22400001 202316.56082169 8193.82110073
0.22500001 198347.99366597 7396.39703356
0.22600001 194437.18914380 9268.82124479
0.22700001 190586.16930272 7821.65675806
0.22800001 186793.11458200 7057.97816825
0.22900001 183057.68291103 6315.49035910
0.23000001 179380.74072220 6837.09725597
0.23100001 175762.54289373 7339.84413836
0.23200001 172199.50645865 6620.21033890
0.23300001 168694.29896790 6513.28719119
0.23400001 165245.23863493 5824.89493737
0.23500001 161850.84281758 8021.32814942
0.23600001 158512.63287153 9016.19898417
0.23700001 155229.11947684 6095.84781018
0.23800001 152000.42275078 7628.90157870
0.23900001 148825.73737055 5357.72679876
0.24000001 145704.61512912 5793.94429467
0.24100001 142637.62896615 5695.52079402
0.24200001 139622.85971969 7124.95486852
0.24300001 136660.33575494 5001.76852523
0.24400001 133749.19980046 6389.86832273
0.24500001 130889.65960357 5312.81153463
0.24600001 128081.16197163 6169.02945819
0.24700001 125323.99718892 6993.07937396
0.24800001 122615.86884121 6869.55437680
0.24900001 119956.86593131 4948.22095375
0.25000001 117347.57944200 5301.76389001
0.25100001 114786.23336693 5206.70379185
0.25200001 112273.95371471 6391.19511758
0.25300001 109809.18777752 4602.10327748
0.25400001 107390.90045338 4929.24256402
0.25500001 105019.24722829 4839.28714124
0.25600001 102694.30444888 5146.52531095
0.25700001 100414.69111454 5051.86334899
0.25800001 98180.01989417  6484.29972071
0.25900001 95990.36505021  3743.62441409
0.26000001 93845.25005245  4408.85005607
0.26100001 91741.77641898  4326.54238063
0.26200001 89684.19893232  4245.65017835
0.26300001 87667.79721720  4165.97392089
0.26400001 85693.28658959  4087.56996374
0.26500001 83761.32680834  3342.07709780
0.26600001 81869.98012396  4590.45000277
0.26700001 80019.98812012  3538.48404211
0.26800001 78210.28257351  4102.52056653
0.26900001 76439.64225494  3405.38622361
0.27000001 74708.75238853  3340.60202114
0.27100001 73016.57618169  3276.98409411
0.27200001 71363.00922677  3506.77843936
0.27300001 69746.57072935  4299.87628895
0.27400001 68166.30435637  3655.41824410
0.27500001 66625.31641171  3034.11705298
0.27600001 65118.48272274  2976.24039370
0.27700001 63648.79969111  2919.57058000
0.27800001 62213.87103534  3384.74581387
0.27900001 60813.91471141  2809.60299264
0.28000001 59448.36488854  2756.32356851
0.28100001 58116.32764849  2704.15285347
0.28200001 56818.35950036  2653.13342244
0.28300001 55553.12056660  3549.84457222
0.28400001 54320.50529937  2322.20171146
0.28500001 53120.17475709  2734.62672593
0.28600001 51950.63245032  2460.12231613
0.28700001 50812.41820848  2195.09657051
0.28800001 49704.48786731  2801.09654635
0.28900001 48628.30703273  2115.33145605
0.29000001 47580.06633121  2284.55699303
0.29100001 46562.30171294  2447.31469388
0.29200001 45573.06277465  2203.22982413
0.29300001 44611.95822840  2557.60368630
0.29400001 43678.57652658  2512.61023363
0.29500001 42773.51592504  2278.97303637
0.29600001 41894.83318319  2053.05639733
0.29700001 41042.28492147  2018.04924512
0.29800001 40216.49276439  1984.08076445
0.29900001 39416.47294907  2483.23791335
0.30000001 38641.45740051  2616.99282634
0.30100001 37892.40386697  2403.13636701
0.30200001 37166.54462000  1689.21953295
0.30300001 36464.96281761  1829.08262152
0.30400001 35787.89535468  1637.29628999
0.30500001 35132.76625527  2096.37226170
0.30600001 34500.79854334  2065.39040258
0.30700001 33891.62815332  2348.68994222
0.30800001 33304.34102431  2315.48441934
0.30900001 32738.59749806  1674.57934131
0.31000001 32194.76783104  1501.88599042
0.31100001 31670.15737360  1482.16343526
0.31200001 31166.96863796  1755.94709620
0.31300001 30683.59769593  1734.23702388
0.31400001 30221.19676254  2284.72258342
0.31500001 29776.72192632  2399.40836643
0.31600002 29351.62678008  1535.23691142
0.31700002 28944.56880998  1932.91839665
0.31800002 28556.06966112  2186.25279677
0.31900002 28185.64726164  1623.49335914
0.32000002 27832.60627437  1608.16806668
0.32100002 27496.85271752  1726.52746388
0.32200002 27177.92317063  1316.77043997
0.32300002 26874.73598422  1567.33467681
0.32400002 26588.05926858  1685.01833593
0.32500002 26316.66432368  1544.26193564
0.32600002 26061.16919041  1406.13045025
0.32700002 25820.40900729  1905.54627497
0.32800002 25595.40826544  2147.32687811
0.32900002 25383.33014623  1256.47490174
0.33000002 25187.14282760  1875.81255091
0.33100002 25002.12367510  1369.61639978
0.33200002 24833.27170222  2232.75956448
0.33300002 24676.03008401  1483.52299890
0.33400002 24532.49213482  1972.41246104
0.33500002 24400.86252454  1721.72494127
0.33600002 24281.59646569  1472.92171136
0.33700002 24173.54439333  1348.15863466
0.33800002 24078.51681322  1224.39263794
0.33900002 23993.71083945  1468.41517292
0.34000002 23920.39210621  1712.93935985
0.34100002 23857.78445997  1835.85660114
0.34200002 23806.75417292  1347.34331623
0.34300002 23764.28627964  1471.48467612
0.34400002 23732.93959371  1350.99765035
0.34500002 23710.62625501  1476.69787310
0.34600002 23699.12757251  1233.53964857
0.34700002 23694.47165610  1607.90692273
0.34800002 23700.53886590  1861.08490259
0.34900002 23714.62449025  1618.52319812
0.35000002 23737.53491062  1499.73752668
0.35100002 23768.39195339  2007.95384732
0.35200002 23806.28202334  1764.75976997
0.35300002 23852.51227925  1646.53900062
0.35400002 23906.49673109  1909.53151684
0.35500002 23967.25161195  1279.85129670
0.35600002 24034.77363383  1415.76840796
0.35700002 24109.07302639  1941.98592426
0.35800002 24190.54631947  1563.19317721
0.35900002 24277.69225447  1442.09498822
0.36000002 24371.58422435  2111.55415721
0.36100002 24470.58614993  1594.50346906
0.36200002 24576.33444880  2007.27221118
0.36300002 24685.88091359  1886.98882642
0.36400002 24801.38908842  1901.02656367
0.36500002 24921.42677488  1505.00503422
0.36600002 25046.91066153  2068.24874585
0.36700002 25176.61734196  1667.69921173
0.36800002 25312.15406454  1681.23335260
0.36900002 25450.62457463  1836.26265004
0.37000002 25592.56444982  1566.64890701
0.37100002 25738.68272002  1723.46227657
0.37200002 25889.17849724  1738.19952664
0.37300002 26042.38723264  1899.27139085
0.37400002 26199.96814607  2063.24758924
0.37500002 26359.50897872  2081.34692756
0.37600002 26523.27440841  1649.88036273
0.37700002 26688.47065097  1664.55999335
0.37800002 26857.29512853  1679.52103043
0.37900002 27028.38244569  3081.23574477
0.38000002 27201.86369277  2176.42121716
0.38100002 27377.03676627  1882.44513723
0.38200002 27554.53889040  1583.00833425
0.38300002 27733.60420352  1597.45567780
0.38400002 27915.12819792  1612.09872980
0.38500002 28097.13820447  1789.50681702
0.38600002 28281.62422637  2134.27287335
0.38700002 28466.28357416  1988.08533901
0.38800002 28652.18417261  2173.41153338
0.38900002 28839.28785299  2361.93778706
0.39000002 29027.87846278  1872.73366775
0.39100002 29216.26670192  1889.70821981
0.39200002 29406.06569615  2253.53395139
0.39300002 29595.66035120  2273.83469251
0.39400002 29786.70766411  2294.32126653
0.39500002 29976.66431481  2136.73673359
0.39600002 30167.14274135  1796.45343536
0.39700002 30357.11233090  2174.78363042
0.39800002 30548.39980448  2193.98617791
0.39900002 30738.16823473  2397.57723590
0.40000002 30927.48619370  2790.43257403
0.40100002 31116.62287226  3002.13191695
0.40200002 31305.94451658  2081.68887926
0.40300002 31493.63653643  2099.36591099
0.40400002 31680.75441101  1924.60592166
0.40500002 31867.08609618  3299.19957985
0.40600002 32052.67267141  2348.17891117
0.40700002 32237.07030933  2170.19967605
0.40800002 32420.27811388  2585.67940349
0.40900002 32601.89733871  2406.02013760
0.41000002 32782.84903642  2425.27528663
0.41100002 32962.17895679  2037.06275605
0.41200002 33139.13427852  2874.15725216
0.41300002 33315.32768542  2068.88194729
0.41400002 33489.40240345  2710.13001791
0.41500002 33662.52129400  2100.54142828
0.41600002 33832.55874624  2751.09464481
0.41700002 34001.49812232  2771.46224327
0.41800002 34169.36412851  2791.80802841
0.41900002 34333.16206790  2379.28824405
0.42000002 34495.76840679  2396.24866592
0.42100002 34656.67506894  2193.76763582
0.42200002 34815.14859697  2871.72766810
0.42300002 34970.93937226  2446.56703442
0.42400002 35124.28314872  2463.09047252
0.42500002 35275.83243958  2254.12579970
0.42600002 35423.43103440  2495.75795179
0.42700002 35569.85928756  3653.73611916
0.42800002 35713.29057840  2527.96539338
0.42900002 35854.62416156  2775.14804161
0.43000002 35993.18186703  3257.74304516
0.43100002 36127.78353233  3979.83682252
0.43200002 36260.34584315  3061.64244635
0.43300002 36389.87310665  3316.57319211
0.43400002 36516.95602178  2859.27779200
0.43500002 36640.51197823  2875.54751632
0.43600002 36762.16872551  3132.68835640
0.43700002 36879.99517634  2665.31737770
0.43800002 36993.98574604  2679.65948450
0.43900002 37106.07193184  2449.00086356
0.44000002 37214.39789538  2707.90579118
0.44100002 37320.17069287  2969.19292104
0.44200002 37422.60054193  2735.40511624
0.44300002 37522.01392663  3248.65611972
0.44400002 37617.62917611  4519.75835970
0.44500002 37709.43152570  4288.69385066
0.44600002 37798.78142261  3041.29009739
0.44700002 37885.03449719  3564.22421441
0.44800002 37966.60976707  3324.16667569
0.44900002 38046.60370305  3595.40422033
0.45000002 38122.81886518  4126.41410953
0.45100002 38194.56362678  3625.42815127
0.45200002 38263.66337124  4420.02728380
0.45300002 38328.75196206  3132.22575878
0.45400002 38391.16765486  2620.19731662
0.45500002 38449.95338806  3418.97001730
0.45600002 38505.20126189  3431.39117308
0.45700002 38556.78738511  3178.62170267
0.45800002 38604.28430332  4518.43867043
0.45900002 38648.79284013  3466.79688207
0.46000002 38690.36375150  3745.61429230
0.46100002 38727.23957508  3220.55739570
0.46200002 38761.47180357  4037.97651652
0.46300002 38792.02734922  3239.91027776
0.46400002 38818.45468174  2978.34607662
0.46500002 38842.37663196  2986.59048078
0.46600002 38861.82972234  2994.49843118
0.46700002 38877.84051878  3547.99189390
0.46800002 38891.04579978  3830.37928237
0.46900002 38900.10417375  3565.19471650
0.47000002 38905.12783119  3023.51215271
0.47100002 38907.35477571  4131.96127302
0.47200002 38905.73670904  3036.39836537
0.47300002 38901.51018867  4702.02575937
0.47400002 38891.99471010  2771.05475444
0.47500002 38880.39772514  3053.66658207
0.47600002 38865.51656297  4171.24176283
0.47700002 38845.92702804  3063.77840992
