# SAXS profile: number of points = 501, q_min = 0, q_max = 0.5, delta_q = 0.001
#    q    intensity    error
0.00000000 1719190.39626458 309.45427133
0.00100000 1719119.54070114 567.30946190
0.00200000 1718906.91968221 928.20976602
0.00300000 1718552.70128050 1134.24482325
0.00400000 1718056.75296946 1417.39687506
0.00500000 1717419.56522504 2627.65203880
0.00600000 1716640.81121212 1802.47292516
0.00700000 1715721.21162362 2470.63864742
0.00800000 1714660.19412635 2777.74963176
0.00900000 1713459.20855378 3084.22670724
0.01000000 1712117.22924020 2824.99355023
0.01100000 1710635.69507555 5234.54545484
0.01200000 1709014.01254778 4998.86620587
0.01300000 1707253.55650226 3585.23262678
0.01400000 1705353.56627506 4220.75026364
0.01500000 1703315.98617109 5723.14196838
0.01600000 1701139.54331882 7808.23085289
0.01700000 1698826.36661014 6421.56395385
0.01800000 1696376.04117673 5318.13912839
0.01900000 1693789.37352606 6097.64201984
0.02000000 1691067.05085774 5326.86145117
0.02100000 1688210.63791734 6128.20489348
0.02200000 1685218.40329767 6395.40413107
0.02300000 1682093.20884235 8477.75015846
0.02400000 1678834.92592994 8184.32063709
0.02500000 1675445.10253690 8494.50705781
0.02600000 1671923.76268209 6771.29154857
0.02700000 1668272.11914230 9809.44050984
0.02800000 1664489.90650645 7240.53142535
0.02900000 1660579.71490327 8219.86996618
0.03000000 1656542.03927065 7702.92083668
0.03100000 1652377.05389674 9517.69226838
0.03200000 1648085.94762102 10605.43356141
0.03300000 1643671.27480047 10897.54105431
0.03400000 1639131.30880898 10326.52772197
0.03500000 1634469.27109864 9708.74791866
0.03600000 1629685.06215193 9044.75251293
0.03700000 1624780.59262983 10187.37478693
0.03800000 1619756.66099425 9475.57690534
0.03900000 1614615.34706493 10656.46178413
0.04000000 1609355.17866163 10887.28828815
0.04100000 1603980.22102157 12126.09103317
0.04200000 1598490.75183201 11341.29241040
0.04300000 1592886.99530337 13666.97105410
0.04400000 1587172.56973274 16070.12301487
0.04500000 1581347.32404345 12002.42674718
0.04600000 1575411.33352383 15549.31058472
0.04700000 1569368.13026632 18079.12170149
0.04800000 1563217.74855602 17234.47647972
0.04900000 1556963.03294893 15180.39027786
0.05000000 1550603.71850965 14234.54279877
0.05100000 1544142.78388016 15657.60855794
0.05200000 1537579.06194112 15890.88034570
0.05300000 1530917.39490878 18600.64721526
0.05400000 1524156.76988589 16346.58211933
0.05500000 1517300.78480140 20392.52349903
0.05600000 1510348.00411064 12913.47603774
0.05700000 1503303.81460949 13078.74379760
0.05800000 1496166.45908462 18537.50329362
0.05900000 1488938.12275231 13400.44373065
0.06000000 1481621.78569484 18979.57596145
0.06100000 1474219.06520756 13710.23794713
0.06200000 1466730.19136783 22176.96153011
0.06300000 1459158.42052048 15408.71364114
0.06400000 1451502.11669928 18397.79018957
0.06500000 1443767.11463662 24298.60167597
0.06600000 1435951.95213114 17317.58135297
0.06700000 1428059.40477870 14566.20661043
0.06800000 1420092.52601827 17637.54999874
0.06900000 1412052.02247683 16309.20162319
0.07000000 1403937.43979931 16447.12787744
0.07100000 1395753.83993713 15074.14217736
0.07200000 1387499.73885137 18231.74742261
0.07300000 1379180.84679207 19901.58055171
0.07400000 1370795.70776456 20047.88816558
0.07500000 1362347.29631850 20189.98787780
0.07600000 1353835.53969835 21891.52170321
0.07700000 1345265.99353116 15739.61286232
0.07800000 1336636.80588622 19006.97627106
0.07900000 1327950.22370274 17528.94377505
0.08000000 1319210.67363195 20836.93356750
0.08100000 1310417.88274310 19341.76885677
0.08200000 1301572.55043251 17825.03691462
0.08300000 1292678.68361967 19545.30261363
0.08400000 1283735.80371860 19641.15871882
0.08500000 1274748.87254106 21377.53959609
0.08600000 1265716.68302479 16517.60348900
0.08700000 1256642.72484261 18246.45322153
0.08800000 1247526.31380609 16654.47707147
0.08900000 1238372.97438973 21733.44672135
0.09000000 1229181.39836293 25167.49031374
0.09100000 1219955.01300097 23569.53195850
0.09200000 1210694.44786917 20267.02600961
0.09300000 1201403.21585423 20327.74336750
0.09400000 1192079.57469715 18685.84821157
0.09500000 1182727.90677941 17031.28265814
0.09600000 1173349.36134213 18779.45741106
0.09700000 1163947.32974414 17110.02655163
0.09800000 1154522.32405297 20573.58878195
0.09900000 1145076.00034230 20611.36897536
0.10000000 1135608.67934569 20645.36676140
0.10100000 1126122.60257431 18952.64429270
0.10200000 1116620.90523237 25877.69069595
0.10300000 1107104.03313207 20724.98847515
0.10400000 1097574.81440778 20744.16496822
0.10500000 1088035.61766793 24219.67398881
0.10600001 1078483.51002415 24233.52561052
0.10700001 1068925.41675770 19048.25182299
0.10800001 1059359.36613679 19052.57909662
0.10900001 1049789.48304583 20785.83274261
0.11000001 1040215.80623815 17319.59398909
0.11100001 1030640.62757168 22509.19236575
0.11200001 1021065.79430747 17307.06602828
0.11300001 1011490.75992935 20755.79137095
0.11400001 1001920.13994402 19011.43555058
0.11500001 992354.36132327 22447.05671012
0.11600001 982793.99520301 22422.44605646
0.11700001 973242.64569069 18949.03520400
0.11800001 963697.80573677 22362.60863536
0.11900001 954164.78516834 20609.96033040
0.12000001 944642.86900308 27432.43020805
0.12100001 935136.38150736 20535.59590530
0.12200001 925642.91768381 23909.35769017
0.12300001 916166.51736419 20448.83763100
0.12400001 906707.07331070 20400.91011073
0.12500001 897266.71775409 22045.84429403
0.12600001 887848.23308683 20296.21156479
0.12700001 878451.01740565 21926.13842774
0.12800001 869075.51073467 20179.93431032
0.12900001 859725.51244779 18441.11311117
0.13000001 850401.11418392 21723.49748576
0.13100001 841102.18670332 16653.82408175
0.13200001 831833.08014856 26552.11317002
0.13300001 822593.74538253 19840.96207399
0.13400001 813383.65121658 18118.12168504
0.13500001 804206.46453479 24608.71897502
0.13600001 795061.15588332 27775.46279042
0.13700001 785950.88111559 21149.93920811
0.13800001 776874.28911230 19437.39563017
0.13900001 767836.42576839 19349.47884185
0.14000001 758834.52962938 22469.09148198
0.14100001 749871.96199912 15972.27354388
0.14200001 740947.41914330 15893.32289024
0.14300001 732066.73831369 25300.22766947
0.14400001 723222.92007480 20449.12902970
0.14500001 714425.65268859 15645.92253193
0.14600001 705669.83236979 18672.02464534
0.14700001 696960.74475938 23208.79389540
0.14800001 688295.30496931 24613.44126693
0.14900001 679675.55308989 21409.78093246
0.15000001 671104.21598736 16720.56233025
0.15100001 662580.02763832 21149.55548016
0.15200001 654106.51129505 19515.26868536
0.15300001 645682.23793953 20881.36456034
0.15400001 637306.54490251 14817.37786823
0.15500001 628983.86018648 22077.33453444
0.15600001 620711.95208442 17541.32059377
0.15700001 612495.67985227 17419.37795714
0.15800001 604328.28062014 18737.19922500
0.15900001 596218.44987796 18602.01651422
0.16000001 588160.91195406 15624.49536357
0.16100001 580162.28640333 19737.12191512
0.16200001 572217.20892908 18187.92484439
0.16300001 564330.09373230 13882.52096118
0.16400001 556499.81579009 16528.04530925
0.16500001 548727.89678805 15029.65780259
0.16600001 541013.45655699 14907.62649926
0.16700001 533358.29568912 18816.88156035
0.16800001 525760.82716492 14660.84135773
0.16900001 518226.08642201 19822.14874161
0.17000001 510750.29087326 14410.82013746
0.17100001 503335.47252919 14284.66138492
0.17200001 495981.82801171 16731.94775811
0.17300001 488689.92071551 17856.73054622
0.17400001 481460.71195602 13902.17871427
0.17500001 474293.20731444 17529.87777024
0.17600001 467186.57469779 13644.18455845
0.17700001 460145.29704951 14743.05601379
0.17800001 453166.61577538 18251.28631240
0.17900001 446251.11213516 14458.53671611
0.18000001 439400.18970637 16701.60199964
0.18100001 432614.33890851 15353.48361311
0.18200001 425889.92417320 11690.67897080
0.18300001 419232.91350087 13884.99475107
0.18400001 412638.70164480 17176.08676738
0.18500001 406110.76489315 14729.63813853
0.18600001 399647.28475545 12331.11755369
0.18700001 393248.74652608 11089.61517596
0.18800001 386914.56628451 13162.83416689
0.18900001 380648.44624799 11933.32935369
0.19000001 374443.59332951 11800.59040134
0.19100001 368308.96199142 11668.02846720
0.19200001 362237.16114268 11535.44294165
0.19300001 356232.63908371 13476.28137333
0.19400001 350292.76193626 10246.06377080
0.19500001 344418.90906843 16201.46624818
0.19600001 338610.09218971 14008.30017587
0.19700001 332867.23626012 11863.38886095
0.19800001 327190.14116758 12696.61402803
0.19900001 321579.48735835 10612.12358435
0.20000001 316032.02774120 13339.71252141
0.20100001 310552.12327540 10350.70275797
0.20200001 305136.13827193 10220.53543448
0.20300001 299786.09249940 12842.83680969
0.20400001 294501.25497111 11772.68822392
0.20500001 289280.44982187 12514.27285080
0.20600001 284124.74224807 11468.69576295
0.20700001 279033.77475527 10447.02502066
0.20800001 274006.60372757 9449.11817621
0.20900001 269046.12999378 13559.92559268
0.21000001 264147.36519562 8360.26450365
0.21100001 259312.74593700 9070.76028168
0.21200001 254541.57571413 10572.38484709
0.21300001 249833.51883160 11227.51886708
0.21400001 245189.75499273 10279.58096405
0.21500001 240609.24337508 8575.31383931
0.21600001 236089.36872251 12295.53490438
0.21700001 231633.08636366 9846.72296687
0.21800001 227238.63598826 10450.70536322
0.21900001 222904.91490285 8091.44879355
0.22000001 218632.41306817 7972.43131949
0.22100001 214423.61008148 7854.33720867
0.22200001 210274.01139941 9847.13241945
0.22300001 206185.05106240 8313.38165194
0.22400001 202154.20511451 10234.05711785
0.22500001 198186.23892482 10749.62210760
0.22600001 194276.09400264 6615.10131361
0.22700001 190425.81577790 7815.07584909
0.22800001 186633.55664113 8334.12186593
0.22900001 182898.89107162 8834.01685653
0.23000001 179222.77722430 6210.06952451
0.23100001 175605.47481471 10388.82038135
0.23200001 172043.22116439 7816.78412329
0.23300001 168539.04386906 7098.86486350
0.23400001 165090.87195741 8147.23491642
0.23500001 161697.37178121 6868.90467814
0.23600001 158360.26449335 6192.67843591
0.23700001 155077.85075538 8858.04725411
0.23800001 151850.17812656 5988.21205766
0.23900001 148676.66235846 5352.36009807
0.24000001 145556.64423504 6314.24752558
0.24100001 142490.74973661 6724.13879813
0.24200001 139477.20871233 7117.52229726
0.24300001 136515.92881884 5995.77987734
0.24400001 133606.04678060 6874.03143203
0.24500001 130747.88860326 4824.59731768
0.24600001 127940.61105381 7110.29979567
0.24700001 125184.86678410 6053.94044407
0.24800001 122477.93657839 6861.82672141
0.24900001 119820.54517831 5391.92478810
0.25000001 117212.60743394 5295.66585439
0.25100001 114652.66919731 5200.64532083
0.25200001 112141.88748938 4681.36331472
0.25300001 109678.66911401 6268.13623641
0.25400001 107261.97561571 4513.04783755
0.25500001 104891.89345919 5638.98845916
0.25600001 102568.53807946 5535.62426205
0.25700001 100290.61183326 6986.24435085
0.25800001 98057.54467878  4952.39652832
0.25900001 95869.63737043  4860.59084466
0.26000001 93726.17299724  4403.25581575
0.26100001 91624.40357407  3960.92315392
0.26200001 89568.61883880  4593.52683450
0.26300001 87554.07154176  4853.99795595
0.26400001 85581.30295709  4082.22834422
0.26500001 83651.25669000  3337.68529987
0.26600001 81761.70178265  5239.29009815
0.26700001 79913.70149095  6746.31499910
0.26800001 78105.89522735  3151.57302156
0.26900001 76337.24773664  3091.65867964
0.27000001 74608.23780441  3032.82501027
0.27100001 72918.12057640  3570.07135237
0.27200001 71266.55881561  3502.03886593
0.27300001 69652.17525310  3148.97499222
0.27400001 68074.00828475  2808.05297464
0.27500001 66535.09636478  3305.46374383
0.27600001 65030.34769572  2972.21218210
0.27700001 63562.86901997  2650.57176358
0.27800001 62130.06832957  2860.15783092
0.27900001 60732.33422201  2805.83397385
0.28000001 59368.94297678  3253.12138438
0.28100001 58039.15153046  2700.56184853
0.28200001 56743.42216008  2890.51006164
0.28300001 55480.45110992  4017.89445955
0.28400001 54250.08289636  3478.78673038
0.28500001 53052.12104771  3413.90415100
0.28600001 51884.77290625  2903.73145314
0.28700001 50748.98992542  2192.35646855
0.28800001 49643.35911991  2582.44766365
0.28900001 48569.59894019  2535.33318468
0.29000001 47523.78290538  2281.85454421
0.29100001 46508.39716716  2240.77468158
0.29200001 45521.54004778  2200.73895778
0.29300001 44562.89373226  2358.26844794
0.29400001 43631.92576699  2896.06920987
0.29500001 42729.41221335  2086.90459129
0.29600001 41853.11625390  2983.29026780
0.29700001 41003.14751067  2016.12485854
0.29800001 40179.82198801  1982.27161162
0.29900001 39382.31666782  2303.86563413
0.30000001 38609.79386075  3312.14132314
0.30100001 37863.29641142  1715.20740864
0.30200001 37139.93518497  1856.81114748
0.30300001 36440.96167667  1827.87872424
0.30400001 35766.45653994  1963.57855700
0.30500001 35113.87578464  1934.07236978
0.30600001 34484.53678990  1905.61559323
0.30700001 33878.04268657  1721.68221084
0.30800001 33293.29110406  1697.45852730
0.30900001 32730.15458908  1674.14748649
0.31000001 32188.86722308  1651.77179975
0.31100001 31666.92790925  1926.61598521
0.31200001 31166.35917925  1902.23882257
0.31300001 30685.60650266  1589.82134817
0.31400001 30225.83044972  1428.17055637
0.31500001 29783.95768139  1694.11159313
0.31600002 29361.58797391  2233.82971882
0.31700002 28957.12685906  2348.13352818
0.31800002 28571.30914994  1503.85092831
0.31900002 28203.53477946  1895.27762692
0.32000002 27853.08676795  2011.68928707
0.32100002 27519.93786932  1993.81959304
0.32200002 27203.68110950  1318.01841216
0.32300002 26903.16124614  1438.24306832
0.32400002 26619.08597102  1427.44855279
0.32500002 26350.34613008  1546.23838413
0.32600002 26097.43279835  1536.09496725
0.32700002 25859.37149778  1653.96547932
0.32800002 25636.96908256  1771.25827779
0.32900002 25427.50332700  1384.52762172
0.33000002 25233.92293477  1879.29649956
0.33100002 25051.55103018  1871.35095057
0.33200002 24885.28694760  2237.43625541
0.33300002 24730.62221500  1486.80507797
0.33400002 24589.60099091  1606.31576080
0.33500002 24460.63221574  1602.66069867
0.33600002 24343.89228443  1353.64219458
0.33700002 24238.43012732  1474.66615878
0.33800002 24145.86782008  1350.59918048
0.33900002 24063.64488543  1349.97054200
0.34000002 23992.79637344  1595.40107041
0.34100002 23932.74528849  1350.52488059
0.34200002 23884.21832801  1597.49601852
0.34300002 23844.20508749  1230.36104078
0.34400002 23815.34931179  1478.93326230
0.34500002 23795.44981591  1975.97424630
0.34600002 23786.35639054  1485.69589052
0.34700002 23784.17298655  1241.53388870
0.34800002 23792.67946500  1245.54682898
0.34900002 23809.13820790  1874.96972267
0.35000002 23834.32598385  1756.82825148
0.35100002 23867.58567732  1638.27115848
0.35200002 23907.77439106  1392.50838536
0.35300002 23956.32459692  1653.70516525
0.35400002 24012.61100047  1406.53875597
0.35500002 24075.59518066  1285.63684354
0.35600002 24145.38430940  1292.98539101
0.35700002 24221.90875818  1430.78821811
0.35800002 24305.59304901  2225.05562106
0.35900002 24394.86751719  1712.51978082
0.36000002 24490.90314964  1458.80071521
0.36100002 24592.14450862  1335.35351007
0.36200002 24699.93183504  1613.89362255
0.36300002 24811.55308795  1761.12412160
0.36400002 24929.10919225  2183.79006868
0.36500002 25051.17387717  1787.90236430
0.36600002 25178.66763664  1940.52000667
0.36700002 25310.34958816  1676.55763614
0.36800002 25447.80087180  1690.24301397
0.36900002 25588.26938809  1562.16392014
0.37000002 25732.04067184  1718.38575746
0.37100002 25880.04274134  2021.74903472
0.37200002 26032.34580378  1893.46276173
0.37300002 26187.34875005  1909.84343481
0.37400002 26346.75996856  1630.20585028
0.37500002 26507.98148451  1943.56529451
0.37600002 26673.40208992  1810.05715157
0.37700002 26840.29933376  1674.02954875
0.37800002 27010.74283498  1689.11688320
0.37900002 27183.41259369  1859.34550949
0.38000002 27358.52051777  1719.89347383
0.38100002 27535.18187098  1735.54259555
0.38200002 27714.22189027  2069.83675993
0.38300002 27894.79481264  1606.74025733
0.38400002 28077.64027394  2432.22570395
0.38500002 28261.10676518  2290.84542291
0.38600002 28446.89226669  2477.01326147
0.38700002 28632.92515035  1999.72358724
0.38800002 28820.14533756  2186.15222815
0.38900002 29008.46316296  1866.69469297
0.39000002 29198.32042936  2054.97788917
0.39100002 29387.83265164  1728.00464178
0.39200002 29578.80387160  2266.77174209
0.39300002 29769.44980513  2287.18693689
0.39400002 29961.53551827  1775.22106356
0.39500002 30152.55558485  2686.59282989
0.39600002 30344.00065367  1987.68385699
0.39700002 30534.94636878  2187.52366150
0.39800002 30727.11288445  2206.82135192
0.39900002 30917.80607016  2040.57529731
0.40000002 31107.87860220  2619.59458120
0.40100002 31297.80139694  2830.88627048
0.40200002 31487.95692883  2664.82592114
0.40300002 31676.29184966  2111.54171474
0.40400002 31864.12861214  2710.04426687
0.40500002 32051.08315388  2342.29326786
0.40600002 32237.28028245  2755.32047629
0.40700002 32422.13237733  2381.08151461
0.40800002 32605.85693656  3200.59106854
0.40900002 32787.87232885  2016.45424377
0.41000002 32969.31537940  2439.07006734
0.41100002 33148.98438905  2868.05026523
0.41200002 33326.28512382  2064.56346124
0.41300002 33502.79069470  2288.57574079
0.41400002 33677.09512999  2934.95897965
0.41500002 33850.43405088  2534.72062183
0.41600002 34020.61512996  2340.78853493
0.41700002 34189.69389370  2358.06329958
0.41800002 34357.60884065  2159.37581795
0.41900002 34521.47803549  2174.85321929
0.42000002 34684.07125558  4380.59840715
0.42100002 34844.89117931  2646.81805940
0.42200002 35003.33229026  3553.53846249
0.42300002 35158.97033506  2459.72168120
0.42400002 35312.18531338  2926.49749652
0.42500002 35463.47666316  2719.33951939
0.42600002 35610.80115398  2965.13349859
0.42700002 35756.95715451  2754.71610972
0.42800002 35900.03005619  2541.18374795
0.42900002 36040.91550338  3486.95874019
0.43000002 36179.07229318  2806.77256151
0.43100002 36313.19284943  3059.02351060
0.43200002 36445.26784112  2603.83228430
0.43300002 36574.21786806  2619.07986564
0.43400002 36700.74733916  2394.72387736
0.43500002 36823.64486971  3612.39973290
0.43600002 36944.68391806  3148.24138927
0.43700002 37061.77522654  2921.95049733
0.43800002 37174.98818101  3182.36501405
0.43900002 37286.32908092  3691.34675394
0.44000002 37393.73655906  2720.95536967
0.44100002 37498.66803377  2734.77798930
0.44200002 37600.15924908  3497.94298071
0.44300002 37698.61547902  4519.31023780
0.44400002 37793.26939602  3279.51110726
0.44500002 37883.97873325  2787.88212710
0.44600002 37972.24156963  2546.03891790
0.44700002 38057.38346631  4091.93006422
0.44800002 38137.84411870  2825.44231544
0.44900002 38216.63069266  2837.58496341
0.45000002 38291.67696407  2849.47527632
0.45100002 38362.06979580  2861.04330096
0.45200002 38429.91351234  2872.44402161
0.45300002 38493.65090311  4456.41017626
0.45400002 38554.68572738  2631.35742560
0.45500002 38612.06314508  2905.17176872
0.45600002 38665.87240068  3445.70938229
0.45700002 38715.96282250  2659.78677196
0.45800002 38761.95138569  3469.38862320
0.45900002 38804.91224998  3213.04688658
0.46000002 38844.90673794  2686.12542824
0.46100002 38880.14566305  2694.39422215
0.46200002 38912.75390211  2702.49088659
0.46300002 38941.65109291  2981.37294898
0.46400002 38966.30232398  3261.47965910
0.46500002 38988.55689723  2997.83028191
0.46600002 39006.19677509  3005.62263496
0.46700002 39020.38961659  2739.23148091
0.46800002 39031.81583582  3020.47721161
0.46900002 39038.99776475  3853.14926201
0.47000002 39042.11155940  3309.99037489
0.47100002 39042.37045320  3040.61995501
0.47200002 39038.79981634  3600.74387173
0.47300002 39032.63893489  4162.83113971
0.47400002 39021.04961011  3058.27490815
0.47500002 39007.41560625  3342.15552755
0.47600002 38990.54725636  3068.75116726
