# SAXS profile: number of points = 501, q_min = 0, q_max = 0.5, delta_q = 0.001
#    q    intensity    error
0.00000000 1719190.39626458 412.60569510
0.00100000 1719119.56729055 722.03023541
0.00200000 1718907.03000790 1624.36719479
0.00300000 1718552.95020705 1443.58452960
0.00400000 1718057.19391174 1675.10582771
0.00500000 1717420.24918644 1854.81394254
0.00600000 1716641.79167558 2162.96874557
0.00700000 1715722.56312732 2676.52730972
0.00800000 1714661.95734141 2777.75248817
0.00900000 1713461.43497038 4112.30761972
0.01000000 1712119.98188749 3954.99732893
0.01100000 1710638.99269263 4002.89541718
0.01200000 1709017.96117430 4332.36072152
0.01300000 1707258.20125213 3943.76661883
0.01400000 1705358.91979770 4220.76351361
0.01500000 1703322.15518087 4496.77068991
0.01600000 1701146.54616030 5205.50866395
0.01700000 1698834.27737318 7338.96440747
0.01800000 1696384.89645242 5318.16688968
0.01900000 1693799.24139506 5589.53774882
0.02000000 1691077.95414692 7457.65411514
0.02100000 1688222.70247981 5571.13517077
0.02200000 1685231.60815282 9302.47889964
0.02300000 1682107.60076173 7266.70516606
0.02400000 1678850.57475283 8184.39692511
0.02500000 1675462.09821654 7187.73272962
0.02600000 1671942.08161808 6771.36574026
0.02700000 1668291.90753166 11210.92213209
0.02800000 1664511.10550532 7964.68600510
0.02900000 1660602.45827962 8967.25368643
0.03000000 1656566.30727694 10784.24715607
0.03100000 1652402.96924749 10310.99500255
0.03200000 1648113.54144609 13053.05984945
0.03300000 1643700.59250616 8382.87340824
0.03400000 1639162.39883339 9466.16329004
0.03500000 1634502.18647383 11474.20587890
0.03600000 1629719.75421923 17185.39560244
0.03700000 1624817.24539801 13892.18809063
0.03800000 1619795.26068027 12318.54352757
0.03900000 1614655.93421313 11625.52326471
0.04000000 1609397.83975312 12867.13632508
0.04100000 1604024.88855308 11115.89299308
0.04200000 1598537.54486695 11341.62440700
0.04300000 1592936.05993902 10513.37848361
0.04400000 1587223.78626418 14999.26547679
0.04500000 1581400.83516147 14185.16615051
0.04600000 1575467.12931090 14439.15691137
0.04700000 1569426.23053785 12429.85632395
0.04800000 1563278.29316008 14937.12478614
0.04900000 1557026.01716051 15181.00437395
0.05000000 1550669.17349616 14235.14367557
0.05100000 1544210.76798411 14453.81346165
0.05200000 1537649.45443833 19558.90197193
0.05300000 1530990.52506963 16121.33098053
0.05400000 1524232.41907361 13832.40984815
0.05500000 1517379.01362358 14020.58273993
0.05600000 1510429.02978385 21954.08697238
0.05700000 1503387.60449385 20927.15643140
0.05800000 1496253.00567835 18538.57560597
0.05900000 1489027.50166837 14741.37295502
0.06000000 1481713.96363795 13557.68340069
0.06100000 1474314.18791907 15082.23484723
0.06200000 1466828.14101077 13861.52658049
0.06300000 1459259.36750592 15409.77964135
0.06400000 1451605.90742085 15568.47408518
0.06500000 1443873.93246216 14294.35260003
0.06600000 1436061.86725939 14432.42244123
0.06700000 1428172.37709240 20394.30249931
0.06800000 1420208.49923932 14699.15865518
0.06900000 1412171.07461241 14827.79697765
0.07000000 1404059.60392583 20934.52967487
0.07100000 1395879.07730336 15075.49474098
0.07200000 1387628.28309493 21272.34257639
0.07300000 1379312.70042028 22965.55753806
0.07400000 1370930.68927686 18507.56517258
0.07500000 1362485.58530723 21745.27096076
0.07600000 1353977.04713718 15638.43562757
0.07700000 1345410.71903521 23611.95922620
0.07800000 1336784.86825970 20593.17186128
0.07900000 1328101.74118060 23905.83246252
0.08000000 1319365.55621346 25648.46761599
0.08100000 1310576.18272986 24180.13170585
0.08200000 1301734.18333897 17827.25047737
0.08300000 1292843.65992136 17918.81396748
0.08400000 1283904.14148012 16369.77857225
0.08500000 1274920.71860122 26314.36486726
0.08600000 1265892.06528161 18171.88145031
0.08700000 1256821.52018412 16590.04484546
0.08800000 1247708.44172767 33313.81695867
0.08900000 1238558.53272674 16720.54097717
0.09000000 1229370.61123529 16780.90963165
0.09100000 1220147.61801591 21889.44929560
0.09200000 1210890.49598221 21959.50017644
0.09300000 1201602.93551149 23719.64306163
0.09400000 1192282.76936657 22087.03934055
0.09500000 1182934.53618122 20441.10974600
0.09600000 1173559.46716988 20490.34925999
0.09700000 1164161.10414514 17113.16903547
0.09800000 1154739.48255340 24007.03497104
0.09900000 1145296.87439201 22333.29010081
0.10000000 1135832.87231360 20649.44258975
0.10100000 1126350.51095058 22403.11271647
0.10200000 1116852.40116184 17255.37040958
0.10300000 1107339.04183154 17274.48986518
0.10400000 1097813.29737833 20748.67229657
0.10500000 1088277.63922667 20764.33833339
0.10600001 1078728.94482991 22507.68049294
0.10700001 1069174.46473681 20784.75257257
0.10800001 1059611.74028094 24254.51387649
0.10900001 1050045.35139481 19058.32402481
0.11000001 1040475.29370725 22521.08879235
0.11100001 1030903.51775798 20783.01589633
0.11200001 1021332.12043615 25967.37038456
0.11300001 1011760.46746342 20761.32576981
0.11400001 1002193.36928117 19016.62007750
0.11500001 992630.87108439 24180.48915823
0.11600001 983073.74202784 20703.53398207
0.11700001 973525.84463774 20677.68991392
0.11800001 963984.44758220 20648.54783972
0.11900001 954454.68316873 20616.22212750
0.12000001 944936.33863589 27440.95256659
0.12100001 935432.93662221 27389.47767457
0.12200001 925942.73425042 18792.00867693
0.12300001 916469.73764105 27274.14067720
0.12400001 907013.52457463 18707.15482579
0.12500001 897576.29712312 22053.45065948
0.12600001 888160.96677156 20303.36065716
0.12700001 878767.06932106 20246.79423132
0.12800001 869394.78963097 18505.06896943
0.12900001 860047.80222868 21802.21281408
0.13000001 850726.57868966 23403.48928287
0.13100001 841430.63351395 16660.32732890
0.13200001 832164.25032547 23242.34860724
0.13300001 822928.15153743 19849.02795083
0.13400001 813720.96300363 23068.99038875
0.13500001 804546.75968718 21336.58107289
0.13600001 795404.17993960 16345.55666846
0.13700001 786296.84778634 17903.98006833
0.13800001 777223.04980673 21066.63175842
0.13900001 768187.97003494 19358.33775778
0.14000001 759188.92812292 20873.90056317
0.14100001 750229.03970505 22371.83101913
0.14200001 741306.93710137 20671.34491604
0.14300001 732429.07962929 17402.51575283
0.14400001 723587.92237109 22033.25327551
0.14500001 714793.07786742 21915.55680122
0.14600001 706039.60894388 24909.07857861
0.14700001 697333.20413854 23221.19679331
0.14800001 688669.98672774 23087.66239429
0.14900001 680052.48861516 19891.53623049
0.15000001 671483.69102533 19771.83821513
0.15100001 662961.76246709 21161.74045647
0.15200001 654490.23674975 16522.60680640
0.15300001 646068.25735192 17909.01293890
0.15400001 637694.64795638 20756.96177052
0.15500001 629374.18185445 22091.03482563
0.15600001 621104.10498360 20477.80330776
0.15700001 612889.90795585 17430.58980493
0.15800001 604724.56063082 17307.21774213
0.15900001 596616.52523603 15750.67700967
0.16000001 588560.57666992 15635.11245725
0.16100001 580563.83990270 16929.24237070
0.16200001 572620.35043398 18200.73869773
0.16300001 564734.94452053 22227.96846566
0.16400001 556906.02057703 13783.42465999
0.16500001 549135.91343717 21877.57582421
0.16600001 541422.69410764 20343.95869159
0.16700001 533768.95228216 16141.17387911
0.16800001 526173.03791955 14672.33585516
0.16900001 518639.48804265 14547.83832652
0.17000001 511164.90572432 15733.65654113
0.17100001 503751.25479757 12996.78298750
0.17200001 496398.50396040 23186.77521494
0.17300001 489107.60347324 12765.70905351
0.17400001 481879.50189070 17709.07253081
0.17500001 474712.91042887 17545.38999808
0.17600001 467607.12194807 13656.46664148
0.17700001 460566.65321602 14756.55626600
0.17800001 453588.60504282 12178.85462063
0.17900001 446673.68045857 14472.22793043
0.18000001 439823.29558584 13135.32334312
0.18100001 433038.11275235 14186.32924388
0.18200001 426314.01690681 16383.24844364
0.18300001 419657.38781654 17373.81667633
0.18400001 413063.46849613 13755.01415072
0.18500001 406535.88894980 13610.82220504
0.18600001 400072.46520193 17955.25308653
0.18700001 393673.94093058 13321.92679048
0.18800001 387339.88150095 12079.19477530
0.18900001 381073.70699060 11946.66127860
0.19000001 374868.78300343 11813.99025455
0.19100001 368733.94033365 16991.26077341
0.19200001 362661.75791296 11548.96422644
0.19300001 356656.98849513 11416.59074119
0.19400001 350716.73956017 13336.00465195
0.19500001 344842.48070349 11152.20635295
0.19600001 339033.03511692 11020.26932725
0.19700001 333289.44104332 12868.30592681
0.19800001 327611.82325348 15646.74141803
0.19900001 322000.48073495 13524.02083001
0.20000001 316452.06313447 10495.13316987
0.20100001 310971.42088373 10364.67794791
0.20200001 305554.39864068 9304.13187835
0.20300001 300203.44624835 10104.84847832
0.20400001 294917.29826955 12696.19029060
0.20500001 289695.24878795 11637.05869386
0.20600001 284538.39761768 11485.39296273
0.20700001 279446.02905531 9590.58817052
0.20800001 274417.47456797 9463.28705781
0.20900001 269455.51564267 11034.20388717
0.21000001 264555.16599311 10885.12281935
0.21100001 259719.00804151 13214.50375385
0.21200001 254946.08711108 8145.52786827
0.21300001 250236.34431435 8835.84573546
0.21400001 245590.67377295 9504.35952435
0.21500001 241008.25459773 10932.13494540
0.21600001 236486.43422486 8467.39717775
0.21700001 232027.94972359 8346.04574616
0.21800001 227631.62223882 10468.77880173
0.21900001 223295.67461803 8842.50913296
0.22000001 219020.83257930 13795.02779227
0.22100001 214809.79840204 7868.48328752
0.22200001 210657.66034227 9160.44879313
0.22300001 206566.17584267 9716.87337111
0.22400001 202532.91290272 8886.13197380
0.22500001 198562.29961417 6731.26227522
0.22600001 194649.32958830 7953.37198308
0.22700001 190796.42696912 6525.23811092
0.22800001 187001.30340241 6423.49507564
0.22900001 183263.76573862 6322.60021698
0.23000001 179584.70750518 7467.13249120
0.23100001 175964.55978200 8572.99375802
0.23200001 172399.06818088 7230.41726146
0.23300001 168891.87843132 5928.10521331
0.23400001 165440.33822805 6998.12663803
0.23500001 162043.48467389 6309.97359164
0.23600001 158703.22571927 7334.46992351
0.23700001 155417.30474215 6103.23784589
0.23800001 152186.28026464 7092.64192721
0.23900001 149009.12199735 5364.32864563
0.24000001 145885.50507816 6855.88963543
0.24100001 142815.95104821 6739.48504875
0.24200001 139798.56593756 5095.65796946
0.24300001 136833.60582984 8513.78735746
0.24400001 133919.94084499 6890.18128240
0.24500001 131057.93935257 6770.45346723
0.24600001 128246.79169417 5701.85262845
0.24700001 125486.87245686 6535.35662671
0.24800001 122775.94291906 6878.52252744
0.24900001 120114.42035377 4954.72007399
0.25000001 117502.23965540 5751.14739201
0.25100001 114938.03538771 4779.12373752
0.25200001 112423.02716529 4693.09949104
0.25300001 109955.48630265 5027.16507159
0.25400001 107534.40233802 4935.82930083
0.25500001 105159.93880546 4038.14184118
0.25600001 102832.09390329 4757.01288903
0.25700001 100549.46759780 4669.51749617
0.25800001 98312.06843455  4965.25125121
0.25900001 96119.42672791  4873.25516568
0.26000001 93971.17168762  4782.66300934
0.26100001 91864.79219938  4332.34380511
0.26200001 89804.27486227  5314.16821642
0.26300001 87784.93999261  3823.91216702
0.26400001 85807.24584378  3751.92200205
0.26500001 83872.32277889  5354.40933957
0.26600001 81977.86801943  4268.17790040
0.26700001 80124.88946014  3543.12277959
0.26800001 78312.17919837  3475.88623820
0.26900001 76538.35360309  4029.74450790
0.27000001 74804.16010567  4257.10495307
0.27100001 73109.07353344  3281.13537545
0.27200001 71452.35721041  2925.97416623
0.27300001 69832.77662620  5740.25451033
0.27400001 68249.31273619  3096.81271196
0.27500001 66705.27726304  3037.75847032
0.27600001 65195.23790193  2708.86226302
0.27700001 63722.54613507  2657.23029959
0.27800001 62284.17074966  2867.25193616
0.27900001 60881.16541756  2557.00906856
0.28000001 59512.38856725  3260.98148588
0.28100001 58177.14746727  2460.89345434
0.28200001 56876.13012523  3138.70938951
0.28300001 55607.60640242  2368.88414486
0.28400001 54371.91978559  3486.59952127
0.28500001 53168.35875379  2737.10723820
0.28600001 51995.58803229  2238.41017074
0.28700001 50854.13826343  2636.27865236
0.28800001 49743.06925164  2587.63458495
0.28900001 48663.77388610  2540.24911709
0.29000001 47612.42433565  3325.25187300
0.29100001 46591.36495134  3061.05282220
0.29200001 45598.95719724  2004.07426368
0.29300001 44634.69808961  2165.22930682
0.29400001 43698.14120596  2127.00712389
0.29500001 42789.94274237  2659.82296677
0.29600001 41908.20419018  2240.41270206
0.29700001 41052.60839757  2202.06201869
0.29800001 40223.52177703  2886.44005936
0.29900001 39420.41241154  2483.48609949
0.30000001 38642.29548043  1919.16969589
0.30100001 37890.22966254  2402.99847896
0.30200001 37161.20077023  2026.77198596
0.30300001 36456.56160881  1662.41928806
0.30400001 35776.45624616  1800.45024582
0.30500001 35118.25030393  1611.92776526
0.30600001 34483.30030021  2064.34287020
0.30700001 33871.16146370  1721.33250708
0.30800001 33280.89425650  1851.08342618
0.30900001 32712.17681415  1977.45118204
0.31000001 32165.22137859  1800.60917802
0.31100001 31637.79330058  1628.71367623
0.31200001 31131.73089142  2338.61573529
0.31300001 30645.42391608  1876.41939522
0.31400001 30180.17449189  1568.61464348
0.31500001 29732.74158779  1691.19842159
0.31600002 29304.93198068  2786.89916332
0.31700002 28894.84059627  1653.94075404
0.31800002 28503.68832873  2045.85232666
0.31900002 28130.54124412  2160.42566984
0.32000002 27774.70404750  1471.08726953
0.32100002 27436.20257700  1722.71924138
0.32200002 27114.57864491  2364.66251559
0.32300002 26808.68648100  1693.77289207
0.32400002 26519.40937321  2068.51402906
0.32500002 26245.31630403  1411.73563084
0.32600002 25987.29305494  1529.61214164
0.32700002 25743.91711936  1899.90117337
0.32800002 25516.37959421  1637.00341038
0.32900002 25301.72766440  1502.92269443
0.33000002 25103.15880345  1495.64627233
0.33100002 24915.64533452  1737.11887498
0.33200002 24744.42620935  1359.58256246
0.33300002 24584.84816213  1478.04114150
0.33400002 24438.81798999  1596.46586080
0.33500002 24304.89183118  1714.95324882
0.33600002 24183.46229056  1711.46370735
0.33700002 24072.99414162  1342.55094686
0.33800002 23975.66947850  1341.07913579
0.33900002 23888.79461677  1218.32858315
0.34000002 23813.13623773  1827.06296437
0.34100002 23748.51615746  2071.10819218
0.34200002 23695.43331213  1828.69515247
0.34300002 23650.81926853  1586.49703167
0.34400002 23617.40062039  1588.86070198
0.34500002 23593.18773207  1346.93515142
0.34600002 23579.62589581  1840.97937901
0.34700002 23573.08383021  1476.61804106
0.34800002 23577.20251234  1604.54659297
0.34900002 23589.49876401  1238.44874377
0.35000002 23610.56720738  1740.33499128
0.35100002 23639.58717706  1497.80431448
0.35200002 23675.77186333  1504.35861545
0.35300002 23720.22156683  1637.40697231
0.35400002 23772.63136618  1898.83902031
0.35500002 23831.69846366  1527.13530988
0.35600002 23897.68124028  1663.63715834
0.35700002 23970.41109298  1802.09559133
0.35800002 24050.35129742  1683.64492232
0.35900002 24136.00640194  1303.34440744
0.36000002 24228.41755747  1705.55953474
0.36100002 24326.06312205  1320.90529009
0.36200002 24430.42887331  1463.26060668
0.36300002 24538.61862552  1741.75123254
0.36400002 24652.84519065  1754.66633956
0.36500002 24771.59911270  1903.94519799
0.36600002 24895.89999880  1918.72710379
0.36700002 25024.48661427  1657.62207185
0.36800002 25158.74984907  1531.79055712
0.36900002 25296.21899384  1544.33424273
0.37000002 25437.03786355  1698.68546899
0.37100002 25582.08976462  1855.72487943
0.37200002 25731.78078013  1439.69320285
0.37300002 25883.96950364  1742.50890953
0.37400002 26040.71029328  2343.66403742
0.37500002 26199.21652833  1625.39947041
0.37600002 26362.23174987  2087.09798651
0.37700002 26526.55591665  1804.86695007
0.37800002 26694.69672711  1821.11229699
0.37900002 26865.09158487  1837.57235146
0.38000002 27037.93165907  1545.21786752
0.38100002 27212.38522942  1559.26974751
0.38200002 27389.32493164  2045.57182943
0.38300002 27567.87148673  1905.49136743
0.38400002 27748.80403315  2724.23896501
0.38500002 27930.36678233  2102.31880730
0.38600002 28114.41929193  1958.45054066
0.38700002 28298.60680632  2141.07269240
0.38800002 28484.20756577  2160.66966726
0.38900002 28671.07856679  2851.33889855
0.39000002 28859.36394420  2200.38230817
0.39100002 29047.39195029  2220.38274587
0.39200002 29236.96318329  2240.57477970
0.39300002 29426.40775846  1913.01085901
0.39400002 29617.20928742  2105.78368010
0.39500002 29807.17961951  2301.71051927
0.39600002 29997.48973615  2143.62071811
0.39700002 30187.50001922  2162.63260384
0.39800002 30378.78389415  1818.17030221
0.39900002 30568.50729312  1834.11052448
0.40000002 30757.80618779  2405.10676881
0.40100002 30947.14112359  2239.33523780
0.40200002 31136.60724490  2446.87039627
0.40300002 31324.52330721  2467.74606306
0.40400002 31511.78018954  2297.20888466
0.40500002 31698.41263795  2123.47676323
0.40600002 31884.18277102  2141.18239544
0.40700002 32068.89230792  2943.92445335
0.40800002 32252.40109676  2572.29037135
0.40900002 32434.37108270  1994.71391610
0.41000002 32615.73715177  2613.98837788
0.41100002 32795.51063368  2026.76265319
0.41200002 32972.88541639  2655.47145283
0.41300002 33149.52697914  2676.16143983
0.41400002 33324.23330825  3526.53715694
0.41500002 33497.86090121  2090.26661928
0.41600002 33668.37573894  2316.55270248
0.41700002 33837.95042452  2545.96751058
0.41800002 34006.36538113  2564.76019857
0.41900002 34170.81050359  3229.14174560
0.42000002 34334.21734545  2385.02652091
0.42100002 34495.70834761  2183.57844187
0.42200002 34654.95441756  3078.39974678
0.42300002 34811.51968910  3099.61785999
0.42400002 34965.67270032  2674.87408833
0.42500002 35117.99405312  2692.84791160
0.42600002 35266.33679928  2484.68987693
0.42700002 35413.69792702  2728.27141758
0.42800002 35557.96829519  3661.04858916
0.42900002 35700.18547527  3453.99310841
0.43000002 35839.65822180  2548.73741522
0.43100002 35975.21580468  2797.43291354
0.43200002 36108.79859905  3517.89987022
0.43300002 36239.18991448  2595.08851275
0.43400002 36367.38583965  4034.05246543
0.43500002 36491.88360992  2863.88316142
0.43600002 36614.66200672  2880.10944993
0.43700002 36733.57646650  2413.39608822
0.43800002 36848.56221195  2911.77352398
0.43900002 36961.78735634  2683.42588924
0.44000002 37071.18167565  2697.48466246
0.44100002 37178.12395780  3450.87362930
0.44200002 37281.67564033  3468.31444918
0.44300002 37382.24054482  3236.55453975
0.44400002 37478.89030191  2751.88765083
0.44500002 37572.01087030  3016.28117561
0.44600002 37662.47777922  3282.85003120
0.44700002 37750.02783284  3044.16238871
0.44800002 37832.89144738  4076.87257558
0.44900002 37914.06323634  2559.19938974
0.45000002 37991.51442225  3855.18910870
0.45100002 38064.51690257  3096.92924196
0.45200002 38134.95984845  2850.39770896
0.45300002 38201.38196288  3381.96850545
0.45400002 38265.00699119  3917.38027638
0.45500002 38325.12027595  4718.58903200
0.45600002 38381.65936891  3683.48802421
0.45700002 38434.57062956  2904.50064013
0.45800002 38483.39959561  3709.41506282
0.45900002 38529.32041271  3456.08020482
0.46000002 38572.23567243  3200.72426779
0.46100002 38610.32392214  3210.83468954
0.46200002 38646.06566087  4831.14489724
0.46300002 38678.00995305  4307.18339251
0.46400002 38705.73136491  2969.69737972
0.46500002 38731.07249284  3248.76251468
0.46600002 38751.85888084  2714.56784326
0.46700002 38769.26266137  3538.08307817
0.46800002 38783.94224451  3001.29551284
0.46900002 38794.38628530  3008.50479902
0.47000002 38800.74363953  4111.90900209
0.47100002 38804.39932837  3022.08676293
0.47200002 38804.12023154  3303.78295310
0.47300002 38801.40998181  3034.65841851
0.47400002 38793.18495881  3593.21892712
0.47500002 38783.03287559  3322.93041428
0.47600002 38769.58293521  2773.96379049
