# SAXS profile: number of points = 501, q_min = 0, q_max = 0.5, delta_q = 0.001
#    q    intensity    error
0.00000000 1700912.83420644 255.13692513
0.00100000 1700842.58930595 612.30334669
0.00200000 1700631.80189388 918.34120210
0.00300000 1700280.64498227 1122.18526566
0.00400000 1699788.98340279 1784.77850039
0.00500000 1699157.28199812 1835.08993719
0.00600000 1698385.25074352 1961.63504447
0.00700000 1697473.61112751 2240.66525981
0.00800000 1696421.75283295 2977.22030192
0.00900000 1695231.12370533 3305.70083254
0.01000000 1693900.74735511 4192.40453073
0.01100000 1692432.00169549 4874.20437710
0.01200000 1690824.34272113 3297.10761286
0.01300000 1689079.10722293 3547.06628161
0.01400000 1687195.55960371 4555.42821288
0.01500000 1685175.60032776 7684.40107967
0.01600000 1683017.99458015 5579.20490144
0.01700000 1680724.85721820 7260.73170889
0.01800000 1678295.77940280 5261.45750518
0.01900000 1675731.55234700 5529.91437227
0.02000000 1673032.83175152 6324.06439009
0.02100000 1670201.23351340 7165.16361663
0.02200000 1667234.94569112 8627.94123594
0.02300000 1664136.92071728 10783.60773710
0.02400000 1660906.96213215 6851.24153119
0.02500000 1657546.62316494 7757.31855069
0.02600000 1654055.92934162 8038.71218428
0.02700000 1650436.07900737 9011.38140411
0.02800000 1646686.77857434 10028.32294141
0.02900000 1642810.79956228 8131.91383120
0.03000000 1638808.32728744 12954.78042268
0.03100000 1634679.73118135 8631.10937778
0.03200000 1630426.12673860 9684.73163889
0.03300000 1626050.11841774 10780.71278211
0.03400000 1621549.93148328 10215.76503970
0.03500000 1616928.79043515 15716.54856879
0.03600000 1612186.46551554 10737.16235654
0.03700000 1607325.07663139 10994.10403261
0.03800000 1602345.39502305 10311.09309417
0.03900000 1597249.30588797 14375.24441871
0.04000000 1592035.47197455 10770.12046698
0.04100000 1586707.88470866 10995.88615087
0.04200000 1581266.88031625 11219.08903633
0.04300000 1575712.71717813 14559.58618255
0.04400000 1570048.90529492 11657.61366322
0.04500000 1564275.17566218 11872.84913495
0.04600000 1558391.84423199 13183.99561509
0.04700000 1552402.30228596 14530.48622518
0.04800000 1546306.64084759 18184.56694246
0.04900000 1540107.65513646 18481.29272190
0.05000000 1533804.90080516 12906.96884130
0.05100000 1527401.72388141 14296.48080152
0.05200000 1520896.55212474 15718.46659871
0.05300000 1514294.70869048 13492.36648342
0.05400000 1507594.51344897 14925.18637916
0.05500000 1500800.07168671 17649.40966637
0.05600000 1493909.82913707 14050.22259868
0.05700000 1486929.11738978 18110.79749519
0.05800000 1479856.04477675 15716.07192935
0.05900000 1472693.07830939 19881.35748575
0.06000000 1465442.75171840 16090.56216560
0.06100000 1458107.18894686 17628.51673817
0.06200000 1450686.13669869 15079.88309587
0.06300000 1443183.20330223 19396.38315927
0.06400000 1435596.43001244 15396.77243194
0.06500000 1427932.10470386 15550.18134763
0.06600000 1420188.27427592 14272.89282428
0.06700000 1412367.90641368 20168.61464746
0.06800000 1404473.99707978 17443.56786025
0.06900000 1396507.21905315 16129.65913524
0.07000000 1388467.14338708 14787.17576953
0.07100000 1380358.89882058 16398.66448607
0.07200000 1372181.19161260 16527.92322725
0.07300000 1363939.21776106 19681.64383449
0.07400000 1355631.63626974 16775.94228503
0.07500000 1347261.61507119 21502.29638440
0.07600000 1338828.94159027 23195.21250046
0.07700000 1330339.14239209 18677.96243497
0.07800000 1321790.57012411 21928.50658672
0.07900000 1313185.33643686 15758.22477636
0.08000000 1304527.65943244 20605.01534734
0.08100000 1295817.36676686 31877.10871808
0.08200000 1287055.26608412 16023.83881467
0.08300000 1278245.05714110 22548.24386620
0.08400000 1269386.73414922 21040.08610612
0.08500000 1260484.84869482 22764.35743610
0.08600000 1251538.46786254 17965.83554969
0.08700000 1242550.85437398 18041.83925271
0.08800000 1233520.95043398 27994.75928484
0.08900000 1224455.13926507 21489.18870344
0.09000000 1215351.73158958 19907.46229860
0.09100000 1206213.72996889 19974.90030673
0.09200000 1197042.09834146 16698.73805648
0.09300000 1187840.41530897 26797.68102865
0.09400000 1178606.79472620 16795.14761418
0.09500000 1169345.56019818 18522.43454414
0.09600000 1160058.12819516 21942.50052628
0.09700000 1150747.52119911 21990.78616396
0.09800000 1141414.25953010 23730.00357136
0.09900000 1132060.39436522 16980.90671396
0.10000000 1122685.52407428 17008.68648960
0.10100000 1113292.92115175 20440.05899368
0.10200000 1103884.68611743 18760.52112299
0.10300000 1094461.58308594 18780.96164923
0.10400000 1085026.60002632 18798.08672981
0.10500000 1075582.10318216 23942.45874331
0.10600001 1066124.64136060 17111.30129899
0.10700001 1056662.03345537 20541.51089701
0.10800001 1047191.41961217 25682.37077464
0.10900001 1037717.31807689 22259.03752039
0.11000001 1028239.85417346 17120.19437783
0.11100001 1018761.00312185 22249.74135555
0.11200001 1009282.95810495 22239.55102882
0.11300001 999804.79001379 22225.66152841
0.11400001 990331.35462273 23916.50334023
0.11500001 980862.76684075 22187.11683068
0.11600001 971399.77151327 17048.06679288
0.11700001 961946.13239591 18729.09207979
0.11800001 952499.15268499 22102.74387906
0.11900001 943064.08596591 18672.66978164
0.12000001 933640.50160854 20334.69108290
0.12100001 924232.05750294 16913.44744906
0.12200001 914837.21732056 16878.74745474
0.12300001 905459.46799403 23578.16565744
0.12400001 896098.53667618 20162.21802521
0.12500001 886756.80586896 16759.70442065
0.12600001 877436.93315477 18386.69180070
0.12700001 868138.65428482 16668.26294778
0.12800001 858862.20652599 18280.88292747
0.12900001 849610.93018385 26507.86227111
0.13000001 840385.34606535 18164.93011140
0.13100001 831185.47393624 19748.96779164
0.13200001 822014.83850222 18039.11648130
0.13300001 812874.53794715 26142.04637279
0.13400001 803763.32054634 26041.93281346
0.13500001 794684.82909260 21075.04266119
0.13600001 785638.02793089 17759.34845874
0.13700001 776626.34840023 19291.39940391
0.13800001 767648.22176185 17606.01279633
0.13900001 758708.81109692 22306.04009816
0.14000001 749805.31091017 36474.28106937
0.14100001 740940.75638353 18938.44662636
0.14200001 732114.07959004 23555.77162182
0.14300001 723331.22857787 20311.14185649
0.14400001 714585.17650778 15542.22832217
0.14500001 705885.43569543 15458.89177096
0.14600001 697226.65954454 26135.54256595
0.14700001 688614.87428926 25988.32658172
0.14800001 680046.14558367 16718.93527795
0.14900001 671522.91691734 18131.11961221
0.15000001 663048.01733699 24028.86128204
0.15100001 654620.15235250 17910.40821347
0.15200001 646242.27923893 16314.38710921
0.15300001 637913.68897807 20630.12967507
0.15400001 629633.26278124 24886.25588584
0.15500001 621405.79013354 17449.07541042
0.15600001 613228.22447452 17329.83044153
0.15700001 605106.48106797 17209.22913379
0.15800001 597033.35061780 15663.17069274
0.15900001 589017.19168307 18377.33724793
0.16000001 581052.75261828 16838.90956572
0.16100001 573147.17098406 20891.21536852
0.16200001 565294.60334111 15203.59907456
0.16300001 557499.82154355 20571.74438610
0.16400001 549761.24896872 13606.59155434
0.16500001 542080.88893469 21596.50363476
0.16600001 534457.41309719 16065.79059622
0.16700001 526892.72225309 19916.54584152
0.16800001 519385.63004691 19749.63951504
0.16900001 511940.51701210 16970.82894028
0.17000001 504554.07604236 16824.35646007
0.17100001 497227.96451829 15394.17850842
0.17200001 489962.44504679 20343.24167901
0.17300001 482758.28611559 17639.98860770
0.17400001 475616.62542271 13733.43070766
0.17500001 468535.98390661 13606.28561524
0.17600001 461515.62093746 12253.24031460
0.17700001 454560.19150816 15777.78499244
0.17800001 447666.63806518 14423.81975973
0.17900001 440835.83853830 11902.56820273
0.18000001 434069.23628011 14141.97638600
0.18100001 427367.09521490 11667.12225048
0.18200001 420725.77176757 12703.81527862
0.18300001 414151.16515635 12573.62996812
0.18400001 407638.98779515 13574.37893484
0.18500001 401192.37541683 14551.24814380
0.18600001 394809.64938245 13289.29342605
0.18700001 388491.31092408 14242.09213134
0.18800001 382236.94610489 15170.98510767
0.18900001 376049.66653033 12860.89920298
0.19000001 369923.22015955 11658.13083416
0.19100001 363866.36731661 16766.96299819
0.19200001 357871.28687859 16576.59879148
0.19300001 351943.44273695 14338.17653462
0.19400001 346079.42792706 13159.67086877
0.19500001 340280.87504283 11004.68401891
0.19600001 334546.34486820 9885.84495802
0.19700001 328877.43366012 11721.19228956
0.19800001 323273.63761521 12544.63410050
0.19900001 317735.60210325 11438.48221630
0.20000001 312259.98918591 10356.10303079
0.20100001 306851.29253220 11157.11352378
0.20200001 301505.73527696 10098.93508041
0.20300001 296225.58945507 11783.85450548
0.20400001 291009.72113440 8948.54934784
0.20500001 285857.20329624 10599.58559923
0.20600001 280769.44231650 13948.62655361
0.20700001 275745.35707365 13765.20887579
0.20800001 270784.57807332 9338.00661627
0.20900001 265889.67817708 8375.52525850
0.21000001 261055.79086315 9088.65778854
0.21100001 256285.25804323 9779.84590926
0.21200001 251577.53754087 9645.48324530
0.21300001 246932.20924357 12682.43886632
0.21400001 242350.30540554 8597.37749072
0.21500001 237831.03351413 9246.87102020
0.21600001 233371.86745887 9875.13103840
0.21700001 228975.13932074 8984.98489175
0.21800001 224639.97356288 8117.36582849
0.21900001 220364.51052792 10180.84086776
0.22000001 216149.46706529 9314.96172361
0.22100001 211997.40052352 7765.46514836
0.22200001 207903.83846253 9040.69884303
0.22300001 203870.03897059 6850.03363332
0.22400001 199893.87178226 6746.41849166
0.22500001 195979.81672473 8636.83093147
0.22600001 192122.54993538 6541.77313465
0.22700001 188324.62581781 6440.70250754
0.22800001 184583.84105208 6974.50076398
0.22900001 180900.07133246 8113.36858295
0.23000001 177273.96104766 9213.81456119
0.23100001 173705.97611404 7253.96190558
0.23200001 170192.23228458 5948.21879966
0.23300001 166735.78589845 5852.42636182
0.23400001 163334.60982211 6333.29979539
0.23500001 159987.32323338 7362.61696342
0.23600001 156695.91567446 6684.64807884
0.23700001 153458.13634308 7121.99244454
0.23800001 150274.49849764 6464.80923115
0.23900001 147144.13131707 5826.90787577
0.24000001 144066.58770500 7291.21034863
0.24100001 141042.49234058 5119.84271414
0.24200001 138069.89602576 6039.17753783
0.24300001 135148.90483464 5441.09516602
0.24400001 132278.59574812 5347.36248607
0.24500001 129459.18668301 5254.74863604
0.24600001 126690.16826501 5163.25805189
0.24700001 123971.49234161 5534.08767992
0.24800001 121301.17025536 4530.59892337
0.24900001 118679.55133341 4895.53172410
0.25000001 116106.70943291 4808.55959865
0.25100001 113581.03934246 5581.37253734
0.25200001 111103.94988249 5481.31362677
0.25300001 108673.73647612 4554.51651119
0.25400001 106289.18291363 4065.56143879
0.25500001 103950.60751261 3991.70351734
0.25600001 101658.00312819 5094.59106781
0.25700001 99409.98072406  5386.03301046
0.25800001 97206.46881961  6420.00153695
0.25900001 95047.12222146  4448.20553043
0.26000001 92931.62832026  4729.75544715
0.26100001 90857.19623577  4998.96317342
0.26200001 88827.94322280  3854.68877854
0.26300001 86839.23259985  4470.48390577
0.26400001 84891.69803642  3374.44515662
0.26500001 82986.14247288  5297.83558616
0.26600001 81120.42147002  3248.87303361
0.26700001 79295.65457123  4462.75965045
0.26800001 77510.37707414  3440.29824923
0.26900001 75763.44529217  3375.26164749
0.27000001 74055.69675301  3612.43705856
0.27100001 72386.18490657  2953.35648395
0.27200001 70754.47633354  4056.35432016
0.27300001 69159.40186637  3410.94186147
0.27400001 67599.81403646  2788.49246097
0.27500001 66078.91703074  3556.36748290
0.27600001 64591.56307574  2683.77957281
0.27700001 63140.97325936  3686.17019334
0.27800001 61724.07037842  2841.46771435
0.27900001 60342.00866649  3294.67382912
0.28000001 58993.55440429  4227.18334091
0.28100001 57678.07389938  3171.71743384
0.28200001 56396.22125390  3830.43152886
0.28300001 55146.39591342  2584.16023481
0.28400001 53928.74316782  2535.99926750
0.28500001 52742.69169935  2715.19389720
0.28600001 51586.88911360  3553.30509033
0.28700001 50461.99273656  2179.95818940
0.28800001 49366.80529836  2568.06133318
0.28900001 48302.71750737  2101.16831103
0.29000001 47266.28915525  2682.12570507
0.29100001 46259.62421746  2228.78880030
0.29200001 45280.96027410  2985.14744737
0.29300001 44329.99630968  2345.94351576
0.29400001 43406.30116846  2689.02048468
0.29500001 42510.48865104  2076.21236400
0.29600001 41640.47874433  2226.10009905
0.29700001 40796.14915673  2005.94674899
0.29800001 39978.06582177  2510.22287178
0.29900001 39185.31366780  2645.00879779
0.30000001 38417.07395755  2948.70265120
0.30100001 37674.37984612  1877.31443660
0.30200001 36954.34342793  2351.40498364
0.30300001 36258.31939509  1984.05533123
0.30400001 35586.29063483  1628.07287362
0.30500001 34935.79756667  1763.90850265
0.30600001 34308.10213212  1737.87699578
0.30700001 33702.73207987  2024.18618455
0.30800001 33118.87708618  2456.09604099
0.30900001 32556.04950018  1968.01328546
0.31000001 32014.79333321  1642.83919767
0.31100001 31492.48088639  1621.23299279
0.31200001 30991.23442266  1455.03852503
0.31300001 30509.21136049  1580.68231543
0.31400001 30047.92402986  1703.71737316
0.31500001 29604.25383757  1683.89003801
0.31600002 29179.60913667  1526.23952816
0.31700002 28772.52001782  2058.67390475
0.31800002 28383.87537007  1358.16850077
0.31900002 28012.94214003  1882.46980094
0.32000002 27658.89182814  1864.48598642
0.32100002 27321.90309629  2111.43677126
0.32200002 27001.50108729  1962.33418444
0.32300002 26696.50714699  1686.68540141
0.32400002 26407.71780121  1544.85156452
0.32500002 26133.82768420  1533.53308112
0.32600002 25875.74116455  1396.12568064
0.32700002 25632.03512042  2269.97313775
0.32800002 25403.79577050  2131.25154709
0.32900002 25188.20116650  1246.81601678
0.33000002 24988.40408822  1985.07891477
0.33100002 24799.38688446  1605.51238293
0.33200002 24626.32178786  1476.10179787
0.33300002 24464.76720028  1470.82187373
0.33400002 24316.54924683  1710.66932052
0.33500002 24180.07638832  1218.67590768
0.33600002 24055.80887743  1580.82755524
0.33700002 23942.36769906  1456.65371979
0.33800002 23841.89462714  1576.06851897
0.33900002 23751.40774787  2543.77589026
0.34000002 23672.27223905  1210.83678237
0.34100002 23603.66894931  1453.04192933
0.34200002 23546.48746710  1574.90688882
0.34300002 23497.65977579  1576.22309241
0.34400002 23459.76251628  1335.44704449
0.34500002 23430.91525150  1824.09683872
0.34600002 23412.57559265  1340.48707904
0.34700002 23401.04506758  1221.53461038
0.34800002 23399.97088063  1714.98394707
0.34900002 23406.98291930  1597.52665990
0.35000002 23422.50950076  1973.11229379
0.35100002 23445.88343273  1856.91405582
0.35200002 23476.41777220  1491.69165590
0.35300002 23514.96126854  1623.23785325
0.35400002 23561.31657754  1254.64016718
0.35500002 23614.28172579  1513.20324466
0.35600002 23673.92995857  1394.51291026
0.35700002 23740.31616488  1274.85503844
0.35800002 23813.75937896  1538.84520396
0.35900002 23892.83446806  1548.25574686
0.36000002 23978.61620912  1558.13055507
0.36100002 24069.44513764  1568.36511946
0.36200002 24167.01591069  1842.25171013
0.36300002 24268.23274302  1325.04557053
0.36400002 24375.49554872  2001.83766676
0.36500002 24487.14588448  1747.64768456
0.36600002 24604.34603512  1489.91624473
0.36700002 24725.69226124  2047.28741621
0.36800002 24852.73538744  1788.27865951
0.36900002 24982.94156408  1941.17465148
0.37000002 25116.47415860  1817.05140908
0.37100002 25254.24639486  1691.02441870
0.37200002 25396.42582775  1563.02310161
0.37300002 25541.25106058  1719.43710285
0.37400002 25690.50193950  1878.61804332
0.37500002 25841.68344550  1748.96521844
0.37600002 25997.15189178  2058.19461277
0.37700002 26154.05896134  1482.93521336
0.37800002 26314.70232890  2094.38725757
0.37900002 26477.62066115  1509.22444918
0.38000002 26643.01519657  1674.91322968
0.38100002 26810.09375881  2150.70582322
0.38200002 26979.55718306  1549.97563359
0.38300002 27150.68763544  1876.65561827
0.38400002 27324.27901508  2051.37034424
0.38500002 27498.42780724  1751.37495001
0.38600002 27675.20739215  1767.20045175
0.38700002 27852.16709622  1783.09582197
0.38800002 28030.47995244  1635.57858271
0.38900002 28210.14700925  1980.35241387
0.39000002 28391.30328534  2164.69502155
0.39100002 28572.35642892  1680.05463762
0.39200002 28754.83906437  2373.13698041
0.39300002 28937.30710046  1881.21442373
0.39400002 29121.22907641  1897.97619498
0.39500002 29304.40103301  2611.02225575
0.39600002 29487.99268460  2634.01507135
0.39700002 29671.32895444  2479.92979151
0.39800002 29855.92166225  1786.87699614
0.39900002 30039.12845831  2523.28691005
0.40000002 30222.17088617  1999.65003142
0.40100002 30405.03940385  2750.13594438
0.40200002 30588.30351879  2588.68824945
0.40300002 30770.06863191  2424.06612167
0.40400002 30951.23237738  3196.48867522
0.40500002 31131.93249535  2275.12173456
0.40600002 31311.82365643  2485.06300224
0.40700002 31490.82566786  1927.23862219
0.40800002 31668.77791618  2525.74350238
0.40900002 31845.20035678  2154.32790621
0.41000002 32021.12590058  3158.56400849
0.41100002 32195.59713542  2188.65679697
0.41200002 32367.90143507  2205.71074781
0.41300002 32539.44410225  2222.76953195
0.41400002 32709.28857802  2646.99930360
0.41500002 32878.10648108  2872.23151828
0.41600002 33043.96815658  2480.28036736
0.41700002 33208.99164058  2290.42426198
0.41800002 33373.04840858  2936.49466861
0.41900002 33533.21756535  2323.85208739
0.42000002 33692.43871705  2765.98088754
0.42100002 33850.00678121  2356.97608386
0.42200002 34005.36384055  3020.69661309
0.42300002 34158.24478401  2824.20381257
0.42400002 34308.82309837  2405.90633378
0.42500002 34457.75978171  2642.22114527
0.42600002 34602.87232057  3324.47111573
0.42700002 34747.09954992  2453.84028649
0.42800002 34888.36361433  2918.58619646
0.42900002 35027.75000648  3388.93497372
0.43000002 35164.56763265  2500.72834570
0.43100002 35297.55422343  3430.92243310
0.43200002 35428.81014650  2991.43172648
0.43300002 35557.01039155  2777.71378342
0.43400002 35683.07304803  3725.31300275
0.43500002 35805.74591488  2341.69589380
0.43600002 35926.75838725  3532.49868583
0.43700002 36044.02622440  3788.94821626
0.43800002 36157.60702897  2619.07638926
0.43900002 36269.57323888  2393.79194721
0.44000002 36377.83162936  2647.03304395
0.44100002 36483.81922062  2660.76506185
0.44200002 36586.58001837  2431.17835743
0.44300002 36686.52892928  2931.98753098
0.44400002 36782.73759700  2946.29742115
0.44500002 36875.50002882  2960.36528261
0.44600002 36965.82420215  2726.41449324
0.44700002 37053.32414451  3983.97360082
0.44800002 37136.42967126  4752.16344810
0.44900002 37217.91574633  3265.87226152
0.45000002 37295.77663326  2775.36534969
0.45100002 37369.42289366  3293.74108994
0.45200002 37440.65598366  3307.32050306
0.45300002 37508.04656603  3065.15771064
0.45400002 37572.79608215  3333.64649038
0.45500002 37634.19147507  3089.01458267
0.45600002 37692.05297961  3617.30649589
0.45700002 37746.60226469  2593.19169849
0.45800002 37797.19571777  3122.80445820
0.45900002 37844.97098599  4178.08499487
0.46000002 37889.95844061  3406.11797545
0.46100002 37930.32721835  3154.28616097
0.46200002 37968.39631241  2636.90524887
0.46300002 38002.77124108  2909.49230411
0.46400002 38033.18163023  4244.50327110
0.46500002 38061.29884335  3458.63038982
0.46600002 38085.07780521  2667.85982670
0.46700002 38105.61389650  2942.51564455
0.46800002 38123.50735199  3486.58553013
0.46900002 38137.30436703  2957.54809384
0.47000002 38147.26985348  3234.12569146
0.47100002 38154.60624493  3511.75012523
0.47200002 38158.16323145  2978.05399055
0.47300002 38159.30435641  2984.43933517
0.47400002 38155.28559343  2990.42065012
0.47500002 38149.34533436  3268.63606317
0.47600002 38140.22552390  3001.82659214
0.47700002 38126.57214179  3553.77795778
