# SAXS profile: number of points = 501, q_min = 0, q_max = 0.5, delta_q = 0.001
#    q    intensity    error
0.00000000 1682732.95097188 277.65093691
0.00100000 1682663.31039229 706.71860715
0.00200000 1682454.33288349 984.23581590
0.00300000 1682106.19720459 1312.04288056
0.00400000 1681618.76834208 1513.45694902
0.00500000 1680992.49166420 1664.18263262
0.00600000 1680227.11994033 2117.08625732
0.00700000 1679323.32055878 2418.22568211
0.00800000 1678280.50105933 4757.92542138
0.00900000 1677100.10028485 3018.78030956
0.01000000 1675781.18010795 3318.04687989
0.01100000 1674325.08940650 3315.16382136
0.01200000 1672731.26411161 3914.19132963
0.01300000 1671001.06374185 4561.83310521
0.01400000 1669133.74824005 4131.10621003
0.01500000 1667131.16809519 4001.11498159
0.01600000 1664992.17341822 4245.73023202
0.01700000 1662718.81642413 5387.20920688
0.01800000 1660310.71710239 5678.26290800
0.01900000 1657768.59332348 4973.30600438
0.02000000 1655093.18925972 5734.89816021
0.02100000 1652286.04235944 8724.07069919
0.02200000 1649345.34379709 9673.41088086
0.02300000 1646274.11314626 10667.85673877
0.02400000 1643072.10721819 8626.12895623
0.02500000 1639740.76059486 7673.98711006
0.02600000 1636280.33157986 6626.93564600
0.02700000 1632691.77013395 12343.15034754
0.02800000 1628974.96193001 12046.27039591
0.02900000 1625132.59429820 8044.40671113
0.03000000 1621164.89051314 10553.78392235
0.03100000 1617072.10807063 8538.14112348
0.03200000 1612855.44182977 7983.63480477
0.03300000 1608517.45380577 11484.81514963
0.03400000 1604056.32530717 8421.29609642
0.03500000 1599475.41225850 9500.88438755
0.03600000 1594774.45343795 9736.09848818
0.03700000 1589955.35108891 12687.84428847
0.03800000 1585019.17253919 11126.83510617
0.03900000 1579967.48868539 16115.66913091
0.04000000 1574799.22185851 14527.52349484
0.04100000 1569518.21696534 9887.96522535
0.04200000 1564124.75601253 14124.04720205
0.04300000 1558619.20516891 12344.26467793
0.04400000 1553005.03324751 12579.34135351
0.04500000 1547281.98609813 12811.49544018
0.04600000 1541450.21790315 10867.22454140
0.04700000 1535513.43098346 12161.26693898
0.04800000 1529471.30359640 15738.26044628
0.04900000 1523326.89824726 14852.43794925
0.05000000 1517079.63514446 22050.75352364
0.05100000 1510732.92352466 16497.20429340
0.05200000 1504285.11139857 16742.69407010
0.05300000 1497741.68644713 14558.04987093
0.05400000 1491100.73234145 14761.89793858
0.05500000 1484366.51626659 16209.28311378
0.05600000 1477537.35199383 12632.94494905
0.05700000 1470618.50501993 16632.69606817
0.05800000 1463608.29611934 18134.10763564
0.05900000 1456509.08738069 14419.44063854
0.06000000 1449323.31703273 17239.70166152
0.06100000 1442053.10867485 17434.42289861
0.06200000 1434698.31960934 17625.26968027
0.06300000 1427262.43580366 13701.72002434
0.06400000 1419743.49715732 17995.24966805
0.06500000 1412147.93644730 15378.29174727
0.06600000 1404473.60788628 19760.94458755
0.06700000 1396723.46694486 21369.87004434
0.06800000 1388900.50636099 18687.65718784
0.06900000 1381005.40460403 20300.78039814
0.07000000 1373037.86458023 16085.13933680
0.07100000 1365002.87619924 16216.23492878
0.07200000 1356899.09608987 22287.06869735
0.07300000 1348731.68367149 20959.29134631
0.07400000 1340499.53825400 18096.74461452
0.07500000 1332205.43432050 25818.14252729
0.07600000 1323849.51740522 22935.69396428
0.07700000 1315437.16417196 18468.73865095
0.07800000 1306966.56935061 18585.06548773
0.07900000 1298439.88276097 17139.40725635
0.08000000 1289861.34406012 21940.54249172
0.08100000 1281230.67881919 17335.05189775
0.08200000 1272549.20933152 25349.18143940
0.08300000 1263819.96001050 20701.37191653
0.08400000 1255043.19939917 17601.98169779
0.08500000 1246223.38312557 17683.91063673
0.08600000 1237359.58764356 16147.54337690
0.08700000 1228455.13994293 17837.16946956
0.08800000 1219508.96624534 26048.71274235
0.08900000 1210527.38192392 16342.12042356
0.09000000 1201508.57733227 18040.65213611
0.09100000 1192455.75568127 19747.06824182
0.09200000 1183369.73220784 21460.41110194
0.09300000 1174253.97172823 19868.37813530
0.09400000 1165106.70219364 19923.32554386
0.09500000 1155932.46218126 23303.59953291
0.09600000 1146732.42943903 16684.95763266
0.09700000 1137509.34573759 23409.94343585
0.09800000 1128264.05289247 18430.19417054
0.09900000 1118998.71108445 20141.97774665
0.10000000 1109712.72863383 18493.36349237
0.10100000 1100409.17605077 23570.76565958
0.10200000 1091090.21803841 16857.34466160
0.10300000 1081756.82438934 21938.02943060
0.10400000 1072411.91368090 20268.58612211
0.10500000 1063057.71642426 16902.61848640
0.10600001 1053690.72914876 18602.91069845
0.10700001 1044319.14667952 16917.97097233
0.10800001 1034939.66943670 18613.39083080
0.10900001 1025556.84783706 18613.85766432
0.11000001 1016170.74224387 23686.94111664
0.11100001 1006783.52452331 28753.73881392
0.11200001 997397.46344834 18596.47658146
0.11300001 988011.60137209 27031.99868623
0.11400001 978630.37038515 18569.51215239
0.11500001 969254.25359491 21924.53224870
0.11600001 959883.84162123 21899.75087788
0.11700001 950522.84369081 23553.95717593
0.11800001 941168.66403230 25199.79216633
0.11900001 931826.41288727 23482.02671080
0.12000001 922495.82931774 23440.62012713
0.12100001 913180.26378050 23395.67946018
0.12200001 903878.52965143 16676.55965772
0.12300001 894593.86201746 16639.44661748
0.12400001 885326.09643642 21579.82461742
0.12500001 876077.65766983 21525.22906323
0.12600001 866850.95292540 18164.86257454
0.12700001 857645.88212141 19760.16205530
0.12800001 848462.50378133 18059.52524412
0.12900001 839304.58273652 26186.30421559
0.13000001 830171.92905867 17944.16709240
0.13100001 821065.16965224 17882.80023798
0.13200001 811987.57061291 21058.89863657
0.13300001 802940.31768839 22594.74160494
0.13400001 793921.81253208 20899.99270025
0.13500001 784936.14163433 20816.50745760
0.13600001 775982.06401030 17541.07538403
0.13700001 767062.79315706 17466.02062377
0.13800001 758177.08139895 17388.79218187
0.13900001 749330.00058287 23603.89613148
0.14000001 740518.56824537 18794.36214842
0.14100001 731745.85758300 23379.28125241
0.14200001 723011.02787394 17059.44600730
0.14300001 714319.49914676 15429.30190933
0.14400001 705664.78200251 16883.03070578
0.14500001 697056.28388903 21371.74667219
0.14600001 688488.35521113 16699.28584342
0.14700001 679967.33956443 15095.27565047
0.14800001 671489.10076871 16508.56032125
0.14900001 663056.11255421 16410.63955998
0.15000001 654671.04436885 16311.12984006
0.15100001 646333.00647047 20630.95054001
0.15200001 638044.42166153 17571.74420172
0.15300001 629804.88084237 26187.28818118
0.15400001 621613.31687486 24569.26750893
0.15500001 613474.29922966 14355.29927944
0.15600001 605384.70579101 14256.81049423
0.15700001 597351.03051552 19820.10812795
0.15800001 589365.29416063 18273.27180793
0.15900001 581436.44037999 16745.37027334
0.16000001 573558.86393217 26317.74971379
0.16100001 565739.57198717 16496.96669787
0.16200001 557973.23401730 13642.44621573
0.16300001 550264.02804406 24365.69231204
0.16400001 542610.86030431 18801.46719715
0.16500001 535015.33257081 17318.44713294
0.16600001 527476.61274828 19819.93465978
0.16700001 519995.98444551 15724.67931207
0.16800001 512572.48488985 25987.42621095
0.16900001 505210.61160694 14171.15832471
0.17000001 497906.95505072 15325.57680013
0.17100001 490663.25620296 13925.02386860
0.17200001 483479.84080190 17564.82344579
0.17300001 476357.22130640 17406.09368853
0.17400001 469296.46592519 12319.03281232
0.17500001 462296.38607566 15866.01271943
0.17600001 455356.13016834 13298.67640965
0.17700001 448480.39337124 15566.75518914
0.17800001 441665.83784942 16602.21962892
0.17900001 434913.74197918 11742.67158809
0.18000001 428225.29856485 12788.94914573
0.18100001 421600.75737886 13811.64146414
0.18200001 415036.63760692 12532.03186453
0.18300001 408538.70728021 14658.36950967
0.18400001 402102.69431768 16737.52544167
0.18500001 395731.51432394 12145.00074836
0.18600001 389423.88980972 13108.00875026
0.18700001 383179.96461559 10805.67551267
0.18800001 376999.74141766 16031.91476123
0.18900001 370885.90783948 11627.27376013
0.19000001 364832.31355216 12542.93553256
0.19100001 358847.90977241 14468.74840567
0.19200001 352924.42267237 12260.59502297
0.19300001 347067.84832686 13129.57732261
0.19400001 341274.50251423 11978.73560429
0.19500001 335546.11807881 13811.07887277
0.19600001 329881.08262384 10722.78509741
0.19700001 324281.31015127 9631.15536664
0.19800001 318745.82768788 11417.47608736
0.19900001 313275.48782072 11277.91809454
0.20000001 307867.22361430 11138.63667679
0.20100001 302525.08158669 10999.81248637
0.20200001 297245.59302186 10861.35448236
0.20300001 292030.90709219 10723.37541526
0.20400001 286879.88868917 10585.86839298
0.20500001 281791.72119592 8707.36459652
0.20600001 276767.56056316 8593.63316169
0.20700001 271806.57897515 8480.36566488
0.20800001 266908.41495018 15898.40048803
0.20900001 262075.34235483 9906.44840930
0.21000001 257302.73964044 12215.44814188
0.21100001 252592.87955703 10442.19013453
0.21200001 247945.15455240 12674.95689992
0.21300001 243359.40225126 13280.12320868
0.21400001 238836.24849184 7702.46937801
0.21500001 234375.28498808 9871.88747042
0.21600001 229973.79388571 7485.64734489
0.21700001 225634.25382838 10329.53662864
0.21800001 221355.42670096 7271.52611093
0.21900001 217135.76788465 8598.57681479
0.22000001 212975.98818407 11296.24694740
0.22100001 208878.38665765 7651.21566505
0.22200001 204839.00786609 8907.42467824
0.22300001 200858.47545400 7423.72960381
0.22400001 196935.08189394 6646.55932821
0.22500001 193073.28802736 6545.18477363
0.22600001 189267.52991898 7089.01566834
0.22700001 185520.55491375 6979.28360590
0.22800001 181830.15519366 6870.45273890
0.22900001 178196.24088355 6147.77060122
0.23000001 174619.09468120 9680.88306695
0.23100001 171099.67598986 6549.69590664
0.23200001 167633.86305359 7616.44492805
0.23300001 164224.64749207 6340.71393955
0.23400001 160870.28105083 9073.08428038
0.23500001 157569.25192662 7251.33731662
0.23600001 154323.19517485 7680.66578713
0.23700001 151130.56253140 6474.43360507
0.23800001 147991.11035292 7958.22233564
0.23900001 144904.64812301 6259.88109500
0.24000001 141870.09754370 6154.32512255
0.24100001 138888.74516796 8570.82486973
0.24200001 135958.18859998 6442.37907155
0.24300001 133078.54781263 4870.67508034
0.24400001 130249.00963472 6222.64672965
0.24500001 127469.90164984 5174.00355272
0.24600001 124740.56252665 6932.45709036
0.24700001 122061.07710077 4540.67228295
0.24800001 119429.22777833 4906.75005539
0.24900001 116845.62650249 4381.71120113
0.25000001 114310.23542008 6025.29279404
0.25100001 111821.41534114 4226.84969986
0.25200001 109380.60902407 4150.99430885
0.25300001 106986.14887482 4891.40695797
0.25400001 104636.73397491 5203.06184307
0.25500001 102332.87971767 5108.45759720
0.25600001 100074.26834417 4243.64954991
0.25700001 97859.80169126  3787.17450464
0.25800001 95689.25345012  4089.28043967
0.25900001 93562.42011838  3648.93455727
0.26000001 91478.93618166  5730.24083355
0.26100001 89435.92351452  4217.79835251
0.26200001 87437.53712429  3794.35210305
0.26300001 85479.14349844  4400.46651552
0.26400001 83561.56203994  3321.57224826
0.26500001 81685.44757869  4237.02436640
0.26600001 79848.42917359  3517.72271370
0.26700001 78052.03194421  4706.53774895
0.26800001 76294.56897832  4002.03180514
0.26900001 74575.03199758  4530.43340824
0.27000001 72894.18040773  4741.03771808
0.27100001 71250.85101970  3779.14531692
0.27200001 69645.05499245  4277.94770536
0.27300001 68075.37312580  4476.63674861
0.27400001 66540.77528995  4391.69137697
0.27500001 65044.30433152  3500.68462479
0.27600001 63580.82503768  2641.78340534
0.27700001 62153.85513792  2850.99747010
0.27800001 60759.98606299  3559.92775191
0.27900001 59400.65714319  2744.31048990
0.28000001 58074.19518804  2692.61018733
0.28100001 56780.50247899  2401.81536854
0.28200001 55519.84624674  3299.54461861
0.28300001 54290.81152152  3469.18302042
0.28400001 53093.64111325  2723.70391802
0.28500001 51927.49227251  3341.53428590
0.28600001 50791.28698606  2405.22150907
0.28700001 49685.57176419  2790.34184235
0.28800001 48608.98804263  2739.35965080
0.28900001 47563.12872726  2275.89581733
0.29000001 46544.59135628  3047.50726330
0.29100001 45555.56066386  1995.33365153
0.29200001 44593.90482961  2351.88265204
0.29300001 43659.66139515  2117.93027453
0.29400001 42752.27391328  2837.68231532
0.29500001 41872.60146613  2416.88667103
0.29600001 41017.95896562  2375.55520595
0.29700001 40188.89969328  1796.44390133
0.29800001 39385.60260437  2119.73323251
0.29900001 38607.37717381  1737.33205507
0.30000001 37853.25900935  2050.88967022
0.30100001 37124.25257711  2186.24733776
0.30200001 36417.57456893  1986.21461102
0.30300001 35734.66081116  1955.40073216
0.30400001 35075.34537447  2246.57597759
0.30500001 34437.27618253  1580.67105161
0.30600001 33821.67188877  1713.23687063
0.30700001 33228.03251193  1995.67572715
0.30800001 32655.44672202  1664.93802995
0.30900001 32103.84735346  1492.82897261
0.31000001 31573.40023188  2062.05886677
0.31100001 31061.50592557  1889.78210998
0.31200001 30570.51369685  2152.92852903
0.31300001 30098.27776485  1559.39184483
0.31400001 29646.43065561  1540.87330628
0.31500001 29212.33262616  1523.13109524
0.31600002 28796.53763450  1780.05805816
0.31700002 28398.24310907  1490.05588648
0.31800002 28018.05397215  1474.73034065
0.31900002 27655.23232605  1592.94145740
0.32000002 27309.03274931  1446.42298805
0.32100002 26979.75968357  1563.74694530
0.32200002 26666.78452988  1679.60750314
0.32300002 26368.97595829  1409.68552148
0.32400002 26086.98916527  1780.43709484
0.32500002 25819.87657343  1767.62883392
0.32600002 25568.19527383  1504.94404508
0.32700002 25330.68834601  1370.89691820
0.32800002 25108.39033530  1858.64868258
0.32900002 24898.55107450  1971.96533848
0.33000002 24704.14466835  1594.52909313
0.33100002 24520.53304312  1831.68390506
0.33200002 24352.47368020  1702.96856510
0.33300002 24195.74081878  1454.64800691
0.33400002 24052.20131089  1692.07244235
0.33500002 23920.22908288  1205.57960287
0.33600002 23800.19285332  1323.40978628
0.33700002 23690.90348165  1441.35463608
0.33800002 23594.28164416  1319.74620627
0.33900002 23507.38721864  2277.86592936
0.34000002 23431.84220630  1318.39266417
0.34100002 23366.63043685  1558.32065763
0.34200002 23312.48454129  1679.19834103
0.34300002 23266.77613985  1680.79198794
0.34400002 23231.60678629  1442.68284975
0.34500002 23205.36832439  1324.79454038
0.34600002 23189.54199368  1569.12043332
0.34700002 23180.36106836  1573.01937660
0.34800002 23181.55101755  1456.26510389
0.34900002 23190.60422053  1826.26016886
0.35000002 23207.93812299  1588.46740006
0.35100002 23233.16654317  1349.38237674
0.35200002 23265.31896766  1355.08856745
0.35300002 23305.39523173  1361.26819996
0.35400002 23353.07122975  1243.55110188
0.35500002 23407.31986416  1499.94112794
0.35600002 23468.00468667  1508.05405259
0.35700002 23535.42033814  2148.54862443
0.35800002 23609.72263165  1398.52198633
0.35900002 23689.60147259  1407.16239412
0.36000002 23776.03975078  1416.21987484
0.36100002 23867.40739181  1425.60031104
0.36200002 23965.39450235  1696.39053020
0.36300002 24066.95627380  1839.67822471
0.36400002 24174.39814288  2250.03221373
0.36500002 24286.30319366  1333.31810849
0.36600002 24403.51935212  1880.77932556
0.36700002 24524.79455940  1759.89934095
0.36800002 24651.76231241  1364.47510863
0.36900002 24781.85836253  1512.93252470
0.37000002 24915.05226796  1386.52272439
0.37100002 25052.54694395  1537.72540426
0.37200002 25194.16297923  1691.53618255
0.37300002 25338.51896991  1990.08737417
0.37400002 25487.20912363  2007.11781356
0.37500002 25637.82217599  1879.76521099
0.37600002 25792.56189865  1750.28333336
0.37700002 25948.78500667  2648.33312324
0.37800002 26108.58973451  1781.12807606
0.37900002 26270.55736347  1647.16402472
0.38000002 26435.10987860  1812.91992136
0.38100002 26601.24870747  1676.67678546
0.38200002 26769.63599885  1999.29035929
0.38300002 26939.74675924  2327.59423027
0.38400002 27112.16231035  1722.30019236
0.38500002 27285.07813200  1737.78670855
0.38600002 27460.70405508  2231.73152428
0.38700002 27636.54398990  1930.13632370
0.38800002 27813.60508507  1785.21632696
0.38900002 27991.86437032  2128.78138622
0.39000002 28171.74730763  1817.50036366
0.39100002 28351.44544286  2000.47808522
0.39200002 28532.47544545  2522.98426079
0.39300002 28713.59704919  2884.85523221
0.39400002 28896.12033909  2054.51425345
0.39500002 29077.83517534  2072.66818950
0.39600002 29260.00210651  3136.37977439
0.39700002 29441.85270127  1933.44655850
0.39800002 29624.83446416  1773.04642668
0.39900002 29806.60755208  1967.23619164
0.40000002 29988.21480236  2344.92856757
0.40100002 30169.40897432  2364.98008155
0.40200002 30351.19986714  2385.14915457
0.40300002 30531.44715915  2220.24694261
0.40400002 30711.08521720  2052.26836688
0.40500002 30890.16149176  2257.45310878
0.40600002 31068.52744373  2086.40705934
0.40700002 31245.95883877  2103.47804869
0.40800002 31422.49283252  2313.32403194
0.40900002 31597.20444510  2720.51943163
0.41000002 31771.67207989  2154.59604419
0.41100002 31944.56111992  2369.00876490
0.41200002 32115.39151895  3183.27775819
0.41300002 32285.41713058  2405.90939857
0.41400002 32453.68544416  3232.38722340
0.41500002 32621.07687696  2646.22188165
0.41600002 32785.43591647  2255.80202512
0.41700002 32948.98935189  3305.44276841
0.41800002 33111.60881961  2081.06471292
0.41900002 33270.32723800  3353.64914450
0.42000002 33428.05486807  2533.17811794
0.42100002 33584.28534078  2551.06243537
0.42200002 33738.32687782  2782.90602439
0.42300002 33889.73423524  2586.46463939
0.42400002 34039.05443903  2603.98778798
0.42500002 34186.63668091  2839.88404365
0.42600002 34330.53781287  2638.64526133
0.42700002 34473.45316392  3319.79369700
0.42800002 34613.48835231  2672.85369722
0.42900002 34751.69445038  2465.63283809
0.43000002 34887.32018276  2932.10496370
0.43100002 35019.09699096  2950.00887031
0.43200002 35149.27183561  2967.82890808
0.43300002 35276.42292496  2296.49524124
0.43400002 35401.38295250  3002.92245125
0.43500002 35523.09470843  3020.17365523
0.43600002 35643.08596411  4205.52791220
0.43700002 35759.29259143  2819.26276151
0.43800002 35872.04417278  3070.82648694
0.43900002 35983.07532367  3324.83631747
0.44000002 36090.46164255  3819.81464127
0.44100002 36195.65797199  3599.65835590
0.44200002 36297.62531769  2894.37278000
0.44300002 36396.83163388  2424.02910169
0.44400002 36492.42382414  3410.21716798
0.44500002 36584.42774427  2692.24816529
0.44600002 36674.11304724  2950.79927562
0.44700002 36760.93532896  3458.46895965
0.44800002 36843.56650536  2977.69718608
0.44900002 36924.55780838  2741.64854720
0.45000002 37001.98435044  3504.45810391
0.45100002 37075.11085159  3016.43116184
0.45200002 37145.96036042  3281.28856395
0.45300002 37212.99721422  3041.04627647
0.45400002 37277.48058667  4070.70107299
0.45500002 37338.62164690  3320.15039420
0.45600002 37396.24442656  4357.97155079
0.45700002 37450.64103344  3087.43099312
0.45800002 37501.11089812  3098.34192925
0.45900002 37548.72018688  3627.20654196
0.46000002 37593.70180813  3639.44644453
0.46100002 37634.20884714  4172.88127474
0.46200002 37672.24320844  3924.50612224
0.46300002 37706.64122456  2886.82058897
0.46400002 37737.22375763  2895.38863003
0.46500002 37765.45665094  2903.78609952
0.46600002 37789.55233854  3176.58992013
0.46700002 37810.33446324  3715.99984717
0.46800002 37828.52876688  2927.36083737
0.46900002 37842.65176757  2667.90707606
0.47000002 37853.11101962  4011.48363043
0.47100002 37860.84087465  3216.65719317
0.47200002 37864.94717130  3761.12538079
0.47300002 37866.47685925  2692.30663230
0.47400002 37863.14653096  3507.07411366
0.47500002 37857.74511723  3243.65175539
0.47600002 37849.31953017  4062.17841111
0.47700002 37836.44548836  2984.16059711
