# SAXS profile: number of points = 501, q_min = 0, q_max = 0.5, delta_q = 0.001
#    q    intensity    error
0.00000000 1682732.95097188 302.89193117
0.00100000 1682663.31610950 555.27890750
0.00200000 1682454.35706319 832.81493312
0.00300000 1682106.24790488 1412.96929857
0.00400000 1681618.86202050 1891.82129166
0.00500000 1680992.63817188 1815.47212108
0.00600000 1680227.34533731 1940.66266287
0.00700000 1679323.60597309 2015.18841092
0.00800000 1678280.87692354 2945.38306335
0.00900000 1677100.56972008 2515.65096212
0.01000000 1675781.76929542 4147.56005810
0.01100000 1674325.80199666 3616.54388977
0.01200000 1672732.10345027 3914.19329369
0.01300000 1671002.06571248 4912.74628987
0.01400000 1669134.89840217 6008.88590063
0.01500000 1667132.48526035 4801.34177135
0.01600000 1664993.66903639 6368.60106876
0.01700000 1662720.51411500 4938.28014845
0.01800000 1660312.64565941 7097.83687958
0.01900000 1657770.70994243 5967.97482508
0.02000000 1655095.51981939 5734.90623560
0.02100000 1652288.60622635 7088.31844208
0.02200000 1649348.17139705 7397.32688479
0.02300000 1646277.17560839 8889.89715294
0.02400000 1643075.44465970 8626.14647779
0.02500000 1639744.35609530 8313.50426509
0.02600000 1636284.25570246 8615.03700031
0.02700000 1632695.98589952 7543.05580034
0.02800000 1628979.50003763 7086.06115013
0.02900000 1625137.45603195 9507.05455430
0.03000000 1621170.06349420 13569.19405516
0.03100000 1617077.64009995 11642.95954445
0.03200000 1612861.30188234 11177.12933684
0.03300000 1608523.67124636 9844.16532185
0.03400000 1604062.90646095 11789.86290648
0.03500000 1599482.39916545 8637.20535434
0.03600000 1594781.82535642 13276.55930965
0.03700000 1589963.10392976 9062.79011153
0.03800000 1585027.34729536 10199.65145188
0.03900000 1579976.09309712 12323.81409687
0.04000000 1574808.28293026 9685.07138882
0.04100000 1569527.70339951 9888.02498989
0.04200000 1564134.71666789 14124.13714677
0.04300000 1558629.57888654 11315.65126797
0.04400000 1553015.84519545 12579.42893030
0.04500000 1547293.32991607 10676.32447250
0.04600000 1541462.03843549 17387.69260185
0.04700000 1535525.71762654 16583.67852164
0.04800000 1529484.09650823 14614.22122211
0.04900000 1523340.13072390 12567.55666346
0.05000000 1517093.48344488 12766.34225767
0.05100000 1510747.29450341 12962.21239067
0.05200000 1504299.93522521 11959.18504235
0.05300000 1497757.04597660 15771.38242936
0.05400000 1491116.69006179 18452.56990003
0.05500000 1484383.00838695 16209.46320775
0.05600000 1477554.36369048 17686.32655869
0.05700000 1470636.06250670 16632.89464335
0.05800000 1463626.40471640 14248.40371521
0.05900000 1456527.79639302 15730.50093575
0.06000000 1449342.70981698 15913.78369726
0.06100000 1442072.96741148 17434.66299075
0.06200000 1434718.82481995 16269.71223396
0.06300000 1427283.54103971 15072.11489808
0.06400000 1419765.21834543 19379.79613674
0.06500000 1412170.21643365 15378.53437634
0.06600000 1404496.50961428 14115.19058205
0.06700000 1396746.98916757 15671.50195187
0.06800000 1388924.60192527 15812.90733311
0.06900000 1381030.08388255 15950.89821565
0.07000000 1373063.32099075 19010.06256933
0.07100000 1365028.89079419 19165.00652440
0.07200000 1356925.71147420 26745.00702607
0.07300000 1348758.86830049 20959.71379547
0.07400000 1340527.50757593 16589.02868368
0.07500000 1332233.96763398 21262.45512006
0.07600000 1323878.77007539 18348.96061346
0.07700000 1315467.03174717 18469.15799172
0.07800000 1306997.13697812 18585.50015942
0.07900000 1298470.99062156 17139.81788013
0.08000000 1289893.07245718 18806.64187867
0.08100000 1281263.17619067 20487.39914852
0.08200000 1272582.40983809 17428.01692055
0.08300000 1263853.72559583 23886.83653482
0.08400000 1255077.61457277 19202.68840431
0.08500000 1246258.55115308 19292.08327752
0.08600000 1237395.31557209 24222.01443958
0.08700000 1228491.60410462 21080.91691635
0.08800000 1219546.15530155 21165.22451926
0.08900000 1210565.22450437 24513.94694763
0.09000000 1201547.07499563 19681.34201297
0.09100000 1192494.91958329 19747.71679607
0.09200000 1183409.47791592 19810.27559113
0.09300000 1174294.40441916 18213.30706842
0.09400000 1165147.82071928 16603.35722557
0.09500000 1155974.32601244 23304.44350778
0.09600000 1146774.83127975 16685.57457947
0.09700000 1137552.40685674 21738.62751703
0.09800000 1128307.82387456 20106.44636680
0.09900000 1119043.06205862 18464.21139220
0.10000000 1109757.82277217 21856.68134736
0.10100000 1100454.84279290 20204.35186392
0.10200000 1091136.51711678 21915.47797711
0.10300000 1081803.83857774 20251.36881081
0.10400000 1072459.46545923 21958.60858832
0.10500000 1063105.90617094 20284.06164409
0.10600001 1053739.65950118 18603.77456387
0.10700001 1044368.66857339 23686.28251787
0.10800001 1034989.77637118 30459.75055209
0.10900001 1025607.63174868 23691.53740845
0.11000001 1016222.10403336 18612.10871143
0.11100001 1006835.46960521 20297.80402273
0.11200001 997450.17236848 21978.81558284
0.11300001 988064.71399218 25343.86110711
0.11400001 978684.13824873 21946.99283359
0.11500001 969308.59370757 16865.97032470
0.11600001 959938.76290863 20216.31129887
0.11700001 950578.26341610 21872.80687130
0.11800001 941224.84709359 20161.03717430
0.11900001 931883.09494236 18451.28614894
0.12000001 922553.06256563 21767.64053660
0.12100001 913238.05433104 18383.48289970
0.12200001 903936.79582006 18345.39813544
0.12300001 894652.63070723 18304.59368668
0.12400001 885385.53885971 26561.56741731
0.12500001 876137.60235182 16559.00146472
0.12600001 866911.46314119 16514.66415107
0.12700001 857706.86075959 18114.76975293
0.12800001 848524.02444053 21344.62284076
0.12900001 839366.47729746 21277.94120236
0.13000001 830234.46764479 22839.75128146
0.13100001 821128.06132777 19510.00365680
0.13200001 812051.06828935 19440.50349128
0.13300001 803004.18578776 22596.53885334
0.13400001 793986.12373881 30548.61755108
0.13500001 785000.87984582 17615.42057428
0.13600001 776047.32124409 19137.32784422
0.13700001 767128.46280804 15879.55992890
0.13800001 758243.16718587 20552.18201573
0.13900001 749396.53230115 25179.72467275
0.14000001 740585.35674211 17229.71913717
0.14100001 731813.09730505 18705.14364931
0.14200001 723078.78052686 17061.04463122
0.14300001 714387.49748361 24689.23307757
0.14400001 705733.06354394 18419.63382735
0.14500001 697124.90897290 19847.14709469
0.14600001 688557.32263377 18219.22761637
0.14700001 680036.61287186 15096.81351797
0.14800001 671558.66952082 19512.13806348
0.14900001 663126.18392806 20888.47577927
0.15000001 654741.27125998 22244.83574063
0.15100001 646403.56453132 19159.40255674
0.15200001 638115.14405308 16109.21757177
0.15300001 629875.96962729 24735.23049449
0.15400001 621684.67226673 15899.58624354
0.15500001 613545.88376719 18664.06666501
0.15600001 605456.55304440 14258.50249712
0.15700001 597423.01504360 15574.81873727
0.15800001 589437.49395274 15463.89338373
0.15900001 581508.84089029 15351.83412412
0.16000001 573631.48898507 19394.48155805
0.16100001 565812.33088892 16499.08834755
0.16200001 558046.13318138 13644.22860037
0.16300001 550337.00700191 14892.12011250
0.16400001 542683.92284588 20147.14158679
0.16500001 535088.56562268 19985.55886955
0.16600001 527549.97411686 18501.17846577
0.16700001 520069.35290899 15726.89797451
0.16800001 512646.00620088 12995.57687080
0.16900001 505284.21728764 14173.22296415
0.17000001 497980.46084578 19159.79913576
0.17100001 490736.83050115 18991.51623720
0.17200001 483553.60429416 16312.68161120
0.17300001 476430.94943802 16165.30287783
0.17400001 469370.09769865 18481.44846969
0.17500001 462369.93455614 15868.53690340
0.17600001 455429.69485679 14509.99076343
0.17700001 448553.99659743 14371.67072976
0.17800001 441739.42571027 14232.84496863
0.17900001 434987.17275516 12919.11964104
0.18000001 428298.67469692 12791.14052401
0.18100001 421674.04567965 12662.87218991
0.18200001 415109.78006023 13673.71680110
0.18300001 408611.66243043 14660.98714058
0.18400001 402175.60846922 16740.56049337
0.18500001 395804.27613529 12147.23380845
0.18600001 389496.49851181 12017.91502935
0.18700001 383252.35680165 10807.71697242
0.18800001 377071.86835377 11758.98677018
0.18900001 370957.92864924 10572.30146602
0.19000001 364904.04623877 10454.50141870
0.19100001 358919.54337685 15505.32500651
0.19200001 352995.76944646 12263.07361002
0.19300001 347138.93647576 12122.09223453
0.19400001 341345.26967158 14976.52441454
0.19500001 335616.57591816 10853.84057809
0.19600001 329951.38879962 14625.09599967
0.19700001 324351.31894539 11559.88155351
0.19800001 318815.48265918 11419.97112855
0.19900001 313344.64298991 15040.54357433
0.20000001 307936.08748057 9284.27347632
0.20100001 302593.53151639 10085.44288210
0.20200001 297313.76616566 9958.52506839
0.20300001 292098.68030449 9832.04204376
0.20400001 286947.30934858 10588.35621543
0.20500001 281858.64926472 9580.37594134
0.20600001 276834.17128504 11174.41185211
0.20700001 271872.68662160 12723.64233533
0.20800001 266974.23356234 12554.46392672
0.20900001 262140.65092800 9908.91707349
0.21000001 257367.50430283 9774.81827550
0.21100001 252657.08397585 10444.84434532
0.21200001 248008.90644287 8716.27342899
0.21300001 243422.69434850 11720.80328699
0.21400001 238898.95830980 7704.49176973
0.21500001 234437.41992031 9114.92731743
0.21600001 230035.44547477 11231.48115631
0.21700001 225695.31861948 8856.28472135
0.21800001 221415.93840500 10910.27088075
0.21900001 217195.70333586 9317.69611366
0.22000001 213035.35290445 8474.54673924
0.22100001 208937.18964831 9044.89136755
0.22200001 204897.11030201 8224.57039642
0.22300001 200915.99844318 6750.77786690
0.22400001 196991.89091553 6648.47663278
0.22500001 193129.50492744 6547.09052663
0.22600001 189323.10721644 7091.09731612
0.22700001 185575.43272665 8885.35213913
0.22800001 181884.41564667 7497.27596750
0.22900001 178249.75677821 6764.57858964
0.23000001 174671.89500317 7868.09588251
0.23100001 171151.76578326 8934.12259641
0.23200001 167685.33043823 7032.72309118
0.23300001 164275.36181288 7495.88511404
0.23400001 160920.29053300 6806.92861148
0.23500001 157618.44723682 6695.63195530
0.23600001 154371.64659689 7683.07721451
0.23700001 151178.22355549 5936.76911982
0.23800001 148038.05183244 5837.88085014
0.23900001 144950.74071244 5740.04960371
0.24000001 141915.49774465 5130.24548613
0.24100001 138933.32075659 5043.27978202
0.24200001 136001.89472726 5452.99622703
0.24300001 133121.49500948 5846.69633738
0.24400001 130291.16784840 6224.66083841
0.24500001 127511.20080175 6116.71259181
0.24600001 124781.02003169 7859.33291848
0.24700001 122100.63088077 6359.00115709
0.24800001 119468.00019173 5800.76902372
0.24900001 116883.42362088 4821.44145245
0.25000001 114347.24761237 4735.69148390
0.25100001 111857.58717197 5919.50379319
0.25200001 109415.90427609 5813.26726921
0.25300001 107020.51607115 5300.72641178
0.25400001 104670.24378184 4404.00071548
0.25500001 102365.47744037 4323.91797165
0.25600001 100106.02868682 5016.81386500
0.25700001 97890.72199938  4924.88245680
0.25800001 95719.16829117  4462.42783687
0.25900001 93591.41756008  5475.09818632
0.26000001 91507.04331654  5373.75137303
0.26100001 89463.07159252  4219.07865593
0.26200001 87463.72915350  4140.53313404
0.26300001 85504.41308901  4063.16990225
0.26400001 83585.96274748  4319.30482936
0.26500001 81708.89284892  3260.18497894
0.26600001 79870.93492921  3518.71420481
0.26700001 78073.54469199  3138.55664514
0.26800001 76315.17070006  3695.18074016
0.26900001 74594.66619234  3323.19253613
0.27000001 72912.88082059  4149.47224386
0.27100001 71268.57077353  3489.30939020
0.27200001 69661.82812498  3993.71279540
0.27300001 68091.13594538  3638.10956573
0.27400001 66555.61952699  3019.96137896
0.27500001 65058.12708617  4040.10988325
0.27600001 63593.72100685  3170.78307946
0.27700001 62165.73166969  2851.54224664
0.27800001 60771.01908681  3051.92072298
0.27900001 59410.66922885  2495.24822571
0.28000001 58083.24299403  3427.49233130
0.28100001 56788.55228581  3363.01822553
0.28200001 55526.92072816  3299.96505506
0.28300001 54296.96496246  2544.35589857
0.28400001 53098.77789330  3177.96200733
0.28500001 51931.64528021  2896.22799436
0.28600001 50794.53270858  2624.04568393
0.28700001 49687.80113365  2361.16442163
0.28800001 48610.32471773  2528.70921151
0.28900001 47563.46734113  2482.81311273
0.29000001 46543.90768446  2234.80583325
0.29100001 45554.00979916  2793.37201311
0.29200001 44591.38307306  2939.68706824
0.29300001 43656.16008367  2117.76042590
0.29400001 42747.79786606  2269.90817414
0.29500001 41867.12137649  1858.90027711
0.29600001 41011.60738327  2009.77391495
0.29700001 40181.51720064  2155.33668467
0.29800001 39377.34419603  1942.68136788
0.29900001 38598.13386276  2779.06576968
0.30000001 37843.09768807  1708.61594150
0.30100001 37113.16751259  1849.34922470
0.30200001 36405.60195973  2812.87896858
0.30300001 35721.73776485  1628.91131919
0.30400001 35061.52287956  1764.47122245
0.30500001 34422.51846646  2211.99114138
0.30600001 33805.95551736  2023.79362286
0.30700001 33211.42161408  1687.80452633
0.30800001 32638.02653731  1664.04986179
0.30900001 32085.45285701  2387.15780558
0.31000001 31554.13012387  1913.60031196
0.31100001 31041.34220769  1888.55534933
0.31200001 30549.49685585  1721.15873435
0.31300001 30076.40300416  1841.57824314
0.31400001 29623.72256432  1819.63724467
0.31500001 29188.74979475  1521.90148636
0.31600002 28772.14555595  1641.73870316
0.31700002 28372.97533961  1353.39098778
0.31800002 27991.92067191  2143.06154811
0.31900002 27628.29785308  2121.85337558
0.32000002 27281.27356374  1576.31206115
0.32100002 26951.12387144  1952.60901694
0.32200002 26637.41590001  1290.58286147
0.32300002 26338.79421459  1792.09164322
0.32400002 26056.08699564  1524.28116142
0.32500002 25788.15606669  2017.66542620
0.32600002 25535.70594456  2129.29494101
0.32700002 25297.45476324  1493.56179995
0.32800002 25074.36773955  1361.16211720
0.32900002 24863.79593700  2092.28852718
0.33000002 24668.63180025  1224.79762688
0.33100002 24484.30590689  1828.97773785
0.33200002 24315.55474758  1336.01821887
0.33300002 24158.14310083  1331.35532933
0.33400002 24013.89663120  1448.03803543
0.33500002 23881.21636401  1203.61336174
0.33600002 23760.52454406  1801.64185887
0.33700002 23650.49119151  1558.80394825
0.33800002 23553.31526528  1197.68613796
0.33900002 23465.77741644  1675.45658688
0.34000002 23389.59179799  1435.65321255
0.34100002 23323.76385262  1435.81097077
0.34200002 23268.97668921  1436.62668883
0.34300002 23222.65556110  1437.94690044
0.34400002 23186.91167651  1199.92273609
0.34500002 23160.13795084  1562.61458155
0.34600002 23143.74582280  1325.09522984
0.34700002 23134.01008409  1569.87399866
0.34800002 23134.58983717  1453.31500240
0.34900002 23143.15387267  1458.01876303
0.35000002 23159.97328682  1341.30991643
0.35100002 23184.70046277  1468.98269090
0.35200002 23216.33963492  1352.23576608
0.35300002 23255.96202002  1481.86997010
0.35400002 23303.15335983  1364.98227270
0.35500002 23356.94703341  1496.71323679
0.35600002 23417.21214100  1630.18930041
0.35700002 23484.17976056  1513.32061545
0.35800002 23558.03725468  2029.76058600
0.35900002 23637.55636460  1659.35653539
0.36000002 23723.61646622  1670.02406024
0.36100002 23814.56367008  1681.07012910
0.36200002 23912.18475126  1692.62407779
0.36300002 24013.42066880  1704.47267981
0.36400002 24120.49199015  1320.59699901
0.36500002 24232.03925684  1729.44072368
0.36600002 24348.99352692  1474.45337286
0.36700002 24469.94593173  2026.11161912
0.36800002 24596.67013603  1769.85348347
0.36900002 24726.45067717  1509.54988535
0.37000002 24859.42296069  1521.76964862
0.37100002 24996.64694380  1952.73815175
0.37200002 25138.03130900  1969.06208571
0.37300002 25282.17282848  1985.66194801
0.37400002 25430.64595598  2002.66346390
0.37500002 25581.07332933  1875.60438536
0.37600002 25735.66794351  1600.88730026
0.37700002 25891.67562737  1614.86388538
0.37800002 26051.35067299  2665.83484065
0.37900002 26213.22082175  1942.39975491
0.38000002 26377.60879825  1808.97649708
0.38100002 26543.63818093  1673.04559380
0.38200002 26711.93377359  1841.52080159
0.38300002 26881.94481575  1548.40009474
0.38400002 27054.34147037  2031.10478211
0.38500002 27227.15602691  2522.32385383
0.38600002 27402.79663663  2067.95214615
0.38700002 27578.54309828  2407.60692654
0.38800002 27755.62291506  2267.35694335
0.38900002 27933.86389416  2124.37044979
0.39000002 28113.79270801  1648.87402044
0.39100002 28293.49192069  2828.21758638
0.39200002 28474.58597443  1846.43461499
0.39300002 28655.76168580  2201.62227463
0.39400002 28838.33816944  1879.53877924
0.39500002 29020.15868128  1896.17725807
0.39600002 29202.37747368  1912.90182704
0.39700002 29384.39237575  2105.09796953
0.39800002 29567.52051846  2123.53942425
0.39900002 29749.40052699  2677.44617428
0.40000002 29931.16718445  1800.35979144
0.40100002 30112.53506778  1997.36454568
0.40200002 30294.49584054  2380.69306842
0.40300002 30474.92225060  2400.81448865
0.40400002 30654.73217106  2607.18509468
0.40500002 30834.00542746  2628.90742730
0.40600002 31012.62042491  2461.31673664
0.40700002 31190.29644670  2290.61547958
0.40800002 31367.06493243  1924.36952478
0.40900002 31542.10260324  2133.82334221
0.41000002 31716.83889937  2150.87753187
0.41100002 31890.03602415  2167.88475164
0.41200002 32061.10782724  2184.80429641
0.41300002 32231.51730325  2001.57731937
0.41400002 32400.13043807  2420.28985840
0.41500002 32567.81623574  2235.45501234
0.41600002 32732.58221588  2252.16542608
0.41700002 32896.43499747  2268.86722928
0.41800002 33059.42659861  2077.78506018
0.41900002 33218.56676942  2302.04678620
0.42000002 33376.69777657  2318.51242091
0.42100002 33533.35893132  2759.46023722
0.42200002 33687.82027135  2778.73998675
0.42300002 33839.70205185  2797.86669822
0.42400002 33989.36976329  2816.86915261
0.42500002 34137.44163151  2399.52088598
0.42600002 34281.81082460  2415.32509610
0.42700002 34425.21005414  2652.11830825
0.42800002 34565.76470572  3336.46059632
0.42900002 34704.45431973  2686.12489163
0.43000002 34840.57136227  2477.68734984
0.43100002 34972.89926190  3172.74157139
0.43200002 35103.57968169  2507.97536921
0.43300002 35231.31168139  3440.33774872
0.43400002 35356.79001255  2537.73372341
0.43500002 35479.08750743  3248.46540612
0.43600002 35599.62531234  3033.62221475
0.43700002 35716.40863833  2815.88179049
0.43800002 35829.76954588  2359.39043641
0.43900002 35941.40183989  2372.13263385
0.44000002 36049.39636208  2861.60121883
0.44100002 36155.21817515  3595.63661792
0.44200002 36257.80452277  4336.79620449
0.44300002 36357.66649996  2421.42070365
0.44400002 36453.92645248  2676.62967662
0.44500002 36546.57028076  3911.94506824
0.44600002 36636.87926840  3684.75430704
0.44700002 36724.41130258  3208.24472344
0.44800002 36807.71071843  3222.69926468
0.44900002 36889.35243690  2739.03454825
0.45000002 36967.44833448  3501.18719769
0.45100002 37041.32861141  3013.68263865
0.45200002 37112.86232755  2521.81911467
0.45300002 37180.62888705  2532.00094721
0.45400002 37245.81967357  3304.63550715
0.45500002 37307.65429536  3317.39677717
0.45600002 37366.01803077  3329.87285463
0.45700002 37421.16444623  3085.00094316
0.45800002 37472.37240531  3869.95944357
0.45900002 37520.71192573  2847.82217013
0.46000002 37566.42859435  3896.57799062
0.46100002 37607.70041110  2866.83513821
0.46200002 37646.49598316  2876.00419694
0.46300002 37681.68057217  2884.90960134
0.46400002 37713.06132379  2893.53476721
0.46500002 37742.05483104  3429.62068504
0.46600002 37766.90243031  3174.68596876
0.46700002 37788.48396446  3183.30204004
0.46800002 37807.46984747  2925.73119282
0.46900002 37822.37951830  2933.12567066
0.47000002 37833.66697132  3474.83330768
0.47100002 37842.16233090  2947.14774202
0.47200002 37847.04498598  2953.77276593
0.47300002 37849.38868700  2960.20082952
0.47400002 37846.92575354  2966.25294653
0.47500002 37842.32061840  2701.94182022
0.47600002 37834.70793115  4060.61022117
0.47700002 37822.63161115  3796.63594108
