# SAXS profile: number of points = 501, q_min = 0, q_max = 0.5, delta_q = 0.001
#    q    intensity    error
0.00000000 1700912.83420644 331.67800267
0.00100000 1700842.61138603 612.30335464
0.00200000 1700631.88649505 841.81281047
0.00300000 1700280.83492975 1734.28651341
0.00400000 1699789.32009814 1402.32624237
0.00500000 1699157.81072886 1988.01471724
0.00600000 1698386.02513572 2139.96647879
0.00700000 1697474.65640223 2240.66663957
0.00800000 1696423.10749323 2748.20555017
0.00900000 1695232.83366725 3305.70416696
0.01000000 1693902.85862387 3074.43382115
0.01100000 1692434.55571014 3351.02056621
0.01200000 1690827.38103318 4286.24759884
0.01300000 1689082.68388102 4611.19593037
0.01400000 1687199.66930880 4935.05925150
0.01500000 1685180.31826782 4448.87623833
0.01600000 1683023.35547320 4291.70974831
0.01700000 1680730.90699254 5899.36574818
0.01800000 1678302.55728310 8609.69250628
0.01900000 1675739.04319551 5529.93909207
0.02000000 1673041.13074966 5797.08778028
0.02100000 1670210.36768072 5511.69446324
0.02200000 1667244.92255744 9203.19239064
0.02300000 1664147.76330016 5990.93222058
0.02400000 1660918.74790878 8096.97926526
0.02500000 1657559.32851318 7110.92984408
0.02600000 1654069.63756648 7368.88057240
0.02700000 1650450.82064936 8318.27251706
0.02800000 1646702.58179033 9312.10352707
0.02900000 1642827.61095071 12567.63180081
0.03000000 1638826.30723510 10668.75975049
0.03100000 1634698.84758001 9415.86579531
0.03200000 1630446.44179284 9684.85231032
0.03300000 1626071.57598575 9951.55850380
0.03400000 1621572.52981026 9364.58179174
0.03500000 1616952.64079221 13970.47146157
0.03600000 1612211.65214126 10737.33009947
0.03700000 1607351.52010927 12826.66572367
0.03800000 1602373.12162935 11248.65983442
0.03900000 1597278.30748370 10542.03731759
0.04000000 1592065.86842378 12728.56720788
0.04100000 1586739.60332317 11995.75195732
0.04200000 1581299.91540056 12239.26191301
0.04300000 1575747.12830252 14559.90414136
0.04400000 1570084.60370191 12717.68588062
0.04500000 1564312.44320411 11873.13199560
0.04600000 1558430.41457282 12085.62842684
0.04700000 1552442.37025154 16766.37837849
0.04800000 1546348.10526009 11365.65910248
0.04900000 1540150.51568793 11551.12940534
0.05000000 1533849.27262504 14080.73697838
0.05100000 1527447.46353121 13105.49984760
0.05200000 1520943.67227028 22973.85524025
0.05300000 1514343.24067746 18399.27123197
0.05400000 1507644.54063240 17413.29525635
0.05500000 1500851.49573981 18910.72972849
0.05600000 1493962.70317430 16605.39622066
0.05700000 1486983.26783679 18111.45704767
0.05800000 1479911.68038470 15716.66277953
0.05900000 1472750.07528499 21207.60207462
0.06000000 1465501.25120725 14750.27078252
0.06100000 1458166.96967012 14917.04879682
0.06200000 1450747.34777697 15080.51938506
0.06300000 1443245.75779712 19397.22389172
0.06400000 1435660.27345863 15397.45715293
0.06500000 1427997.21953565 15550.89044818
0.06600000 1420254.81688130 15700.91773525
0.06700000 1412435.69970799 20169.58273575
0.06800000 1404542.97107033 15990.72247415
0.06900000 1396577.36616154 14664.06303125
0.07000000 1388538.60639591 20703.11159086
0.07100000 1380431.49948450 17890.39307127
0.07200000 1372254.80663319 15026.19083656
0.07300000 1364013.91585691 16654.61069297
0.07400000 1355707.56248108 18302.05295120
0.07500000 1347338.55217864 21503.52430069
0.07600000 1338906.93503138 15464.37582459
0.07700000 1330418.22521047 15565.89396482
0.07800000 1321870.55077181 21929.83346573
0.07900000 1313266.14616116 18911.03339172
0.08000000 1304609.26231907 19021.20393692
0.08100000 1295899.73632774 25503.30800750
0.08200000 1287138.57441187 16024.87600340
0.08300000 1278329.18632715 22549.72790511
0.08400000 1269471.44046259 22660.06627589
0.08500000 1260570.26265477 17887.49286680
0.08600000 1251624.39265865 16333.69909109
0.08700000 1242637.21477342 16402.81200525
0.08800000 1233608.10359834 16468.66895647
0.08900000 1224542.61287949 24796.98907552
0.09000000 1215439.51183850 16590.75011595
0.09100000 1206301.90155676 19976.36042829
0.09200000 1197130.61105956 18369.97008985
0.09300000 1187929.13986767 26799.68265479
0.09400000 1178695.60342877 16796.41313825
0.09500000 1169434.55623986 20207.83008165
0.09600000 1160147.12024317 21944.18381095
0.09700000 1150836.46714677 21992.48592110
0.09800000 1141503.08705642 20341.58596776
0.09900000 1132149.17705782 16982.23845441
0.10000000 1122774.30878880 18711.03473589
0.10100000 1113381.23104102 27255.57381776
0.10200000 1103972.64382749 20467.65377928
0.10300000 1094549.20152851 18782.46518177
0.10400000 1085113.76549412 22217.70539373
0.10500000 1075668.63187721 20523.75846185
0.10600001 1066210.69571166 18823.95071852
0.10700001 1056747.44532206 20543.17130377
0.10800001 1047276.11415155 18835.26179943
0.10900001 1037801.26026527 20548.46592038
0.11000001 1028322.79138717 18833.73281075
0.11100001 1018842.89892425 20539.87380919
0.11200001 1009363.79950861 18819.58892781
0.11300001 999884.68275907 23937.24043224
0.11400001 990410.00812367 18793.03078901
0.11500001 980940.26185210 18775.19749594
0.11600001 971475.97665909 22164.22545122
0.11700001 962020.95813217 23838.88046521
0.11800001 952572.64048526 25505.13365024
0.11900001 943135.96107767 20371.73771882
0.12000001 933710.84282430 23725.59363376
0.12100001 924300.63627099 18606.17268464
0.12200001 914903.81797437 20255.97148424
0.12300001 905524.14939913 18527.02496960
0.12400001 896161.41411694 20163.63276769
0.12500001 886817.70563030 20113.02651143
0.12600001 877495.81578444 25074.44411763
0.12700001 868195.37484231 18336.28718079
0.12800001 858916.47926095 16620.03465699
0.12900001 849663.05623642 19882.11645302
0.13000001 840435.11752147 21468.91608902
0.13100001 831232.55097752 19750.08634220
0.13200001 822059.55545490 19680.10668532
0.13300001 812916.75482488 26143.40406765
0.13400001 803802.59221000 17904.70358561
0.13500001 794721.46145527 17833.55043588
0.13600001 785671.91823186 20989.22628522
0.13700001 776657.26826506 19292.16745339
0.13800001 767676.21398130 22408.46974280
0.13900001 758733.73732749 17526.75015879
0.14000001 749826.99786515 15858.84175276
0.14100001 740959.31480881 15782.43414977
0.14200001 732129.39747999 21985.84684329
0.14300001 723343.13397548 18749.05491699
0.14400001 714593.60011509 15542.41153564
0.14500001 705890.31160779 15458.99855344
0.14600001 697228.03414094 19986.04254148
0.14700001 688612.65292417 15287.20161611
0.14800001 680040.23526667 18238.67997033
0.14900001 671513.33367807 16619.95579267
0.15000001 663034.60967076 18021.28154115
0.15100001 654602.85349194 17909.93491662
0.15200001 646220.99063805 19280.00416545
0.15300001 637888.37586675 19155.78883122
0.15400001 629603.90452094 20493.60805927
0.15500001 621372.23595956 23264.17761223
0.15600001 613190.49278593 15884.70046530
0.15700001 605064.61179571 20076.04476691
0.15800001 596987.00248971 28476.28136280
0.15900001 588966.55783588 18375.75747183
0.16000001 580997.86409296 16837.31889618
0.16100001 573087.71074898 18103.84163714
0.16200001 565230.78400084 13819.89332120
0.16300001 557431.29589026 15084.09157888
0.16400001 549688.14227287 19046.69502894
0.16500001 542003.12383152 14845.46626262
0.16600001 534375.01621401 14724.70426697
0.16700001 526805.63255304 19913.25385070
0.16800001 519293.69703265 17113.32459374
0.16900001 511843.68535788 14357.21605221
0.17000001 504452.29205571 14233.12209244
0.17100001 497121.37569211 17956.02493791
0.17200001 489851.10931241 12711.63688694
0.17300001 482642.04284529 12596.95791315
0.17400001 475495.19186284 16226.27418862
0.17500001 468409.48877322 13602.61219639
0.17600001 461384.13881102 17149.64924957
0.17700001 454423.70844508 18199.67038281
0.17800001 447525.04576394 16822.46726483
0.17900001 440689.15776145 19037.77251452
0.18000001 433917.34100361 12958.94200119
0.18100001 427210.04388044 12829.11822373
0.18200001 420563.50582963 13853.36253643
0.18300001 413983.88643745 14853.74254706
0.18400001 407466.41575654 15830.07099997
0.18500001 401014.62667231 12307.13947399
0.18600001 394626.71523990 14390.06385106
0.18700001 388303.02999667 12045.16055957
0.18800001 382043.39978679 17329.48943308
0.18900001 375851.03086691 12854.10586297
0.19000001 369719.26600283 10592.45747146
0.19100001 363657.24973610 12567.99514472
0.19200001 357657.04384353 16566.67505363
0.19300001 351723.92295702 10235.16664169
0.19400001 345854.68361460 12139.49996851
0.19500001 340050.94825060 15995.99736160
0.19600001 334311.35132419 9878.90089847
0.19700001 328637.25552512 13664.73773050
0.19800001 323028.30641661 11570.87448267
0.19900001 317485.04061405 12381.91716912
0.20000001 312004.34006806 13169.70381669
0.20100001 306590.52184373 11147.63190110
0.20200001 301240.01538143 11924.58657247
0.20300001 295954.85321386 11773.08461730
0.20400001 290733.94656178 12516.09699107
0.20500001 285576.56918420 10589.17968587
0.20600001 280483.75234602 13934.43347520
0.20700001 275454.83117645 11172.44848063
0.20800001 270489.23600671 11871.77312952
0.20900001 265589.50424590 8366.06977922
0.21000001 260750.83076969 11553.86985758
0.21100001 255975.64171514 9768.03094962
0.21200001 251263.14720114 8830.64372585
0.21300001 246613.28934574 9499.54435469
0.21400001 242026.78812375 9366.43714320
0.21500001 237502.98251580 9234.11639678
0.21600001 233039.21968381 8343.96965527
0.21700001 228638.32002256 7476.47341822
0.21800001 224298.68254442 8841.85448395
0.21900001 220018.91766564 9438.81201414
0.22000001 215799.71853411 7869.13710842
0.22100001 211643.47365838 9866.81920849
0.22200001 207545.91556819 10413.61680604
0.22300001 203508.07923830 6837.87178574
0.22400001 199527.94637661 11447.91646469
0.22500001 195609.98531452 7957.41457888
0.22600001 191748.92523767 6529.05121309
0.22700001 187947.32146501 7713.35843768
0.22800001 184202.94646039 8225.58296318
0.22900001 180515.65297657 7473.34838665
0.23000001 176885.93389061 6742.00768908
0.23100001 173314.67245446 7840.75615265
0.23200001 169797.49325939 5934.42267008
0.23300001 166337.93212391 8173.84637115
0.23400001 162933.62123367 7466.43354616
0.23500001 159583.31288711 6214.17449773
0.23600001 156288.83068106 6667.28183220
0.23700001 153048.37884957 6556.59286003
0.23800001 149861.93455006 5372.55060773
0.23900001 146729.03966090 5810.47024540
0.24000001 143648.84654241 5712.19665295
0.24100001 140622.37654007 7656.88876479
0.24200001 137647.40056936 5017.24798808
0.24300001 134724.16854901 5423.99528235
0.24400001 131851.66740366 5330.10390693
0.24500001 129030.31919311 4761.21900345
0.24600001 126259.21788729 6549.06594162
0.24700001 123538.83045938 5055.20918154
0.24800001 120866.73120925 7674.43346118
0.24900001 118243.60593341 5764.37606195
0.25000001 115669.28933395 4790.44384439
0.25100001 113142.28597993 5559.81219608
0.25200001 110663.94383166 4199.69686710
0.25300001 108232.51488070 6597.85441928
0.25400001 105846.98121588 6477.83555689
0.25500001 103507.54500195 5564.56588257
0.25600001 101214.12272103 4682.16553860
0.25700001 98965.44726085  4212.95928922
0.25800001 96761.33039956  5262.84900944
0.25900001 94601.57304708  4058.40767574
0.26000001 92485.72117316  4344.97938630
0.26100001 90411.10070124  3553.15642568
0.26200001 88381.83555614  4183.99629320
0.26300001 86393.15738742  5131.75379163
0.26400001 84445.78775557  5035.08033318
0.26500001 82540.68556884  4281.38556305
0.26600001 80675.26760873  4200.35800681
0.26700001 78851.04833073  4120.75598076
0.26800001 77066.44279714  3109.63111401
0.26900001 75320.40102461  4270.66694019
0.27000001 73613.52824129  3291.62907108
0.27100001 71944.99825492  3522.42728125
0.27200001 70314.48933078  3455.25416923
0.27300001 68720.70379635  3106.86316566
0.27400001 67162.62419370  3878.64173074
0.27500001 65643.28635517  2717.63218372
0.27600001 64157.49015026  3732.04137866
0.27700001 62708.74570440  3399.44126552
0.27800001 61293.83595733  4104.23544994
0.27900001 59913.91876622  2516.38470728
0.28000001 58567.51122810  2962.34485812
0.28100001 57254.43508835  3390.60780641
0.28200001 55974.92714839  3088.97650088
0.28300001 54727.59278578  2564.53511932
0.28400001 53512.63437841  2973.96479634
0.28500001 52329.36201901  2469.42271056
0.28600001 51176.52707357  2643.77951376
0.28700001 50054.67153855  2594.83429538
0.28800001 48962.58105382  2547.03358698
0.28900001 47901.80542420  2292.10149804
0.29000001 46868.72787846  2864.14809622
0.29100001 45865.65872816  2611.59073160
0.29200001 44890.61458237  2564.82538557
0.29300001 43943.37470266  1937.90291612
0.29400001 43023.51005235  2474.92753292
0.29500001 42131.73915930  1870.64930722
0.29600001 41265.71850969  2206.06541596
0.29700001 40425.66733435  1807.02741539
0.29800001 39611.81928203  2131.90821468
0.29900001 38823.50968371  2096.46962217
0.30000001 38059.87254558  1890.24365946
0.30100001 37321.80754065  2536.01694244
0.30200001 36606.46457565  1663.76389373
0.30300001 35915.29519129  2456.60630738
0.30400001 35248.24415508  1773.86797108
0.30500001 34602.79895397  2064.74911133
0.30600001 33980.22579916  1877.74736656
0.30700001 33380.20015279  2004.81491609
0.30800001 32801.54603650  1824.42207692
0.30900001 32244.30209911  2099.10416603
0.31000001 31708.51973524  1479.20251568
0.31100001 31191.84227967  1897.71177414
0.31200001 30696.32164524  2017.66931727
0.31300001 30220.13337564  1992.71568914
0.31400001 29764.69751794  1687.65842917
0.31500001 29327.10222963  2085.15706725
0.31600002 28908.48888441  2061.89806731
0.31700002 28507.51075045  1767.75082533
0.31800002 28125.13826315  1749.52430850
0.31900002 27760.46790337  1332.50252245
0.32000002 27412.74825750  1583.90866932
0.32100002 27082.26359560  1831.30275105
0.32200002 26768.37298954  1945.39159913
0.32300002 26469.99342324  1929.66261193
0.32400002 26187.82988207  1531.98812064
0.32500002 25920.77816904  1647.78394623
0.32600002 25669.48058797  1636.81450720
0.32700002 25432.65964804  1626.67298812
0.32800002 25211.31897166  1368.59651518
0.32900002 25002.71858650  1361.39809150
0.33000002 24809.86480500  1354.99083049
0.33100002 24628.03416935  1594.41900763
0.33200002 24462.12454132  1466.25981444
0.33300002 24307.65365116  1461.37620671
0.33400002 24166.60746309  1700.12091554
0.33500002 24037.48738555  1211.48942160
0.33600002 23920.53162233  1209.18293077
0.33700002 23814.49189610  1811.09219447
0.33800002 23721.39954745  1568.10319135
0.33900002 23638.36599465  1808.33508423
0.34000002 23566.57469408  1687.60249376
0.34100002 23505.60512363  1567.58887993
0.34200002 23455.83985969  1568.84392331
0.34300002 23414.61981725  1570.65277173
0.34400002 23384.22670683  1694.18730515
0.34500002 23362.95323941  1455.04479666
0.34600002 23352.17193951  1580.12478912
0.34700002 23348.26528104  1340.65745593
0.34800002 23354.87789404  2200.73024818
0.34900002 23369.49583398  1717.65802515
0.35000002 23392.61164442  1724.26948597
0.35100002 23423.75589753  1855.16155495
0.35200002 23461.82907013  1242.30390810
0.35300002 23508.12392329  1497.93772734
0.35400002 23562.05971260  2007.48758260
0.35500002 23622.70675739  1892.17890089
0.35600002 23689.93285124  1902.89394641
0.35700002 23763.99504161  1658.96457243
0.35800002 23845.00827520  1797.67525901
0.35900002 23931.70660159  1680.00588301
0.36000002 24025.04331770  1300.95615727
0.36100002 24123.49811794  1309.90600985
0.36200002 24228.51974525  1715.01585140
0.36300002 24337.32567825  1461.69984947
0.36400002 24452.01077282  1740.37194919
0.36500002 24571.16286402  1888.53966718
0.36600002 24695.76990954  2039.25329688
0.36700002 24824.50616755  1644.37536643
0.36800002 24958.95581948  1795.92175106
0.36900002 25096.51377703  1671.42789672
0.37000002 25237.28937244  1544.90074211
0.37100002 25382.27809827  1841.23054047
0.37200002 25531.58632619  2285.58771619
0.37300002 25683.58315231  1440.84908310
0.37400002 25839.95272570  1453.49740967
0.37500002 25998.14026205  1612.92469826
0.37600002 26160.63637889  2219.07608596
0.37700002 26324.49392194  1791.11865130
0.37800002 26491.97103672  1656.67548726
0.37900002 26661.68961771  1823.65965624
0.38000002 26833.86171209  1993.62185034
0.38100002 27007.59463595  2011.79581974
0.38200002 27183.68556342  2186.38393344
0.38300002 27361.42411340  2836.83258647
0.38400002 27541.38095801  2544.82372108
0.38500002 27721.93893743  1926.12040862
0.38600002 27905.00856278  1943.86298857
0.38700002 28088.24520571  1961.68313810
0.38800002 28272.81051900  2144.63414352
0.38900002 28458.47136275  1664.82065359
0.39000002 28645.65572731  2184.08812440
0.39100002 28832.56747968  2543.03257219
0.39200002 29020.85593591  1710.77953847
0.39300002 29209.11382853  2589.38806358
0.39400002 29398.71404573  3135.37300152
0.39500002 29587.43759128  2284.74203904
0.39600002 29776.48855792  2659.78496645
0.39700002 29965.19716295  1967.81459092
0.39800002 30155.05398877  2707.17010010
0.39900002 30343.51839269  3823.28349862
0.40000002 30531.60110047  2571.06625049
0.40100002 30719.39255777  2593.33124260
0.40200002 30907.59895286  2428.87377879
0.40300002 31094.09215470  2638.02290339
0.40400002 31280.00019561  2470.33813249
0.40500002 31465.15476752  2299.47361936
0.40600002 31649.59473158  2125.42863490
0.40700002 31832.89846019  1948.17347807
0.40800002 32015.11015680  2160.53981130
0.40900002 32195.54808768  2376.03156145
0.41000002 32375.61857224  2195.55267751
0.41100002 32553.97056166  3017.75321405
0.41200002 32730.00813086  2027.62409978
0.41300002 32905.25905856  3473.80836341
0.41400002 33078.59495179  2470.97115998
0.41500002 33250.86706335  3112.28130460
0.41600002 33420.06026754  2508.50984254
0.41700002 33588.28354387  2527.18257359
0.41800002 33755.40633019  2757.98560489
0.41900002 33918.55823150  2777.93005079
0.42000002 34080.59739017  2582.62779260
0.42100002 34240.86036215  2600.93587635
0.42200002 34398.93369638  2182.61244646
0.42300002 34554.15492940  2197.64435765
0.42400002 34707.15670137  2212.58134456
0.42500002 34858.26630145  2450.18765443
0.42600002 35005.52898238  3138.94593259
0.42700002 35151.68822975  2933.76003868
0.42800002 35294.83343245  2271.22263900
0.42900002 35435.95945958  2514.18144280
0.43000002 35574.37038844  2989.84810098
0.43100002 35708.83578008  2545.32593502
0.43200002 35841.44521707  4190.22355889
0.43300002 35970.89768933  2810.04666065
0.43400002 36098.06315461  2355.39873246
0.43500002 36221.72174484  3079.57092868
0.43600002 36343.58931462  2620.55463172
0.43700002 36461.52186937  3593.28315051
0.43800002 36575.78735856  2890.21885404
0.43900002 36688.15689057  2421.41846953
0.44000002 36796.75580660  3651.15826794
0.44100002 36903.00658914  2446.66945281
0.44200002 37005.86244487  3196.75157879
0.44300002 37105.79059288  3459.74407884
0.44400002 37201.92320503  2483.22849162
0.44500002 37294.33054968  2993.98899842
0.44600002 37384.26208404  3759.92233729
0.44700002 37471.20814492  3525.29142934
0.44800002 37553.67356260  3035.08804117
0.44900002 37634.42403719  2794.35611719
0.45000002 37711.49396932  2551.18268793
0.45100002 37784.05596841  2561.75911607
0.45200002 37854.19133196  2572.19242291
0.45300002 37920.31893168  3098.84860996
0.45400002 37983.74057285  3629.34658374
0.45500002 38043.63835271  2862.40348532
0.45600002 38100.00053684  2872.93067664
0.45700002 38152.82633254  2621.09929327
0.45800002 38201.58604748  2893.19725643
0.45900002 38247.37558513  3430.78975259
0.46000002 38290.36658550  3442.11266734
0.46100002 38328.61427134  2656.17309489
0.46200002 38364.35154706  3463.72564359
0.46300002 38396.38817822  4008.58311579
0.46400002 38424.33473909  3484.12671760
0.46500002 38449.82887478  3225.17179888
0.46600002 38470.97067009  3503.35911012
0.46700002 38488.64536036  2701.90303236
0.46800002 38503.69185206  2708.73485018
0.46900002 38514.45225572  3258.32281527
0.47000002 38521.35050642  3265.84025072
0.47100002 38525.43236344  2727.60074061
0.47200002 38525.73196884  3006.74089402
0.47300002 38523.41946018  3286.81830413
0.47400002 38515.92289329  3567.53752708
0.47500002 38506.32776438  3574.15751250
0.47600002 38493.59041856  3029.63817749
0.47700002 38476.15122681  4689.85829533
