# SAXS profile: number of points = 501, q_min = 0, q_max = 0.5, delta_q = 0.001
#    q    intensity    error
0.00000000 1700912.83420644 255.13692513
0.00100000 1700842.68827889 510.25281860
0.00200000 1700632.19965523 841.81296549
0.00300000 1700281.53283734 1224.20274725
0.00400000 1699790.57067958 1657.29586939
0.00500000 1699159.76106189 2140.94138368
0.00600000 1698388.84162258 2496.63169883
0.00700000 1697478.46263782 2240.67166380
0.00800000 1696428.12256749 3206.24928702
0.00900000 1695239.12691104 3051.43055888
0.01000000 1693910.64420608 3912.93375707
0.01100000 1692443.97067567 3960.31906381
0.01200000 1690838.58269956 4286.27599507
0.01300000 1689095.79358474 5675.36211676
0.01400000 1687214.95121347 6453.59747449
0.01500000 1685197.78827061 5257.81733353
0.01600000 1683043.17064462 6866.81644320
0.01700000 1680753.27094253 5899.44424565
0.01800000 1678327.64989129 5739.88082091
0.01900000 1675766.98256211 6032.76140944
0.02000000 1673072.01486619 6851.23021080
0.02100000 1670244.35362935 7716.52926362
0.02200000 1667282.22446448 9778.61069075
0.02300000 1664188.49241119 5991.07884538
0.02400000 1660963.04882527 8097.19523224
0.02500000 1657607.26291060 8404.06920678
0.02600000 1654121.44462191 7369.11137284
0.02700000 1650506.53939043 9011.76611782
0.02800000 1646762.42103394 10028.78360401
0.02900000 1642891.82792762 8871.61627814
0.03000000 1638894.83021401 7620.86131079
0.03100000 1634772.00900483 11770.35900643
0.03200000 1630524.04623032 8071.09440058
0.03300000 1626154.00865531 11610.74015706
0.03400000 1621659.86074708 11919.20052645
0.03500000 1617045.12717121 11351.65731694
0.03600000 1612309.21108144 9843.14818854
0.03700000 1607454.30207263 10994.98793467
0.03800000 1602481.39567911 13124.32323800
0.03900000 1597392.16081392 12459.65943136
0.04000000 1592185.37283979 12729.52264573
0.04100000 1586864.86611542 13996.14876809
0.04200000 1581431.11331667 11220.25426952
0.04300000 1575884.40517583 10400.83755695
0.04400000 1570227.92965616 12718.84682090
0.04500000 1564461.78114020 11874.26547059
0.04600000 1558586.22499629 13185.64007643
0.04700000 1552604.49002365 11178.75284807
0.04800000 1546516.73805718 15913.65797504
0.04900000 1540325.83299332 13862.93314222
0.05000000 1534031.30785985 16429.47607224
0.05100000 1527636.30817072 14298.67651057
0.05200000 1521139.53196355 20558.20173253
0.05300000 1514545.93228161 12267.82262338
0.05400000 1507854.40649214 18659.69915051
0.05500000 1501068.61486941 18913.46542965
0.05600000 1494186.96945808 15330.35902202
0.05700000 1487214.92686740 12938.77046771
0.05800000 1480150.87003423 14409.26939259
0.05900000 1472996.62022495 15908.36424144
0.06000000 1465755.44625357 20117.49443970
0.06100000 1458428.62547292 16276.06422088
0.06200000 1451016.61105601 15083.31837697
0.06300000 1443522.94573981 18015.16720514
0.06400000 1435945.26936360 15400.51373416
0.06500000 1428290.14249470 15554.08037935
0.06600000 1420555.65993274 17131.90206037
0.06700000 1412744.49951419 15850.99402636
0.06800000 1404860.04166476 14540.30211185
0.06900000 1396902.48363286 16134.22444135
0.07000000 1388871.92720330 22187.23007607
0.07100000 1380772.99620739 16403.58396325
0.07200000 1372604.75638455 21042.03190113
0.07300000 1364371.95798958 18173.43533195
0.07400000 1356074.02765375 22883.75028908
0.07500000 1347713.16709291 16900.32390751
0.07600000 1339290.07094240 21656.32146240
0.07700000 1330809.62935947 17127.52073294
0.07800000 1322270.47318292 17235.79642623
0.07900000 1313674.53554113 17340.50468248
0.08000000 1305026.10006083 19027.28143148
0.08100000 1296325.40579489 23917.20485907
0.08200000 1287572.48682456 17633.30603451
0.08300000 1278771.57148746 20946.27932402
0.08400000 1269922.58044492 27525.57322316
0.08500000 1261029.82136464 19520.74255113
0.08600000 1252092.43919976 19607.76851848
0.08700000 1243113.83223408 18050.01369163
0.08800000 1234093.19489644 31302.77535864
0.08900000 1225036.37322371 26460.78690449
0.09000000 1215941.93695671 19917.12986297
0.09100000 1206812.75495181 19984.82016091
0.09200000 1197649.93420236 18377.93910385
0.09300000 1188456.89425456 16757.24299645
0.09400000 1179231.78924993 16804.05378656
0.09500000 1169979.38547980 16847.70394280
0.09600000 1160700.24482007 28709.92190521
0.09700000 1151397.97796261 18618.10617894
0.09800000 1142073.10616021 18655.76506628
0.09900000 1132727.10441651 20389.08883824
0.10000000 1123360.40551652 22124.58422710
0.10100000 1113975.69238758 27270.12623221
0.10200000 1104575.48576936 30718.24570412
0.10300000 1095160.10879216 29043.64745140
0.10400000 1085732.74858793 17100.29159474
0.10500000 1076295.82142024 22247.03567547
0.10600001 1066845.93090023 20547.45359597
0.10700001 1057390.38370707 18842.69752435
0.10800001 1047927.06287501 23987.05159808
0.10900001 1038459.83386120 22274.96448471
0.11000001 1028989.26863544 18845.93934213
0.11100001 1019516.96860635 17127.88587885
0.11200001 1010045.63237511 23968.38398462
0.11300001 1000573.83488252 20531.77605844
0.11400001 991106.80261347 18806.25246507
0.11500001 981644.25298713 22204.79404815
0.11600001 972187.53229947 20474.27039439
0.11700001 962739.36666410 17040.48759248
0.11800001 953298.43236860 23822.92894691
0.11900001 943868.64237726 28882.38181715
0.12000001 934450.26892952 22048.35513398
0.12100001 925047.00605224 16928.36100822
0.12200001 915657.14145556 25340.81258362
0.12300001 906284.25610960 20228.26554941
0.12400001 896927.89571548 23544.35837188
0.12500001 887590.67620070 23485.65039893
0.12600001 878275.29415217 20077.37417043
0.12700001 868980.97490909 16684.43550453
0.12800001 859708.42472523 28280.10996416
0.12900001 850460.74907445 23217.57954403
0.13000001 841238.81456469 18183.37783389
0.13100001 832042.08399718 31301.42467545
0.13200001 822874.70433493 19699.62135042
0.13300001 813737.39167351 19627.34681246
0.13400001 804629.03037606 27699.35567660
0.13500001 795552.81968306 19475.13394406
0.13600001 786508.48754482 19395.30021736
0.13700001 777499.05643845 22531.92371804
0.13800001 768522.90260213 24035.55491230
0.13900001 759585.24016744 28712.32343235
0.14000001 750683.02176612 25403.11465459
0.14100001 741819.83175717 18960.91579397
0.14200001 732994.52340966 18867.27992245
0.14300001 724212.30997938 20335.88262342
0.14400001 715466.98348760 17117.54838737
0.14500001 706767.57882387 18573.85284766
0.14600001 698109.35656918 20011.30565008
0.14700001 689497.53035298 18368.21507515
0.14800001 680928.67929639 24350.01072044
0.14900001 672405.27782289 16642.03141130
0.15000001 663929.50238587 22557.00590786
0.15100001 655501.12710588 17934.51168386
0.15200001 647122.15883696 22277.18136916
0.15300001 638792.26926341 17707.32253957
0.15400001 630510.42082854 21989.05196408
0.15500001 622281.23486538 14561.38158304
0.15600001 614101.96229066 20246.94265228
0.15700001 605977.98678537 15797.84686110
0.15800001 597902.60595766 14259.97782514
0.15900001 589883.90286050 15572.93577057
0.16000001 581917.02466193 19674.61553251
0.16100001 574008.34245232 16738.08405602
0.16200001 566152.57321181 17995.16038902
0.16300001 558354.46295491 15109.07248083
0.16400001 550612.42260216 17715.95553359
0.16500001 542928.24251564 18926.47942764
0.16600001 535300.94196694 16091.14707524
0.16700001 527731.83320442 15958.61138958
0.16800001 520220.48822578 13187.58999919
0.16900001 512770.65263537 14383.21748557
0.17000001 505379.41175616 12962.98252365
0.17100001 498048.48118479 16704.54684775
0.17200001 490777.86744881 12735.68626171
0.17300001 483568.18964078 17669.58248391
0.17400001 476420.98917399 17508.47217900
0.17500001 469334.37930136 18585.64229809
0.17600001 462308.18423889 13501.71115837
0.17700001 455346.68088876 12157.75695395
0.17800001 448446.64085500 14448.95145080
0.17900001 441609.37714168 13115.79912061
0.18000001 434835.97193883 17708.69579368
0.18100001 428126.91280484 16363.01138033
0.18200001 421478.46886189 13883.50142014
0.18300001 414896.54312571 18321.83220994
0.18400001 408376.96329022 13598.95351999
0.18500001 401922.69862811 13456.37258578
0.18600001 395532.25748704 11094.68034666
0.18700001 389205.78242904 10975.60358304
0.18800001 382943.36321313 15199.02280402
0.18900001 376747.82750666 15032.23902775
0.19000001 370612.76557765 10618.05623549
0.19100001 364547.37401902 10498.96486782
0.19200001 358543.35450677 12455.79672412
0.19300001 352606.57885749 12313.02231553
0.19400001 346733.40964221 14198.73379579
0.19500001 340925.68968949 14032.50205073
0.19600001 335181.86876334 11885.54962802
0.19700001 329503.35502930 13700.75014958
0.19800001 323889.78684771 10634.92165374
0.19900001 318341.86637413 11460.30773108
0.20000001 312856.49660858 9432.62381855
0.20100001 307437.57846597 13041.50269490
0.20200001 302081.83484843 10118.23153647
0.20300001 296791.23000895 10898.17448103
0.20400001 291565.02437422 12551.87489258
0.20500001 286402.12883653 14159.72191896
0.20600001 281303.64004916 12228.26981094
0.20700001 276268.73902507 9481.54357152
0.20800001 271297.01846357 12757.74289631
0.20900001 266391.14087836 8391.32133434
0.21000001 261546.07543238 8277.93367875
0.21100001 256764.34566179 9798.12789364
0.21200001 252045.35762851 10468.70442400
0.21300001 247388.67251071 7941.17676302
0.21400001 242795.25120685 8613.16194376
0.21500001 238264.36607734 12351.62532140
0.21600001 233793.65851013 9892.97912758
0.21700001 229385.25767225 7500.89828052
0.21800001 225038.27248560 8131.75836074
0.21900001 220750.94069691 9470.21580366
0.22000001 216524.11066220 7895.55206862
0.22100001 212360.04476378 8485.90779000
0.22200001 208254.50823959 6966.11363000
0.22300001 204208.60384022 8233.69129617
0.22400001 200220.33814054 8108.92407813
0.22500001 196294.08143497 6654.36967531
0.22600001 192424.76134454 7862.47612034
0.22700001 188614.57567178 10966.05194813
0.22800001 184861.53599545 6984.99346791
0.22900001 181165.48238131 7500.25132528
0.23000001 177527.07950588 7381.57631494
0.23100001 173946.68608556 6658.67945826
0.23200001 170420.59765759 6551.82018681
0.23300001 166951.79429699 6446.00908267
0.23400001 163538.32853342 8647.08953017
0.23500001 160178.71975368 8505.49042120
0.23600001 156874.80392533 7249.96940631
0.23700001 153624.72043288 6581.28333463
0.23800001 150428.68568995 5932.15550077
0.23900001 147286.02275412 6362.75648393
0.24000001 144196.10902573 6776.49646419
0.24100001 141159.71759005 5636.50778998
0.24200001 138174.90807705 8058.36102023
0.24300001 135241.61301942 5444.82759772
0.24400001 132359.01925466 5837.03302524
0.24500001 129527.34235093 5257.51507473
0.24600001 126746.02317593 6104.72249505
0.24700001 124015.40551394 7381.39728537
0.24800001 121333.00047254 5891.32411664
0.24900001 118699.32116420 4896.34722966
0.25000001 116114.50616608 5683.22477316
0.25100001 113577.00744129 7727.77995190
0.25200001 111088.08342762 4637.37226208
0.25300001 108645.95600700 5795.17556759
0.25400001 106249.64716984 4064.04919652
0.25500001 103899.46635391 5585.63557545
0.25600001 101595.20274968 3916.49525130
0.25700001 99335.58882981  4613.14496352
0.25800001 97120.67764791  5659.70775772
0.25900001 94949.95990072  3703.04861134
0.26000001 92823.28783737  3634.03189078
0.26100001 90737.63260596  4279.18695617
0.26200001 88697.23126470  4198.92712675
0.26300001 86697.48953095  3776.54282266
0.26400001 84739.18062693  4042.05910717
0.26500001 82822.83492879  4296.02065104
0.26600001 80946.33601083  4538.66127489
0.26700001 79110.91372959  3180.25888242
0.26800001 77315.16397919  4367.53381986
0.26900001 75557.92817914  3978.12510688
0.27000001 73840.03036094  3001.59737621
0.27100001 72160.23145815  3532.96509938
0.27200001 70518.51899995  3754.05353662
0.27300001 68913.60778395  3115.58435535
0.27400001 67344.32130840  2777.95338544
0.27500001 65813.71974739  2997.15693914
0.27600001 64316.83307818  3206.83744904
0.27700001 62856.74734766  3669.57708383
0.27800001 61430.82859927  2827.96832841
0.27900001 60039.59280983  2773.82931909
0.28000001 58682.16186479  2720.79856363
0.28100001 57358.02774474  2668.86915728
0.28200001 56067.35480023  3570.08898588
0.28300001 54809.03581974  3035.32454736
0.28400001 53582.95931579  2519.73878109
0.28500001 52388.69528782  2696.97016107
0.28600001 51224.80756187  3748.88771886
0.28700001 50092.07679320  3245.96672984
0.28800001 48989.03003579  2123.67455257
0.28900001 47917.29665835  2709.72325429
0.29000001 46873.35959515  2250.62446749
0.29100001 45859.55529929  2812.10806406
0.29200001 44873.65405721  2563.85634592
0.29300001 43915.70009933  2130.35071266
0.29400001 42985.24195269  2092.30675109
0.29500001 42082.81756354  2055.32490710
0.29600001 41206.17735679  2753.60293222
0.29700001 40355.59629117  2525.45333545
0.29800001 39531.41334795  1772.98397259
0.29900001 38732.66297042  1742.96991618
0.30000001 37958.69468079  2056.60217516
0.30100001 37210.32743845  2022.75349531
0.30200001 36484.89066029  1658.23835901
0.30300001 35783.53429610  2121.24801350
0.30400001 35106.36339911  2409.17430232
0.30500001 34451.05937605  1897.56444027
0.30600001 33818.53410069  1713.07792597
0.30700001 33208.64614655  1994.51138199
0.30800001 32620.21912161  2267.92084180
0.30900001 32053.25813948  1788.57188886
0.31000001 31508.09568051  1910.80855301
0.31100001 30981.77394352  1739.93650705
0.31200001 30476.83717452  1430.88757309
0.31300001 29991.27336903  1553.84794682
0.31400001 29526.57097625  1674.15665362
0.31500001 29079.87457106  1516.22473192
0.31600002 28652.12102239  1771.13094486
0.31700002 28242.32160698  1616.59056533
0.31800002 27850.97680893  1999.00395511
0.31900002 27477.52489069  1450.81338292
0.32000002 27121.22934013  1697.65343093
0.32100002 26782.17810135  1940.36889532
0.32200002 26459.77288925  1666.56887434
0.32300002 26153.02693065  1525.24460282
0.32400002 25862.64434231  1512.96476567
0.32500002 25587.43360623  1626.59323137
0.32600002 25328.03299554  1366.57408498
0.32700002 25083.34917696  1974.56134071
0.32800002 24854.13110133  1471.86171352
0.32900002 24637.92789781  1219.57748869
0.33000002 24437.39294028  1455.97994033
0.33100002 24248.11580769  1328.31184685
0.33200002 24074.78148110  1563.29600950
0.33300002 23913.03829048  1677.26058512
0.33400002 23765.04194534  1313.61275574
0.33500002 23628.89690431  1190.89646037
0.33600002 23504.96333128  1306.99354793
0.33700002 23392.28125106  1304.58758715
0.33800002 23292.45940511  2013.51674863
0.33900002 23202.92739579  1301.68428855
0.34000002 23124.82965123  1419.40211121
0.34100002 23057.52514391  1655.99153426
0.34200002 23001.67380589  1893.49787738
0.34300002 22954.41872235  1776.67209325
0.34400002 22918.26371980  1304.62222404
0.34500002 22891.15388477  1544.46622575
0.34600002 22874.82947370  1428.76191659
0.34700002 22865.40710641  1790.36146122
0.34800002 22866.71550824  1197.07261355
0.34900002 22876.05885096  1321.09246121
0.35000002 22894.08034417  1205.37338721
0.35100002 22920.35526669  1573.25326002
0.35200002 22953.62421376  1215.39445968
0.35300002 22995.15618003  1465.25142119
0.35400002 23044.60616430  1349.83787001
0.35500002 23100.90351880  1727.02362886
0.35600002 23163.82188275  1984.67635292
0.35700002 23233.74930933  1621.94811611
0.35800002 23310.73187832  1380.81126821
0.35900002 23393.57262412  1389.57827969
0.36000002 23483.21315768  2034.58568435
0.36100002 23578.07599049  1536.34750431
0.36200002 23679.69343271  1418.29530533
0.36300002 23785.25869738  1818.14526095
0.36400002 23896.70678762  1570.01371031
0.36500002 24012.90444741  1318.30851661
0.36600002 24134.54428092  1461.46739816
0.36700002 24260.56732493  1473.10171775
0.36800002 24392.44885406  2025.18316204
0.36900002 24527.55612765  1361.27942957
0.37000002 24666.01835260  2058.99597952
0.37100002 24808.82120929  1661.19874686
0.37200002 24955.98446282  1535.91613652
0.37300002 25106.11135418  1549.29820506
0.37400002 25260.66327645  2273.45980258
0.37500002 25417.35163839  1576.89257035
0.37600002 25578.32247513  2169.68130673
0.37700002 25740.83721244  1459.50553908
0.37800002 25907.06221682  2209.22483520
0.37900002 26075.73300002  1486.31685141
0.38000002 26246.88352739  2100.01325051
0.38100002 26419.89990573  1665.24636995
0.38200002 26595.32048930  1833.48148139
0.38300002 26772.42452181  1850.51007061
0.38400002 26952.08167563  1867.77934861
0.38500002 27132.41280553  2670.64351897
0.38600002 27315.31279070  1902.78477914
0.38700002 27498.69642635  2240.59389097
0.38800002 27683.25046473  2099.91306349
0.38900002 27869.19362394  2119.45227551
0.39000002 28056.77948348  1974.63623360
0.39100002 28244.29225800  1660.76446345
0.39200002 28433.22757061  2178.98049811
0.39300002 28622.34354546  2199.05475878
0.39400002 28812.82607714  2390.02403633
0.39500002 29002.65019260  2411.86050428
0.39600002 29192.83320969  1912.27663000
0.39700002 29382.83421883  1929.57081457
0.39800002 29574.08988486  2478.01310886
0.39900002 29764.22613328  1964.43901787
0.40000002 29954.04070818  2342.25632415
0.40100002 30143.56165846  1817.65685412
0.40200002 30333.75757997  2200.41087911
0.40300002 30522.27579388  1849.65000075
0.40400002 30710.38315212  2798.48379733
0.40500002 30897.82142106  2446.18063781
0.40600002 31084.72172574  2277.26682153
0.40700002 31270.46041016  2870.62840167
0.40800002 31455.41855555  2122.76902180
0.40900002 31638.65529803  2140.35513233
0.41000002 31821.51561049  2354.15583641
0.41100002 32002.85118605  2175.55392671
0.41200002 32182.06879987  2392.41510794
0.41300002 32360.61102737  2813.43165603
0.41400002 32537.18452893  3240.70373264
0.41500002 32712.92149092  2245.41503753
0.41600002 32885.70939984  2468.40146451
0.41700002 33057.54124988  2072.70793458
0.41800002 33228.48459034  2714.93346210
0.41900002 33395.48833666  2735.09062437
0.42000002 33561.42914505  2543.28522112
0.42100002 33725.86745815  2348.33226239
0.42200002 33887.98556349  2580.23134307
0.42300002 34047.55726737  3248.13711722
0.42400002 34204.94198157  2398.62167012
0.42500002 34360.45940035  2854.32349764
0.42600002 34512.31509478  3315.77082985
0.42700002 34663.10431409  2892.98282314
0.42800002 34810.99863187  3136.12301536
0.42900002 34956.97732431  2480.19765869
0.43000002 35100.32824769  2496.15996162
0.43100002 35239.71837437  2968.59401653
0.43200002 35377.43742371  2757.31760347
0.43300002 35512.11793860  3005.39068356
0.43400002 35644.47777376  2790.96274194
0.43500002 35773.48881284  2573.54490715
0.43600002 35900.78133325  2588.62596071
0.43700002 36024.23129819  2603.47131930
0.43800002 36144.08350368  2380.08801151
0.43900002 36262.17156704  3589.95515526
0.44000002 36376.46664507  3128.19439739
0.44100002 36488.47816923  2661.10483899
0.44200002 36597.17581775  2431.88244834
0.44300002 36703.05184523  3177.75037936
0.44400002 36805.32897138  2456.75582527
0.44500002 36903.71814530  3456.40240529
0.44600002 36999.76888823  2977.00154583
0.44700002 37092.99091379  3240.44383980
0.44800002 37181.67392007  3005.02302863
0.44900002 37268.73597501  2515.63979753
0.45000002 37352.22642199  5306.44429812
0.45100002 37431.17451343  3299.18387797
0.45200002 37507.81095651  3313.25263787
0.45300002 37580.43390389  3326.99597119
0.45400002 37650.48126650  2826.61001504
0.45500002 37717.03150107  2837.82958463
0.45600002 37780.06261056  2848.80575616
0.45700002 37839.56920924  3379.45208624
0.45800002 37895.20652585  3391.81062085
0.45900002 37947.79721419  2880.23794506
0.46000002 37997.63210288  3153.04366133
0.46100002 38042.79524997  3163.63900293
0.46200002 38085.53126418  3703.05638032
0.46300002 38124.43523703  3449.49906374
0.46400002 38159.44113712  3460.10748910
0.46500002 38192.00404493  2936.58333020
0.46600002 38220.13999540  3480.51721364
0.46700002 38244.99202029  3221.75828049
0.46800002 38267.13261321  2961.30219763
0.46900002 38285.04732527  3778.73435010
0.47000002 38299.16909860  2976.42006757
0.47100002 38310.43464649  4068.56835229
0.47200002 38317.98193504  4349.85751544
0.47300002 38322.86318132  3814.65798187
0.47400002 38322.61876936  3276.58406008
0.47500002 38320.35374957  3283.28806488
0.47600002 38314.87222799  3838.00093299
0.47700002 38304.74952604  2746.45067119
