# SAXS profile: number of points = 501, q_min = 0, q_max = 0.5, delta_q = 0.001
#    q    intensity    error
0.00000000 1682732.95097188 277.65093691
0.00100000 1682663.38056516 504.79902616
0.00200000 1682454.61497188 908.52552085
0.00300000 1682106.82606905 1312.04337107
0.00400000 1681619.89529373 1765.70095715
0.00500000 1680994.25716036 2420.63182612
0.00600000 1680229.66004293 2117.08945785
0.00700000 1679326.76147044 2418.23063702
0.00800000 1678285.03455006 2265.68489230
0.00900000 1677105.78850000 3521.92230640
0.01000000 1675788.22497823 3594.56589779
0.01100000 1674333.59786291 3315.18066811
0.01200000 1672741.37446411 4240.39957018
0.01300000 1671012.90928877 4561.86544356
0.01400000 1669147.52222956 4882.25671896
0.01500000 1667146.94072837 4801.38340310
0.01600000 1665010.07851754 4245.77589002
0.01700000 1662738.99066644 5836.21411904
0.01800000 1660333.35606922 5678.34033327
0.01900000 1657793.82048863 5470.71985447
0.02000000 1655121.05673228 9384.53681619
0.02100000 1652316.71958928 9814.76175935
0.02200000 1649378.99953935 8535.53671041
0.02300000 1646310.84594561 8297.40704125
0.02400000 1643112.05797095 6161.67049835
0.02500000 1639784.04017871 8313.70546340
0.02600000 1636327.03816863 9940.68721154
0.02700000 1632742.07268368 6857.51701935
0.02800000 1629028.96304681 8503.53157707
0.02900000 1625190.51894267 8044.69343813
0.03000000 1621226.70482335 9800.31588113
0.03100000 1617138.06698891 8538.48938658
0.03200000 1612925.40261879 7983.98111069
0.03300000 1608591.76852071 10664.96391695
0.03400000 1604135.10780943 10948.22261595
0.03500000 1599558.77901320 10365.14136665
0.03600000 1594862.41212680 10621.78415564
0.03700000 1590047.98472338 10875.92871849
0.03800000 1585116.73445050 13909.39998852
0.03900000 1580070.04151026 11376.50482572
0.04000000 1574906.83415760 13559.94847045
0.04100000 1569631.03263973 11866.41115696
0.04200000 1564242.92938124 16142.98778013
0.04300000 1558742.74520459 12345.24311506
0.04400000 1553133.97450312 11532.02029626
0.04500000 1547416.43095637 11744.89125668
0.04600000 1541590.44327955 13041.85575642
0.04700000 1535659.27962017 12162.42206024
0.04800000 1529623.03248406 12367.00279305
0.04900000 1523484.59526043 14853.97549520
0.05000000 1517243.33732655 13928.29448524
0.05100000 1510902.69525237 14142.04988636
0.05200000 1504461.18167919 14352.56034207
0.05300000 1497923.89991297 14559.82098590
0.05400000 1491289.31776746 12303.13744532
0.05500000 1484561.53762527 12470.31749778
0.05600000 1477738.78825139 13898.13395205
0.05700000 1470826.54343439 14075.81067771
0.05800000 1463823.02352549 15545.80123571
0.05900000 1456730.45186000 15732.68961490
0.06000000 1449551.43911915 19895.09443139
0.06100000 1442287.87303222 16095.93341522
0.06200000 1434939.87780729 14916.20072704
0.06300000 1427511.06763251 13704.10689001
0.06400000 1419999.11362825 15229.49120590
0.06500000 1412410.49650747 18177.72394036
0.06600000 1404743.28783796 18352.97191431
0.06700000 1397000.23171602 18524.22393947
0.06800000 1389184.52506234 17253.67260890
0.06900000 1381296.63836550 15953.97692007
0.07000000 1373336.36186344 21939.04940814
0.07100000 1365308.65774546 19168.93445258
0.07200000 1357212.27490318 16347.62261704
0.07300000 1349052.06715328 20964.27010586
0.07400000 1340827.37619660 18101.17042695
0.07500000 1332540.50096127 25824.63611909
0.07600000 1324192.02801791 19882.74423280
0.07700000 1315786.97219593 20013.12078549
0.07800000 1307323.88514918 18590.14651863
0.07900000 1298804.72498065 18702.78891695
0.08000000 1290233.63820319 17243.97338352
0.08100000 1281610.75838785 25222.10090845
0.08200000 1272936.44143182 20602.47727135
0.08300000 1264214.75269455 15929.10663154
0.08400000 1255445.59083344 16006.93203447
0.08500000 1246633.15074556 17689.72523953
0.08600000 1237776.88929917 16152.98916376
0.08700000 1228879.92872157 21087.58056709
0.08800000 1219941.30525400 30943.81266101
0.08900000 1210967.08474063 21252.47333542
0.09000000 1201955.91372581 18047.36889238
0.09100000 1192910.43261780 24693.24711531
0.09200000 1183831.79404933 21468.79059383
0.09300000 1174723.42136338 19876.32122350
0.09400000 1165583.42619519 23253.39044544
0.09500000 1156416.72521813 19982.88195102
0.09600000 1147223.75084209 20030.52763129
0.09700000 1138008.08222523 18401.59155469
0.09800000 1128770.07018443 20114.68359643
0.09900000 1119511.62874460 16792.67522080
0.10000000 1110232.71256456 18502.02902499
0.10100000 1100936.47719300 18528.76178260
0.10200000 1091624.71509530 18552.16290567
0.10300000 1082298.32004002 18572.24004554
0.10400000 1072960.25505174 25348.68721813
0.10500000 1063612.98926176 27058.31571990
0.10600001 1054253.02866439 25381.14285937
0.10700001 1044888.11302542 20312.62587308
0.10800001 1035515.39887483 16930.67756839
0.10900001 1026139.17138501 16931.29712474
0.11000001 1016759.69968188 22007.76473551
0.11100001 1007378.94353229 23693.55386721
0.11200001 997999.54837841 16916.09314138
0.11300001 988619.94636556 16905.40187877
0.11400001 979245.08863332 16891.97857427
0.11500001 969875.06332053 18563.40958607
0.11600001 960510.88685084 25285.45028708
0.11700001 951155.79310159 16835.45833076
0.11800001 941807.81016006 21854.65126408
0.11900001 932471.33366372 18462.93327618
0.12000001 923146.45798570 18430.61990186
0.12100001 913836.66105723 20067.85402218
0.12200001 904540.70168804 25033.16509856
0.12300001 895261.58895643 19982.23960696
0.12400001 885999.25390088 16612.48679338
0.12500001 876756.06159962 19884.82841406
0.12600001 867534.75969149 19831.84554109
0.12700001 858334.77424707 16480.02844219
0.12800001 849156.55710581 19717.41618526
0.12900001 840003.30946389 22932.09142920
0.13000001 830875.60861224 17959.37712667
0.13100001 821773.62220806 16271.11848670
0.13200001 812700.55097911 16213.37675634
0.13300001 803657.77766666 19384.22651115
0.13400001 794643.74319065 17700.69021408
0.13500001 785662.07247249 24041.26055116
0.13600001 776712.15636629 17557.57912251
0.13700001 767797.07147269 17482.74014180
0.13800001 758915.18026305 28482.08805837
0.13900001 750071.80178688 23627.26287051
0.14000001 741263.98570771 18813.28084451
0.14100001 732494.83552555 17162.35480579
0.14200001 723763.52683995 26392.03825101
0.14300001 715075.09477543 21623.87188596
0.14400001 706423.67399450 24583.54501461
0.14500001 697818.02777815 19866.88018801
0.14600001 689253.08345869 16717.83432794
0.14700001 680734.77029272 16623.54387479
0.14800001 672259.11392702 16527.49109564
0.14900001 663828.66904566 17923.37490987
0.15000001 655445.66252411 20784.18293930
0.15100001 647110.03510021 20655.75329504
0.15200001 638823.51183667 20525.40040384
0.15300001 630585.87036085 24763.10829762
0.15400001 622396.03104596 20258.99176659
0.15500001 614258.71160143 17248.38543577
0.15600001 606170.72146495 24268.04597918
0.15700001 598138.19932183 15593.46359228
0.15800001 590153.82090460 23927.78779794
0.15900001 582225.89751638 16768.10663994
0.16000001 574349.35862898 15257.59143217
0.16100001 566530.74057379 15143.36741037
0.16200001 558764.94467195 17760.34460479
0.16300001 551056.34710898 18978.38149036
0.16400001 543403.54131928 16139.08593910
0.16500001 535808.13103018 17344.11002029
0.16600001 528269.46806015 13233.15079968
0.16700001 520788.54193003 14436.25906390
0.16800001 513365.01833366 15616.56459507
0.16900001 506002.58519815 23225.51975726
0.17000001 498698.52322968 15349.94126983
0.17100001 491454.21026013 15215.42306815
0.17200001 484269.94043237 13823.48610243
0.17300001 477146.18967149 16189.57098010
0.17400001 470084.37104713 13573.68685502
0.17500001 463082.97677245 19560.62586267
0.17600001 456141.30139564 14532.66254883
0.17700001 449264.06928511 13194.88633811
0.17800001 442447.77107513 13067.69553592
0.17900001 435693.81877686 15292.85376140
0.18000001 429003.37759315 11647.44225182
0.18100001 422376.69407244 11530.88429286
0.18200001 415810.16917860 12555.38865144
0.18300001 409309.68452031 21464.20087020
0.18400001 402871.10984151 12297.64120886
0.18500001 396497.18824104 14380.95369689
0.18600001 390186.78545862 18606.05774361
0.18700001 383939.90839310 11909.81652103
0.18800001 377756.45698304 10709.39606145
0.18900001 371639.33000811 12710.06568680
0.19000001 365582.19859786 12568.71658165
0.19100001 359594.26871491 14498.84159966
0.19200001 353667.06010250 11262.52806113
0.19300001 347806.55432956 12145.40545109
0.19400001 342009.25888729 12004.52555420
0.19500001 336276.81257137 10875.19263247
0.19600001 330607.55279035 13677.23510527
0.19700001 325003.27792057 10617.85759144
0.19800001 319463.20088890 13350.36779607
0.19900001 313988.21255997 10361.61150417
0.20000001 308575.30262645 10233.90039527
0.20100001 303228.22117276 13781.72330366
0.20200001 297943.70298293 14515.81789540
0.20300001 292723.73806947 10748.81616995
0.20400001 287567.46776957 8842.70005187
0.20500001 282473.91069896 8728.44425316
0.20600001 277444.43089233 9476.11498504
0.20700001 272477.74337774 11051.69779381
0.20800001 267573.74836475 8388.43740776
0.20900001 262734.89694662 10758.99453856
0.21000001 257956.19778750 11430.03966429
0.21100001 253240.09735689 11274.24966730
0.21200001 248586.28642162 8736.56544930
0.21300001 243994.12872224 7832.21190226
0.21400001 239464.51857955 10811.82352501
0.21500001 234996.96115590 11420.85285213
0.21600001 230588.95767675 11258.50639085
0.21700001 226242.52212601 9617.57007029
0.21800001 221956.85503144 8020.41133577
0.21900001 217730.25560735 7903.60865224
0.22000001 213563.46556133 8495.55506172
0.22100001 209458.68949541 7672.47215900
0.22200001 205411.92072826 8245.23488790
0.22300001 201424.16432819 8121.42268974
0.22400001 197493.42162298 9331.56461294
0.22500001 193624.02877276 7220.24037436
0.22600001 189810.76992746 7109.36272382
0.22700001 186056.06733414 8272.05314485
0.22800001 182357.91597363 8769.59259389
0.22900001 178716.05087302 8015.41526071
0.23000001 175131.13097935 8495.61156558
0.23100001 171603.53051480 8360.52440207
0.23200001 168129.78576699 7051.36354855
0.23300001 164712.45336227 5781.40738644
0.23400001 161349.87136098 7962.61652826
0.23500001 158040.46973453 7273.02276117
0.23600001 154786.16762726 7703.70792717
0.23700001 151585.00093232 6493.90174709
0.23800001 148437.18776976 5321.47343324
0.23900001 145342.10020784 5232.31585497
0.24000001 142299.12189133 7201.75889957
0.24100001 139309.01000611 5056.91730242
0.24200001 136369.82016921 5467.74819832
0.24300001 133481.51097814 5373.96588618
0.24400001 130643.18659871 5761.36480154
0.24500001 127855.18953078 5661.42806023
0.24600001 125116.92376462 5562.69869372
0.24700001 122428.58183295 5920.64649752
0.24800001 119787.80655066 4474.07478632
0.24900001 117195.16449327 5273.78265169
0.25000001 114650.77689263 5179.92234506
0.25100001 112152.91826337 5511.19466419
0.25200001 109703.13021618 6661.17438186
0.25300001 107299.51278495 4496.92279357
0.25400001 104941.03237470 4013.99467824
0.25500001 102627.98149595 6305.46348143
0.25600001 100360.25445879 4255.77679168
0.25700001 98136.61798162  4557.46475470
0.25800001 95956.84786080  4846.30083051
0.25900001 93820.84548143  4024.91446159
0.26000001 91728.24433868  3950.27702935
0.26100001 89675.98273417  3876.69291703
0.26200001 87668.24276091  3804.36357462
0.26300001 85700.67000461  4072.49603132
0.26400001 83773.93946804  3996.01710171
0.26500001 81888.52317530  3920.82267516
0.26600001 80042.26633529  4167.40079395
0.26700001 78236.68378238  3774.13780426
0.26800001 76470.00724323  3394.12143210
0.26900001 74741.27205616  3935.12815997
0.27000001 73051.31060878  3563.44310013
0.27100001 71398.82090238  4369.60804601
0.27200001 69783.80339955  4286.47032667
0.27300001 68205.04622199  2803.22753238
0.27400001 66661.43667152  3574.71971068
0.27500001 65155.71197140  2967.19126360
0.27600001 63683.24782059  3175.24688661
0.27700001 62247.12683337  3893.55796770
0.27800001 60844.46762459  2800.97519966
0.27900001 59476.03762842  2747.79306848
0.28000001 58140.75478864  2940.75951639
0.28100001 56838.20751334  2644.68192077
0.28200001 55568.65826713  2594.77862059
0.28300001 54330.91638363  3008.84629173
0.28400001 53124.79524117  3179.51914567
0.28500001 51950.03665627  2451.52234584
0.28600001 50805.09378141  2405.87532989
0.28700001 49690.83999672  2361.30882841
0.28800001 48605.69566733  2317.76270760
0.28900001 47551.24472084  2689.02301624
0.29000001 46524.26759261  2436.94125185
0.29100001 45526.88073125  3788.74719379
0.29200001 44556.84070679  2545.75521429
0.29300001 43614.23972970  1923.38806312
0.29400001 42698.69498402  1889.41734248
0.29500001 41810.76031309  2042.03763036
0.29600001 40948.03180255  1824.23490316
0.29700001 40110.90620209  1972.25335132
0.29800001 39299.77794660  2820.15219895
0.29900001 38513.57051321  1906.42183065
0.30000001 37751.61288173  2727.17664368
0.30100001 37014.84397897  2347.48151628
0.30200001 36300.53791882  1979.83143182
0.30300001 35610.01642326  2273.34355608
0.30400001 34943.18866712  2078.24624436
0.30500001 34297.76657647  1889.12107247
0.30600001 33674.72165762  1550.72100575
0.30700001 33073.85010646  1680.81314199
0.30800001 32494.11285731  1807.32264269
0.30900001 31935.29680826  1930.48878346
0.31000001 31397.93904049  2050.59949582
0.31100001 30879.09237205  3179.31150115
0.31200001 30381.26531311  2139.60071098
0.31300001 29902.28304200  1830.91687735
0.31400001 29443.82584266  1530.34292063
0.31500001 29003.08453338  1512.22089917
0.31600002 28580.91355990  1902.63150577
0.31700002 28176.28576330  1478.40978400
0.31800002 27789.78182293  1595.68934783
0.31900002 27420.81595613  1711.05899668
0.32000002 27068.55837842  1564.02137716
0.32100002 26733.26844478  1549.46031243
0.32200002 26414.42029590  1407.75659633
0.32300002 26110.85636394  1776.58275113
0.32400002 25823.28024598  1384.77346876
0.32500002 25550.59144506  1749.19357316
0.32600002 25293.35280134  1488.76681638
0.32700002 25050.59714610  1848.73415692
0.32800002 24822.96720124  1592.51753621
0.32900002 24608.06088954  1218.09907171
0.33000002 24408.56617641  1333.07390485
0.33100002 24220.04715630  1568.00592715
0.33200002 24047.13847390  1441.38554838
0.33300002 23885.71878870  1196.67456798
0.33400002 23737.63763628  2147.06942588
0.33500002 23601.16992950  1308.44892285
0.33600002 23476.72882297  1542.77330766
0.33700002 23363.22592015  2132.12809844
0.33800002 23262.41187622  1419.47243991
0.33900002 23171.52248168  1299.92247278
0.34000002 23092.07343141  1653.62345674
0.34100002 23022.95313908  1181.07755197
0.34200002 22965.16762315  1654.18110224
0.34300002 22915.78789136  2246.66395127
0.34400002 22877.30296795  1657.46067852
0.34500002 22847.66515602  1185.79387776
0.34600002 22828.63511795  1425.87661700
0.34700002 22816.34642633  1310.11467385
0.34800002 22814.51540462  1313.77393180
0.34900002 22820.62244935  1437.69928240
0.35000002 22835.15151160  1202.27078403
0.35100002 22857.77521657  1206.89058860
0.35200002 22887.37679165  1696.64132192
0.35300002 22924.97725957  1217.31635014
0.35400002 22970.35531673  1590.12292211
0.35500002 23022.44736301  1598.21837164
0.35600002 23080.98389510  1483.18409535
0.35700002 23146.45648318  1367.26124922
0.35800002 23218.84878682  1625.43558631
0.35900002 23296.94732449  1761.24930115
0.36000002 23381.82037972  2025.80101365
0.36100002 23471.65606657  2039.21757565
0.36200002 23568.27123027  2309.92637269
0.36300002 23668.56830909  1550.76466907
0.36400002 23774.82290230  1562.00593867
0.36500002 23885.60222477  1442.45158668
0.36600002 24001.85676604  1453.43250531
0.36700002 24122.32036745  1331.55214736
0.36800002 24248.58114272  1610.59083579
0.36900002 24378.04321611  1623.57775510
0.37000002 24510.77730008  2046.03723204
0.37100002 24647.84923052  1512.88505743
0.37200002 24789.08899086  2219.11935158
0.37300002 24933.30306991  1398.75836848
0.37400002 25081.89886685  2539.54238057
0.37500002 25232.62662755  1423.12020921
0.37600002 25387.44336348  1722.79198826
0.37700002 25543.90346632  1593.17333467
0.37800002 25704.04106497  1607.40228414
0.37900002 25866.50429900  2211.58622233
0.38000002 26031.53191640  1636.47233145
0.38100002 26198.35635586  1801.39906837
0.38200002 26367.54794366  1666.29727124
0.38300002 26538.43565826  1681.47536297
0.38400002 26711.90006313  2468.17968276
0.38500002 26885.87982073  1868.03101844
0.38600002 27062.65633072  1570.98727442
0.38700002 27239.77908440  1743.89073960
0.38800002 27418.16732912  2079.80518128
0.38900002 27597.87907912  2260.26640366
0.39000002 27779.28216335  1792.18047368
0.39100002 27960.67799889  1808.49673865
0.39200002 28143.44276767  1824.96163273
0.39300002 28326.40307907  2176.31765167
0.39400002 28510.78098001  2027.11662372
0.39500002 28694.58245824  2045.34993453
0.39600002 28878.77052219  2063.67703929
0.39700002 29062.86711599  2429.07454864
0.39800002 29248.06867002  1925.54669212
0.39900002 29432.30487480  2119.12605139
0.40000002 29616.38641013  2137.71087237
0.40100002 29800.03859026  1976.63665334
0.40200002 29984.51630175  1993.82050595
0.40300002 30167.33382652  1828.14051650
0.40400002 30349.79744678  2396.87536692
0.40500002 30531.70688498  3160.94776357
0.40600002 30713.07037691  1875.03303535
0.40700002 30893.43336117  2836.01731693
0.40800002 31073.04607793  2478.23090737
0.40900002 31251.01100258  2114.13099450
0.41000002 31428.61117294  1937.57397062
0.41100002 31604.82874431  3320.40346521
0.41200002 31779.08206850  2362.45707291
0.41300002 31952.64095412  1984.25909727
0.41400002 32124.35394629  2599.66346628
0.41500002 32295.28331549  2418.27092925
0.41600002 32463.33283321  2233.63972143
0.41700002 32630.57163648  2864.31171397
0.41800002 32796.98667928  2267.41978151
0.41900002 32959.58794037  2699.39038023
0.42000002 33121.14273888  2300.76028938
0.42100002 33281.37276639  2949.39539431
0.42200002 33439.38942919  2546.07523178
0.42300002 33594.94176297  2563.96607684
0.42400002 33748.36733944  3012.04192777
0.42500002 33900.11481474  2382.83918324
0.42600002 34048.27893641  2398.87160614
0.42700002 34195.45869242  3073.48797292
0.42800002 34339.82588889  2209.76790066
0.42900002 34482.40720936  2446.52690744
0.43000002 34622.48926211  2462.17844055
0.43100002 34758.71391626  3153.31067591
0.43200002 34893.45299859  3626.12780745
0.43300002 35025.19669225  2508.15445399
0.43400002 35154.66441078  2981.99454996
0.43500002 35281.05866323  2538.11948051
0.43600002 35405.76837630  2320.84822705
0.43700002 35526.72267568  3967.97984369
0.43800002 35644.23950760  3286.04259593
0.43900002 35760.15920353  2360.17061928
0.44000002 35872.31026222  2372.95343630
0.44100002 35982.34603532  3101.31855176
0.44200002 36089.18383150  2398.12637925
0.44300002 36193.40599934  3615.72143068
0.44400002 36294.02926764  3149.41453895
0.44500002 36390.94231230  2434.55415607
0.44600002 36485.62166808  2935.63325854
0.44700002 36577.57720199  2458.01330446
0.44800002 36665.25287490  3951.04783705
0.44900002 36751.28531113  2728.78306367
0.45000002 36833.82342664  2740.98910019
0.45100002 36912.08545120  2502.63951220
0.45200002 36988.09522330  4021.34590326
0.45300002 37060.27626795  3028.56592015
0.45400002 37129.95893545  2534.11981744
0.45500002 37196.26521242  2798.64712722
0.45600002 37259.06546371  4086.57449374
0.45700002 37318.68756693  4102.07033177
0.45800002 37374.43216717  3087.87573200
0.45900002 37427.28635564  3098.97945712
0.46000002 37477.51411891  3109.88426898
0.46100002 37523.24636089  2600.36109605
0.46200002 37566.57520571  3391.69840320
0.46300002 37606.21024757  3664.34930020
0.46400002 37642.06842096  2888.08783648
0.46500002 37675.61551445  3686.93590899
0.46600002 37704.89083170  3697.71881912
0.46700002 37730.98596355  3708.20147625
0.46800002 37754.44310039  3984.03779700
0.46900002 37773.83968908  3994.58373645
0.47000002 37789.56715037  3470.78295943
0.47100002 37802.55450777  3746.98938041
0.47200002 37811.89670284  3755.85587751
0.47300002 37818.67524325  3764.47111214
0.47400002 37820.57090003  2694.71580435
0.47500002 37820.41974685  2970.41590771
0.47600002 37817.19303108  3517.56637651
0.47700002 37809.54272895  3524.22764481
