# SAXS profile: number of points = 501, q_min = 0, q_max = 0.5, delta_q = 0.001
#    q    intensity    error
0.00000000 1682732.95097188 302.89193117
0.00100000 1682663.38550656 757.19854146
0.00200000 1682454.64029785 1135.65691816
0.00300000 1682106.87728770 1211.11699479
0.00400000 1681619.98632292 1387.33654143
0.00500000 1680994.39970970 1966.76352551
0.00600000 1680229.87963807 2117.08973454
0.00700000 1679327.04227085 2821.26954827
0.00800000 1678285.40945264 2492.25393826
0.00900000 1677106.25618868 3018.79139019
0.01000000 1675788.80487282 2765.05164743
0.01100000 1674334.30007428 4219.32261989
0.01200000 1672742.20332506 3914.21692739
0.01300000 1671013.88754171 4912.78104605
0.01400000 1669148.65811981 4882.26004144
0.01500000 1667148.23935723 4401.27154789
0.01600000 1665011.54895402 5944.09149549
0.01700000 1662740.66376830 5836.21999163
0.01800000 1660335.25624069 6151.54240118
0.01900000 1657795.90182127 6962.74310183
0.02000000 1655123.36419035 7299.09436626
0.02100000 1652319.25441296 6543.18454413
0.02200000 1649381.76355145 8535.55101417
0.02300000 1646313.87173532 7112.07624963
0.02400000 1643115.36755712 6777.85120023
0.02500000 1639787.57606607 8953.24057422
0.02600000 1636330.91835046 7289.85457468
0.02700000 1632746.23002781 7543.28792822
0.02800000 1629033.41338209 8503.55480782
0.02900000 1625195.27944308 7313.37909328
0.03000000 1621231.80006692 10554.21950356
0.03100000 1617143.52513551 9314.74713338
0.03200000 1612931.18316394 9580.81166927
0.03300000 1608597.90243604 9844.61961675
0.03400000 1604141.58857654 9263.91810147
0.03500000 1599565.66021400 9501.42046043
0.03600000 1594869.67689735 12392.13796218
0.03700000 1590055.63394160 9063.31753262
0.03800000 1585124.82620856 13909.47099370
0.03900000 1580078.52022552 11376.56587247
0.04000000 1574915.76164511 9685.73238294
0.04100000 1569640.39019732 15821.97586680
0.04200000 1564252.72605984 13116.25971651
0.04300000 1558752.96691580 11316.54706510
0.04400000 1553144.63239463 13628.84478221
0.04500000 1547427.61313606 14948.15143746
0.04600000 1541602.07847151 10868.29515846
0.04700000 1535671.41268836 13268.20162270
0.04800000 1529635.62230836 14615.66905120
0.04900000 1523497.60016703 14854.10229305
0.05000000 1517257.00856639 11607.01665603
0.05100000 1510916.83732389 16499.21263218
0.05200000 1504475.77034731 14352.69951797
0.05300000 1497939.01537822 12133.30659019
0.05400000 1491305.04921010 15994.24739865
0.05500000 1484577.78598114 12470.45398398
0.05600000 1477755.55051238 15161.77265577
0.05700000 1470843.81331805 19194.51265977
0.05800000 1463840.88326874 22023.48711711
0.05900000 1456748.86212690 20977.18459438
0.06000000 1449570.54728064 17242.64246546
0.06100000 1442307.43405334 13413.45976353
0.06200000 1434960.09050145 21696.59758256
0.06300000 1427531.84442230 16445.16761664
0.06400000 1420020.45279684 17998.76008094
0.06500000 1412432.39437214 15381.38949422
0.06600000 1404765.82002837 16941.47658221
0.06700000 1397023.41276433 15674.60342477
0.06800000 1389208.28107360 21567.45957322
0.06900000 1381320.95818539 15954.25781400
0.07000000 1373361.41036034 17551.55964632
0.07100000 1365334.23461011 20643.85459422
0.07200000 1357238.50488890 17834.11478971
0.07300000 1349078.86013208 16472.25365403
0.07400000 1340854.89158873 15084.61823730
0.07500000 1332568.59233880 18229.53919766
0.07600000 1324220.80140096 16824.22607053
0.07700000 1315816.39199483 20013.56826065
0.07800000 1307353.96347635 18590.57423246
0.07900000 1298835.39340772 20261.83308752
0.08000000 1290264.91207300 18812.06330052
0.08100000 1281642.76702009 23646.31016096
0.08200000 1272969.06459051 15848.46559784
0.08300000 1264248.01443164 19115.43087533
0.08400000 1255479.49346482 16007.36429304
0.08500000 1246667.72936466 17690.21591015
0.08600000 1237812.16443226 17768.79445470
0.08700000 1228915.79098144 21088.19596349
0.08800000 1219977.86593899 17915.37580269
0.08900000 1211004.26115967 19618.26995225
0.09000000 1201993.73917211 21329.37990357
0.09100000 1192948.94927880 24694.04441023
0.09200000 1183870.99251471 19818.00134588
0.09300000 1174763.24500563 19876.99503956
0.09400000 1165623.91562830 21593.18405184
0.09500000 1156457.89422889 21648.89279752
0.09600000 1147265.47219203 20031.25608610
0.09700000 1138050.41578177 18402.27608833
0.09800000 1128813.13270630 18439.16338972
0.09900000 1119555.25403432 26869.32736029
0.10000000 1110277.04798773 25231.04710207
0.10100000 1100981.34272803 23583.02147039
0.10200000 1091670.25832896 18552.93691296
0.10300000 1082344.62394470 25326.86539170
0.10400000 1073007.06445488 16899.86206022
0.10500000 1063660.38880211 16912.20097766
0.10600001 1054301.09369078 16921.53334996
0.10700001 1044936.82742609 18620.77514098
0.10800001 1035564.67884269 18624.63162549
0.10900001 1026189.12725911 18625.33353637
0.11000001 1016810.20214633 16929.89066262
0.11100001 1007430.01592856 20309.79007717
0.11200001 998051.32876502 23683.75914656
0.11300001 988672.12929854 20287.55304836
0.11400001 979297.98481523 40542.93848029
0.11500001 969928.47569214 18564.43189891
0.11600001 960564.93068088 20229.49839278
0.11700001 951210.30963870 20203.70792822
0.11800001 941863.04617010 20174.70739916
0.11900001 932527.03583026 20142.58492268
0.12000001 923202.77567135 23458.58363482
0.12100001 913893.44763240 16724.25087952
0.12200001 904597.98051562 26703.73364287
0.12300001 895319.34591634 19983.52874236
0.12400001 886057.64452000 19936.29794105
0.12500001 876814.92417970 28172.06484138
0.12600001 867594.24095264 18180.43817589
0.12700001 858394.68908340 19777.41456852
0.12800001 849217.03269287 19718.82042846
0.12900001 840064.15333536 18019.37693833
0.13000001 830937.07592183 17960.70574263
0.13100001 821835.38726969 17899.57557848
0.13200001 812762.83992203 21079.00524705
0.13300001 803720.45597404 21001.21650466
0.13400001 794706.91802820 22529.94218829
0.13500001 785725.61406028 20837.44426733
0.13600001 776776.24320920 15962.75255060
0.13700001 767861.53148890 17484.20789644
0.13800001 758980.13816651 18989.68395240
0.13900001 750137.20216492 22054.03478368
0.14000001 741329.55987077 18814.94511684
0.14100001 732560.73463495 21844.96213709
0.14200001 723829.91012477 17078.76753492
0.14300001 715141.81687792 21625.88956243
0.14400001 706490.72173083 19976.02609921
0.14500001 697885.36722951 19868.79734228
0.14600001 689320.73052807 15199.52282517
0.14700001 680802.68661902 16625.20239156
0.14800001 672327.41205661 16529.17020524
0.14900001 663897.36560061 19418.99886002
0.15000001 655514.50555207 20786.36595182
0.15100001 647179.26826516 20657.96321777
0.15200001 638892.88531968 16128.85165097
0.15300001 630655.52685779 21852.21503681
0.15400001 622465.97570120 15919.56807982
0.15500001 614328.85536341 14375.29589392
0.15600001 606241.08459646 14276.97821605
0.15700001 598208.67316375 14177.54622312
0.15800001 590224.54119196 23930.65515212
0.15900001 582296.81281071 15372.63658380
0.16000001 574420.43739068 16646.70506135
0.16100001 566602.06010895 15145.27378163
0.16200001 558836.31348233 16396.25821157
0.16300001 551127.78329519 17625.06734182
0.16400001 543475.09193382 14796.11007642
0.16500001 535879.78978790 18680.77035395
0.16600001 528341.24158750 17205.43334462
0.16700001 520860.33215278 14438.24908897
0.16800001 513436.89362216 16920.31362823
0.16900001 506074.54270820 14195.39159324
0.17000001 498770.52893590 14072.81113844
0.17100001 491526.11094417 15217.64911343
0.17200001 484341.96582907 12568.67460679
0.17300001 477218.19470742 14946.47456408
0.17400001 470156.37233180 14809.92642787
0.17500001 463154.80792061 12227.28750657
0.17600001 456213.27402746 16957.44819649
0.17700001 449335.90058311 11997.26911221
0.17800001 442519.63674628 13069.81808862
0.17900001 435765.55123094 14118.80452676
0.18000001 429075.09045755 12814.32818180
0.18100001 422448.20124160 16145.97101413
0.18200001 415881.64377398 17123.92749129
0.18300001 409380.96709361 13558.69827064
0.18400001 402942.19462110 13417.97571476
0.18500001 396568.19215875 12170.67839232
0.18600001 390257.59158652 10946.72596116
0.18700001 384010.44312205 12994.91400919
0.18800001 377826.84705723 13924.80910619
0.18900001 371709.51842661 11653.09395325
0.19000001 365652.16895628 14666.30918980
0.19100001 359664.02253097 11394.15677216
0.19200001 353736.50612309 14336.94127061
0.19300001 347875.74302968 12147.82152061
0.19400001 342078.17501040 13007.52321943
0.19500001 336345.43999193 10877.41204335
0.19600001 330675.97348002 10748.62302591
0.19700001 325071.33987911 10620.08117573
0.19800001 319530.88568742 9537.99738852
0.19900001 314055.59853880 10363.83524157
0.20000001 308642.33734894 13027.79367521
0.20100001 303294.87307983 10108.81859752
0.20200001 298009.95694452 10889.28434142
0.20300001 292789.52079391 12543.10366366
0.20400001 287632.91037243 9729.18365320
0.20500001 282538.85975557 10476.54141493
0.20600001 277509.03610145 10339.98717389
0.20700001 272541.86080033 10203.96775070
0.20800001 267637.44572792 11746.60804826
0.20900001 262798.12553321 13245.02615298
0.21000001 258018.91279598 8982.92887364
0.21100001 253302.26013208 12888.01960478
0.21200001 248648.04389422 9533.16645358
0.21300001 244055.35698434 9401.01279547
0.21400001 239525.22773180 10814.56454337
0.21500001 235057.04987503 10662.18828641
0.21600001 230648.52148358 9009.13167509
0.21700001 226301.50495847 8880.07147442
0.21800001 222015.31950325 13127.76646292
0.21900001 217788.10307519 9343.11006368
0.22000001 213620.78809324 10622.29419019
0.22100001 209515.41350445 9069.92267947
0.22200001 205467.94284143 8247.48361563
0.22300001 201479.51166440 8800.62548564
0.22400001 197548.12596511 6667.24956659
0.22500001 193678.15749949 11161.67274450
0.22600001 189864.23132642 9050.82833533
0.22700001 186108.87635469 7637.90864679
0.22800001 182410.02520938 8145.52006093
0.22900001 178767.41644142 7400.97139067
0.23000001 175181.80534108 10926.08971584
0.23100001 171653.55216066 8960.31584654
0.23200001 168179.08379558 8229.00295930
0.23300001 164761.00574320 5783.11157510
0.23400001 161397.65760657 7964.97477959
0.23500001 158087.48919575 6155.92712043
0.23600001 154832.43682457 6054.72272840
0.23700001 151630.61807848 7037.17731787
0.23800001 148481.95365375 6387.69394831
0.23900001 145386.09870917 6804.06974142
0.24000001 142342.29440125 6689.37644180
0.24100001 139351.32076200 8599.37041098
0.24200001 136411.35974538 5966.63315750
0.24300001 133522.30072674 5375.60808154
0.24400001 130683.17368851 7203.91029035
0.24500001 127894.26716440 6607.01815425
0.24600001 125155.14631251 5100.69822926
0.24700001 122465.98414527 5466.88179086
0.24800001 119824.30520031 5818.06941423
0.24900001 117230.81086284 5715.00229993
0.25000001 114685.59308146 6476.86917568
0.25100001 112186.85946783 4240.66348851
0.25200001 109736.19652254 6246.73328258
0.25300001 107331.69849031 4498.27169654
0.25400001 104972.33323107 6825.82629129
0.25500001 102658.34526750 5124.70483821
0.25600001 100389.76649468 5418.03595406
0.25700001 98165.18168882  4558.79125332
0.25800001 95984.51985518  4847.69840465
0.25900001 93847.58149747  4758.07260705
0.26000001 91754.06796421  4669.82350999
0.26100001 89700.88389931  4935.34286566
0.26200001 87692.22026143  3459.45825300
0.26300001 85723.71490935  3394.65927104
0.26400001 83796.03087299  3663.98162329
0.26500001 81909.67245118  3595.01569399
0.26600001 80062.48818046  4809.75420504
0.26700001 78255.94910194  3460.47823304
0.26800001 76488.30914691  3394.93376214
0.26900001 74758.61013048  3936.04100963
0.27000001 73067.75316277  3267.22473729
0.27100001 71414.26020583  2913.70195428
0.27200001 69798.26902180  2858.23925170
0.27300001 68218.61531824  2803.78522227
0.27400001 66674.01789011  3850.42471537
0.27500001 65167.30411480  3507.30447344
0.27600001 63693.88068180  3440.42512785
0.27700001 62256.75758088  3374.93898818
0.27800001 60853.17574156  4329.39939303
0.27900001 59483.79237060  2748.15133759
0.28000001 58147.48157283  2450.91646429
0.28100001 56844.00913681  3125.85221038
0.28200001 55573.47420904  3066.82231938
0.28300001 54334.76511150  3703.45776529
0.28400001 53127.71028237  3633.93555531
0.28500001 51951.96826513  4234.60513372
0.28600001 50806.04667342  3718.24070179
0.28700001 49690.84071710  2575.97330470
0.28800001 48604.74267459  2739.12040308
0.28900001 47549.35624313  3102.59564172
0.29000001 46521.35472580  2436.78867588
0.29100001 45523.05321153  2592.08277256
0.29200001 44551.97492959  2153.86532992
0.29300001 43608.44271688  2307.75889782
0.29400001 42691.93976466  3589.32500562
0.29500001 41803.09012415  2041.66301831
0.29600001 40939.37937505  2006.23438124
0.29700001 40101.28119411  2151.03282508
0.29800001 39289.21297996  3171.81831402
0.29900001 38502.08298086  1905.85319777
0.30000001 37739.27768742  2726.28554920
0.30100001 37001.59382441  1843.78950756
0.30200001 36286.30957825  2803.66184229
0.30300001 35594.84926482  1785.43772365
0.30400001 34927.09792069  1917.49776662
0.30500001 34280.79894287  2045.53536976
0.30600001 33656.81485312  1549.89639736
0.30700001 33055.11409763  1985.29024669
0.30800001 32474.41409707  1806.22699759
0.30900001 31914.70088933  1929.24376010
0.31000001 31376.48636662  1463.71315830
0.31100001 30856.75793134  1444.09633956
0.31200001 30358.05188284  1567.84166372
0.31300001 29878.20614957  1547.98993390
0.31400001 29418.86888139  2085.06243069
0.31500001 28977.29105040  1510.87602690
0.31600002 28554.23955659  1357.75415520
0.31700002 28148.75798283  1476.96540129
0.31800002 27761.44973893  1461.22397620
0.31900002 27391.69600098  1972.20220545
0.32000002 27038.59706179  2213.24446729
0.32100002 26702.54530979  1547.67959944
0.32200002 26382.86939615  1278.25008277
0.32300002 26078.54594589  1267.41739298
0.32400002 25790.11415113  1382.99493684
0.32500002 25516.64018488  1497.31651695
0.32600002 25258.72178111  1362.83439823
0.32700002 25015.17549295  1969.19470805
0.32800002 24786.77934659  1467.87314241
0.32900002 24571.16219540  1702.78162077
0.33000002 24370.88890410  1452.01762967
0.33100002 24181.66838359  1445.09657103
0.33200002 24008.11713720  1439.04660935
0.33300002 23845.93752876  1792.02229015
0.33400002 23697.17494800  1667.09633654
0.33500002 23560.07464928  1306.17060041
0.33600002 23434.91557022  1776.95255726
0.33700002 23320.76606489  1655.30805368
0.33800002 23219.27787158  1534.91043639
0.33900002 23127.79723568  1415.42125786
0.34000002 23047.66184403  1178.88795915
0.34100002 22977.95868123  1532.40013702
0.34200002 22919.53780807  1532.97335889
0.34300002 22869.62404188  1652.10171903
0.34400002 22830.49720828  1181.47828648
0.34500002 22800.35365127  1538.33993371
0.34600002 22780.69531436  1185.73524727
0.34700002 22767.86240858  1307.33072142
0.34800002 22765.48997023  1549.30549330
0.34900002 22771.06588917  1315.02911738
0.35000002 22785.03318749  1559.52167038
0.35100002 22807.25139757  1324.64522391
0.35200002 22836.33236766  1330.10224175
0.35300002 22873.43343460  1336.03731019
0.35400002 22918.36858688  1708.56445908
0.35500002 22969.99973656  1349.25784843
0.35600002 23028.10650159  1233.15516157
0.35700002 23093.17798223  1736.14520294
0.35800002 23165.11173235  1746.41785622
0.35900002 23242.81540664  1757.15692797
0.36000002 23327.25440051  1642.12215130
0.36100002 23416.76634175  1271.53047258
0.36200002 23512.97572509  1280.28158887
0.36300002 23612.98098598  1676.04946977
0.36400002 23718.86053978  1298.60767606
0.36500002 23829.36561542  1569.87868111
0.36600002 23945.22260726  1581.82148036
0.36700002 24065.42700750  1328.41163374
0.36800002 24191.42551913  1606.79455909
0.36900002 24320.63824829  1484.77503539
0.37000002 24453.08501720  1360.81424567
0.37100002 24589.90706167  1372.11687904
0.37200002 24730.92161432  1937.17318181
0.37300002 24874.95345885  1395.48495515
0.37400002 25023.32547273  1829.83076187
0.37500002 25173.84200074  1561.78523171
0.37600002 25328.52335867  1575.56087016
0.37700002 25484.78911609  1733.98513360
0.37800002 25644.78775401  1749.48750346
0.37900002 25807.15322398  1765.20936414
0.38000002 25972.04152061  1632.73246754
0.38100002 26138.73409010  1497.74953432
0.38200002 26307.87147587  1662.52601668
0.38300002 26478.69227205  1830.20729655
0.38400002 26652.04052961  1693.07095485
0.38500002 26826.01542194  1863.87163982
0.38600002 27002.74833189  2037.76249940
0.38700002 27179.88939084  1898.24356499
0.38800002 27358.22340751  1915.62289375
0.38900002 27537.91042767  2255.35497088
0.39000002 27719.38154456  1950.89016553
0.39100002 27900.79535847  1968.68021376
0.39200002 28083.52782479  2317.73366119
0.39300002 28266.61211943  1670.55685540
0.39400002 28451.03696566  2022.86882410
0.39500002 28634.95840376  1871.00827075
0.39600002 28819.22460774  2231.04037871
0.39700002 29003.36652805  1731.50106376
0.39800002 29188.75187894  1921.64157099
0.39900002 29373.18529346  2114.86944133
0.40000002 29557.34683299  1777.87449624
0.40100002 29741.16476210  2510.74924817
0.40200002 29925.84501842  1809.01741707
0.40300002 30108.86834986  2736.89626268
0.40400002 30291.56648345  2208.25530127
0.40500002 30473.62796396  2041.42843403
0.40600002 30655.24063367  2994.40404697
0.40700002 30835.82303731  2075.86770523
0.40800002 31015.73798716  2283.37873880
0.40900002 31193.94765980  3069.48459516
0.41000002 31371.85064413  2320.88962062
0.41100002 31548.34526209  2534.59417845
0.41200002 31722.91135438  3340.89856759
0.41300002 31896.79595112  2376.94934690
0.41400002 32068.82226172  2395.54113646
0.41500002 32240.12833614  2212.96251385
0.41600002 32408.50481930  2432.58248700
0.41700002 32576.10723796  2042.52202060
0.41800002 32742.92538208  2675.26084511
0.41900002 32905.85591995  2073.06902119
0.42000002 33067.87308271  2505.88354095
0.42100002 33228.53420185  3155.04947197
0.42200002 33386.94520549  3601.28301524
0.42300002 33542.92754563  2559.99635159
0.42400002 33696.83530305  3222.26002854
0.42500002 33849.01537758  2811.83784066
0.42600002 33997.64549062  2395.30422655
0.42700002 34145.32721880  2849.76914472
0.42800002 34290.16141073  2206.57199134
0.42900002 34433.28457393  2665.13635232
0.43000002 34573.88010710  2235.20145484
0.43100002 34710.59139977  2474.17107222
0.43200002 34845.84669647  4073.82813033
0.43300002 34978.17039011  3187.91060042
0.43400002 35108.21504469  3207.13559631
0.43500002 35235.18529187  3456.57184093
0.43600002 35360.44476050  2317.87726389
0.43700002 35481.95034200  2797.39709753
0.43800002 35600.10866768  2344.26726686
0.43900002 35716.57306303  2828.75272065
0.44000002 35829.35067317  2607.12282528
0.44100002 35940.06961011  3812.52276492
0.44200002 36047.47566269  3113.96133269
0.44300002 36152.33425752  2648.52013322
0.44400002 36253.62055779  3387.90100168
0.44500002 36351.15915231  3647.83899381
0.44600002 36446.50204766  2688.11188592
0.44700002 36539.13541914  2946.51601984
0.44800002 36627.48691604  2713.54749677
0.44900002 36714.19800410  2478.20848272
0.45000002 36797.46672979  3236.15336492
0.45100002 36876.34735198  2750.23811585
0.45200002 36953.12361117  3013.15784206
0.45300002 37025.98580510  2773.61672811
0.45400002 37096.37993378  3038.19366057
0.45500002 37163.43334610  3558.77054588
0.45600002 37226.96817685  3572.67230525
0.45700002 37287.29653591  2817.80113276
0.45800002 37343.81421844  2828.23390387
0.45900002 37397.38734740  3354.54580405
0.46000002 37448.39556725  3107.46801145
0.46100002 37494.85894052  3118.07261727
0.46200002 37538.95646245  3389.20484484
0.46300002 37579.34096281  4184.83560796
0.46400002 37615.98876958  3673.20147744
0.46500002 37650.30930199  2894.93241944
0.46600002 37680.36533853  3167.41166048
0.46700002 37707.25125156  3705.86882865
0.46800002 37731.53216917  2919.85475530
0.46900002 37751.68635097  2661.49401389
0.47000002 37768.23400663  2935.15844494
0.47100002 37781.99134403  2942.46162534
0.47200002 37792.15915725  2949.48920122
0.47300002 37799.70625306  3225.07109037
0.47400002 37802.43168543  2693.42338525
0.47500002 37803.08790452  3508.88278561
0.47600002 37800.65629572  3516.02821200
0.47700002 37793.83869696  3522.76387192
