# SAXS profile: number of points = 501, q_min = 0, q_max = 0.5, delta_q = 0.001
#    q    intensity    error
0.00000000 1700912.83420644 306.16431016
0.00100000 1700842.61192628 663.32863440
0.00200000 1700631.89088829 994.86968767
0.00300000 1700280.83913595 1122.18539381
0.00400000 1699789.33808505 2039.74728321
0.00500000 1699157.84425617 2446.78739258
0.00600000 1698386.06775076 2318.29707686
0.00700000 1697474.69822158 2851.75761153
0.00800000 1696423.19365008 3206.23997137
0.00900000 1695232.90207617 2797.13440800
0.01000000 1693902.96783225 4471.90402817
0.01100000 1692434.69789904 3960.29736551
0.01200000 1690827.52961512 3626.82521004
0.01300000 1689082.83714165 4611.19634877
0.01400000 1687199.93155353 3796.20001428
0.01500000 1685180.55581385 6066.65027107
0.01600000 1683023.64007199 6437.56571106
0.01700000 1680731.20436252 7260.75912855
0.01800000 1678302.92708518 5261.47991317
0.01900000 1675739.50589934 5529.94061899
0.02000000 1673041.60140406 7378.11379595
0.02100000 1670210.86884784 7716.37456393
0.02200000 1667245.51841012 6327.19702983
0.02300000 1664148.43074587 7189.12154806
0.02400000 1660919.52090351 6851.29333613
0.02500000 1657560.18961825 8403.83054517
0.02600000 1654070.54022923 10718.37759093
0.02700000 1650451.79661665 10397.84679492
0.02800000 1646703.66886633 9312.10967449
0.02900000 1642828.93149125 9610.54969048
0.03000000 1638827.68624804 8382.60400047
0.03100000 1634700.38608632 8631.21843569
0.03200000 1630447.88998487 12913.14788344
0.03300000 1626073.21305662 9122.27114579
0.03400000 1621574.39325075 13621.22553179
0.03500000 1616954.69582558 8731.55576066
0.03600000 1612213.79731829 10737.34438635
0.03700000 1607353.77067551 12826.68368319
0.03800000 1602375.61881758 11248.67736468
0.03900000 1597281.01034548 10542.05515648
0.04000000 1592068.72127254 15665.95694327
0.04100000 1586742.76907969 9996.47990870
0.04200000 1581303.34223880 11219.34773368
0.04300000 1575750.75852410 13519.94213570
0.04400000 1570088.58711590 13777.52799180
0.04500000 1564316.43293994 10793.78388882
0.04600000 1558434.89899852 16480.44982303
0.04700000 1552447.00152042 16766.42839619
0.04800000 1546353.05813972 13638.83460738
0.04900000 1540155.80002528 11551.16903787
0.05000000 1533854.79440072 11733.98972357
0.05100000 1527453.35195637 16679.79138038
0.05200000 1520950.12558865 15719.02028048
0.05300000 1514349.94853273 15946.10570142
0.05400000 1507651.68259757 19901.00313835
0.05500000 1500859.11543844 13867.93887358
0.05600000 1493970.63677770 17882.82935672
0.05700000 1486991.74250103 15524.19451636
0.05800000 1479920.54717718 18336.21643569
0.05900000 1472759.43579495 15905.80264948
0.06000000 1465511.05633709 16091.31215035
0.06100000 1458177.26975640 20341.57386369
0.06200000 1450758.05314514 19193.52994028
0.06300000 1443257.12902952 16626.32290379
0.06400000 1435672.41291056 15397.58734856
0.06500000 1428009.94723597 18378.48888063
0.06600000 1420268.02780183 18555.80265143
0.06700000 1412449.48499875 15847.68396334
0.06800000 1404557.58872689 24713.19193045
0.06900000 1396592.71632539 30794.87083676
0.07000000 1388554.65452824 19224.54009220
0.07100000 1380448.39583322 14908.84337330
0.07200000 1372272.51754037 18031.66172521
0.07300000 1364032.31504723 22711.13910968
0.07400000 1355726.80455688 19827.50544584
0.07500000 1347358.52038074 16895.87663753
0.07600000 1338927.80702973 23196.92534428
0.07700000 1330439.95357730 17122.76300540
0.07800000 1321893.19375438 17230.87858865
0.07900000 1313289.79422269 22063.26957779
0.08000000 1304633.86112685 19021.56258755
0.08100000 1295925.53565906 22315.83877107
0.08200000 1287165.13609362 22435.28937489
0.08300000 1278356.91625293 22550.21706103
0.08400000 1269500.35633124 21041.96939387
0.08500000 1260600.12814014 17887.91665806
0.08600000 1251655.37131155 22867.74470754
0.08700000 1242669.49132344 21324.20947245
0.08800000 1233641.44641849 19762.93689977
0.08900000 1224577.38106776 23144.51358927
0.09000000 1215475.51151223 18250.36566268
0.09100000 1206339.18904577 19976.97790914
0.09200000 1197169.15912919 20040.61266547
0.09300000 1187969.02701211 23450.50969521
0.09400000 1178736.84184203 21836.10102137
0.09500000 1169477.39173067 23576.66532546
0.09600000 1160191.31927678 18568.86293791
0.09700000 1150882.17217523 16917.96872634
0.09800000 1141550.38128867 25428.03593877
0.09900000 1132197.69026425 32267.63568984
0.10000000 1122824.23283897 18711.86672023
0.10100000 1113433.05952948 23849.73725682
0.10200000 1104026.03671598 25585.80460435
0.10300000 1094604.19797769 18783.40892088
0.10400000 1085170.43064325 22218.86561271
0.10500000 1075727.15863220 18814.46888969
0.10600001 1066270.95658859 25670.47448776
0.10700001 1056809.36648693 20544.37505128
0.10800001 1047339.94432511 18836.40978516
0.10900001 1037866.87605513 18837.28468699
0.11000001 1028390.26244525 23971.77814594
0.11100001 1018912.23713728 20541.27166763
0.11200001 1009435.21017621 20531.91314157
0.11300001 999957.97054634 18809.21031153
0.11400001 990485.35259099 17085.87313667
0.11500001 981017.48935202 23897.58716590
0.11600001 971555.40747197 22166.03766530
0.11700001 962102.26313063 22137.97411722
0.11800001 952656.12813514 22106.38649455
0.11900001 943221.46613206 16977.98719007
0.12000001 933798.27554479 20338.12739939
0.12100001 924390.37551742 18607.97913575
0.12200001 914995.96733979 18569.84403201
0.12300001 905618.64842494 16844.50765432
0.12400001 896257.99254398 25207.25722800
0.12500001 886916.67179838 20115.27106423
0.12600001 877597.06028747 20061.86974356
0.12700001 868298.81510507 20005.60564281
0.12800001 859022.44810127 21608.71070039
0.12900001 849771.22853911 18227.59371127
0.13000001 840545.65191104 19820.06740628
0.13100001 831345.75256253 18106.71134432
0.13200001 822175.28656565 24603.59661030
0.13300001 813034.74561328 19610.39898869
0.13400001 803923.31367365 22791.22701715
0.13500001 794844.41075702 19457.79209273
0.13600001 785797.55287418 19377.76856755
0.13700001 776785.45549504 17687.40565564
0.13800001 767806.84110500 19210.52807033
0.13900001 758867.02065304 23904.31227785
0.14000001 749962.90704892 19034.05947856
0.14100001 741097.71462653 17363.92027263
0.14200001 732270.66580343 20419.36847901
0.14300001 723486.93390418 20315.51406226
0.14400001 714740.14346311 23318.39828041
0.14500001 706039.56379333 20100.94732940
0.14600001 697380.00529662 21528.12177908
0.14700001 688767.28650037 16819.69792983
0.14800001 680197.65996953 18242.90210106
0.14900001 671673.52145618 19646.45142953
0.15000001 663197.29451372 21029.98720129
0.15100001 654768.42282163 14928.72074474
0.15200001 646389.42515183 19285.02940941
0.15300001 638059.55915257 19160.92946554
0.15400001 629777.83078470 14642.33525673
0.15500001 621548.90130560 20361.94296771
0.15600001 613370.05599329 18778.32515048
0.15700001 605246.77947968 18647.65415588
0.15800001 597172.02071170 18515.31937607
0.15900001 589154.27264745 15553.67353204
0.16000001 581188.56388840 16842.84537651
0.16100001 573281.02700843 18109.94849806
0.16200001 565426.89031670 15207.15693294
0.16300001 557630.20835910 13717.70377322
0.16400001 549889.96400085 16331.73270184
0.16500001 542207.51267757 17551.25801399
0.16600001 534582.35973650 16069.54649237
0.16700001 527015.53536526 17265.02975373
0.16800001 519506.41392166 18437.28350062
0.16900001 512059.18291891 16974.76271528
0.17000001 504670.64993728 14239.28306035
0.17100001 497342.43175355 14114.57887967
0.17200001 490074.88062642 16532.67687865
0.17300001 482868.38775212 17644.01172169
0.17400001 475724.33834298 14985.31736550
0.17500001 468641.38609518 18558.19976583
0.17600001 461618.60565815 15932.76692678
0.17700001 454660.72661458 15781.27456615
0.17800001 447764.76081708 14426.98127494
0.17900001 440931.47576021 16667.21057099
0.18000001 434162.26567649 12966.25667689
0.18100001 427457.47739277 16337.42555767
0.18200001 420813.48099179 16171.86283844
0.18300001 414236.23172751 18292.67285722
0.18400001 407721.38306663 21497.11093773
0.18500001 401271.93986430 12315.03641622
0.18600001 394886.47633449 16614.84927672
0.18700001 388565.43514892 13149.05494666
0.18800001 382308.03455492 11922.27662088
0.18900001 376117.98095300 11791.29925999
0.19000001 369988.57240809 15900.25965051
0.19100001 363928.74494582 11529.26318464
0.19200001 357930.69286381 11398.30345283
0.19300001 351999.83106853 11267.51512492
0.19400001 346132.70363394 15186.57308956
0.19500001 340331.11681417 15008.60296074
0.19600001 334593.62064692 11864.69034882
0.19700001 328921.65890399 11722.76847733
0.19800001 323314.52851764 10616.03304558
0.19900001 317773.22021585 10486.51676272
0.20000001 312294.64116244 10357.25226365
0.20100001 306882.63956713 12088.10774386
0.20200001 301533.83111004 10099.87615039
0.20300001 296250.37524255 11784.84048415
0.20400001 291031.32799353 11633.97788643
0.20500001 285875.65878358 15017.04906571
0.20600001 280784.53796283 8718.36031585
0.20700001 275757.24668695 12905.43975498
0.20800001 270793.05062608 9338.29879226
0.20900001 265894.90646587 9213.25894456
0.21000001 261057.63200739 13219.95910979
0.21100001 256283.70163213 9779.78651661
0.21200001 251572.64076662 11252.84475346
0.21300001 246923.92558404 8718.88422456
0.21400001 242338.55340119 8596.96058834
0.21500001 237815.94142943 7705.23686660
0.21600001 233353.41263571 9114.78472848
0.21700001 228953.50264497 9732.81385760
0.21800001 224614.68923921 10330.03004652
0.21900001 220335.84398044 7998.19151466
0.22000001 216117.48416036 8597.15392639
0.22100001 211961.96304558 8470.00044379
0.22200001 207865.10205608 7648.39679180
0.22300001 203828.10496472 6848.62465065
0.22400001 199848.49591784 7419.37576179
0.22500001 195930.99965029 7306.26732245
0.22600001 192070.52935355 10464.00293401
0.22700001 188269.19089952 9014.32928655
0.22800001 184525.07594344 6338.43665840
0.22900001 180838.02696166 6862.80344774
0.23000001 177208.62682204 7368.33505172
0.23100001 173637.09566711 9668.11394398
0.23200001 170120.20247218 6540.27149336
0.23300001 166660.45322414 7019.73862180
0.23400001 163256.17028009 6330.25830200
0.23500001 159905.74412223 7358.86269255
0.23600001 156610.89794180 6124.26945367
0.23700001 153370.02058869 6022.84099339
0.23800001 150183.21125598 5922.47521601
0.23900001 147049.81331743 6352.55223579
0.24000001 143969.18054383 7286.28057197
0.24100001 140941.99376646 6139.43353887
0.24200001 137966.40211024 6537.53827323
0.24300001 135042.33551181 5931.05965623
0.24400001 132168.95507256 4857.20932868
0.24500001 129346.57967283 5250.17791728
0.24600001 126574.40165599 6565.41452447
0.24700001 123853.13010092 7832.47231810
0.24800001 121179.82654579 4978.67340916
0.24900001 118555.30972743 4890.40675761
0.25000001 115979.75168865 5239.96542919
0.25100001 113451.38070779 4288.46239364
0.25200001 110971.59569918 4632.50948162
0.25300001 108538.57823876 8270.64005308
0.25400001 106151.39407920 4466.32011719
0.25500001 103810.16059379 4384.94139094
0.25600001 101514.94833274 5087.42187639
0.25700001 99264.53121024  4225.69129355
0.25800001 97058.33051336  4147.78795074
0.25900001 94896.64287286  4441.16309658
0.26000001 92778.84474163  3995.52113785
0.26100001 90701.95940132  4277.50460776
0.26200001 88670.35125919  5596.87283631
0.26300001 86679.30937082  3775.75089485
0.26400001 84729.69008002  4715.20747607
0.26500001 82822.01193452  5287.35749209
0.26600001 80953.97380835  3890.64816533
0.26700001 79127.22812329  5407.55502583
0.26800001 77339.89534711  4680.99738739
0.26900001 75591.05849775  4898.30082245
0.27000001 73881.49109399  4204.59585713
0.27100001 72209.94645714  3535.39914585
0.27200001 70576.38985363  3179.11363140
0.27300001 68979.56155814  4252.59017131
0.27400001 67418.37971563  3337.20995386
0.27500001 65895.77563419  3000.89376440
0.27600001 64406.75173739  4549.37112427
0.27700001 62954.52427023  2887.72416494
0.27800001 61536.39212215  3090.35775863
0.27900001 60152.81128537  3031.70183227
0.28000001 58802.92652596  3717.81520556
0.28100001 57486.24299876  2674.83501333
0.28200001 56202.96387960  2624.39752257
0.28300001 54951.95040441  2809.14383763
0.28400001 53733.05118497  2297.08804688
0.28500001 52545.98201570  2479.64500869
0.28600001 51389.14503555  3318.45419774
0.28700001 50263.36868975  2605.65315621
0.28800001 49167.11858759  2557.67362999
0.28900001 48102.14465640  2092.44339160
0.29000001 47064.86698392  2465.25784931
0.29100001 46057.62156818  3227.71827228
0.29200001 45078.20483414  2179.30591586
0.29300001 44126.62273748  2529.77940129
0.29400001 43202.33910156  2485.21467446
0.29500001 42306.07164889  2066.22863714
0.29600001 41435.46094841  2399.73483442
0.29700001 40590.79610233  2358.73127316
0.29800001 39772.45990071  1962.17440209
0.29900001 38979.35964777  1929.47839390
0.30000001 38210.93290941  1897.74607278
0.30100001 37468.07472120  1697.30386522
0.30200001 36747.94618091  2171.25250289
0.30300001 36051.93940012  1972.76221737
0.30400001 35379.92851877  2104.22134827
0.30500001 34729.61077863  1594.08921021
0.30600001 34101.96309374  1570.39547481
0.30700001 33496.82214173  1547.55325621
0.30800001 32913.15588791  1983.18230192
0.30900001 32350.75590550  1504.31022083
0.31000001 31809.90966818  2225.89853442
0.31100001 31287.96125368  1464.27665600
0.31200001 30787.22537307  2168.19044955
0.31300001 30305.75583267  1427.40116730
0.31400001 29844.98625017  1833.22836721
0.31500001 29402.13975029  1951.12608621
0.31600002 28978.16084559  1377.91161345
0.31700002 28571.98041264  1771.74858928
0.31800002 28184.09437938  1618.33077589
0.31900002 27813.90174790  1335.06734711
0.32000002 27460.88004808  1454.46558061
0.32100002 27124.88915608  1310.13220827
0.32200002 26805.54173906  1558.47427050
0.32300002 26501.70424433  1931.97433089
0.32400002 26213.99074821  1533.51853138
0.32500002 25941.48103011  1268.53848244
0.32600002 25684.50240240  1637.77237324
0.32700002 25442.19897409  1502.10749856
0.32800002 25215.33382135  1742.12749621
0.32900002 25001.16787624  1608.82522902
0.33000002 24802.72708874  1231.45545827
0.33100002 24615.29905095  1471.01034094
0.33200002 24443.75913989  1465.15899223
0.33300002 24283.69189261  1216.61302143
0.33400002 24137.22166387  1576.76407986
0.33500002 24002.47261050  1572.64207991
0.33600002 23879.82965526  1569.26308011
0.33700002 23768.34204726  1325.56049875
0.33800002 23669.63863010  1203.60118134
0.33900002 23580.95959455  1683.68059479
0.34000002 23503.85679610  2043.77796449
0.34100002 23437.18449088  1683.25866985
0.34200002 23381.89434316  1323.29837302
0.34300002 23335.18649226  1685.73395204
0.34400002 23299.39272963  1446.89235703
0.34500002 23272.56465600  1932.55386056
0.34600002 23256.41843867  1936.79461930
0.34700002 23247.07158392  1334.84691357
0.34800002 23248.35269827  1825.57698209
0.34900002 23257.49054095  1465.22197348
0.35000002 23275.21456997  1715.61614721
0.35100002 23301.05012487  1599.38415632
0.35200002 23333.86151864  1606.18643371
0.35300002 23374.87597809  1613.56776519
0.35400002 23423.56254570  1621.49619403
0.35500002 23479.05293406  1504.53778328
0.35600002 23541.03171119  1890.93346176
0.35700002 23609.98530100  1394.64189779
0.35800002 23685.93436361  1530.58515107
0.35900002 23767.58181141  1540.13937433
0.36000002 23855.93578574  1550.15878078
0.36100002 23949.37690301  1300.45122743
0.36200002 24049.54970643  1702.34745660
0.36300002 24153.47714712  1714.41388911
0.36400002 24263.31893115  1594.10012928
0.36500002 24377.72124540  1472.17065574
0.36600002 24497.55099890  1753.16732028
0.36700002 24621.62880391  1359.11397435
0.36800002 24751.50763937  1506.99561401
0.36900002 24884.46998496  1657.30577950
0.37000002 25020.75426807  1531.64554507
0.37100002 25161.32570485  1684.80244901
0.37200002 25306.10812599  1415.87681672
0.37300002 25453.80727492  1856.34625250
0.37400002 25605.88170371  1584.36400547
0.37500002 25760.04499033  1743.43992753
0.37600002 25918.27470201  1905.38205498
0.37700002 26078.13307862  1774.35625872
0.37800002 26241.51771833  1641.01338825
0.37900002 26407.24557895  1505.21306931
0.38000002 26575.53605294  2430.06713180
0.38100002 26745.54194229  1532.51962589
0.38200002 26917.89960584  2165.00676786
0.38300002 27091.84303243  1872.58827911
0.38400002 27268.30988584  1732.21946756
0.38500002 27445.32880585  1906.90153577
0.38600002 27624.96975267  2084.71844115
0.38700002 27804.88210635  1618.24421525
0.38800002 27986.10346283  1632.98921442
0.38900002 28168.53803748  1647.85955326
0.39000002 28352.58306266  3159.47024327
0.39100002 28536.51108322  2349.12570366
0.39200002 28721.84946621  1693.15310625
0.39300002 28907.19546112  2391.78146577
0.39400002 29094.03051736  1723.82138982
0.39500002 29279.97823805  2782.76926358
0.39600002 29466.41199519  2807.55986792
0.39700002 29652.57630981  2478.36244539
0.39800002 29839.92215799  1964.51136835
0.39900002 30026.08308644  2522.19109876
0.40000002 30211.91415017  2725.87008335
0.40100002 30397.44838542  2199.55946938
0.40200002 30583.55597410  2773.16406934
0.40300002 30767.96102490  1864.53852645
0.40400002 30951.96907839  2068.36543166
0.40500002 31135.29730106  2844.20954321
0.40600002 31318.00827639  3059.14319338
0.40700002 31499.58250979  2506.10690322
0.40800002 31680.26859780  2526.65994173
0.40900002 31859.28013906  2939.01873208
0.41000002 32037.89390476  2172.64987810
0.41100002 32214.90034899  2588.14521667
0.41200002 32389.82708108  2207.20487102
0.41300002 32564.07572750  2224.45211835
0.41400002 32736.27554933  2445.39989941
0.41500002 32907.69832175  2464.12856709
0.41600002 33076.13316118  2482.69467272
0.41700002 33243.56249026  2292.80861359
0.41800002 33410.13072579  2309.80949718
0.41900002 33572.71903497  2538.09767931
0.42000002 33734.23411480  2130.31698529
0.42100002 33894.30404366  2360.06050239
0.42200002 34052.02494872  2376.66119391
0.42300002 34207.17189927  2393.13385947
0.42400002 34360.07490961  2409.50036721
0.42500002 34511.23565616  2425.79486922
0.42600002 34658.67201793  2219.88804794
0.42700002 34805.03536301  2904.82838905
0.42800002 34948.54004773  2698.72639037
0.42900002 35090.10229115  3168.63638704
0.43000002 35229.00945768  2277.55556937
0.43100002 35364.06106600  2749.90951880
0.43200002 35497.39295453  2766.66693798
0.43300002 35627.71141685  2551.30053546
0.43400002 35755.68371539  3499.58770948
0.43500002 35880.37413445  2346.57657959
0.43600002 36003.31227631  3068.02240102
0.43700002 36122.43881933  3085.21764576
0.43800002 36237.96936896  3579.40559404
0.43900002 36351.82385484  2399.22048812
0.44000002 36461.83246207  2411.95033167
0.44100002 36569.52018606  2909.47116388
0.44200002 36674.04849076  3899.18502032
0.44300002 36775.72950178  2449.26370089
0.44400002 36873.75737849  2953.58810599
0.44500002 36968.01867232  3462.42479294
0.44600002 37059.95619580  3727.30527103
0.44700002 37149.00459144  2995.69587222
0.44800002 37233.61382745  2507.68401012
0.44900002 37316.65690624  3526.42424476
0.45000002 37396.07020893  3035.81312343
0.45100002 37471.04549391  3302.69810636
0.45200002 37543.67550637  2806.20215872
0.45300002 37612.33160276  3329.81987460
0.45400002 37678.53688465  2571.56026425
0.45500002 37741.18977015  2839.64725289
0.45600002 37800.32828001  2850.33388904
0.45700002 37856.09565763  3120.85667392
0.45800002 37907.85137244  2609.95569069
0.45900002 37956.72912181  3404.71876359
0.46000002 38002.81909922  3941.84259789
0.46100002 38044.38861061  3427.41913237
0.46200002 38083.42932222  4231.83086685
0.46300002 38118.77521158  2918.37356852
0.46400002 38150.18941660  3459.26858930
0.46500002 38179.22239828  2668.72777213
0.46600002 38203.89988263  3211.41997634
0.46700002 38225.32565144  4025.12698187
0.46800002 38244.02504686  2959.51401852
0.46900002 38258.64351759  3506.40484458
0.47000002 38269.39266109  3244.47926358
0.47100002 38277.37753025  3794.05384062
0.47200002 38281.65682608  3530.90878471
0.47300002 38283.39866191  3810.72968342
0.47400002 38280.05799996  3272.94511413
0.47500002 38274.60955027  2732.80725142
0.47600002 38266.10592220  3559.32201106
0.47700002 38253.00309275  4936.93281315
