# SAXS profile: number of points = 501, q_min = 0, q_max = 0.5, delta_q = 0.001
#    q    intensity    error
0.00000000 1700912.83420644 306.16431016
0.00100000 1700842.66269274 612.30337311
0.00200000 1700632.08772309 1224.45514193
0.00300000 1700281.29014792 1224.20257252
0.00400000 1699790.13404734 1657.29544367
0.00500000 1699159.08364910 1682.16755939
0.00600000 1698387.85288171 1961.63804994
0.00700000 1697477.15299298 2240.66993507
0.00800000 1696426.38763582 3206.24600800
0.00900000 1695236.93335103 2797.14105960
0.01000000 1693907.93650348 3353.93785910
0.01100000 1692440.70562347 4569.59010414
0.01200000 1690834.68723113 3626.84056313
0.01300000 1689091.23215829 4965.92844157
0.01400000 1687209.62518503 4555.46618995
0.01500000 1685191.68880102 5662.24432650
0.01600000 1683036.27282382 4720.91695631
0.01700000 1680745.47709404 4991.81429090
0.01800000 1678318.90326116 6218.17181639
0.01900000 1675757.24130353 6032.72634090
0.02000000 1673061.28958370 5797.15763065
0.02100000 1670232.53408061 5511.76761236
0.02200000 1667269.23610001 7477.70286364
0.02300000 1664174.27438248 8986.54149072
0.02400000 1660947.58286076 7474.26446368
0.02500000 1657590.60265855 8403.98473929
0.02600000 1654103.34292383 9378.76638335
0.02700000 1650487.13281165 7625.25090283
0.02800000 1646741.56396127 9312.32397126
0.02900000 1642869.42038349 9610.78655051
0.03000000 1638870.95774501 9906.97539495
0.03100000 1634746.47517330 10985.49681864
0.03200000 1630496.97299938 14527.72869854
0.03300000 1626125.20941737 9951.88674042
0.03400000 1621629.36292623 9364.91000300
0.03500000 1617012.82034016 11351.43052298
0.03600000 1612275.14508858 10737.75296252
0.03700000 1607418.40207641 13743.42797335
0.03800000 1602443.57054953 11249.15438586
0.03900000 1597352.29024489 13417.75985943
0.04000000 1592143.51301914 9791.68305880
0.04100000 1586821.01801353 12996.06474011
0.04200000 1581385.16052211 18359.88256543
0.04300000 1575836.31734431 11440.57219497
0.04400000 1570177.68371908 12718.43982879
0.04500000 1564409.41278932 14032.75308475
0.04600000 1558531.60319072 12086.41314460
0.04700000 1552547.60498072 16767.51491361
0.04800000 1546457.58221338 18186.34201301
0.04900000 1540264.28315122 18483.17225816
0.05000000 1533967.33668307 19949.24614252
0.05100000 1527569.91762358 13106.55050377
0.05200000 1521070.71802111 13301.76404897
0.05300000 1514474.68427520 14720.69461740
0.05400000 1507780.57710608 17414.86647770
0.05500000 1500992.15335396 17651.66854688
0.05600000 1494108.00348878 15329.54883114
0.05700000 1487133.28007065 12938.06014054
0.05800000 1480066.53076538 19647.88411332
0.05900000 1472909.65175305 15907.42498190
0.06000000 1465665.74088407 14751.92637119
0.06100000 1458336.29258780 17631.28660132
0.06200000 1450921.46137319 17824.57098615
0.06300000 1443424.95493712 26328.07240903
0.06400000 1435844.54188398 16799.38192569
0.06500000 1428186.49516966 18380.76105264
0.06600000 1420449.21469350 15703.06680316
0.06700000 1412635.11771786 14408.87887504
0.06800000 1404747.68764849 14539.13924773
0.06900000 1396787.18068489 19066.14590901
0.07000000 1388753.63559303 14790.22691167
0.07100000 1380651.74327804 14911.03952580
0.07200000 1372480.34293594 18034.39255103
0.07300000 1364244.64765121 16657.42792831
0.07400000 1355943.70773775 19830.67765501
0.07500000 1347579.85351823 19971.13436524
0.07600000 1339153.58414028 15467.22462193
0.07700000 1330670.19292468 23353.26298083
0.07800000 1322127.81400663 18800.65839685
0.07900000 1313528.84968143 25219.75509678
0.08000000 1304877.20879659 17439.68471368
0.08100000 1296173.25551401 19131.51814900
0.08200000 1287417.28288264 16028.34592402
0.08300000 1278613.43362645 19332.63602375
0.08400000 1269761.05384010 17808.39961601
0.08500000 1260865.09476644 22771.22468048
0.08600000 1251924.53069643 19605.13907120
0.08700000 1242942.78873435 22969.58381441
0.08800000 1233918.99389253 21414.66514472
0.08900000 1224858.87663223 24803.39341681
0.09000000 1215761.13935594 16595.14033177
0.09100000 1206628.83683316 21646.92234978
0.09200000 1197462.79335692 18375.06742745
0.09300000 1188266.57001253 16754.55942451
0.09400000 1179038.23566729 18481.42521267
0.09500000 1169782.59519359 23582.81822756
0.09600000 1160500.30795747 16885.28027452
0.09700000 1151194.74956586 23691.58905987
0.09800000 1141866.58483657 16956.71958209
0.09900000 1132517.63913589 27180.42461735
0.10000000 1123147.74343830 20418.82693595
0.10100000 1113759.90126757 20448.63274901
0.10200000 1104356.41400327 20474.76887868
0.10300000 1094937.84946985 22205.34063180
0.10400000 1085507.38866744 20516.09061100
0.10500000 1076067.17667800 22242.30958842
0.10600001 1066614.17111654 18831.07407713
0.10700001 1057155.63171092 22263.69865151
0.10800001 1047689.18864258 18842.69094451
0.10900001 1038218.97657139 22269.79809560
0.11000001 1028745.23507214 22267.19166124
0.11100001 1019269.81150962 18836.10700338
0.11200001 1009795.38268119 18827.63579644
0.11300001 1000320.86005931 17105.48751235
0.11400001 990850.64321306 23929.04416028
0.11500001 981385.16005761 20491.32310690
0.11600001 971925.30882241 22174.47696501
0.11700001 962474.37646548 18739.37699231
0.11800001 953030.45561360 20413.91332070
0.11900001 943597.81413993 18683.23759998
0.12000001 934176.61807880 20346.36770017
0.12100001 924770.50874390 20307.96132869
0.12200001 915377.64290865 25333.07746097
0.12300001 906001.99035986 23592.29294051
0.12400001 896642.90996904 18493.26088947
0.12500001 887303.03098748 16770.02807588
0.12600001 877984.84368544 16725.61206038
0.12700001 868687.91617878 25018.21316497
0.12800001 859412.48760855 21618.52214466
0.12900001 850162.41019668 21551.61811426
0.13000001 840937.83137450 19829.31499846
0.13100001 831738.50583217 18115.26551094
0.13200001 822568.75359471 22974.34637092
0.13300001 813429.02338323 19619.90896894
0.13400001 804317.87280746 21173.66899990
0.13500001 795239.47663825 17845.17469713
0.13600001 786192.78884025 16156.26257245
0.13700001 777180.97597327 16087.64696123
0.13800001 768202.47480058 17618.72459038
0.13900001 759262.51404546 27105.67302968
0.14000001 750358.25467201 23805.11675213
0.14100001 741492.92807159 25270.08018049
0.14200001 732665.47188541 20430.37764713
0.14300001 723881.17196334 18763.00086230
0.14400001 715133.86089828 17109.57842905
0.14500001 706432.32451762 17017.95550040
0.14600001 697772.08257938 23078.81272004
0.14700001 689158.53592297 21419.04830696
0.14800001 680587.76988707 16732.25111208
0.14900001 672062.48553866 19657.82862948
0.15000001 663585.04314613 19539.26251736
0.15100001 655154.84569575 17925.03742403
0.15200001 646774.30271869 19296.51223216
0.15300001 638442.80061362 28021.25584123
0.15400001 630159.37081930 16116.32666925
0.15500001 621928.63767198 17463.75697000
0.15600001 613747.84464689 18789.89115065
0.15700001 605622.66130589 15788.58352542
0.15800001 597545.72220801 19952.05260624
0.15900001 589525.71574147 18393.20319930
0.16000001 581557.70574821 15449.08118244
0.16100001 573647.62270597 22303.42062362
0.16200001 565791.02887163 16600.30957073
0.16300001 557991.57137711 17844.57129504
0.16400001 550248.54339217 17704.24771945
0.16500001 542563.25922410 14860.80837175
0.16600001 534935.03412103 18760.17253235
0.16700001 527365.18979131 15947.52409225
0.16800001 519852.95195889 17131.75484071
0.16900001 512402.31144409 14372.88551467
0.17000001 505010.42745766 20725.62892152
0.17100001 497678.85892386 16692.14971653
0.17200001 490407.66219425 22906.94298283
0.17300001 483197.55284146 15133.74806968
0.17400001 476049.69151117 13745.93549155
0.17500001 468962.81838352 13618.68088903
0.17600001 461936.08598401 14717.28439453
0.17700001 454974.26213815 17006.93872197
0.17800001 448074.13450349 13233.87018762
0.17900001 441236.59996205 15487.40539019
0.18000001 434463.12307829 17693.51152312
0.18100001 427753.96585364 15180.98896524
0.18200001 421105.43559989 11559.34475326
0.18300001 414523.75296541 17161.28418346
0.18400001 408004.21077358 12454.32912221
0.18500001 401550.10708719 14564.22307210
0.18600001 395159.90224843 13301.08293807
0.18700001 388833.91982062 10965.11705699
0.18800001 382571.61680246 14099.67760341
0.18900001 376376.63574630 10726.73462558
0.19000001 370242.04325370 18032.63956869
0.19100001 364177.09181395 15732.45110972
0.19200001 358173.88891802 10369.13457413
0.19300001 352237.69880197 20500.23503896
0.19400001 346365.37845415 14183.66291793
0.19500001 340558.39407857 19023.59279219
0.19600001 334815.42186092 9893.79618353
0.19700001 329137.90080548 14663.09417383
0.19800001 323525.23048220 9657.22858628
0.19900001 317978.36140791 11447.22155168
0.20000001 312494.07622853 15074.71494971
0.20100001 307076.34614494 11165.29647353
0.20200001 301721.89310539 9187.43207929
0.20300001 296432.63090426 11792.09061472
0.20400001 291207.67634413 8954.63647083
0.20500001 286046.24358797 9722.71227912
0.20600001 280949.12545191 8723.47075762
0.20700001 275915.91607033 10330.29238598
0.20800001 270945.71922284 8494.14869916
0.20900001 266041.50795654 13408.49263485
0.21000001 261198.28045450 14053.77414421
0.21100001 256418.32067601 10600.33387786
0.21200001 251701.10904079 10454.40605824
0.21300001 247046.23389207 8723.20293112
0.21400001 242454.82999409 10946.83609176
0.21500001 237926.00284714 10792.32399938
0.21600001 233457.25301030 8358.93733923
0.21700001 229051.27151589 7489.97693269
0.21800001 224706.28861391 11072.40289496
0.21900001 220421.19470870 10910.84965396
0.22000001 216196.70063905 8600.30515807
0.22100001 212034.92498752 10591.14500391
0.22200001 207931.87213724 6955.32145187
0.22300001 203888.55620631 9590.91813746
0.22400001 199902.77625003 7421.39091921
0.22500001 195979.07510299 11294.27463226
0.22600001 192112.37224508 9157.99721799
0.22700001 188304.92143133 7728.03434099
0.22800001 184554.66038569 6973.39817245
0.22900001 180861.44181910 6239.72003784
0.23000001 177225.90940757 6754.96585652
0.23100001 173648.30915492 7855.84987769
0.23200001 170125.20584290 5945.87622541
0.23300001 166659.43013262 8189.64478404
0.23400001 163249.09375684 9207.24932335
0.23500001 159892.62633605 7358.25901200
0.23600001 156591.75490515 5566.83715017
0.23700001 153344.88259223 6569.29508097
0.23800001 150152.20561603 6459.54819113
0.23900001 147012.84431530 6880.20143939
0.24000001 143926.38051867 7804.40835278
0.24100001 140893.38090266 6648.75895929
0.24200001 137912.03071802 6534.96188469
0.24300001 134982.20970657 4940.34910895
0.24400001 132103.11650457 6311.22668955
0.24500001 129275.16118082 6678.35514252
0.24600001 126497.36597615 4686.72763112
0.24700001 123770.50175098 6906.39432442
0.24800001 121091.74850518 7236.44323300
0.24900001 118461.78897894 4442.31729687
0.25000001 115880.85334932 6544.37150251
0.25100001 113347.15447335 5569.87943433
0.25200001 110862.17474575 5048.66367677
0.25300001 108423.91564064 5370.23679575
0.25400001 106031.62570745 8516.99073790
0.25500001 103685.36951375 5175.97389101
0.25600001 101385.15837470 4299.23784429
0.25700001 99129.76881444  4219.95445809
0.25800001 96918.76866108  6024.47094501
0.25900001 94752.28112416  4434.40696642
0.26000001 92629.70705375  3989.09852302
0.26100001 90548.26016951  4270.25615165
0.26200001 88512.12609926  3840.98389382
0.26300001 86516.58013775  5139.08510335
0.26400001 84562.57978098  4033.63524642
0.26500001 82650.64375692  3627.53692614
0.26600001 80778.35613466  4529.24264279
0.26700001 78947.47222896  4443.16394730
0.26800001 77156.04614217  3424.57127007
0.26900001 75403.27229759  3359.21593982
0.27000001 73689.81338983  2995.49105605
0.27100001 72014.49838293  3819.64917499
0.27200001 70377.28253431  3458.33982740
0.27300001 68776.85147418  4522.76596698
0.27400001 67212.15527714  3604.25199731
0.27500001 65686.08613196  4351.04655130
0.27600001 64193.74354513  2667.25017053
0.27700001 62738.31185957  3139.42527403
0.27800001 61317.09841461  4105.79310416
0.27900001 59930.55440129  3020.50008478
0.28000001 58577.71466226  2715.95586886
0.28100001 57258.15231529  4117.43392787
0.28200001 55972.17090006  3088.82439731
0.28300001 54718.53990706  3729.61585659
0.28400001 53497.09177654  3201.80109437
0.28500001 52307.58744084  2692.79472891
0.28600001 51148.48621524  2642.33092295
0.28700001 50020.47958808  2809.15026663
0.28800001 48922.19988648  2544.93295855
0.28900001 47855.16593640  2914.37974348
0.29000001 46816.07302590  2043.52168431
0.29100001 45806.98764013  2808.88461505
0.29200001 44825.91401954  2758.13862018
0.29300001 43872.69528339  2128.26454894
0.29400001 42946.99892474  2660.56670933
0.29500001 42049.35440051  2427.08885089
0.29600001 41177.46723069  1834.45625197
0.29700001 40331.63507265  1983.10659040
0.29800001 39512.30129498  2126.55215636
0.29900001 38718.25031450  1916.55348130
0.30000001 37949.02349164  2570.09773764
0.30100001 37205.41551805  2359.56756386
0.30200001 36484.69645741  2487.34429874
0.30300001 35788.18239655  1795.13531400
0.30400001 35115.77635861  2409.82026669
0.30500001 34465.14756500  2056.53545256
0.30600001 33837.25637954  1869.84687606
0.30700001 33232.14271180  1842.39007917
0.30800001 32648.49609890  2572.53837191
0.30900001 32086.19855121  1492.00830327
0.31000001 31545.57001560  1765.92109308
0.31100001 31023.98423693  1451.92253103
0.31200001 30523.70170266  2292.94058046
0.31300001 30042.79530700  1981.02201634
0.31400001 29582.70322769  1677.33935243
0.31500001 29140.52459708  1795.63921069
0.31600002 28717.46594318  2184.82491240
0.31700002 28312.14799119  1620.58742775
0.31800002 27925.42211081  2137.97041803
0.31900002 27556.43556571  1719.52166072
0.32000002 27204.56592545  1440.88990247
0.32100002 26869.99984130  1557.38526454
0.32200002 26552.06886721  1672.38213679
0.32300002 26249.76870973  1530.88658364
0.32400002 25963.75504823  1518.87974224
0.32500002 25692.96957203  1256.38627156
0.32600002 25437.84196324  1622.04406959
0.32700002 25197.49294720  1611.63172522
0.32800002 24972.57858884  1478.87617406
0.32900002 24760.53239931  1838.46961771
0.33000002 24564.28658588  1341.57857542
0.33100002 24379.19073579  1456.90050736
0.33200002 24210.01983952  1451.14865790
0.33300002 24052.37823139  1807.53630968
0.33400002 23908.41798386  1681.95728481
0.33500002 23776.31769509  1677.65705601
0.33600002 23656.42489318  1913.33173597
0.33700002 23547.70987643  1313.25584200
0.33800002 23451.89653182  1311.78189463
0.33900002 23366.19333219  1549.17869129
0.34000002 23292.02691218  1429.66467958
0.34100002 23228.46919973  1549.10668429
0.34200002 23176.36565483  1192.42406941
0.34300002 23132.87684224  1313.02215175
0.34400002 23100.40374576  1554.07973560
0.34500002 23076.97241427  1317.46441753
0.34600002 23064.23590453  1320.54288926
0.34700002 23058.45761653  1685.11216242
0.34800002 23063.29267938  2052.51782921
0.34900002 23076.08605930  2059.54077834
0.35000002 23097.48605789  1580.90750811
0.35100002 23127.08787422  1831.66544639
0.35200002 23163.72697342  1349.17134147
0.35300002 23208.68894540  1478.85772964
0.35400002 23261.23545175  1238.66084647
0.35500002 23320.71371490  1494.39140563
0.35600002 23386.70764810  1252.35825387
0.35700002 23459.74328438  1889.68241106
0.35800002 23539.80798741  1647.90433621
0.35900002 23625.64870072  1786.09912637
0.36000002 23718.20362113  1926.51118038
0.36100002 23815.91626933  1422.52474615
0.36200002 23920.38011661  1562.95771085
0.36300002 24028.66978484  1967.94814859
0.36400002 24142.92454449  1321.82518142
0.36500002 24261.66628501  1331.96554214
0.36600002 24385.96317591  1879.42627099
0.36700002 24514.50494369  2165.12117918
0.36800002 24648.86540431  1773.60919418
0.36900002 24786.33556591  1513.20585798
0.37000002 24927.23347909  1664.64073059
0.37100002 25072.36535107  1678.84566343
0.37200002 25221.75048532  1552.27270715
0.37300002 25374.09643906  1708.18425319
0.37400002 25530.79399326  1723.32867618
0.37500002 25689.54213297  1593.77926943
0.37600002 25852.48373446  1608.15382688
0.37700002 26016.97660625  1475.16264346
0.37800002 26185.10486236  2084.07259472
0.37900002 26355.56423367  1502.26723249
0.38000002 26528.57098807  2880.60501720
0.38100002 26703.19817412  1836.11199343
0.38200002 26880.33902411  1853.13066011
0.38300002 27059.04546619  1714.46120196
0.38400002 27240.15058131  2045.05440177
0.38500002 27421.93950225  1746.50340964
0.38600002 27606.29346303  2083.30903488
0.38700002 27790.86350475  1779.17116586
0.38800002 27976.84704433  2448.67365356
0.38900002 28163.99843330  1647.59398640
0.39000002 28352.69267944  1662.88550443
0.39100002 28541.24024345  1678.22500582
0.39200002 28731.27079262  1693.70849347
0.39300002 28921.29255403  2222.02301220
0.39400002 29112.72043031  2242.40739738
0.39500002 29303.29379423  1914.67730723
0.39600002 29494.31548056  2107.66388410
0.39700002 29685.02190356  1949.41548077
0.39800002 29876.90864240  1966.94637366
0.39900002 30067.64385008  2525.68220307
0.40000002 30257.94560046  2366.02016833
0.40100002 30447.93855429  2203.21293818
0.40200002 30638.46999325  2778.14339827
0.40300002 30827.24453533  2989.00977176
0.40400002 31015.63321484  2449.45974920
0.40500002 31203.33539142  3230.48146614
0.40600002 31390.33280536  2491.29388114
0.40700002 31576.20107660  3091.94175592
0.40800002 31761.02088781  2143.39259617
0.40900002 31944.20279098  2161.02542120
0.41000002 32127.00333979  2376.75581969
0.41100002 32308.12737221  2595.63507607
0.41200002 32487.09572451  2616.34837814
0.41300002 32665.30134254  2434.21837139
0.41400002 32841.51215516  2248.82265138
0.41500002 33016.75355953  2472.29462368
0.41600002 33189.05372544  2075.97540889
0.41700002 33360.32913102  2300.86200919
0.41800002 33530.65546811  2318.14197563
0.41900002 33696.96453631  3821.23595948
0.42000002 33862.13266504  3421.43004660
0.42100002 34025.73193834  2799.97761388
0.42200002 34187.05292020  2386.08547163
0.42300002 34345.66210246  3713.45316248
0.42400002 34502.04134393  2419.45576389
0.42500002 34656.56533638  2657.46555592
0.42600002 34807.27813080  2452.34689691
0.42700002 34956.86959299  3141.92358790
0.42800002 35103.50967459  3840.14862282
0.42900002 35248.19253879  2500.85937914
0.43000002 35390.21588990  2745.57307884
0.43100002 35528.25015720  2762.67686314
0.43200002 35664.50414807  2779.69158502
0.43300002 35797.61605383  2796.50989865
0.43400002 35928.40898450  2813.19455680
0.43500002 36055.84399384  2829.66277073
0.43600002 36181.47599768  2371.69586404
0.43700002 36303.18675750  3816.19117279
0.43800002 36421.22518515  2878.00535052
0.43900002 36537.48884512  3376.06412928
0.44000002 36649.88154779  4363.90160270
0.44100002 36759.89605668  2924.61746887
0.44200002 36866.66261928  2449.78984715
0.44300002 36970.53876402  2954.68559804
0.44400002 37070.59755623  2969.35500497
0.44500002 37166.90035328  2735.11232662
0.44600002 37260.77154057  2498.33485019
0.44700002 37351.70677672  3514.04874009
0.44800002 37438.11378479  3530.03991606
0.44900002 37522.84957434  2786.07171293
0.45000002 37603.96155122  3052.68974340
0.45100002 37680.47507522  2554.73633118
0.45200002 37754.58813094  3591.59413911
0.45300002 37824.73856693  4121.38370958
0.45400002 37892.25454935  2586.14649556
0.45500002 37956.16298794  3634.68233998
0.45600002 38016.53784572  2866.63717212
0.45700002 38073.41541766  3400.33689211
0.45800002 38126.22176412  3674.98669002
0.45900002 38176.06730024  2634.14876856
0.46000002 38223.11899777  3436.06744515
0.46100002 38265.48094033  3447.33734130
0.46200002 38305.25612708  2660.30016411
0.46300002 38341.27088512  3469.11835410
0.46400002 38373.30403292  2944.19189147
0.46500002 38402.86473602  3221.23244673
0.46600002 38428.05379654  2691.88529603
0.46700002 38449.79631645  2699.17582934
0.46800002 38468.87233965  4330.05647578
0.46900002 38483.65029297  2984.40722167
0.47000002 38494.57879381  3535.53475689
0.47100002 38502.67156282  4088.98391378
0.47200002 38506.97072934  2732.06970274
0.47300002 38508.63265506  2737.96391155
0.47400002 38505.15336653  3840.88923036
0.47500002 38499.52220507  3023.75261731
0.47600002 38490.71992713  4681.81894024
0.47700002 38477.30724216  3310.58767203
