# SAXS profile: number of points = 501, q_min = 0, q_max = 0.5, delta_q = 0.001
#    q    intensity    error
0.00000000 1682732.95097188 277.65093691
0.00100000 1682663.36821559 605.75882694
0.00200000 1682454.56520955 984.23595181
0.00300000 1682106.71600067 1412.96969177
0.00400000 1681619.69719000 1639.57926706
0.00500000 1680993.94230508 1815.47352955
0.00600000 1680229.22475808 2117.08890939
0.00700000 1679326.16502715 3627.34466721
0.00800000 1678284.24041359 2945.38896628
0.00900000 1677104.78459124 2767.22301287
0.01000000 1675786.98104018 3318.05836573
0.01100000 1674332.10312567 3315.17770853
0.01200000 1672739.60494628 4240.39508445
0.01300000 1671010.82986329 5614.59663597
0.01400000 1669145.10356837 4506.69197942
0.01500000 1667144.15450228 4801.37537877
0.01600000 1665006.92202443 6368.65176144
0.01700000 1662735.47273399 5836.20177110
0.01800000 1660329.41028602 6151.52074191
0.01900000 1657789.39120415 4973.36839802
0.02000000 1655116.18805890 6777.70109670
0.02100000 1652311.35999161 7088.41605574
0.02200000 1649373.11551708 6828.40500847
0.02300000 1646304.39166938 7112.03529574
0.02400000 1643105.03475050 9858.63065803
0.02500000 1639776.43903096 8313.66692558
0.02600000 1636318.83811872 8615.21907674
0.02700000 1632733.26327496 7543.22802182
0.02800000 1629019.49499142 7086.23512818
0.02900000 1625180.35684345 8775.97432990
0.03000000 1621215.88987941 8292.51965790
0.03100000 1617126.50691072 9314.64910840
0.03200000 1612913.16091365 9580.70461710
0.03300000 1608578.72935823 8203.75189792
0.03400000 1604121.25909070 9263.80069868
0.03500000 1599544.16426025 12092.55444022
0.03600000 1594847.01562747 9736.54148037
0.03700000 1590031.78004020 19032.68128730
0.03800000 1585099.67477190 11127.40023187
0.03900000 1580052.03518528 12324.40644519
0.04000000 1574888.01943566 12591.23029885
0.04100000 1569611.29069324 19777.10317973
0.04200000 1564222.22066400 12107.08054962
0.04300000 1558721.13707758 12345.07197869
0.04400000 1553111.40242617 12580.20294390
0.04500000 1547392.89988589 11744.71265585
0.04600000 1541565.93596064 15215.25649524
0.04700000 1535633.78188622 17690.50199008
0.04800000 1529596.50789539 14615.29531296
0.04900000 1523456.97995349 12568.52066965
0.05000000 1517214.80546404 17410.04070342
0.05100000 1510873.09231546 14141.77280285
0.05200000 1504430.41180452 13156.24456433
0.05300000 1497892.07509559 12132.92637389
0.05400000 1491256.41488980 17224.01239520
0.05500000 1484527.47731769 16211.04080854
0.05600000 1477703.64497177 13897.80342949
0.05700000 1470790.20184273 12795.87535332
0.05800000 1463785.52536363 18136.30350608
0.05900000 1456691.78361094 19665.33999723
0.06000000 1449511.71929112 14589.33613626
0.06100000 1442246.96158469 18778.05631736
0.06200000 1434897.80987785 18983.69891205
0.06300000 1427467.73793679 16444.42910990
0.06400000 1419954.58394832 17997.92519325
0.06500000 1412364.76711303 15380.65303333
0.06600000 1404696.37067665 15528.91910441
0.06700000 1396952.04517709 18523.58498593
0.06800000 1389135.10530135 17253.05881544
0.06900000 1381245.83693631 14503.08196685
0.07000000 1373284.41914724 16088.02772369
0.07100000 1365255.35276710 14744.75850050
0.07200000 1357157.70232129 17833.05304392
0.07300000 1348996.24567474 16471.24493146
0.07400000 1340770.36110465 18100.40072317
0.07500000 1332482.23968808 18228.35789334
0.07600000 1324132.49774451 19881.85038571
0.07700000 1315726.23748280 21551.59678049
0.07800000 1307261.84150685 21687.47496766
0.07900000 1298741.36076403 21818.85588422
0.08000000 1290168.89316523 23513.32918097
0.08100000 1281544.73304618 15763.00095604
0.08200000 1272869.27683175 20601.39021225
0.08300000 1264146.33832440 17521.06907148
0.08400000 1255375.78896176 17606.64626662
0.08500000 1246562.08770740 20904.84719223
0.08600000 1237704.49651576 17767.24888168
0.08700000 1228806.27690516 17842.26797849
0.08800000 1219866.32959941 16285.21626497
0.08900000 1210890.92208618 17981.73103758
0.09000000 1201878.40058388 19686.76912636
0.09100000 1192831.73171458 26337.72587364
0.09200000 1183751.83129786 18164.67270476
0.09300000 1174642.14293887 18218.70049312
0.09400000 1165500.98301437 16608.38978851
0.09500000 1156333.03991549 18316.31621318
0.09600000 1147138.86709101 18359.95843085
0.09700000 1137921.78252839 18400.19608853
0.09800000 1128682.60749359 23465.31251308
0.09900000 1119422.99698478 21828.74946764
0.10000000 1110142.91733817 20182.39918633
0.10100000 1100845.39895461 25264.40309424
0.10200000 1091532.41483827 21923.42958322
0.10300000 1082204.91618522 18570.63723531
0.10400000 1072865.62689486 20277.16130225
0.10500000 1063517.23485268 18600.91731273
0.10600001 1054156.05845513 16919.20553431
0.10700001 1044790.00020962 20310.71855985
0.10800001 1035416.21166910 20314.86702900
0.10900001 1026038.96218447 25394.46550927
0.11000001 1016658.35587610 18620.09866431
0.11100001 1007276.43857684 25383.36744702
0.11200001 997895.99074654 18605.77162338
0.11300001 988515.31654749 21974.69652144
0.11400001 979139.48696468 16890.15694540
0.11500001 969768.36511037 25310.95552122
0.11600001 960403.17682075 20226.09185632
0.11700001 951047.01446544 16833.53294881
0.11800001 941698.18719195 20171.17611968
0.11900001 932360.63003408 20138.99055732
0.12000001 923034.86326722 20103.70026894
0.12100001 913724.11107259 20065.38242440
0.12200001 904427.08573686 30036.02493236
0.12300001 895147.08636487 19979.68390899
0.12400001 885883.89716062 18271.35623984
0.12500001 876639.94737674 21539.04452198
0.12600001 867417.75656568 19829.17084951
0.12700001 858216.90795490 18125.54195020
0.12800001 849037.81571090 23000.43551160
0.12900001 839883.81330979 19653.28215775
0.13000001 830755.33568663 17956.77742726
0.13100001 821652.43103484 19522.46268163
0.13200001 812578.78062388 16210.94743764
0.13300001 803535.25178266 20996.37711891
0.13400001 794520.46513982 19306.84821313
0.13500001 785538.21574711 17627.47839247
0.13600001 776587.67120067 20746.54061434
0.13700001 767671.91216196 25425.29492969
0.13800001 758789.46266322 17402.83714682
0.13900001 749945.49568577 18898.62738251
0.14000001 741137.02834836 23512.57333322
0.14100001 732367.31706051 24959.07934257
0.14200001 723635.57974824 26387.37266009
0.14300001 714946.58667613 18531.41640073
0.14400001 706294.61455978 23042.86288694
0.14500001 697688.49053172 22919.06799511
0.14600001 689123.04934736 22792.74593240
0.14700001 680604.40689191 16620.36040039
0.14800001 672128.35905139 18026.48344022
0.14900001 663697.65703818 20906.47718309
0.15000001 655314.26132605 20780.01620711
0.15100001 646978.37653690 16226.21844918
0.15200001 638691.45987589 16123.76666540
0.15300001 630453.63452238 16019.82760917
0.15400001 622263.57256046 17361.15449373
0.15500001 614125.93828093 15807.60239736
0.15600001 606037.77839185 18553.84746111
0.15700001 598005.13489719 15589.99460257
0.15800001 590020.53344351 28143.98077362
0.15900001 582092.56849634 16764.26676398
0.16000001 574215.99467486 18027.51200376
0.16100001 566397.20181590 19268.83371535
0.16200001 558631.42914485 15024.39299609
0.16300001 550922.66280980 17618.50758839
0.16400001 543269.84059334 14790.52210841
0.16500001 535674.41789053 16005.95236223
0.16600001 528135.87763860 13229.80435947
0.16700001 520655.08997006 14432.55977540
0.16800001 513231.60505338 16913.54834313
0.16900001 505869.38298853 19349.50481296
0.17000001 498565.42603567 20461.12605067
0.17100001 491321.21899283 20281.74087775
0.17200001 484137.18623831 15076.03269140
0.17300001 477013.79435803 14940.07274483
0.17400001 469952.15825577 12336.24473681
0.17500001 462950.92159607 17110.66687029
0.17600001 456009.60120305 20581.99432237
0.17700001 449132.65950194 16788.57960512
0.17800001 442316.78481504 14251.44747987
0.17900001 435563.09356912 12936.22449003
0.18000001 428873.11204535 15137.07720464
0.18100001 422246.78359839 12680.07151042
0.18200001 415680.77159151 13692.52526303
0.18300001 409180.72306430 16940.08273510
0.18400001 402742.69226178 12293.72126205
0.18500001 396369.33000445 16588.05724434
0.18600001 390059.37629831 16411.74903310
0.18700001 383813.04408261 19482.35103807
0.18800001 377630.18927317 10705.81637170
0.18900001 371513.66710633 12705.76801535
0.19000001 365457.25217340 13611.45600032
0.19100001 359469.92775250 13458.55473097
0.19200001 353543.32725525 14329.11173073
0.19300001 347683.56351889 11129.35139413
0.19400001 341887.01981888 10000.19580225
0.19500001 336155.25748818 13836.15105204
0.19600001 330486.76901364 10742.47293444
0.19700001 324883.39341863 11578.84468863
0.19800001 319344.07613914 9532.42112324
0.19900001 313869.83562714 15065.75282211
0.20000001 308457.74318179 12090.00181540
0.20100001 303111.53945452 13776.42011931
0.20200001 297827.99880802 9975.74929156
0.20300001 292608.90497947 10744.59949869
0.20400001 287453.59275183 8839.19839491
0.20500001 282360.93361063 10469.94391316
0.20600001 277332.35406044 12055.63800085
0.20700001 272366.65193222 10197.40793036
0.20800001 267463.73462114 12577.48271510
0.20900001 262625.83756235 10754.52855656
0.21000001 257848.23990819 8976.98689677
0.21100001 253133.18333469 8049.63561058
0.21200001 248480.42541848 8732.84496417
0.21300001 243889.33398637 9394.61758929
0.21400001 239360.88604112 10807.14451568
0.21500001 234894.37517226 9893.75155001
0.21600001 230487.55948283 9002.84449904
0.21700001 226142.29375781 8134.33869106
0.21800001 221857.80984732 8016.83233787
0.21900001 217632.36050680 8618.24188355
0.22000001 213466.78650569 7784.06673798
0.22100001 209363.21505733 9063.33400838
0.22200001 205317.65410262 7554.66343992
0.22300001 201331.15177592 7441.19972150
0.22400001 197401.55300151 9993.45409326
0.22500001 193533.54168373 7216.86611065
0.22600001 189721.54482170 7106.02079733
0.22700001 185968.08945409 8904.15254413
0.22800001 182271.26692050 6887.12014628
0.22900001 178630.71390243 7395.31190529
0.23000001 175047.13415573 6671.92183387
0.23100001 171520.83062020 7162.71022544
0.23200001 168048.53022341 8809.94461362
0.23300001 164632.46393657 5778.59975747
0.23400001 161271.29951433 6821.77629209
0.23500001 157963.34023349 6151.09275962
0.23600001 154710.31233251 9899.91335439
0.23700001 151510.56541415 7031.60567345
0.23800001 148364.16372541 6382.62662536
0.23900001 145270.44857751 8367.57823385
0.24000001 142228.88352110 6169.88925898
0.24100001 139240.20092465 6065.30343917
0.24200001 136302.46414782 5465.04755851
0.24300001 133415.55474841 5371.31048825
0.24400001 130578.67190899 4798.76641965
0.24500001 127792.13917396 5187.08317444
0.24600001 125055.34312656 5559.96081842
0.24700001 122368.42941855 4552.10578971
0.24800001 119729.17590436 4471.88493158
0.24900001 117137.90791475 5710.47328099
0.25000001 114595.04258305 6040.30498031
0.25100001 112098.62118197 4661.06088926
0.25200001 109650.32065643 4577.35285236
0.25300001 107248.14012653 6129.23149821
0.25400001 104891.13807337 4814.50346535
0.25500001 102579.57002367 5120.77237786
0.25600001 100313.35928571 5027.20423845
0.25700001 98091.22931662  3796.13075416
0.25800001 95912.87784596  6334.56631705
0.25900001 93778.36554404  5120.29900097
0.26000001 91687.22230462  5384.33238460
0.26100001 89636.45530897  3522.71286032
0.26200001 87630.21902242  4148.41476481
0.26300001 85664.05285851  4749.21531520
0.26400001 83738.85495855  3994.34357053
0.26500001 81854.91080474  5225.61775305
0.26600001 80010.12107320  3204.40550061
0.26700001 78205.99693621  4401.43371585
0.26800001 76440.80401724  4935.01854088
0.26900001 74713.49815341  6354.38331865
0.27000001 73025.01763314  2968.46710726
0.27100001 71373.93756932  4659.29086502
0.27200001 69760.40325530  3142.35751334
0.27300001 68183.07641467  3643.02194524
0.27400001 66640.85693665  3298.72257448
0.27500001 65136.54495709  3235.98370661
0.27600001 63665.57729958  3174.36583439
0.27700001 62230.85175175  4411.54528947
0.27800001 60829.67312913  3309.43852322
0.27900001 59462.61809996  2747.17308624
0.28000001 58128.69699329  2695.13716365
0.28100001 56827.45706588  2884.56185719
0.28200001 55559.31778829  3066.04109726
0.28300001 54322.94476430  3471.23633473
0.28400001 53118.21192997  2724.96440098
0.28500001 51944.79192500  2896.96118277
0.28600001 50801.21500867  2405.69165060
0.28700001 49688.27487538  2361.18693384
0.28800001 48604.49467734  2949.80692159
0.28900001 47551.34369851  2895.87696831
0.29000001 46525.63320627  2843.18157981
0.29100001 45529.55733605  3988.38941143
0.29200001 44560.79536803  1958.44704913
0.29300001 43619.45784952  2308.34181866
0.29400001 42705.18367602  2834.55670067
0.29500001 41818.49770374  2599.43794031
0.29600001 40957.03166668  2554.49018597
0.29700001 40121.04202059  2690.11599483
0.29800001 39311.17303285  1939.41681339
0.29900001 38526.15169478  1907.04459917
0.30000001 37765.36951799  1875.61716590
0.30100001 37029.77432144  2348.42839864
0.30200001 36316.67446548  2475.88939889
0.30300001 35627.29532023  1624.60474351
0.30400001 34961.55652985  1759.44041566
0.30500001 34317.21347737  2992.80432905
0.30600001 33695.25849115  1706.83339968
0.30700001 33095.48537892  2293.51724534
0.30800001 32516.87047861  1657.87271984
0.30900001 31959.08301172  2080.53640256
0.31000001 31422.76741935  1759.04660342
0.31100001 30904.91369028  1735.62003502
0.31200001 30408.10729489  1855.95891662
0.31300001 29930.11896475  1409.70866998
0.31400001 29472.62986399  1949.61455781
0.31500001 29032.85507953  1926.62035430
0.31600002 28611.61743621  1768.62721556
0.31700002 28207.91595409  1749.17295113
0.31800002 27822.32768075  1730.68797533
0.31900002 27454.24770078  1449.58434724
0.32000002 27102.85371975  1566.00296208
0.32100002 26768.44178550  1551.49895935
0.32200002 26450.47354787  1665.98315530
0.32300002 26147.73917476  1524.93622088
0.32400002 25860.95329158  1765.01014573
0.32500002 25589.03279174  1501.56451532
0.32600002 25332.59438361  1615.33295736
0.32700002 25090.56094888  1481.34678857
0.32800002 24863.69448750  1472.42805727
0.32900002 24649.46202228  1342.16327067
0.33000002 24450.70811115  1699.56880129
0.33100002 24262.89682059  1449.95078266
0.33200002 24090.63422782  1323.65996033
0.33300002 23929.88076477  1558.55320802
0.33400002 23782.45091242  1673.09550092
0.33500002 23646.56014695  1310.96535663
0.33600002 23522.71395728  1426.88789622
0.33700002 23409.76233927  1661.62500953
0.33800002 23309.56243989  1422.34956744
0.33900002 23219.20212387  1302.59730084
0.34000002 23140.31141377  1420.35238184
0.34100002 23071.69409589  1538.65135212
0.34200002 23014.36019938  1420.90666600
0.34300002 22965.47292360  1540.52399667
0.34400002 22927.39806275  1305.14219653
0.34500002 22898.22220274  1426.10134633
0.34600002 22879.59094564  1190.88276512
0.34700002 22867.74207529  1432.43543144
0.34800002 22866.23517589  1197.04746815
0.34900002 22872.75011724  1681.14721324
0.35000002 22887.59120071  1325.53490717
0.35100002 22910.51391649  1451.61023050
0.35200002 22940.44480605  2064.98423702
0.35300002 22978.38035322  1830.22808182
0.35400002 23023.97677467  1593.83486772
0.35500002 23076.28395571  1848.41043240
0.35600002 23135.11442261  1610.55106681
0.35700002 23200.75364607  1744.23274173
0.35800002 23273.37379651  1378.59836213
0.35900002 23351.70712573  1639.28991787
0.36000002 23436.68700300  1522.91599359
0.36100002 23526.66063122  1277.49773279
0.36200002 23623.41071676  2058.07163913
0.36300002 23723.85142884  1554.38681924
0.36400002 23830.16974041  1435.17204060
0.36500002 23941.06543120  1708.67392076
0.36600002 24057.37925989  1721.66642829
0.36700002 24177.87714060  1735.00454579
0.36800002 24304.14912142  1479.75818935
0.36900002 24433.60250114  1627.27800366
0.37000002 24566.35982330  1777.25338560
0.37100002 24703.40860102  2205.52042437
0.37200002 24844.61269781  1946.07860481
0.37300002 24988.78208340  1822.43196367
0.37400002 25137.28761360  1413.97249525
0.37500002 25287.91745659  1854.11019575
0.37600002 25442.65842261  1726.53888235
0.37700002 25598.98165758  1596.60856162
0.37800002 25759.00584152  1903.71941690
0.37900002 25921.32044084  1920.76993566
0.38000002 26086.23304169  1938.07677564
0.38100002 26252.81919887  1805.14393363
0.38200002 26421.82437717  2276.90082357
0.38300002 26592.51988420  1991.24798326
0.38400002 26765.74892768  2009.43869594
0.38500002 26939.48312643  2339.69422037
0.38600002 27116.05564681  1888.90452584
0.38700002 27292.84498678  1747.28801883
0.38800002 27470.95413273  1923.51629950
0.38900002 27650.41074509  1941.05892626
0.39000002 27831.53443242  2122.01544333
0.39100002 28012.55728349  1976.56613557
0.39200002 28195.05234663  2160.72793895
0.39300002 28377.68297949  2012.54537225
0.39400002 28561.70634806  2538.42177195
0.39500002 28745.08987235  1707.45841931
0.39600002 28928.90892752  2067.25992990
0.39700002 29112.61925517  1911.82579707
0.39800002 29297.44827673  1753.45236244
0.39900002 29481.23298445  2122.64887545
0.40000002 29664.86180648  2319.64397886
0.40100002 29848.13695667  2159.81129252
0.40200002 30032.11508108  2360.07387547
0.40300002 30214.50385219  2929.59843231
0.40400002 30396.44833059  1846.58432358
0.40500002 30577.94142116  1862.19672078
0.40600002 30758.76231210  3004.51604500
0.40700002 30938.67421042  2650.82573195
0.40800002 31117.72793056  2672.70177859
0.40900002 31295.18147295  2309.58450214
0.41000002 31472.27289425  1940.26571586
0.41100002 31647.93787979  3129.34824583
0.41200002 31821.61800637  1971.34932890
0.41300002 31994.61851227  2185.55249413
0.41400002 32165.79381055  2402.78491150
0.41500002 32336.13796985  2017.77510493
0.41600002 32503.61844457  2033.10143004
0.41700002 32670.23505011  2458.10860164
0.41800002 32836.06361691  2682.87070494
0.41900002 32998.02774778  2910.42618526
0.42000002 33158.99250344  2722.18761856
0.42100002 33318.64029684  2530.88403687
0.42200002 33475.98731864  2336.45664562
0.42300002 33630.93558742  2138.92760471
0.42400002 33783.68738888  2584.45220772
0.42500002 33934.83013042  2385.27932290
0.42600002 34082.29265960  2401.26804312
0.42700002 34228.82062152  3515.98462085
0.42800002 34372.54426174  2433.06066086
0.42900002 34514.44439022  3339.27265299
0.43000002 34653.86332870  2688.44684444
0.43100002 34789.41724611  2254.35434438
0.43200002 34923.41401302  2721.93101716
0.43300002 35054.49609954  2966.66214549
0.43400002 35183.29506039  2525.28112263
0.43500002 35309.00047348  2540.12961444
0.43600002 35433.00530370  2787.16032927
0.43700002 35553.25492935  2569.43385551
0.43800002 35670.03873979  2818.64659479
0.43900002 35785.24286805  3542.73921183
0.44000002 35896.69821408  2849.48003927
0.44100002 36006.02479932  3342.07938025
0.44200002 36112.16003634  2879.58377776
0.44300002 36215.66353411  3376.74862795
0.44400002 36315.50572528  3636.09018306
0.44500002 36411.75366495  4141.10894057
0.44600002 36505.68433038  2447.70625035
0.44700002 36596.91354035  3197.10651840
0.44800002 36683.84977882  3211.85461960
0.44900002 36769.14725503  2978.30106880
0.45000002 36850.95434763  3240.85733369
0.45100002 36928.47970481  2754.12614691
0.45200002 37003.73496338  3520.16547390
0.45300002 37075.24248555  3282.27137280
0.45400002 37144.17444331  2788.59902849
0.45500002 37209.72717389  3308.68909711
0.45600002 37271.79580198  2810.47989565
0.45700002 37330.68792562  3590.46573485
0.45800002 37385.66974919  3088.80418107
0.45900002 37437.77956781  3099.84829513
0.46000002 37487.28206322  3369.91938079
0.46100002 37532.30387338  3901.48317255
0.46200002 37574.89434731  2870.53418971
0.46300002 37613.76919159  3141.50215177
0.46400002 37648.93783734  3151.21624634
0.46500002 37681.73749445  3424.13964841
0.46600002 37710.29744485  3962.40969182
0.46700002 37735.69065760  3178.85473166
0.46800002 37758.42003715  3187.56597061
0.46900002 37777.08937966  3462.27040575
0.47000002 37792.12273742  2670.01359795
0.47100002 37804.35162869  2944.20304439
0.47200002 37812.98166958  3755.96364726
0.47300002 37819.06121663  2957.82891795
0.47400002 37820.28837142  2694.69567419
0.47500002 37819.44354249  3240.37007631
0.47600002 37815.48905259  3787.97771794
0.47700002 37807.13383484  3252.92594933
