# SAXS profile: number of points = 501, q_min = 0, q_max = 0.5, delta_q = 0.001
#    q    intensity    error
0.00000000 1682732.95097189 302.89193117
0.00100000 1682663.40403104 504.79903320
0.00200000 1682454.70892701 984.23603589
0.00300000 1682107.03014846 1009.26425404
0.00400000 1681620.24629892 1261.21523265
0.00500000 1680994.81483483 1966.76401120
0.00600000 1680230.46469562 2293.51467768
0.00700000 1679327.86226938 3022.79027771
0.00800000 1678286.44092428 2265.68679090
0.00900000 1677107.59851964 3521.92610745
0.01000000 1675790.46266939 3594.57069764
0.01100000 1674336.30605108 3315.18603032
0.01200000 1672744.57018643 4566.59287683
0.01300000 1671016.66751665 4210.96218787
0.01400000 1669151.84503034 3755.59181781
0.01500000 1667151.88884801 4801.39765368
0.01600000 1665015.73304308 5094.94837087
0.01700000 1662745.34538327 4938.35389732
0.01800000 1660340.43403197 5205.16749491
0.01900000 1657801.66125732 6962.76729146
0.02000000 1655129.73901532 5213.65891374
0.02100000 1652326.23539484 7088.47987122
0.02200000 1649389.40475787 8535.59055741
0.02300000 1646322.19229961 8297.46422688
0.02400000 1643124.38423383 8010.23173839
0.02500000 1639797.35705497 7034.73098305
0.02600000 1636341.35370115 7289.90106417
0.02700000 1632757.41668254 6857.58146415
0.02800000 1629045.45533484 7794.98286125
0.02900000 1625208.02208774 8776.12372222
0.03000000 1621245.39621576 9800.42887060
0.03100000 1617157.87393594 8538.59396727
0.03200000 1612946.44713370 10379.31086536
0.03300000 1608614.07024087 8203.93213643
0.03400000 1604158.57711188 10106.19950211
0.03500000 1599583.43171621 10365.30111617
0.03600000 1594888.35095710 12392.28305963
0.03700000 1590075.24641796 10876.11518849
0.03800000 1585145.27683697 9273.10029865
0.03900000 1580099.92681457 10428.65999993
0.04000000 1574937.96441268 10654.45582297
0.04100000 1569663.53507071 12855.54494830
0.04200000 1564276.71352333 11098.54379734
0.04300000 1558777.88042862 14403.10828372
0.04400000 1553170.57586849 13629.07243621
0.04500000 1547454.31674311 11745.17880982
0.04600000 1541629.69145162 13042.18779597
0.04700000 1535699.99904942 13268.44860887
0.04800000 1529665.09956102 13491.64680587
0.04900000 1523527.95800780 12569.10623862
0.05000000 1517288.05426375 12767.97957118
0.05100000 1510948.79999264 16499.56166454
0.05200000 1504508.62433164 14353.01294499
0.05300000 1497972.64528614 12133.57899246
0.05400000 1491339.51767541 13533.90675404
0.05500000 1484612.97574322 14964.89949359
0.05600000 1477791.56253183 15162.14213911
0.05700000 1470880.51826445 14076.32721685
0.05800000 1463878.14814491 12955.32221600
0.05900000 1456786.87747114 14422.19076056
0.06000000 1449609.16432793 15916.70936793
0.06100000 1442346.89984922 17437.97483408
0.06200000 1435000.15811419 17628.97776647
0.06300000 1427572.34451772 20557.04272221
0.06400000 1420061.65328642 17999.28229717
0.06500000 1412474.16389413 18178.54333967
0.06600000 1404807.88601687 18353.81588956
0.06700000 1397065.89205063 24225.12370187
0.06800000 1389251.07885010 15816.62427307
0.06900000 1381364.24124311 15954.75773334
0.07000000 1373404.96598855 16089.43993000
0.07100000 1365378.13193913 16220.69296718
0.07200000 1357282.48196145 17834.69264847
0.07300000 1349123.12105643 22462.90101810
0.07400000 1340899.11162434 16593.62728400
0.07500000 1332613.13167601 22787.68561978
0.07600000 1324265.26439092 18354.31742492
0.07700000 1315860.95843955 23093.36090343
0.07800000 1307398.23893668 17041.93684374
0.07900000 1298879.67553580 18703.86820500
0.08000000 1290308.91775604 20380.43031202
0.08100000 1281686.26108019 20494.16427622
0.08200000 1273012.54571314 19018.80832542
0.08300000 1264291.09192526 19116.08220707
0.08400000 1255522.21091110 16007.90894051
0.08500000 1246709.97372037 20907.32724079
0.08600000 1237853.63556907 17769.38977289
0.08700000 1228956.72706671 19466.67547085
0.08800000 1220017.98524626 16287.24086795
0.08900000 1211043.85794142 17984.00213513
0.09000000 1202032.24227132 27893.15949220
0.09100000 1192986.60961164 23048.50238054
0.09200000 1183907.70273525 24773.26984375
0.09300000 1174798.90286827 24846.99796328
0.09400000 1165658.54719540 19932.76209383
0.09500000 1156491.15227537 29976.25207594
0.09600000 1147297.80558771 21701.13901281
0.09700000 1138081.33860787 26767.67434248
0.09800000 1128842.64489819 21792.30828438
0.09900000 1119583.52166382 23511.25506050
0.10000000 1110303.83735716 18503.21431971
0.10100000 1101006.38362678 16845.39846176
0.10200000 1091693.37387189 18553.32976163
0.10300000 1082365.83273020 21950.38012033
0.10400000 1073026.64841697 21970.22165993
0.10500000 1063678.06510501 18603.73023398
0.10600001 1054316.78056524 18613.96363673
0.10700001 1044950.31038378 27085.11331971
0.10800001 1035576.08737831 25397.50473820
0.10900001 1026198.26933727 18625.49946509
0.11000001 1016816.91024263 27088.00376388
0.11100001 1007434.49507394 18617.39034535
0.11200001 998052.99932411 18608.69904844
0.11300001 988671.59552378 21978.17060324
0.11400001 979294.57319597 18582.11540132
0.11500001 969922.52053112 18564.31791712
0.11600001 960556.23567421 32029.74918689
0.11700001 951198.80900940 25254.32956855
0.11800001 941848.33502053 20174.39228632
0.11900001 932509.42430202 25177.75564207
0.12000001 923181.88697877 20106.90244553
0.12100001 913869.50211462 20068.57521183
0.12200001 904570.67325703 16689.32970785
0.12300001 895288.82856810 18317.61029553
0.12400001 886023.50738694 21596.82401014
0.12500001 876777.46275924 23199.53275778
0.12600001 867552.96610566 18179.57326143
0.12700001 858349.72741346 16480.31554300
0.12800001 849168.27055116 16431.40680956
0.12900001 840011.85744319 26208.37118748
0.13000001 830880.55066665 21224.84466721
0.13100001 821775.10511655 17898.26263312
0.13200001 812698.72871196 19456.00848253
0.13300001 803652.14238666 20999.43147054
0.13400001 794634.32415004 24137.01873401
0.13500001 785648.97864049 24040.85987988
0.13600001 776695.35035512 22345.52628333
0.13700001 767776.08898632 28607.33842456
0.13800001 758890.23594763 18987.43459878
0.13900001 750042.80135076 17325.98952826
0.14000001 741230.77323451 23515.54738987
0.14100001 732457.32942390 18721.61022304
0.14200001 723721.75796616 20180.98217273
0.14300001 715029.01438955 20078.01567109
0.14400001 706373.05512997 18436.33760853
0.14500001 697763.02722172 18337.21322039
0.14600001 689193.47124294 21275.40346092
0.14700001 680670.42848956 16621.97264788
0.14800001 672190.27450996 19530.48934731
0.14900001 663755.04694604 19414.83603918
0.15000001 655367.29437461 19297.29089336
0.15100001 647026.53844504 17702.64692716
0.15200001 638735.30807522 20522.56641686
0.15300001 630492.77225318 20390.13721686
0.15400001 622297.79723051 17362.10936207
0.15500001 614155.36177037 18682.60698674
0.15600001 606062.36864396 17127.32334620
0.15700001 598024.70018274 15590.50466959
0.15800001 590034.97427624 16886.80176082
0.15900001 582101.76196207 19558.62012510
0.16000001 574220.14470315 19414.38400882
0.16100001 566396.27687382 17892.45923104
0.16200001 558625.15790655 15024.22433113
0.16300001 550911.01988213 16262.89407466
0.16400001 543252.91664156 25546.46961111
0.16500001 535651.94954078 16005.28100791
0.16600001 528107.94537337 18520.74651866
0.16700001 520621.62432910 15743.59866304
0.16800001 513192.38602665 14310.37036004
0.16900001 505824.55570069 18057.93749118
0.17000001 498514.84895599 14065.59712747
0.17100001 491264.90721126 12674.63520456
0.17200001 484075.16022532 13817.92610115
0.17300001 476945.92404316 13693.11812593
0.17400001 469878.41224010 14801.17068456
0.17500001 462871.51702604 20773.67466522
0.17600001 455924.10810650 14525.74277031
0.17700001 449041.20362215 11989.40070298
0.17800001 442219.39579374 14248.30960545
0.17900001 435459.94187182 12933.16088447
0.18000001 428763.81466035 12805.03192968
0.18100001 422131.54123684 17286.28743019
0.18200001 415559.55272636 14829.24333954
0.18300001 409053.50766859 11289.87734498
0.18400001 402609.29218839 13406.89006322
0.18500001 396229.84217194 11054.81311885
0.18600001 389913.92255226 10937.08604430
0.18700001 383661.60116635 11901.18343045
0.18800001 377472.66656894 13911.75578368
0.18900001 371350.01735613 13758.51879310
0.19000001 365287.68203412 12558.59110171
0.19100001 359294.29546673 13451.97905788
0.19200001 353361.81072508 11252.80739425
0.19300001 347496.06249420 11123.34948605
0.19400001 341693.38085893 11993.43823488
0.19500001 335955.73430598 10864.80896087
0.19600001 330281.35311956 15615.70311343
0.19700001 324671.95464483 10607.03325951
0.19800001 319126.82482151 10478.52978822
0.19900001 313646.89060395 11291.28859537
0.20000001 308228.92761503 14868.96417087
0.20100001 302876.89480148 9177.17034622
0.20200001 297587.52808317 11780.00285594
0.20300001 292362.87950939 9840.93498941
0.20400001 287201.89835714 12364.04230867
0.20500001 282103.76248171 11332.10867452
0.20600001 277069.39797132 10323.60625639
0.20700001 272098.26560807 10187.35954591
0.20800001 267189.83637166 12564.60264931
0.20900001 262346.60548059 9090.31030961
0.21000001 257563.68087022 9782.26906188
0.21100001 252843.40722726 9648.50487591
0.21200001 248185.35339116 10308.37914042
0.21300001 243589.08460414 8601.13098399
0.21400001 239055.64242511 13106.22621557
0.21500001 234584.19880516 12160.84544099
0.21600001 230172.20969585 10488.94809174
0.21700001 225822.25675812 7384.38814512
0.21800001 221532.83543155 10188.29558321
0.21900001 217302.70153485 9322.28633662
0.22000001 213132.50578013 10598.01435102
0.22100001 209024.32997578 10440.76577597
0.22200001 204974.47093623 7542.03601472
0.22300001 200983.53055336 8778.96102969
0.22400001 197049.70223897 7980.51331805
0.22500001 193177.37040693 6548.71316647
0.22600001 189361.27188634 9671.62741895
0.22700001 185603.84929180 6982.41714055
0.22800001 181903.00551342 8747.71594882
0.22900001 178258.75370323 7379.91275232
0.23000001 174671.30828525 7868.06945380
0.23100001 171141.50218217 6551.29701336
0.23200001 167665.50736699 7617.88268750
0.23300001 164246.11538145 6341.54281480
0.23400001 160881.59352169 6805.29172783
0.23500001 157570.40439262 7251.39035311
0.23600001 154314.25900622 9325.98268413
0.23700001 151111.58859870 7013.08915857
0.23800001 147962.19070560 10608.88957538
0.23900001 144865.86521130 5736.68853371
0.24000001 141821.56112216 5639.53464477
0.24100001 138830.45915027 6551.40967719
0.24200001 135890.14877343 8420.43346705
0.24300001 133000.91772449 5841.40058277
0.24400001 130161.80679015 6696.82527614
0.24500001 127373.23509575 7990.12341552
0.24600001 124634.47459755 6003.01975296
0.24700001 121945.73804649 5443.65800391
0.24800001 119304.65031732 6238.44046021
0.24900001 116711.91395613 5689.70607453
0.25000001 114167.54413432 4728.24906401
0.25100001 111669.77350480 4221.11763818
0.25200001 109220.17268435 4144.90574947
0.25300001 106816.92604204 4476.69758222
0.25400001 104458.86853001 4395.10710134
0.25500001 102146.43610007 5099.15033137
0.25600001 99879.41939607  4235.38697988
0.25700001 97656.73198019  4913.11041838
0.25800001 95477.85473718  4822.10928165
0.25900001 93342.97121244  4004.41365448
0.26000001 91251.55573559  3572.49857608
0.26100001 89200.69309642  7361.73354958
0.26200001 87194.48985365  4471.76962373
0.26300001 85228.42194150  3375.04566858
0.26400001 83303.31221775  3311.30681734
0.26500001 81419.89972503  3248.65415275
0.26600001 79575.54892462  3187.00088524
0.26700001 77772.07036942  4377.01232751
0.26800001 76007.46686914  3986.97186329
0.26900001 74281.08095995  3008.38392124
0.27000001 72593.57719866  3836.20776860
0.27100001 70943.60253107  4052.29876834
0.27200001 69331.33461043  3690.85377265
0.27300001 67755.28821339  3063.21672509
0.27400001 66214.55758971  4097.02594475
0.27500001 64711.96441154  3482.79808945
0.27600001 63242.51449321  3416.04458202
0.27700001 61809.69315765  2835.21075932
0.27800001 60410.25574096  3033.80318689
0.27900001 59045.33338912  2727.89453168
0.28000001 57713.58186700  2919.15310899
0.28100001 56414.63975274  2863.60724938
0.28200001 55148.82368742  3043.38797923
0.28300001 53914.96092177  2296.77744397
0.28400001 52712.77492311  2478.81835808
0.28500001 51542.06790110  2874.50126290
0.28600001 50401.32327004  2386.75477642
0.28700001 49291.31266354  2555.26176942
0.28800001 48210.50258411  2298.91792454
0.28900001 47160.48801567  3282.37012126
0.29000001 46138.07933440  3222.28361324
0.29100001 45145.28233144  2175.09980569
0.29200001 44179.93479729  2135.87904888
0.29300001 43242.19945051  2097.67919464
0.29400001 42331.44112332  1873.16635838
0.29500001 41448.52492970  1840.31459399
0.29600001 40590.78518375  2531.64739175
0.29700001 39758.77153229  2488.10404027
0.29800001 38952.77137981  2096.43825490
0.29900001 38171.87019529  2576.60136016
0.30000001 37415.25776315  2027.15876157
0.30100001 36683.83663999  2326.48902984
0.30200001 35974.93740372  1798.56708064
0.30300001 35290.09530686  2413.84263326
0.30400001 34628.79947878  1584.26765116
0.30500001 33988.98246763  1872.11324295
0.30600001 33371.62542047  2151.46879271
0.30700001 32776.53959211  1817.13144102
0.30800001 32202.65674668  1641.85253196
0.30900001 31649.70341154  2207.56691747
0.31000001 31118.25131010  2032.33308928
0.31100001 30605.37852974  1575.56496131
0.31200001 30113.51132628  1696.59530845
0.31300001 29640.55465561  1396.07019038
0.31400001 29188.25697156  1517.05972792
0.31500001 28753.62638196  2044.38293255
0.31600002 28337.57612805  1482.19698956
0.31700002 27939.11871279  1599.23523084
0.31800002 27558.87926753  1714.30016601
0.31900002 27196.12746617  1435.95559820
0.32000002 26850.16552705  1422.11908448
0.32100002 26521.14602321  1537.16569629
0.32200002 26208.68413000  1396.79188685
0.32300002 25911.41992906  1637.08358864
0.32400002 25630.17716522  1749.25967436
0.32500002 25363.85845476  1612.38055832
0.32600002 25113.02432570  1354.97329165
0.32700002 24876.64415977  1835.89642593
0.32800002 24655.45560964  1703.44550873
0.32900002 24446.93415542  1573.16028740
0.33000002 24253.86158172  1324.62471301
0.33100002 24071.74162938  1918.03646386
0.33200002 23905.23892022  1552.28676279
0.33300002 23750.24021001  1546.85321813
0.33400002 23608.46890713  1423.59074251
0.33500002 23478.40779416  1419.97417064
0.33600002 23360.29359458  1653.20805598
0.33700002 23253.10277880  1532.61207673
0.33800002 23158.71996289  1295.38306247
0.33900002 23074.10375687  1529.81315153
0.34000002 23000.93482303  1176.49787191
0.34100002 22938.12904767  1294.39868346
0.34200002 22886.56244509  2001.77327906
0.34300002 22843.47266259  1414.46789426
0.34400002 22811.02959080  1770.70625585
0.34500002 22787.66935111  1300.94810487
0.34600002 22774.71581598  1778.13602155
0.34700002 22768.52311240  1426.22035531
0.34800002 22772.75342475  1788.23054737
0.34900002 22784.90524557  1196.20758205
0.35000002 22805.39955272  1680.98608065
0.35100002 22833.89154234  1808.44429581
0.35200002 22869.36182934  1332.02604284
0.35300002 22912.83692917  1338.33886842
0.35400002 22963.93895228  1222.82980713
0.35500002 23021.79641731  1844.04598037
0.35600002 23085.99199698  1236.25492999
0.35700002 23157.07850920  1865.30276227
0.35800002 23235.07829478  1376.32992798
0.35900002 23318.68333663  1385.12985580
0.36000002 23408.99862639  1267.59733566
0.36100002 23504.18899386  2042.04403651
0.36200002 23606.12492134  1413.88891913
0.36300002 23711.66760389  1424.12282375
0.36400002 23823.17142900  1956.47804628
0.36500002 23939.05045946  1314.25393248
0.36600002 24060.40011587  1324.52508912
0.36700002 24185.78708762  2536.60546990
0.36800002 24316.95207062  1884.32070521
0.36900002 24451.16615103  1899.85569993
0.37000002 24588.71991267  1505.19856075
0.37100002 24730.46629109  1793.94810973
0.37200002 24876.33819775  1670.19742571
0.37300002 25025.07035776  1684.68781629
0.37400002 25178.12955766  1416.26985471
0.37500002 25333.18872465  1571.67110293
0.37600002 25492.33089910  1585.75051870
0.37700002 25652.98285687  1599.97661658
0.37800002 25817.23465768  1761.25183178
0.37900002 25983.74296588  1629.18076114
0.38000002 26152.70896045  1793.55286547
0.38100002 26323.42234632  1809.99860628
0.38200002 26496.31932382  1674.43497899
0.38300002 26671.00445271  1536.24992925
0.38400002 26848.02158140  1705.52065176
0.38500002 27025.51061469  1877.73256647
0.38600002 27205.67206247  2053.07613946
0.38700002 27386.04549713  1912.64150813
0.38800002 27567.75588117  1608.57863187
0.38900002 27750.55630520  1948.08914492
0.39000002 27935.05820928  2293.74773823
0.39100002 28119.40170242  1653.42089844
0.39200002 28305.02190732  2169.15545663
0.39300002 28490.70801365  2020.56110806
0.39400002 28677.87306027  2718.66249492
0.39500002 28864.20595211  1885.98730626
0.39600002 29050.89933033  2075.97736450
0.39700002 29237.36812961  2792.75353606
0.39800002 29424.90483185  3522.16127525
0.39900002 29611.29411744  3198.01991620
0.40000002 29797.51066230  1792.32035126
0.40100002 29983.21373407  2350.38423597
0.40200002 30169.53949313  1823.74874877
0.40300002 30354.23979965  2023.41372091
0.40400002 30538.38867950  2226.24864022
0.40500002 30721.94413846  2058.06313535
0.40600002 30904.85237452  2264.08959223
0.40700002 31086.71034714  2473.25879240
0.40800002 31267.66873217  1918.27156761
0.40900002 31446.87821102  1933.98310161
0.41000002 31625.76048188  2339.67387131
0.41100002 31803.01322489  2751.59683459
0.41200002 31978.19045392  1981.04899249
0.41300002 32152.57086015  2196.34221953
0.41400002 32325.18316795  2414.69129706
0.41500002 32496.77561328  2433.35867322
0.41600002 32665.51653054  3269.16504928
0.41700002 32833.24629813  3087.96696066
0.41800002 33000.09813700  2281.46189281
0.41900002 33163.05810255  2924.98186324
0.42000002 33324.93782540  2314.91691573
0.42100002 33485.25332782  2119.61663609
0.42200002 33643.46483842  2561.61353418
0.42300002 33798.93019004  2579.53447434
0.42400002 33952.27324484  2380.90327412
0.42500002 34103.90442732  2615.08751541
0.42600002 34251.85346025  3510.13010894
0.42700002 34398.73213753  2208.39870788
0.42800002 34542.68263082  2889.66825241
0.42900002 34684.78866967  2237.16897521
0.43000002 34824.26452728  2476.52768921
0.43100002 34959.93397507  2945.02497762
0.43200002 35093.86418574  2735.21590425
0.43300002 35224.83677387  2522.45068091
0.43400002 35353.50055132  2306.81602029
0.43500002 35478.94587408  2784.38780415
0.43600002 35602.60902614  2333.75113226
0.43700002 35722.46982150  2816.35965419
0.43800002 35838.86950429  3067.98656930
0.43900002 35953.45203775  2847.51353633
0.44000002 36064.34536161  3339.91918222
0.44100002 36173.08196063  2638.10299241
0.44200002 36278.53177377  3133.92111579
0.44300002 36381.20352789  3876.78123165
0.44400002 36480.25796008  2678.56306766
0.44500002 36575.56784604  4159.73952826
0.44600002 36668.63438915  2704.49525754
0.44700002 36758.76178042  2964.22669045
0.44800002 36844.67053472  3225.93528155
0.44900002 36928.89126323  3739.05041760
0.45000002 37009.52108613  3505.17190819
0.45100002 37085.83605908  4274.51366675
0.45200002 37159.80873778  3787.51368510
0.45300002 37229.92718188  2535.35816124
0.45400002 37297.51315108  3818.33308980
0.45500002 37361.67319592  2555.53856772
0.45600002 37422.27964573  3078.35686955
0.45700002 37479.65536414  3862.27866832
0.45800002 37533.05589617  3359.39632720
0.45900002 37583.58416204  3889.90114513
0.46000002 37631.46046133  3382.88029850
0.46100002 37674.80228266  2610.86392193
0.46200002 37715.59593398  3405.15274029
0.46300002 37752.78710456  3415.87233912
0.46400002 37786.13243693  2635.58286239
0.46500002 37817.06863663  2643.41322299
0.46600002 37843.80572575  3446.24633175
0.46700002 37867.22611364  3455.76321892
0.46800002 37888.05110919  3198.50942623
0.46900002 37904.70799403  2939.51024426
0.47000002 37917.73900516  3214.66606522
0.47100002 37927.97957818  2685.30108141
0.47200002 37934.60510877  3229.75243204
0.47300002 37938.57457132  3776.40589182
0.47400002 37937.67158759  3243.67107448
0.47500002 37934.63999251  3250.24010861
0.47600002 37928.58526871  3799.30656645
0.47700002 37918.02516161  3262.46703954
