# SAXS profile: number of points = 501, q_min = 0, q_max = 0.5, delta_q = 0.001
#    q    intensity    error
0.00000000 1700912.83420644 280.65061764
0.00100000 1700842.71444172 663.32867439
0.00200000 1700632.30480155 841.81301753
0.00300000 1700281.76108721 1020.16909299
0.00400000 1699790.97271267 2039.74924476
0.00500000 1699160.39980705 1835.09330443
0.00600000 1698389.76205777 1961.64025504
0.00700000 1697479.71820470 2036.97574650
0.00800000 1696429.73779767 2519.19826699
0.00900000 1695241.18297978 3305.72044812
0.01000000 1693913.19755681 3633.44396565
0.01100000 1692447.05353282 3351.04531190
0.01200000 1690842.22908731 4286.28523866
0.01300000 1689100.07863884 3901.82135374
0.01400000 1687219.88594962 4935.11838518
0.01500000 1685203.42260468 5257.83491265
0.01600000 1683049.63532758 5579.30979053
0.01700000 1680760.53138024 4991.85900213
0.01800000 1678335.73321511 5739.90846588
0.01900000 1675775.96916209 7038.25938807
0.02000000 1673081.93950825 7378.29168699
0.02100000 1670255.25393943 7165.39536427
0.02200000 1667294.14051565 5752.16504611
0.02300000 1664201.48083542 7189.35072446
0.02400000 1660977.14640161 8097.26395792
0.02500000 1657622.53791554 8404.14665105
0.02600000 1654137.84734743 8039.11030580
0.02700000 1650524.15670763 6932.20177567
0.02800000 1646781.37405483 7163.49930565
0.02900000 1642911.98118180 7393.10425477
0.03000000 1638916.33506098 10669.34583167
0.03100000 1634794.80094699 8631.71694617
0.03200000 1630548.23388545 10492.57836832
0.03300000 1626179.69266432 9952.22017791
0.03400000 1621686.95530467 11919.39967145
0.03500000 1617073.57724796 9605.41749241
0.03600000 1612339.14910784 9843.33096020
0.03700000 1607485.78115773 9162.66937635
0.03800000 1602514.39478792 11249.65157204
0.03900000 1597426.72941528 11501.47298442
0.04000000 1592221.41653162 10771.37838197
0.04100000 1586902.53522498 13996.48100965
0.04200000 1581470.36082815 14280.67802080
0.04300000 1575925.20912506 13521.43892193
0.04400000 1570270.50703940 12719.19169772
0.04500000 1564505.85183262 17272.14540678
0.04600000 1558631.95417410 18680.20483916
0.04700000 1552651.95511669 14532.82297578
0.04800000 1546565.83627162 15914.16319569
0.04900000 1540376.52221083 15018.67179064
0.05000000 1534083.62513357 11735.74027876
0.05100000 1527690.35314255 13107.58384057
0.05200000 1521195.22451802 13302.85285834
0.05300000 1514603.25629297 14721.94433747
0.05400000 1507913.42429546 14928.34359669
0.05500000 1501129.25394473 15131.38358563
0.05600000 1494249.24833346 15330.99800331
0.05700000 1487278.77439485 15527.19112947
0.05800000 1480216.14265301 15719.89616897
0.05900000 1473063.59254573 15909.08754254
0.06000000 1465824.01854062 16094.74847550
0.06100000 1458498.86605475 17633.25211463
0.06200000 1451088.43499530 13712.78635169
0.06300000 1443596.13060610 19401.93290249
0.06400000 1436020.13805589 15401.31670092
0.06500000 1428366.49635481 16968.99477047
0.06600000 1420633.27136092 15705.10154971
0.06700000 1412823.53614571 23057.28118895
0.06800000 1404940.38403657 18903.47375207
0.06900000 1396984.22407528 22002.50255932
0.07000000 1388955.09408649 20709.32142262
0.07100000 1380857.45658679 20878.56572150
0.07200000 1372690.31467767 21043.34350982
0.07300000 1364458.76088528 16660.04225103
0.07400000 1356161.86594677 27462.27907242
0.07500000 1347802.30346770 23047.42046959
0.07600000 1339380.24887587 15469.84259975
0.07700000 1330900.98242364 17128.69644693
0.07800000 1322362.65001077 17236.99795124
0.07900000 1313767.74230183 15765.21364707
0.08000000 1305120.10425824 19028.65201274
0.08100000 1296420.04633412 17540.56404987
0.08200000 1287668.17558525 19237.76344598
0.08300000 1278867.83980098 27393.35041416
0.08400000 1270019.62514489 22669.85137293
0.08500000 1261127.45168575 22775.96284667
0.08600000 1252190.50479228 21243.41291121
0.08700000 1243212.49831036 16410.40574829
0.08800000 1234192.20749174 19771.76009257
0.08900000 1225135.92213584 18193.26929825
0.09000000 1216041.46200975 21578.65675703
0.09100000 1206912.65331264 18320.93493802
0.09200000 1197749.93173312 18379.47356604
0.09300000 1188556.97509839 18434.51955005
0.09400000 1179332.06696402 21847.12756727
0.09500000 1170079.46885515 18534.05965782
0.09600000 1160800.37309191 25334.46933365
0.09700000 1151497.79200757 22005.12383979
0.09800000 1142172.72626122 16961.26578246
0.09900000 1132826.53611938 16992.39884082
0.10000000 1123459.52348723 22126.53635563
0.10100000 1114074.20996548 27272.53794263
0.10200000 1104673.20485868 20480.64218141
0.10300000 1095257.15087327 18794.61359310
0.10400000 1085829.16170461 23942.53414197
0.10500000 1076391.40629176 18826.08658180
0.10600001 1066940.69477665 27399.03833109
0.10700001 1057484.14770711 23983.74159862
0.10800001 1048019.79179359 18848.63684246
0.10900001 1038551.60209827 17136.10224114
0.11000001 1029079.56106520 23987.84569753
0.11100001 1019606.16574483 17129.38439085
0.11200001 1010133.34265781 20546.11315691
0.11300001 1000660.16023088 20533.54745467
0.11400001 991191.44942418 22227.46929990
0.11500001 981727.45974530 25623.08790589
0.11600001 972269.16052381 18769.65702780
0.11700001 962819.10676758 17041.89899237
0.11800001 953376.24810599 27228.42692832
0.11900001 943944.63315162 18690.10461674
0.12000001 934524.01823108 16961.61172987
0.12100001 925118.74739046 20315.60864972
0.12200001 915726.54574516 23653.21779093
0.12300001 906351.44446643 18543.95142747
0.12400001 896992.70591319 23546.05963965
0.12500001 887653.19628572 16776.64620032
0.12600001 878335.06475322 23425.19728084
0.12700001 869038.07362263 16685.53179988
0.12800001 859762.79233815 16636.41081580
0.12900001 850512.47954717 19901.99295943
0.13000001 841287.54421215 21490.69132986
0.13100001 832087.94252299 21417.94465013
0.13200001 822917.77385433 16417.21036231
0.13300001 813777.15898533 21263.99816674
0.13400001 804665.58118515 29330.06181698
0.13500001 795586.23601397 17852.95597789
0.13600001 786538.75667759 16163.37221184
0.13700001 777525.62725760 17704.25936747
0.13800001 768546.00764629 19229.02201807
0.13900001 759604.88500113 19142.04400473
0.14000001 750699.04471127 20640.47120775
0.14100001 741832.09288910 15801.02432376
0.14200001 733003.13262942 23584.37690472
0.14300001 724217.02013211 21900.32372178
0.14400001 715467.78352964 21785.99503612
0.14500001 706764.51180830 17025.95789261
0.14600001 698102.22163286 21550.41659843
0.14700001 689486.26651031 16837.25542250
0.14800001 680913.39123954 19783.93951584
0.14900001 672385.78781797 16641.54903366
0.15000001 663905.70883919 15037.46501472
0.15100001 655472.75167410 20922.69122067
0.15200001 647089.65967809 25246.20426363
0.15300001 638755.44747234 16230.77668619
0.15400001 630469.01072895 17590.08622943
0.15500001 622235.30321721 16016.33746067
0.15600001 614051.49881444 15907.00482752
0.15700001 605922.88349404 15796.41031823
0.15800001 597842.68928655 14258.54881247
0.15900001 589819.23853527 19817.92735020
0.16000001 581847.75522868 18267.11113766
0.16100001 573934.42085210 20919.91062757
0.16200001 566073.83520010 20760.75888600
0.16300001 558270.71948177 15106.80638234
0.16400001 550523.80368326 14988.01126285
0.16500001 542834.65095766 17571.55848108
0.16600001 535202.52794786 18769.55354130
0.16700001 527628.47466950 17285.10964628
0.16800001 520111.94817199 15821.80621044
0.16900001 512657.27655152 16994.58952013
0.17000001 505260.91717781 15551.93176509
0.17100001 497924.82500150 17985.04552833
0.17200001 490649.34917276 16552.05657598
0.17300001 483434.60744927 15141.17262034
0.17400001 476282.19334361 12502.40816571
0.17500001 469190.63911853 14863.96014926
0.17600001 462159.14506211 14724.39105710
0.17700001 455192.47842391 13369.00372274
0.17800001 448287.48155122 12036.51944816
0.17900001 441445.11925037 14302.82253929
0.18000001 434666.53325470 15341.55601588
0.18100001 427952.41439424 15188.03190428
0.18200001 421298.97180419 13877.58878678
0.18300001 414711.92517018 16024.46954556
0.18400001 408187.22598221 20388.95290100
0.18500001 401727.93836443 12329.03101085
0.18600001 395332.31476059 12197.97914821
0.18700001 389001.02667751 12066.81241763
0.18800001 382733.42268110 13020.59165478
0.18900001 376532.90427160 15023.66359027
0.19000001 370393.12114307 14856.46879100
0.19100001 364322.72157350 11541.74436480
0.19200001 358313.88783934 12447.82505172
0.19300001 352372.32669180 11279.43871039
0.19400001 346494.16275153 11148.45021334
0.19500001 340681.71132392 12019.25134348
0.19600001 334933.22101604 13856.18800823
0.19700001 329250.02995496 12712.34425732
0.19800001 323631.85702352 9660.41138869
0.19900001 318079.30503437 11450.85552240
0.20000001 312589.46788546 13194.40206303
0.20100001 307165.86924204 11168.55153349
0.20200001 301805.75689416 15622.97574402
0.20300001 296510.90025401 9980.55737428
0.20400001 291280.40056057 11643.93456277
0.20500001 286113.16791522 8840.89730646
0.20600001 281010.35650156 10470.44637817
0.20700001 275971.28372999 10332.36535125
0.20800001 270995.68015347 9345.28647185
0.20900001 266085.76655277 9219.87224689
0.21000001 261236.81698179 8268.14564833
0.21100001 256451.18028827 11417.20708616
0.21200001 251728.41002763 9651.26769672
0.21300001 247068.04952673 11896.32714712
0.21400001 242471.11919357 8601.66336005
0.21500001 237936.73532395 9250.98070676
0.21600001 233462.42740042 8359.12260828
0.21700001 229050.82135913 8238.95843382
0.21800001 224700.39557959 11810.25335006
0.21900001 220409.85387399 8000.87807392
0.22000001 216180.03581261 8599.64223124
0.22100001 212012.91020474 8472.03629237
0.22200001 207904.49474781 8345.28681378
0.22300001 203855.83610340 8904.42334205
0.22400001 199864.73768374 8094.52225895
0.22500001 195935.88088778 8634.89467905
0.22600001 192064.04422313 7193.75911656
0.22700001 188251.50538682 7725.84214642
0.22800001 184496.09756482 8872.41775147
0.22900001 180797.87220581 6861.27957469
0.23000001 177157.25377224 10435.44852696
0.23100001 173574.90440273 7852.52904655
0.23200001 170046.96638640 7726.08428316
0.23300001 166576.34091018 6431.51282672
0.23400001 163161.21248294 5751.43301204
0.23500001 159800.05215730 7919.69095949
0.23600001 156494.54837960 6119.71960383
0.23700001 153243.20426420 8206.17397648
0.23800001 150045.96277179 6992.89242573
0.23900001 146902.19679920 7403.87106888
0.24000001 143811.24561961 6758.40980757
0.24100001 140774.04227620 5110.09797634
0.24200001 137788.31248518 6026.86107318
0.24300001 134854.42725398 7403.50840645
0.24400001 131971.27726190 7759.91147007
0.24500001 129139.23886025 5241.76195330
0.24600001 126357.67222278 5149.70717505
0.24700001 123626.74564498 5058.80667110
0.24800001 120944.33498851 6324.17957573
0.24900001 118310.62676571 5767.64332768
0.25000001 115726.04574651 6971.33732557
0.25100001 113188.87739681 5134.24772162
0.25200001 110700.31954815 4621.18505816
0.25300001 108258.73713743 4124.65808008
0.25400001 105863.10256818 4454.19025129
0.25500001 103513.63833658 6359.87824030
0.25600001 101210.27214005 5072.15302828
0.25700001 98951.83658370  4978.26713406
0.25800001 96737.90611567  5637.40174562
0.25900001 94568.45850799  5163.43807884
0.26000001 92443.07407134  3981.06117325
0.26100001 90359.03770633  5326.66552483
0.26200001 88320.25384479  4529.50443275
0.26300001 86322.17395005  4102.02990020
0.26400001 84365.61006341  4359.59310631
0.26500001 82451.34914895  3618.78988538
0.26600001 80576.89947335  3549.81547427
0.26700001 78743.69261346  3482.04625214
0.26800001 76950.13647164  3415.43196892
0.26900001 75195.34044694  3349.95257544
0.27000001 73479.95524123  2986.96032191
0.27100001 71802.77516379  2929.55336532
0.27200001 70163.85715780  4597.13613853
0.27300001 68561.71986432  2817.88681978
0.27400001 66995.43073181  3039.91781332
0.27500001 65467.93489679  2710.37263300
0.27600001 63974.16325603  3455.56459181
0.27700001 62517.42491416  2606.97674230
0.27800001 61094.79881081  3068.18094149
0.27900001 59707.13840806  4263.08988410
0.28000001 58353.31765225  3935.34792872
0.28100001 57032.75408951  3377.47985703
0.28200001 55745.85623536  3076.33522195
0.28300001 54491.43688459  2785.60238538
0.28400001 53269.27551237  3415.89245391
0.28500001 52079.09509365  3351.28992790
0.28600001 50919.51982859  3288.12814856
0.28700001 49790.89923448  4086.83720261
0.28800001 48692.27222724  3377.29616154
0.28900001 47624.96106510  2693.19167571
0.29000001 46585.61540526  2846.84709217
0.29100001 45576.30756788  1996.24236596
0.29200001 44595.18521755  1959.95848309
0.29300001 43642.01158232  1924.61280188
0.29400001 42716.29921328  3024.31412746
0.29500001 41818.78506969  2228.10497399
0.29600001 40947.21869359  2371.45828290
0.29700001 40101.60107734  2868.06664482
0.29800001 39282.55795349  2114.18736914
0.29900001 38489.05198668  1905.20816353
0.30000001 37720.34488343  1873.38101732
0.30100001 36977.29424667  2177.59296127
0.30200001 36257.17899495  1977.46663600
0.30300001 35561.37445465  1783.75862709
0.30400001 34889.74620319  1915.44715724
0.30500001 34239.93687666  1728.77449475
0.30600001 33612.98877615  1547.87820642
0.30700001 33008.71459659  1677.50295522
0.30800001 32426.18448458  2254.43058302
0.30900001 31864.91351340  1778.06225823
0.31000001 31325.49538898  1899.73475781
0.31100001 30805.08167297  2306.68462488
0.31200001 30305.99960510  1565.15342371
0.31300001 29826.38681859  1404.82288567
0.31400001 29367.74888279  1387.62620041
0.31500001 28926.93553083  1371.13680908
0.31600002 28505.27192677  1355.42574429
0.31700002 28101.47107947  1742.57230415
0.31800002 27716.21659660  2121.95364311
0.31900002 27348.88055196  1312.74632865
0.32000002 26998.72563172  1429.98757079
0.32100002 26665.81409361  1545.55065805
0.32200002 26349.62871070  1787.29540008
0.32300002 26049.01333527  1519.17852965
0.32400002 25764.85686631  1507.24419805
0.32500002 25495.82345092  1870.11873868
0.32600002 25242.64614650  1485.78222254
0.32700002 25004.12624703  1968.32491137
0.32800002 24781.16660459  1467.54075582
0.32900002 24571.15284234  1459.52654795
0.33000002 24376.90164615  1331.34454645
0.33100002 24193.78508207  1325.33560956
0.33200002 24026.69006219  1560.17319307
0.33300002 23871.21735759  1315.54285087
0.33400002 23729.28996998  1192.39687746
0.33500002 23599.29339667  1189.40444352
0.33600002 23481.54830475  1424.39078762
0.33700002 23374.93408988  1185.10921448
0.33800002 23281.38612252  1420.63024847
0.33900002 23197.89235424  1538.02033592
0.34000002 23125.90598785  1419.46817676
0.34100002 23064.58286189  1656.49841959
0.34200002 23014.74186689  1302.51937764
0.34300002 22973.49559368  1303.97567165
0.34400002 22943.21600898  1662.23607857
0.34500002 22922.14665267  1308.62541438
0.34600002 22911.68210602  1908.08497616
0.34700002 22908.11005481  1554.54442194
0.34800002 22915.18800756  1319.57116391
0.34900002 22930.31154019  1203.84141288
0.35000002 22954.13575774  1208.53530488
0.35100002 22985.96015529  1335.02462905
0.35200002 23024.86864261  1706.83359332
0.35300002 23072.02260032  2450.24891621
0.35400002 23126.92199001  1600.96125059
0.35500002 23188.68498024  1485.93100391
0.35600002 23257.01716575  1494.49599386
0.35700002 23332.30268773  1879.41707051
0.35800002 23414.61355306  1765.22779938
0.35900002 23502.72724581  1269.14733139
0.36000002 23597.56016961  1277.80794371
0.36100002 23697.38713883  1286.76818259
0.36200002 23804.12855875  1555.36183370
0.36300002 23914.57872818  1566.88327249
0.36400002 24031.08226153  1315.70181614
0.36500002 24152.00009641  1988.91730215
0.36600002 24278.48171625  1470.18352997
0.36700002 24409.13757331  1886.33824102
0.36800002 24545.63795971  2309.62191322
0.36900002 24685.12760345  1507.02711158
0.37000002 24828.18315603  1796.19499551
0.37100002 24975.36146005  1951.07532968
0.37200002 25126.89350296  1687.01970970
0.37300002 25281.21691446  1418.27633609
0.37400002 25439.91621306  1430.99535477
0.37500002 25600.64377891  1443.87637753
0.37600002 25765.60779707  1602.74970894
0.37700002 25931.98195093  1617.37779090
0.37800002 26102.05011682  1632.29178138
0.37900002 26274.44465633  1797.17209963
0.38000002 26449.22723075  1813.88808941
0.38100002 26625.75946124  1678.22169834
0.38200002 26804.63599407  1539.92641081
0.38300002 26985.17033906  2020.64965071
0.38400002 27168.12388893  1568.95922891
0.38500002 27351.56469340  1900.38680493
0.38600002 27537.65895972  1758.41729618
0.38700002 27723.85741377  2258.94000909
0.38800002 27911.42494412  1954.35806718
0.38900002 28100.20806999  1808.24847497
0.39000002 28290.49459383  1825.16134519
0.39100002 28480.67327848  1842.13003493
0.39200002 28672.12469700  2197.28838025
0.39300002 28863.64511557  2388.17811001
0.39400002 29056.58481713  1893.76300518
0.39500002 29248.57035793  2084.83819389
0.39600002 29440.98845223  2279.17422901
0.39700002 29633.02918619  1946.00111885
0.39800002 29826.32096013  2320.63701225
0.39900002 30018.25114404  2341.42370017
0.40000002 30209.88166818  2362.26180896
0.40100002 30401.15307292  2199.82754058
0.40200002 30592.81197611  2219.20268589
0.40300002 30782.86786631  2984.70700973
0.40400002 30972.35063983  2634.19854673
0.40500002 31161.11939026  2656.79716509
0.40600002 31349.18302016  2870.80157109
0.40700002 31536.19265975  2509.01960689
0.40800002 31722.04459631  2529.99178665
0.40900002 31906.34335998  2354.68825154
0.41000002 32090.03947461  2176.18613008
0.41100002 32272.11666137  2991.62535626
0.41200002 32451.96193524  2211.43905086
0.41300002 32631.00356117  3242.21666746
0.41400002 32808.15515787  2450.76930642
0.41500002 32984.16635951  3293.13932537
0.41600002 33157.31840611  2903.58651041
0.41700002 33329.34422882  2507.69997860
0.41800002 33500.38802703  2316.04943599
0.41900002 33667.42290735  3393.67638987
0.42000002 33833.38326924  2350.23608016
0.42100002 33997.58663215  2152.04733579
0.42200002 34159.53107483  2384.16458434
0.42300002 34318.77887486  2182.67443987
0.42400002 34475.66614207  2197.82382070
0.42500002 34630.84066219  2212.91082318
0.42600002 34782.10779185  2450.57352060
0.42700002 34932.27455041  2466.91734565
0.42800002 35079.42548932  2708.83336465
0.42900002 35224.59174248  2499.18490256
0.43000002 35367.03526797  3201.07051379
0.43100002 35505.58259565  2990.99041959
0.43200002 35642.18615162  3240.94414035
0.43300002 35775.77276231  3260.60408407
0.43400002 35906.96409029  2577.22246971
0.43500002 36034.76066155  2828.00815073
0.43600002 36160.66160583  3318.46407283
0.43700002 36282.74449892  2860.53171185
0.43800002 36401.15036323  2876.41903801
0.43900002 36517.60648447  2651.17835641
0.44000002 36630.38034528  2423.09977467
0.44100002 36740.72352353  3166.68311056
0.44200002 36847.74223544  3183.09236386
0.44300002 36951.85028100  2953.19201441
0.44400002 37052.17808579  2720.55630488
0.44500002 37148.72271135  3230.82456732
0.44600002 37242.88765882  2746.84930945
0.44700002 37333.97903694  3512.38091425
0.44800002 37420.58597626  3024.33190193
0.44900002 37505.53963951  2531.62404565
0.45000002 37586.73968818  3305.56597853
0.45100002 37663.58801292  2553.59138830
0.45200002 37737.85555242  3846.43110947
0.45300002 37808.17152318  2832.21026303
0.45400002 37875.84076847  2843.52888046
0.45500002 37939.94640172  3373.62019393
0.45600002 38000.47818749  3125.91948385
0.45700002 38057.52756959  2614.55226794
0.45800002 38110.49555222  4198.25238900
0.45900002 38160.53058640  2633.07673525
0.46000002 38207.71204675  4491.50780253
0.46100002 38250.20972452  3445.96155740
0.46200002 38290.13079798  2925.17468095
0.46300002 38326.35225102  3201.01709172
0.46400002 38358.58757494  3745.71625422
0.46500002 38388.28808697  3756.67805024
0.46600002 38413.63553974  3229.05035651
0.46700002 38435.54036198  3237.81007355
0.46800002 38454.78172882  2975.82342513
0.46900002 38469.72169174  3796.96171094
0.47000002 38480.88408292  2990.54204825
0.47100002 38489.20720992  2997.53959958
0.47200002 38493.74974708  3277.35800880
0.47300002 38495.62236282  3010.74276770
0.47400002 38492.40331868  3016.84225309
0.47500002 38487.00277334  3022.76934109
0.47600002 38478.40237081  3854.38174817
0.47700002 38465.20591700  3033.75093447
