# SAXS profile: number of points = 501, q_min = 0, q_max = 0.5, delta_q = 0.001
#    q    intensity    error
0.00000000 1682732.95097188 353.37391970
0.00100000 1682663.43810542 504.79904342
0.00200000 1682454.84934827 1059.94658865
0.00300000 1682107.34695359 1009.26444413
0.00400000 1681620.80564888 1387.33721738
0.00500000 1680995.69151045 1966.76503691
0.00600000 1680231.72478844 2469.94073600
0.00700000 1679329.58274036 2418.23469965
0.00800000 1678288.70084151 2718.82781015
0.00900000 1677110.43693414 2767.23233923
0.01000000 1675793.96396364 4147.59023990
0.01100000 1674340.52327787 3315.19438043
0.01200000 1672749.61089884 3261.86188427
0.01300000 1671022.58676884 4561.89186308
0.01400000 1669158.68021644 4131.16791667
0.01500000 1667159.75324222 6401.89373752
0.01600000 1665024.65972491 4670.39437931
0.01700000 1662755.44074721 5836.27185883
0.01800000 1660351.74554449 5678.40322528
0.01900000 1657814.26525673 5968.13162422
0.02000000 1655143.65167609 7299.18383407
0.02100000 1652341.59941380 6543.27303034
0.02200000 1649406.24672356 5690.45180973
0.02300000 1646340.54402076 9482.92196521
0.02400000 1643144.32772482 8626.50811390
0.02500000 1639819.02747790 8953.41229894
0.02600000 1636364.73256339 8615.46071100
0.02700000 1632782.66476243 7543.45625670
0.02800000 1629072.52376498 7795.11238370
0.02900000 1625237.03450188 10970.35048658
0.03000000 1621276.36837095 7538.93545945
0.03100000 1617190.92940665 8538.76850016
0.03200000 1612981.62229962 7984.25939812
0.03300000 1608651.44718712 10665.35958653
0.03400000 1604198.21602966 10106.44922730
0.03500000 1599625.37483614 9501.77516530
0.03600000 1594932.62505673 8851.87647814
0.03700000 1590121.96877832 10876.43476945
0.03800000 1585194.51080801 10200.72714913
0.03900000 1580151.64057535 13273.27439552
0.04000000 1574992.36239315 11623.44417308
0.04100000 1569720.48791748 10878.16348565
0.04200000 1564336.40965262 12107.96437243
0.04300000 1558840.36387665 10288.34687915
0.04400000 1553235.85005875 10484.34247481
0.04500000 1547522.52128758 12813.48707164
0.04600000 1541700.78497252 16303.48655898
0.04700000 1535774.05397941 11057.57370292
0.04800000 1529742.20006787 13492.32683237
0.04900000 1523608.13681059 11427.06155798
0.05000000 1517371.46601143 18572.62760884
0.05100000 1511035.41860891 14143.29217703
0.05200000 1504598.34379752 15550.02460780
0.05300000 1498065.75680123 18201.49979365
0.05400000 1491435.87825328 14765.21588327
0.05500000 1484712.68012298 12471.58709482
0.05600000 1477894.73754745 13899.60065525
0.05700000 1470987.20568632 19196.38393027
0.05800000 1463988.40853348 19434.44703072
0.05900000 1456900.69100841 15734.52819778
0.06000000 1449726.57181549 18570.99825257
0.06100000 1442467.91544431 13414.95224053
0.06200000 1435124.89087297 16274.31702322
0.06300000 1427700.79190266 17817.70671602
0.06400000 1420193.75287641 16616.26768574
0.06500000 1412610.08045120 18180.29258584
0.06600000 1404947.76415388 15531.69825943
0.06700000 1397209.56615870 15676.69206595
0.06800000 1389398.63765846 21570.41485934
0.06900000 1381515.67009411 20308.28130120
0.07000000 1373560.43593344 20479.78705880
0.07100000 1365537.44510530 16222.58560768
0.07200000 1357445.92907819 17836.84034369
0.07300000 1349290.66790857 19470.26525021
0.07400000 1341070.75311510 21121.86535142
0.07500000 1332788.83200730 24310.06943529
0.07600000 1324445.14696333 15297.34216458
0.07700000 1316044.93740770 24636.36238343
0.07800000 1307586.44311176 21692.86010854
0.07900000 1299072.13173513 17147.75294320
0.08000000 1290505.63034407 17247.60855865
0.08100000 1281887.35652893 15767.21522508
0.08200000 1273217.91960347 22192.18938006
0.08300000 1264500.61500215 23899.06274517
0.08400000 1255736.00788399 22414.88879285
0.08500000 1246928.14437277 17693.91119929
0.08600000 1238076.21831965 19388.27448919
0.08700000 1229183.70561292 21092.79337879
0.08800000 1220249.28552118 19548.39447212
0.08900000 1211279.43330392 16352.27311766
0.09000000 1202272.35601857 21334.32395974
0.09100000 1193231.17022270 26346.54547631
0.09200000 1184156.50362542 18170.88240192
0.09300000 1175052.26389720 18225.06146948
0.09400000 1165916.36863754 21598.60174409
0.09500000 1156753.40574818 18322.97480828
0.09600000 1147564.36429337 21706.18097097
0.09700000 1138352.34308608 16733.78023007
0.09800000 1129118.15375227 23474.36752022
0.09900000 1119863.50286143 20157.54399936
0.10000000 1110588.06796693 21873.03302724
0.10100000 1101295.12594709 18534.79784141
0.10200000 1091986.72269195 16871.19565915
0.10300000 1082663.60153017 20267.46357404
0.10400000 1073328.84037072 27047.88804981
0.10500000 1063984.61927352 28759.50561208
0.10600001 1054627.68042051 20312.13008066
0.10700001 1045265.62773088 32173.27753556
0.10800001 1035895.70271756 23711.65375112
0.10900001 1026522.34451483 18631.38142984
0.11000001 1017145.43109243 22016.11389228
0.11100001 1007767.26269694 18623.53989131
0.11200001 998390.25375019 21999.53027706
0.11300001 989012.89061413 25368.18183861
0.11400001 979640.29860121 27038.07351447
0.11500001 970272.44667473 23635.83791396
0.11600001 960910.34616371 16863.97736932
0.11700001 951557.00695556 16842.55981631
0.11800001 942210.94732547 26909.54592301
0.11900001 932876.16136998 16791.77169558
0.12000001 923552.91500823 23467.48067579
0.12100001 914244.59205882 18403.74450511
0.12200001 904949.75218058 25044.48557148
0.12300001 895672.06634851 19991.40146278
0.12400001 886410.92888907 19944.24683973
0.12500001 877168.83207126 26525.58673173
0.12600001 867948.32336317 18187.85797315
0.12700001 858749.10908588 19785.58040576
0.12800001 849571.65094244 18083.13344255
0.12900001 840418.99055585 19665.80530590
0.13000001 831291.74387458 21235.34859820
0.13100001 822189.97325028 17907.29846150
0.13200001 813117.08721304 16221.68665460
0.13300001 804074.37464108 17778.08526143
0.13400001 795060.29377496 16099.97170799
0.13500001 786078.63199369 16036.00484874
0.13600001 777128.46604845 17566.98980332
0.13700001 768212.88417035 22262.81043302
0.13800001 759330.49735962 18998.44993982
0.13900001 750486.53256295 26792.37047598
0.14000001 741677.91396131 21961.08406809
0.14100001 732907.87283326 17172.03227037
0.14200001 724175.59356621 20193.63737903
0.14300001 715486.10854479 29363.55127969
0.14400001 706833.50417532 18448.35532918
0.14500001 698226.32732436 16820.27301869
0.14600001 689659.93429633 19769.10294920
0.14700001 681140.11758948 15121.31132386
0.14800001 672662.75092332 18040.81583091
0.14900001 664230.44301820 20923.25994225
0.15000001 655845.64175669 22282.35673003
0.15100001 647507.76292459 17715.81322954
0.15200001 639219.13014797 20538.11162079
0.15300001 630979.31202083 14575.62279549
0.15400001 622787.10030966 18823.74099517
0.15500001 614647.25373109 17259.29569929
0.15600001 606556.67822536 22855.05671417
0.15700001 598521.40609372 17021.94959269
0.15800001 590534.23211859 19717.93894110
0.15900001 582603.36364575 18177.22580372
0.16000001 574723.78055664 19431.41193783
0.16100001 566902.13473445 13775.72252432
0.16200001 559133.09041337 13670.80470595
0.16300001 551421.00378460 16277.94880017
0.16400001 543764.66839467 16149.81141375
0.16500001 536165.73624146 13350.52746271
0.16600001 528623.42138556 17214.62253018
0.16700001 521138.77019304 14445.96739181
0.16800001 513711.39170014 16929.35971282
0.16900001 506345.18072289 20658.88434897
0.17000001 499036.86479804 17920.41466109
0.17100001 491788.43576767 15225.77069035
0.17200001 484600.01840355 18863.05660713
0.17300001 477471.95713441 14954.42240366
0.17400001 470405.76444251 14817.78227972
0.17500001 463399.89547635 12233.75781835
0.17600001 456453.66643939 19390.15266612
0.17700001 449571.70826064 15604.63473074
0.17800001 442750.79678986 11887.85945530
0.17900001 435992.05843560 16480.50058730
0.18000001 429296.57170968 12820.94271971
0.18100001 422665.08250520 12692.63302719
0.18200001 416093.60792801 13706.12409260
0.18300001 409587.96838041 15826.47984585
0.18400001 403144.31879750 11187.25537512
0.18500001 396765.24939577 13283.70117732
0.18600001 390449.47205185 12047.31902932
0.18700001 384197.16696797 13001.23274444
0.18800001 378008.35661754 13931.49864135
0.18900001 371885.72816429 13778.36687948
0.19000001 365823.26723539 12577.00452180
0.19100001 359829.67276612 14508.33309145
0.19200001 353896.84230498 10245.31406883
0.19300001 348030.71778615 11140.46380275
0.19400001 342227.70389090 15015.24121774
0.19500001 336489.49421534 10882.07075716
0.19600001 330814.44066882 12708.23733884
0.19700001 325204.30743759 11590.28206480
0.19800001 319658.43720186 14312.70720211
0.19900001 314177.56355890 14137.99102831
0.20000001 308758.67075498 11170.88923586
0.20100001 303405.59669747 10112.50901587
0.20200001 298115.02948589 9985.36338457
0.20300001 292889.19706466 9858.65083916
0.20400001 287726.78798087 10617.11897832
0.20500001 282627.12466775 13973.08570404
0.20600001 277591.41595705 12928.82080932
0.20700001 272618.59391066 8505.70053207
0.20800001 267708.57766950 16785.32861332
0.20900001 262863.53858651 8280.20185689
0.21000001 258078.78751690 9801.83281325
0.21100001 253356.54721530 9668.08629878
0.21200001 248696.49074597 9535.02390596
0.21300001 244098.21514063 7835.55307644
0.21400001 239562.52395817 10043.65929178
0.21500001 235088.76035020 12187.00191273
0.21600001 230674.44176439 9760.98946475
0.21700001 226321.98515610 11101.09389676
0.21800001 222030.08139810 7293.68851878
0.21900001 217797.38180964 9343.50812141
0.22000001 213624.48311085 7789.81714496
0.22100001 209513.61957064 10465.20579239
0.22200001 205460.76068358 8247.19532380
0.22300001 201466.73657166 8123.13920268
0.22400001 197529.92809170 7333.29892717
0.22500001 193654.49859544 9190.84293795
0.22600001 189835.16927351 6463.88781943
0.22700001 186074.61461024 7000.12733267
0.22800001 182370.41810156 8770.19382125
0.22900001 178722.60611481 6782.52322281
0.23000001 175131.70606214 6675.14529224
0.23100001 171598.33000879 6568.78438339
0.23200001 168118.63140833 5875.74644561
0.23300001 164695.51313200 5780.81278433
0.23400001 161327.14926091 7392.81696453
0.23500001 158011.99733395 7271.71246123
0.23600001 154751.93064727 8802.29023154
0.23700001 151545.18365027 5951.17964342
0.23800001 148391.78870502 7979.76881505
0.23900001 145291.13290817 5230.48103209
0.24000001 142242.49662849 8227.30639415
0.24100001 139246.96611772 6065.59813100
0.24200001 136302.22308322 7452.32439958
0.24300001 133408.63386972 5371.03185366
0.24400001 130564.97698939 6237.74207074
0.24500001 127771.76304891 7072.16741930
0.24600001 125028.37706502 6485.22222515
0.24700001 122334.71829779 7736.44795113
0.24800001 119688.88161455 4917.41793376
0.24900001 117091.27175279 4830.01518830
0.25000001 114541.79397663 5174.99849668
0.25100001 112039.12324034 4658.58696473
0.25200001 109584.39676258 4990.47366467
0.25300001 107176.00144183 6125.10877218
0.25400001 104812.80981243 4810.90819800
0.25500001 102495.11651798 6297.30025680
0.25600001 100222.77531881 5409.02343987
0.25700001 97994.59553130  4550.86923179
0.25800001 95810.45878644  3722.23649997
0.25900001 93669.97383505  5114.38081338
0.26000001 91572.97691371  3585.08221580
0.26100001 89516.59464023  3869.80256940
0.26200001 87504.76320411  4832.88830044
0.26300001 85533.04276998  5419.37384634
0.26400001 83602.18552147  3655.50573490
0.26500001 81712.91505237  5542.58729027
0.26600001 79862.78921579  4158.05631728
0.26700001 78053.39537218  3765.29597093
0.26800001 76282.97311148  3693.62173284
0.26900001 74550.56376443  3321.22777287
0.27000001 72857.00350930  3257.80106608
0.27100001 71200.97553073  3485.99992695
0.27200001 69582.65730762  2849.40995159
0.27300001 68000.51948662  2794.82148316
0.27400001 66453.59154943  3563.57401548
0.27500001 64944.74614171  3764.19766452
0.27600001 63469.10261160  2900.85547215
0.27700001 62030.05313335  3103.98400569
0.27800001 60624.32415607  3298.26651181
0.27900001 59253.12139117  4479.53618918
0.28000001 57915.03464383  3417.56635608
0.28100001 56609.71727585  2394.59115410
0.28200001 55337.51435193  3053.80087405
0.28300001 54097.16728767  2995.90126619
0.28400001 52888.63262649  3165.38481252
0.28500001 51711.41821714  3105.78792512
0.28600001 50564.29843011  2612.15178054
0.28700001 49447.67466641  2563.36757604
0.28800001 48360.32980036  2306.06243568
0.28900001 47303.89320725  2880.80723268
0.29000001 46274.95573898  3029.85287043
0.29100001 45275.47390032  1983.06585070
0.29200001 44303.67109760  2141.86108060
0.29300001 43359.27857225  2103.35870310
0.29400001 42441.96949231  3192.69730619
0.29500001 41552.41026655  2029.41981349
0.29600001 40688.17974852  2718.98774041
0.29700001 39849.50491052  2671.90943073
0.29800001 39036.93617199  1925.88733721
0.29900001 38249.36026347  1893.34342267
0.30000001 37486.19447158  2538.75264077
0.30100001 36748.25779892  1831.16577281
0.30200001 36032.76923742  1637.68943937
0.30300001 35341.24247505  2417.34109973
0.30400001 34673.35711345  2538.08986086
0.30500001 34026.98248211  2030.39014083
0.30600001 33403.03219782  1999.67261719
0.30700001 32801.36572410  1970.05011866
0.30800001 32221.01593194  1941.47740690
0.30900001 31661.54014246  1619.48785496
0.31000001 31123.49475807  1597.10220912
0.31100001 30604.16005317  2578.09456494
0.31200001 30105.87504031  1837.51217008
0.31300001 29626.46224965  1674.48772563
0.31400001 29167.71722047  1653.80964470
0.31500001 28726.61646995  1633.97002217
0.31600002 28304.24050427  1480.45336967
0.31700002 27899.33483040  1330.79833442
0.31800002 27512.79263089  1843.08206561
0.31900002 27143.75496617  1563.48036008
0.32000002 26791.50427167  1935.01648764
0.32100002 26456.31128450  1533.40787466
0.32200002 26137.54332868  1646.27324451
0.32300002 25834.07297733  1506.64320738
0.32400002 25546.76936033  1868.10759793
0.32500002 25274.28771414  1483.09527329
0.32600002 25017.43460190  1349.81574786
0.32700002 24774.95673228  1462.71351474
0.32800002 24547.68920284  1332.57137148
0.32900002 24333.24432290  2047.64260674
0.33000002 24134.27636332  1917.22700509
0.33100002 23946.32820491  1550.28536140
0.33200002 23774.02863781  1425.01534403
0.33300002 23613.18789560  1301.32284655
0.33400002 23465.69833630  1179.15139724
0.33500002 23329.94448237  1293.41218335
0.33600002 23206.27854261  1173.07743588
0.33700002 23093.50804746  1873.34546153
0.33800002 22993.52470356  1987.67533713
0.33900002 22903.51487307  1518.50310800
0.34000002 22824.89489708  1284.24277220
0.34100002 22756.71510974  1751.12931063
0.34200002 22699.83100709  1167.90636063
0.34300002 22651.48382487  1285.69828279
0.34400002 22613.87727048  1989.45594709
0.34500002 22585.39721747  1406.61860532
0.34600002 22567.34746993  1409.55658973
0.34700002 22556.15207926  1530.66055259
0.34800002 22555.38364607  1298.85182877
0.34900002 22562.67532674  1539.90266398
0.35000002 22578.40324108  1307.62828564
0.35100002 22602.11157829  1312.73070264
0.35200002 22632.92023754  1438.09582001
0.35300002 22671.75149205  1444.64407350
0.35400002 22718.39146175  1572.68072343
0.35500002 22771.73361728  1216.01063276
0.35600002 22831.56858604  1956.20888911
0.35700002 22898.30883908  1352.60316719
0.35800002 22972.00180278  1731.85929794
0.35900002 23051.51201679  1867.17256180
0.36000002 23137.66310983  1628.77587176
0.36100002 23228.81203422  1387.45700852
0.36200002 23326.81359546  1651.18857857
0.36300002 23428.46339336  1407.11357806
0.36400002 23536.15467121  1675.18588807
0.36500002 23648.28666474  1687.77829921
0.36600002 23765.98689001  1569.98116832
0.36700002 23887.84056168  1582.33063376
0.36800002 24015.45352039  1860.95758145
0.36900002 24146.32402789  1742.15736114
0.37000002 24280.51070498  1486.33153321
0.37100002 24418.98901437  2316.38540763
0.37200002 24561.79151941  1374.23230061
0.37300002 24707.42371228  1663.30384310
0.37400002 24857.44185998  1538.05428795
0.37500002 25009.54446258  1551.59221196
0.37600002 25165.88669485  1850.07024801
0.37700002 25323.72727031  1723.02648510
0.37800002 25485.36531170  1738.61170393
0.37900002 25649.34048560  2193.01871541
0.38000002 25815.80631880  1770.44808121
0.38100002 25984.04129288  2084.43989126
0.38200002 26154.68681198  1953.36287709
0.38300002 26327.06036725  2426.30199839
0.38400002 26501.92070960  1683.53459283
0.38500002 26677.40866295  1699.08423824
0.38600002 26855.62092558  2026.65952916
0.38700002 27034.10637115  2202.73909148
0.38800002 27213.94513111  1905.52052835
0.38900002 27395.13630101  2083.40021439
0.39000002 27577.97736937  2264.42782908
0.39100002 27760.75178826  1958.79873898
0.39200002 27944.90016413  1976.82233127
0.39300002 28129.32900858  1994.93210780
0.39400002 28315.10236252  2180.97086280
0.39500002 28500.29944062  1862.20965368
0.39600002 28685.88020061  1879.06867157
0.39700002 28871.32048431  2240.70328895
0.39800002 29057.95518720  2782.58992056
0.39900002 29243.50935234  2631.91596641
0.40000002 29428.93069712  3009.25545101
0.40100002 29613.99152630  2142.86852837
0.40200002 29799.76342703  2161.67494142
0.40300002 29984.01117562  1817.03116333
0.40400002 30167.77503246  2015.96166206
0.40500002 30351.01553383  2587.72770702
0.40600002 30533.64537825  2236.89496640
0.40700002 30715.38330429  2443.71601148
0.40800002 30896.26247932  2085.03437221
0.40900002 31075.56072029  2866.72061228
0.41000002 31254.48962105  2504.89118937
0.41100002 31431.97142849  2330.99511158
0.41200002 31607.47967632  2153.89180460
0.41300002 31782.22015895  2368.41115847
0.41400002 31955.30747562  2387.06158154
0.41500002 32127.41778853  2606.17625449
0.41600002 32296.74016168  2828.22566997
0.41700002 32465.21963531  2239.12630435
0.41800002 32632.84379024  2050.97432940
0.41900002 32796.67712987  2066.19075709
0.42000002 32959.55199141  2705.81454895
0.42100002 33120.89511807  2725.51858841
0.42200002 33280.13456882  2322.78710230
0.42300002 33436.90013647  3402.53911912
0.42400002 33591.47969723  2569.74831861
0.42500002 33744.49509584  3665.66467596
0.42600002 33893.78953419  2170.89732254
0.42700002 34042.23327762  3059.71607198
0.42800002 34187.71184076  2639.97523344
0.42900002 34331.43969342  3985.88033728
0.43000002 34472.71014529  2228.66081650
0.43100002 34610.15767661  2242.73832372
0.43200002 34746.01470503  2708.10451444
0.43300002 34878.82476886  2497.67276006
0.43400002 35009.54662703  2512.81032823
0.43500002 35137.10136970  3217.15315387
0.43600002 35262.94848843  3467.22957443
0.43700002 35385.03704927  2789.75645317
0.43800002 35503.74281318  2571.71373254
0.43900002 35620.65756729  2586.05986194
0.44000002 35734.04334325  3072.94920293
0.44100002 35845.23564067  3564.80885340
0.44200002 35953.23688770  2389.09270441
0.44300002 36058.59528819  2401.50256000
0.44400002 36160.29389034  2896.43967788
0.44500002 36258.37451905  3881.09659245
0.44600002 36354.22487768  2437.55089357
0.44700002 36447.27987929  3184.03452115
0.44800002 36536.11598154  2706.77828077
0.44900002 36623.31765678  2966.48887079
0.45000002 36706.96768509  3228.19442606
0.45100002 36786.38814534  2743.52895790
0.45200002 36863.56767909  3005.85545101
0.45300002 36936.92722111  3773.10729445
0.45400002 37007.73871216  3536.08960153
0.45500002 37075.23746965  2535.94636311
0.45600002 37139.20384544  4837.19583410
0.45700002 37199.98839832  3066.76718890
0.45800002 37256.85653720  3078.16163299
0.45900002 37310.90575157  3346.78840453
0.46000002 37362.37230901  3100.32980114
0.46100002 37409.22904678  2851.70566539
0.46200002 37453.77243237  2861.28108058
0.46300002 37494.65728596  2870.59109786
0.46400002 37531.69967448  3141.40341164
0.46500002 37566.44433471  3938.84187518
0.46600002 37597.01987612  3160.40564058
0.46700002 37624.29079051  3169.47040641
0.46800002 37649.03631812  3443.19277967
0.46900002 37669.61074673  3717.99075692
0.47000002 37686.59801772  3461.32575899
0.47100002 37700.85606989  3469.98695714
0.47200002 37711.49763094  3745.88323723
0.47300002 37719.52744298  3218.23023397
0.47400002 37722.74108722  2956.51997284
0.47500002 37723.87375547  3501.53012795
0.47600002 37721.94337235  2968.90569384
0.47700002 37715.57759136  3245.04844977
