# SAXS profile: number of points = 501, q_min = 0, q_max = 0.5, delta_q = 0.001
#    q    intensity    error
0.00000000 1700912.83420644 382.70538770
0.00100000 1700842.74230983 510.25283481
0.00200000 1700632.41583169 841.81307249
0.00300000 1700282.01792026 1326.22002122
0.00400000 1699791.42731817 1402.32798082
0.00500000 1699161.10587729 2140.94307815
0.00600000 1698390.76532453 1961.64141381
0.00700000 1697481.11068241 2444.37290097
0.00800000 1696431.55870403 2519.20097104
0.00900000 1695243.47616328 2542.86532295
0.01000000 1693916.02255495 3912.94618106
0.01100000 1692450.45997847 3046.41096060
0.01200000 1690846.29710211 3626.86546630
0.01300000 1689104.84796964 3547.12033718
0.01400000 1687225.39817119 4935.13450843
0.01500000 1685209.76616987 4044.50361890
0.01600000 1683056.82403602 6008.51313041
0.01700000 1680768.66461632 6807.11339705
0.01800000 1678344.82701169 7653.25275555
0.01900000 1675786.11700721 7541.03786680
0.02000000 1673093.16583423 5270.24371078
0.02100000 1670267.63319104 7165.44847126
0.02200000 1667307.71941913 5752.21189333
0.02300000 1664216.29105477 7189.41470461
0.02400000 1660993.22988517 9343.08734413
0.02500000 1657640.04939558 7111.27613668
0.02600000 1654156.69354596 8039.20189833
0.02700000 1650544.52817788 9011.97353661
0.02800000 1646803.20236551 10029.03196233
0.02900000 1642935.38112794 8132.53050998
0.03000000 1638941.33550268 7621.07756039
0.03100000 1634821.46547652 8631.85773490
0.03200000 1630576.64741135 8878.49025408
0.03300000 1626209.84300737 13269.87293069
0.03400000 1621718.94922228 9365.42736388
0.03500000 1617107.44264886 11352.09477161
0.03600000 1612374.88377560 11633.28532406
0.03700000 1607523.49114198 9162.88432327
0.03800000 1602554.11928829 14062.41304756
0.03900000 1597468.48675167 9584.81136438
0.04000000 1592265.30115091 9792.43205585
0.04100000 1586948.51769786 10997.55373756
0.04200000 1581518.55598538 12240.95419122
0.04300000 1575975.66905923 13521.87186819
0.04400000 1570323.22288101 12719.61869606
0.04500000 1564560.90452397 11875.01781711
0.04600000 1558689.35871089 12087.63653872
0.04700000 1552711.73707028 13415.43003221
0.04800000 1546628.11136316 14778.03229167
0.04900000 1540441.34116300 16174.63483510
0.05000000 1534150.94137924 14083.50629768
0.05100000 1527760.30084802 17874.79635260
0.05200000 1521267.76297887 12094.07927928
0.05300000 1514678.48987166 15949.56524188
0.05400000 1507991.27863709 14929.11435471
0.05500000 1501209.80153642 16393.21179751
0.05600000 1494332.65197658 15331.85372473
0.05700000 1487365.04091762 15528.09175201
0.05800000 1480305.30663967 20961.12412074
0.05900000 1473155.59809078 15910.08120247
0.06000000 1465918.87697870 16095.79002120
0.06100000 1458596.77472512 14921.44570274
0.06200000 1451189.23870101 16456.48673610
0.06300000 1443699.96804909 18017.37644366
0.06400000 1436126.96855928 23803.80561710
0.06500000 1428476.44072455 21212.87613705
0.06600000 1420746.39982953 15706.35218499
0.06700000 1412939.77349627 17294.38363695
0.06800000 1405059.80417908 20359.31751556
0.06900000 1397106.80725713 16136.58437932
0.07000000 1389080.84761389 14793.71171985
0.07100000 1380986.39248954 14914.65373746
0.07200000 1372822.62550330 18038.89014418
0.07300000 1364594.47935187 21205.79920274
0.07400000 1356300.83538507 16784.22362447
0.07500000 1347944.67381255 15366.57000173
0.07600000 1339525.93596727 20112.98287146
0.07700000 1331049.95357622 17130.61370575
0.07800000 1322515.05056213 21940.52571775
0.07900000 1313923.70237712 15767.08516806
0.08000000 1305279.45459944 22202.80456429
0.08100000 1296583.00354828 25516.75470703
0.08200000 1287834.53021202 16033.54065352
0.08300000 1279037.68064518 20950.63819222
0.08400000 1270192.96009506 21053.44930180
0.08500000 1261304.28317096 24406.23902511
0.08600000 1252370.99187894 19612.13065364
0.08700000 1243396.56091655 19695.40244977
0.08800000 1234379.72609651 19774.76414076
0.08900000 1225326.97671535 16541.91496263
0.09000000 1216236.23785275 16601.62542656
0.09100000 1207111.01157261 31650.45221041
0.09200000 1197951.82033718 25067.14301838
0.09300000 1188762.52882958 25142.32866624
0.09400000 1179541.27637398 18489.31037611
0.09500000 1170292.22901431 28648.75511284
0.09600000 1161016.82492639 18582.07515645
0.09700000 1151717.81610460 18623.27796194
0.09800000 1142396.38802815 18661.04587584
0.09900000 1133053.92236365 25493.71445196
0.10000000 1123690.31065895 23833.47260990
0.10100000 1114308.77842611 18753.81762294
0.10200000 1104911.53663639 17070.88404398
0.10300000 1095499.02504343 20507.74271351
0.10400000 1086074.73115926 17105.67782050
0.10500000 1076640.58455606 29101.59636976
0.10600001 1067193.42833690 23979.83746307
0.10700001 1057740.44757010 27416.63369118
0.10800001 1048279.71479327 18853.31155783
0.10900001 1038815.08289533 18854.49464195
0.11000001 1029346.76853046 17138.62450274
0.11100001 1019876.84972089 23987.50463461
0.11200001 1010407.60782622 18839.05073481
0.11300001 1000937.93891799 20539.24747360
0.11400001 991472.76507896 17102.90600289
0.11500001 982012.29862115 22213.11924078
0.11600001 972557.35110586 18775.22054725
0.11700001 963110.84456167 18751.76902673
0.11800001 953671.45248278 18725.33985143
0.11900001 944243.26920327 18696.01761084
0.12000001 934826.15349595 23753.93367926
0.12100001 925424.29225322 18628.79188062
0.12200001 916035.39380980 21971.10995562
0.12300001 906663.80975590 18550.34242159
0.12400001 897308.38602399 20189.43963682
0.12500001 887972.14404017 20139.20917580
0.12600001 878657.27254909 28455.31711242
0.12700001 869363.62213133 18360.96056470
0.12800001 860091.62355292 18307.05107012
0.12900001 850844.47711805 26546.34893727
0.13000001 841622.76576195 23153.04337743
0.13100001 832426.34044867 18130.24654959
0.13200001 823259.08022258 21351.22525208
0.13300001 814121.65935733 19636.61534943
0.13400001 805013.13531363 22822.12346210
0.13500001 795936.88987273 19484.53598275
0.13600001 786892.16545654 24255.95214388
0.13700001 777882.08303926 17712.37586600
0.13800001 768905.38128059 17634.84575125
0.13900001 759967.07555419 15959.30933925
0.14000001 751064.09461781 25416.01016050
0.14100001 742200.04583698 18970.63406630
0.14200001 733373.77369895 17303.95500657
0.14300001 724590.39006541 17216.26848000
0.14400001 715843.94288349 20240.48843977
0.14500001 707143.10363642 23229.65205025
0.14600001 698483.45261280 18481.87302800
0.14700001 689870.15676405 19909.65366348
0.14800001 681299.67763740 18272.45821631
0.14900001 672774.37739918 27247.36357022
0.15000001 664296.79940798 16550.95553817
0.15100001 655866.26520318 16449.12670745
0.15200001 647485.32230533 20803.70438733
0.15300001 639153.37420066 20670.22109706
0.15400001 630869.19995649 19068.02246852
0.15500001 622637.68152104 21854.58365277
0.15600001 614455.93048907 20258.61298433
0.15700001 606329.39143647 14370.00725526
0.15800001 598251.22457202 25682.92628308
0.15900001 590229.75942851 22664.82383185
0.16000001 582260.04954408 19686.21320432
0.16100001 574348.48214615 16748.00252996
0.16200001 566489.67548023 16620.80786319
0.16300001 558688.32441219 15118.10677229
0.16400001 550942.97762462 16363.00720794
0.16500001 543255.41333428 14879.76647372
0.16600001 535624.75106405 16100.88077716
0.16700001 528052.15386567 15968.29788684
0.16800001 520537.14522695 18473.86415637
0.16900001 513083.82864507 18317.09354753
0.17000001 505688.73615308 16862.19170325
0.17100001 498353.92218209 14143.28497939
0.17200001 491079.38487373 14017.86170318
0.17300001 483865.73886939 13891.78601897
0.17400001 476714.44631227 16267.88124867
0.17500001 469623.83184720 12398.06974630
0.17600001 462593.27343064 14738.22238757
0.17700001 455627.39164510 19464.40309039
0.17800001 448723.18484904 12048.21808226
0.17900001 441881.40558745 13123.87836584
0.18000001 435103.47489646 15356.97787186
0.18100001 428389.96810182 11695.04668161
0.18200001 421736.91293357 12734.34668757
0.18300001 415150.33596366 11458.14981387
0.18400001 408626.02691124 14741.18461721
0.18500001 402167.04839024 13464.55341620
0.18600001 395771.62639509 12211.53410934
0.18700001 389440.41874522 14276.88642571
0.18800001 383172.94230815 15208.13479874
0.18900001 376972.43005749 12892.45771710
0.19000001 370832.55004084 14874.09428492
0.19100001 364761.96771882 11555.65968334
0.19200001 358752.89302113 16617.43478994
0.19300001 352811.03128927 13346.84194435
0.19400001 346932.62859790 14206.89181241
0.19500001 341119.76206258 11031.81362641
0.19600001 335370.62391239 14865.30360740
0.19700001 329686.86320287 14687.55044979
0.19800001 324068.03380443 19346.86253243
0.19900001 318514.82030789 9555.44506083
0.20000001 313024.09517684 13212.74768186
0.20100001 307599.77771612 11184.32844636
0.20200001 302238.61112572 14725.06583000
0.20300001 296942.73491569 10903.73774147
0.20400001 291711.04456201 8970.11504426
0.20500001 286542.64347364 10625.00172221
0.20600001 281438.66045282 11360.27206616
0.20700001 276398.30757090 9485.99036423
0.20800001 271421.17054012 9359.95950852
0.20900001 266509.82963929 9234.56603353
0.21000001 261659.43159553 10765.97782193
0.21100001 256872.17248225 9802.24256531
0.21200001 252147.69361602 12889.79070701
0.21300001 247485.57590288 9533.14483446
0.21400001 242886.78597469 9399.71906161
0.21500001 238350.50411127 8494.81236814
0.21600001 233874.23700996 11418.91016188
0.21700001 229460.60662565 14256.38816369
0.21800001 225108.04129613 8873.75940745
0.21900001 220815.34234653 8744.28797037
0.22000001 216583.14448253 8615.67789489
0.22100001 212413.71210757 8488.05233716
0.22200001 208302.91685627 8361.27947797
0.22300001 204251.75457800 8921.71706183
0.22400001 200258.12936457 12165.68193417
0.22500001 196326.66543370 9317.66398209
0.22600001 192452.10199783 10484.79101265
0.22700001 188636.76612121 7741.65324771
0.22800001 184878.53482035 9525.86695710
0.22900001 181177.40753179 7500.74502653
0.23000001 177533.86131819 6151.54858559
0.23100001 173948.40800486 7264.08586182
0.23200001 170417.37704306 8934.13141401
0.23300001 166943.58962164 6445.69230014
0.23400001 163525.22713014 6917.11743475
0.23500001 160160.76461639 6236.66046913
0.23600001 156851.92841127 6691.30358250
0.23700001 153597.12631952 8225.12650344
0.23800001 150396.42529368 7009.22573234
0.23900001 147249.04702437 7421.35232105
0.24000001 144154.45915069 5732.30233927
0.24100001 141113.56566590 6146.90721116
0.24200001 138124.08396185 6041.54771827
0.24300001 135186.42469996 4947.82337806
0.24400001 132299.40488582 5348.20369550
0.24500001 129463.42766323 5732.64084811
0.24600001 126677.86030054 5632.09793539
0.24700001 123942.94681443 5532.81340753
0.24800001 121256.37919592 4528.92597722
0.24900001 118618.53584553 5782.65389603
0.25000001 116029.69952064 6115.92575107
0.25100001 113488.25871336 4289.85638231
0.25200001 110995.35514506 5475.95610515
0.25300001 108549.41345081 4135.73284814
0.25400001 106149.33106977 5278.27573717
0.25500001 103795.37611709 3985.74263147
0.25600001 101487.51162806 4303.57813420
0.25700001 99224.43058418  4991.98133888
0.25800001 97005.94664804  4522.41744671
0.25900001 94831.74479160  4438.12586624
0.26000001 92701.68544996  4355.12538850
0.26100001 90612.83025930  4985.51815676
0.26200001 88569.20031343  3843.46062946
0.26300001 86566.31333195  3770.82878717
0.26400001 84604.85669239  3699.34753392
0.26500001 82685.59227538  4618.81740306
0.26600001 80806.14176768  3559.91474403
0.26700001 78967.94243519  4444.31601056
0.26800001 77169.33756332  4359.29608524
0.26900001 75409.39959237  3359.48891082
0.27000001 73688.88983192  3894.08956744
0.27100001 72006.55303865  3819.22775391
0.27200001 70362.38936375  4322.00997120
0.27300001 68755.02263196  3108.41472029
0.27400001 67183.42417535  3325.57965406
0.27500001 65650.59551651  2989.72826131
0.27600001 64151.51213773  3465.14409211
0.27700001 62689.40699023  2614.14839521
0.27800001 61261.41387074  2563.79029183
0.27900001 59868.26139125  3017.36051692
0.28000001 58508.99562879  3452.61599546
0.28100001 57182.96546877  2418.83955381
0.28200001 55890.59767538  2847.06718033
0.28300001 54630.63990074  3025.44498090
0.28400001 53402.97056756  3196.16793975
0.28500001 52207.21802671  2239.68975935
0.28600001 51042.00382766  2417.09420566
0.28700001 49907.84539901  3018.42663260
0.28800001 48803.52293411  3385.01251093
0.28900001 47730.65040945  3114.42508663
0.29000001 46685.65686611  2445.39482240
0.29100001 45670.66890692  2000.37539281
0.29200001 44683.84031398  2356.62584971
0.29300001 43724.99447213  2121.09958225
0.29400001 42793.64606462  1893.61892800
0.29500001 41890.44265047  1859.93574172
0.29600001 41013.11181375  2375.27448313
0.29700001 40161.82513593  2154.28040227
0.29800001 39337.13136324  2293.55155271
0.29900001 38537.81987419  2254.46256936
0.30000001 37763.43187035  2216.52473856
0.30100001 37014.67615813  2515.14736401
0.30200001 36288.86759075  1814.26202109
0.30300001 35587.35098829  1947.33993827
0.30400001 34909.96260123  1916.55703754
0.30500001 34254.49945690  1729.50975946
0.30600001 33621.83886771  2477.25720505
0.30700001 33011.90183103  1677.66493048
0.30800001 32423.71712283  2103.97510371
0.30900001 31856.75425231  1925.74088572
0.31000001 31311.64880616  1898.89503175
0.31100001 30785.62072591  1440.76711819
0.31200001 30280.92275729  1421.68939077
0.31300001 29795.67886124  1684.05184897
0.31400001 29331.39940250  1524.49955612
0.31500001 28885.00810689  1506.06439400
0.31600002 28457.79976629  1623.80213155
0.31700002 28048.48181481  2274.45149805
0.31800002 27657.72457967  1455.76440218
0.31900002 27284.86294957  1571.60818031
0.32000002 26929.22573872  1426.30650879
0.32100002 26590.85608087  1412.77225047
0.32200002 26269.23775554  1272.74462952
0.32300002 25963.21211270  1514.17460211
0.32400002 25673.72988686  1251.59439125
0.32500002 25399.34310387  1614.63631757
0.32600002 25140.81890112  2096.36728334
0.32700002 24897.06273629  1592.41620802
0.32800002 24668.77644503  1582.62542777
0.32900002 24453.60065846  1573.58927689
0.33000002 24254.16500991  1324.64128474
0.33100002 24065.93375130  1438.18026908
0.33200002 23893.70283809  1551.53766726
0.33300002 23733.12892315  1426.83577843
0.33400002 23586.22525772  1659.29102546
0.33500002 23451.25484753  1418.33196034
0.33600002 23328.54778090  1415.10977540
0.33700002 23217.01567684  1412.52330067
0.33800002 23118.57957660  1175.57982714
0.33900002 23030.26548471  1409.45231441
0.34000002 22953.56808169  1408.89007558
0.34100002 22887.50001501  1761.19320956
0.34200002 22832.97527676  1174.75663362
0.34300002 22787.09987984  1763.72161423
0.34400002 22752.27103846  1295.17309020
0.34500002 22726.63578211  2123.12241532
0.34600002 22711.68476473  1300.35757279
0.34700002 22703.71968891  1185.13422389
0.34800002 22706.41939780  1426.41733413
0.34900002 22717.24289944  1311.92083958
0.35000002 22736.77688359  1556.21876750
0.35100002 22764.39961044  1682.74449890
0.35200002 22799.18149177  1690.10340403
0.35300002 22842.22756771  1334.21457542
0.35400002 22893.11519949  1462.87013053
0.35500002 22950.87433485  1470.69209703
0.35600002 23015.30581339  1478.96362162
0.35700002 23086.69534931  1487.70671877
0.35800002 23165.20921190  1621.68054769
0.35900002 23249.62920138  1381.02803998
0.36000002 23340.74843472  1516.68190513
0.36100002 23437.02077783  1272.63028852
0.36200002 23540.22776184  1794.47164728
0.36300002 23647.17580307  1291.13586000
0.36400002 23760.25421861  1561.04877611
0.36500002 23877.83037795  1835.25012978
0.36600002 24001.05902735  1321.25836204
0.36700002 24128.46743759  1465.08061221
0.36800002 24261.79002194  1342.89014133
0.36900002 24398.29548144  1895.74764871
0.37000002 24538.29032417  1911.77828972
0.37100002 24682.54200851  1515.01450025
0.37200002 24831.19499638  1806.09705362
0.37300002 24982.72726148  1541.68417234
0.37400002 25138.68043345  1838.26609378
0.37500002 25296.77173772  1426.73799359
0.37600002 25459.10005317  1583.68339383
0.37700002 25622.98362521  1452.82324037
0.37800002 25790.59003454  1906.05364680
0.37900002 25960.61779938  1775.70634160
0.38000002 26133.12826501  1642.85918621
0.38100002 26307.44312035  1808.89987465
0.38200002 26484.16968609  1521.51562055
0.38300002 26662.59280475  1689.34196014
0.38400002 26843.51412666  1705.23431568
0.38500002 27025.07575920  1721.22715665
0.38600002 27209.27700837  2211.29804723
0.38700002 27393.77333718  2232.04475726
0.38800002 27579.56999709  1770.19478413
0.38900002 27766.74725049  1786.79027022
0.39000002 27955.50770469  1803.54966501
0.39100002 28144.15753101  1820.36419535
0.39200002 28334.25135225  2004.36503562
0.39300002 28524.46369418  2022.95506103
0.39400002 28716.07090714  2041.71273823
0.39500002 28906.91885293  1888.77816734
0.39600002 29098.23169493  2079.35973544
0.39700002 29289.24742199  1748.56815394
0.39800002 29481.55043744  2293.81214046
0.39900002 29672.61258753  2136.42820752
0.40000002 29863.40535382  2335.16909228
0.40100002 30053.98806580  1993.48112285
0.40200002 30245.04498696  2376.80697291
0.40300002 30434.50345965  2397.63029615
0.40400002 30623.50756116  2418.49162423
0.40500002 30811.84584989  2064.08565128
0.40600002 30999.55140615  3028.03632482
0.40700002 31186.20343090  3053.75318464
0.40800002 31371.93170305  2117.13491129
0.40900002 31556.05602672  1940.69753760
0.41000002 31739.69505585  2152.42752220
0.41100002 31921.75750002  2761.87058976
0.41200002 32101.73443777  1988.70254265
0.41300002 32280.95145664  2606.04133458
0.41400002 32458.33442816  2020.53141389
0.41500002 32634.67639105  2443.68468395
0.41600002 32808.18454752  2667.79765289
0.41700002 32980.66368421  2274.67648208
0.41800002 33152.24488903  2500.34242801
0.41900002 33319.88941722  2309.06844603
0.42000002 33486.44032397  2537.60256799
0.42100002 33651.44227823  2343.15003686
0.42200002 33814.14763367  2145.50776902
0.42300002 33974.32327368  2160.76706259
0.42400002 34132.14920209  2175.92461474
0.42500002 34288.30796617  3067.43217601
0.42600002 34440.63537197  2647.10736013
0.42700002 34591.97502547  2664.96588225
0.42800002 34740.32413715  2906.20195341
0.42900002 34886.71646798  2475.21265070
0.43000002 35030.55645004  3397.08837272
0.43100002 35170.45340056  2734.85458603
0.43200002 35308.55415146  2522.61977089
0.43300002 35443.60606384  2538.11675051
0.43400002 35576.42375392  2553.49793594
0.43500002 35705.84602355  3736.25990496
0.43600002 35833.50948316  2818.66398952
0.43700002 35957.37408334  2362.39958923
0.43800002 36077.58510159  2613.28000067
0.43900002 36195.99888082  2627.82964328
0.44000002 36310.69709264  3122.53854446
0.44100002 36423.00412291  2414.84528779
0.44200002 36532.10280952  3155.82585076
0.44300002 36638.30734841  2928.13366205
0.44400002 36740.85391879  3188.18774989
0.44500002 36839.59949851  2464.56932325
0.44600002 36936.05659459  2476.56271203
0.44700002 37029.50325656  2737.22101045
0.44800002 37118.49592192  3249.91006446
0.44900002 37205.89621834  3515.95735926
0.45000002 37289.61286461  3279.43515880
0.45100002 37368.90872094  4560.50183644
0.45200002 37445.79736173  2544.44205132
0.45300002 37518.77079104  2810.53125316
0.45400002 37589.11026243  2565.45689700
0.45500002 37655.97515958  3090.80258758
0.45600002 37719.25145734  2585.65480994
0.45700002 37779.09068613  2595.42365314
0.45800002 37834.94643544  3125.92342265
0.45900002 37887.86272471  3137.11518229
0.46000002 37937.99755570  3410.43645191
0.46100002 37983.45783829  3948.38062942
0.46200002 38026.48225651  2640.93931788
0.46300002 38065.74025465  3179.25077675
0.46400002 38101.03219109  3189.05654554
0.46500002 38133.93097798  3465.23047221
0.46600002 38162.43477639  2673.27868279
0.46700002 38187.57210169  2948.84445746
0.46800002 38210.03630068  3494.49903550
0.46900002 38228.27686941  3234.11237644
0.47000002 38242.73982496  3242.21963603
0.47100002 38254.36570046  2708.40921996
0.47200002 38262.27180167  3257.64997560
0.47300002 38267.53102374  2992.90374322
0.47400002 38267.71412531  2999.23223673
0.47500002 38265.79687105  4644.70264436
0.47600002 38260.71193201  3285.06488219
0.47700002 38251.00335898  3839.63589917
