# SAXS profile: number of points = 501, q_min = 0, q_max = 0.5, delta_q = 0.001
#    q    intensity    error
0.00000000 1682732.95097189 378.61491397
0.00100000 1682663.43262190 555.27894595
0.00200000 1682454.82386439 1135.65704207
0.00300000 1682107.29516734 1110.19085436
0.00400000 1681620.71505899 1639.58025948
0.00500000 1680995.54039970 2571.92327861
0.00600000 1680231.49930728 2469.94040454
0.00700000 1679329.29435726 2015.19523698
0.00800000 1678288.31201297 2492.25824856
0.00900000 1677109.96006266 4276.63058098
0.01000000 1675793.37255492 3041.56510252
0.01100000 1674339.80763669 3315.19296346
0.01200000 1672748.76259234 3588.04625307
0.01300000 1671021.57719424 5263.71820032
0.01400000 1669157.51338960 4882.28594310
0.01500000 1667158.41535310 5601.65252502
0.01600000 1665023.13917911 4670.39011418
0.01700000 1662753.72365851 8080.98345948
0.01800000 1660349.79062914 6151.59625109
0.01900000 1657812.10986462 7957.49848641
0.02000000 1655141.29576811 6256.43438102
0.02100000 1652338.98664964 6543.26268379
0.02200000 1649403.39197107 7966.61874516
0.02300000 1646337.44542763 7704.85959531
0.02400000 1643140.93874899 9858.84608203
0.02500000 1639815.36950863 7034.80825648
0.02600000 1636360.76131546 9940.89207967
0.02700000 1632778.37954812 6857.66950819
0.02800000 1629067.93562813 7795.09042946
0.02900000 1625232.12297513 8044.89937810
0.03000000 1621271.13612835 16585.60448495
0.03100000 1617185.31828864 12419.98381594
0.03200000 1612975.70374282 10379.49913165
0.03300000 1608645.12796506 9844.90863700
0.03400000 1604191.53646259 10106.40714603
0.03500000 1599618.30331407 10365.52708414
0.03600000 1594925.15158778 10622.20200047
0.03700000 1590114.09947762 10876.38094343
0.03800000 1585186.19748129 10200.67365287
0.03900000 1580142.93130383 10428.94382957
0.04000000 1574983.16720489 12591.99100530
0.04100000 1569710.87923666 10878.09689749
0.04200000 1564326.33790294 17152.83909087
0.04300000 1558829.87851701 11317.10544335
0.04400000 1553224.87018658 14677.97570494
0.04500000 1547511.00465203 13881.17435672
0.04600000 1541688.82366265 15216.46939692
0.04700000 1535761.57701007 13268.98064248
0.04800000 1529729.25688104 14616.56372958
0.04900000 1523594.71865863 12569.65701402
0.05000000 1517357.44863595 16250.89903163
0.05100000 1511020.86799391 17678.94497909
0.05200000 1504583.35185383 14353.72584559
0.05300000 1498050.18382999 18201.31058204
0.05400000 1491419.71338188 12304.21320919
0.05500000 1484695.93989503 13718.59112459
0.05600000 1477877.50209288 12635.85323254
0.05700000 1470969.40874152 12797.43445342
0.05800000 1463970.02191037 16842.97588852
0.05900000 1456881.70216296 15734.32311824
0.06000000 1449706.93271965 14591.30095951
0.06100000 1442447.79363920 22805.10068315
0.06200000 1435104.06934724 16274.08090711
0.06300000 1427679.40021965 16446.86745951
0.06400000 1420171.76662915 15231.34290942
0.06500000 1412587.50428605 15383.07864126
0.06600000 1404924.50648763 18355.33953608
0.06700000 1397185.75026904 17101.55438363
0.06800000 1389374.20320433 15818.02604391
0.06900000 1381490.62518364 15956.21746792
0.07000000 1373534.63270920 19016.58788038
0.07100000 1365511.07194753 16222.27229455
0.07200000 1357418.94140924 17836.48572570
0.07300000 1349263.09433478 17972.18525864
0.07400000 1341042.41353665 16595.40064525
0.07500000 1332759.95317275 19751.50343182
0.07600000 1324415.49757970 21415.79959985
0.07700000 1316014.61823036 20016.58328183
0.07800000 1307555.44975902 18593.43936754
0.07900000 1299040.53745436 15588.48718061
0.08000000 1290473.36193998 17247.17729141
0.08100000 1281854.37250356 18920.17142585
0.08200000 1273184.20609535 17436.25852068
0.08300000 1264466.31787528 19118.73162355
0.08400000 1255701.08121441 17611.20849068
0.08500000 1246892.46560973 19301.89627377
0.08600000 1238039.92352305 32312.84352109
0.08700000 1229146.70775379 17847.21103465
0.08800000 1220211.52457437 19547.78954172
0.08900000 1211241.03396388 19622.10567186
0.09000000 1202233.33388909 21333.63151202
0.09100000 1193191.37981356 16466.04181502
0.09200000 1184116.16427191 21473.94764806
0.09300000 1175011.16108671 16567.65814987
0.09400000 1165874.59517650 26581.94201931
0.09500000 1156710.88113363 23319.29245972
0.09600000 1147521.32632450 20035.72329946
0.09700000 1138308.59812051 28446.33320437
0.09800000 1129073.66334230 23473.44256455
0.09900000 1119818.38824580 18477.00427489
0.10000000 1110542.28530365 18507.18805493
0.10100000 1101248.77823604 20218.92851935
0.10200000 1091939.65689844 20244.56219113
0.10300000 1082615.81956146 21955.44985351
0.10400000 1073280.41108146 25356.25090469
0.10500000 1063935.62734827 16916.57727075
0.10600001 1054577.98044819 23696.36833567
0.10700001 1045215.27271872 20318.98585782
0.10800001 1035844.78287203 20323.27559640
0.10900001 1026470.67243965 22017.79696011
0.11000001 1017093.24320549 16934.60329648
0.11100001 1007714.47104211 20315.52469253
0.11200001 998336.71617441 18613.98894936
0.11300001 988958.91294895 25366.79731143
0.11400001 979585.65059483 16897.85326839
0.11500001 970217.16082233 18569.95733256
0.11600001 960854.41003051 21921.89439718
0.11700001 951500.66918775 21894.03142911
0.11800001 942153.79444787 18499.19062526
0.11900001 932818.47091481 25186.09990101
0.12000001 923494.63556399 18437.57126754
0.12100001 914185.78292790 18402.56067725
0.12200001 904890.47210012 20034.27599614
0.12300001 895612.26514341 19990.06669982
0.12400001 886350.40863854 23266.69932303
0.12500001 877107.79748655 19892.80578435
0.12600001 867886.71288398 19839.89119145
0.12700001 858687.01277606 26378.86627562
0.12800001 849508.99776733 21369.39984596
0.12900001 840355.90424121 21303.02317657
0.13000001 831227.96238806 21233.71930005
0.13100001 822125.86029603 16278.09280117
0.13200001 813052.47773485 17842.43746499
0.13300001 804009.29286276 16160.58754840
0.13400001 794994.73665873 20928.23742922
0.13500001 786012.63111478 16034.65843075
0.13600001 777061.91419116 15968.62308956
0.13700001 768145.89421787 15900.62076008
0.13800001 759263.11655050 18996.76407190
0.13900001 750418.60352572 20486.42884235
0.14000001 741609.74023275 18822.05609477
0.14100001 732839.29284446 21853.26874329
0.14200001 724106.49204514 17085.29348564
0.14300001 715416.69347363 18543.60156949
0.14400001 706763.68848947 21520.95532965
0.14500001 698156.30010177 18347.54843217
0.14600001 689589.48396311 18246.53860643
0.14700001 681069.30628400 15119.73931280
0.14800001 672591.64583741 18038.90879241
0.14900001 664158.93035198 14943.57663797
0.15000001 655773.85177450 19309.26197657
0.15100001 647435.65726386 19189.99378678
0.15200001 639146.80141625 20535.78769853
0.15300001 630906.68596604 16031.33964690
0.15400001 622714.09267954 20269.34467325
0.15500001 614574.04131070 21571.54986803
0.15600001 606483.27817580 17139.21825013
0.15700001 598447.82254246 18438.17828276
0.15800001 590460.42027069 16898.97802576
0.15900001 582529.27141452 19572.98444338
0.16000001 574649.53147565 22204.45894432
0.16100001 566827.67944957 17906.08723906
0.16200001 559058.41897286 13668.97898914
0.16300001 551346.24230835 13563.11820107
0.16400001 543689.79824121 14801.95545591
0.16500001 536090.68961136 20022.98820230
0.16600001 528548.25296047 22508.22841500
0.16700001 521063.56848817 15756.96305504
0.16800001 513636.05809621 15624.80962503
0.16900001 506269.70306594 14200.86584154
0.17000001 498961.51768293 14078.19988619
0.17100001 491712.95516946 12686.19484243
0.17200001 484524.29137133 13830.74655032
0.17300001 477396.35015310 13706.04986016
0.17400001 470330.16453322 20988.48458350
0.17500001 463324.34368787 13454.93957614
0.17600001 456378.01381653 13328.52052301
0.17700001 449496.10397148 14401.85585145
0.17800001 442675.19831367 20205.91038139
0.17900001 435916.48980949 14123.69493694
0.18000001 429221.19977329 17480.03418644
0.18100001 422589.72619608 12690.37007712
0.18200001 416018.28438859 12561.67269050
0.18300001 409512.80626022 14693.32018272
0.18400001 403069.14564342 12303.68625200
0.18500001 396690.22434033 13281.18933835
0.18600001 390374.57447737 14235.00953083
0.18700001 384122.52299841 10832.25566032
0.18800001 377933.96943535 12857.31424765
0.18900001 371811.38023647 11656.28732114
0.19000001 365749.15825560 14670.19943078
0.19100001 359755.71931645 14505.35128822
0.19200001 353823.13479119 12291.81628345
0.19300001 347957.23879242 10125.55612732
0.19400001 342154.53554547 13010.42682891
0.19500001 336416.59297763 9890.64830093
0.19600001 330741.68721750 11728.10078296
0.19700001 325131.85711475 10622.05827391
0.19800001 319586.30814437 9539.65174894
0.19900001 314105.81126736 11307.80974003
0.20000001 308687.14204278 13029.68488142
0.20100001 303334.49683008 11029.24282601
0.20200001 298044.31031180 9982.99464572
0.20300001 292818.80061114 8960.25572220
0.20400001 287656.79851208 9729.99166957
0.20500001 282557.54493856 8731.02855129
0.20600001 277522.18384717 8617.06421577
0.20700001 272549.82234452 11054.62131684
0.20800001 267640.12248370 12585.77735473
0.20900001 262795.59819096 9105.86790776
0.21000001 258011.32072243 10615.87629296
0.21100001 253289.57335028 8054.60881331
0.21200001 248629.95556910 9532.47294716
0.21300001 244032.08047249 13316.83126094
0.21400001 239496.95745072 13902.79903729
0.21500001 235023.71053638 9137.72229766
0.21600001 230609.98921169 14262.07545709
0.21700001 226257.96261441 7398.63572730
0.21800001 221966.70498551 9479.08858458
0.21900001 217734.52479220 7903.76362366
0.22000001 213562.11859401 9911.41839259
0.22100001 209451.79788350 7672.21971924
0.22200001 205399.55557679 8931.80009659
0.22300001 201406.22111626 7443.97428445
0.22400001 197469.99311968 6664.61258293
0.22500001 193595.24718327 7219.16710884
0.22600001 189776.49877267 7108.07909766
0.22700001 186016.42944747 9542.64328192
0.22800001 182312.90399699 9393.67282267
0.22900001 178665.83078882 8629.56003520
0.23000001 175075.62163657 7886.28174958
0.23100001 171542.91948586 8357.57143260
0.23200001 168063.95366956 6461.21900440
0.23300001 164641.53418674 6934.70174792
0.23400001 161273.81803914 7958.86329665
0.23500001 157959.41951473 7269.29282988
0.23600001 154700.15252014 6599.50881865
0.23700001 151494.05093746 5949.17166170
0.23800001 148341.38810777 5849.84291672
0.23900001 145241.45846038 6797.30057745
0.24000001 142193.65738377 6682.39124483
0.24100001 139198.94769982 7579.38306077
0.24200001 136254.97544050 5959.79290768
0.24300001 133362.10136239 5369.15845483
0.24400001 130519.24740382 4796.58256899
0.24500001 127726.85469481 4713.12116119
0.24600001 124984.33197173 4630.66971861
0.24700001 122291.50082346 5004.16845042
0.24800001 119646.51132254 4468.79740930
0.24900001 117049.65131601 6584.04319800
0.25000001 114501.10462683 5604.25683109
0.25100001 111999.12138221 4233.56698853
0.25200001 109545.30371614 4572.96891998
0.25300001 107137.79213751 5306.53509563
0.25400001 104775.38653319 5610.72221430
0.25500001 102458.59136551 5114.73312295
0.25600001 100187.16845487 4634.65863200
0.25700001 97959.86673725  3791.04702210
0.25800001 95776.60540615  3720.92129608
0.25900001 93637.03720992  3651.84462397
0.26000001 91540.95478629  5017.35996924
0.26100001 89485.42941030  4220.13305067
0.26200001 87474.48474728  3795.95544522
0.26300001 85503.68744330  4740.32465616
0.26400001 83573.71671493  4983.08309492
0.26500001 81685.32765193  5540.71603681
0.26600001 79836.15390070  3517.18192653
0.26700001 78027.70447532  3136.71386834
0.26800001 76258.15951083  4615.52532280
0.26900001 74526.66421195  3018.33004342
0.27000001 72834.03765868  5033.19641058
0.27100001 71179.05712282  4936.97963567
0.27200001 69561.59456196  4272.82114817
0.27300001 67980.39668205  3073.39387944
0.27400001 66434.37730795  4658.71092919
0.27500001 64926.46841976  3225.54710374
0.27600001 63451.85585962  3163.70968289
0.27700001 62013.71066644  3620.36060005
0.27800001 60608.88717019  2536.48204812
0.27900001 59238.53964182  2985.62253925
0.28000001 57901.44606277  2684.60067376
0.28100001 56596.99706012  2633.45839785
0.28200001 55325.83604194  2583.44003625
0.28300001 54086.46980128  2304.08372259
0.28400001 52878.84840198  2486.62796380
0.28500001 51702.58038865  2218.04080366
0.28600001 50556.28137844  3264.67202454
0.28700001 49440.68659211  2135.83776187
0.28800001 48354.32560566  2305.77612565
0.28900001 47298.76434620  2468.99561574
0.29000001 46270.77127451  2019.71926173
0.29100001 45272.22977326  2379.50850952
0.29200001 44301.30289463  2336.45082526
0.29300001 43357.84528674  2485.70538795
0.29400001 42441.52216810  2253.64493381
0.29500001 41552.85974341  2029.44176594
0.29600001 40689.55087469  1812.71957728
0.29700001 39851.79883007  1959.51304123
0.29800001 39040.14927489  2451.33108901
0.29900001 38253.51250492  2065.68977305
0.30000001 37491.20120274  2369.81894021
0.30100001 36754.11947354  1664.96169097
0.30200001 36039.57302939  1965.59840608
0.30300001 35348.96932803  1773.10438543
0.30400001 34681.94508663  1745.36896911
0.30500001 34036.46395215  2343.41065405
0.30600001 33413.41079311  2000.29393183
0.30700001 32812.61688536  1970.72586344
0.30800001 32233.16255095  1942.20930146
0.30900001 31674.45552761  1620.14847694
0.31000001 31137.31079204  1452.55561722
0.31100001 30618.85766209  2006.14764900
0.31200001 30121.36713923  1555.61807956
0.31300001 29642.78248935  1535.79263349
0.31400001 29184.89452300  1654.78359780
0.31500001 28744.56825980  2179.98816004
0.31600002 28323.01120417  1616.11109583
0.31700002 27918.97059800  1997.60244087
0.31800002 27533.21123792  1844.44990816
0.31900002 27165.02389495  1695.09757131
0.32000002 26813.52596284  1807.49987074
0.32100002 26479.07665012  1662.62130159
0.32200002 26161.11757688  1394.25682728
0.32300002 25858.41514756  1759.40664995
0.32400002 25571.85861558  1371.29098319
0.32500002 25300.05988388  1360.89028559
0.32600002 25043.94070651  2088.28909470
0.32700002 24802.20292198  1586.34897401
0.32800002 24575.68889673  1819.21545673
0.32900002 24361.93089500  1447.09876369
0.33000002 24163.72077834  1319.70167280
0.33100002 23976.39963250  1791.03713736
0.33200002 23804.71871091  1426.85490710
0.33300002 23644.66542222  1895.35647000
0.33400002 23497.86568686  1180.76780668
0.33500002 23362.70021259  1177.48014648
0.33600002 23239.67232477  1292.24204082
0.33700002 23127.45097596  1641.58654801
0.33800002 23028.13388813  1288.07873003
0.33900002 22938.71262165  1520.83671884
0.34000002 22860.72801721  1286.25892280
0.34100002 22793.09295966  1637.00001389
0.34200002 22736.85365545  1520.75452877
0.34300002 22689.00652329  1170.75279205
0.34400002 22651.96187824  1172.23908272
0.34500002 22624.03749458  1761.28140237
0.34600002 22606.52651915  1412.00371326
0.34700002 22595.90168259  1297.45673606
0.34800002 22595.56378689  1892.60451243
0.34900002 22603.40305270  1305.34658812
0.35000002 22619.61584885  1310.01511393
0.35100002 22643.74695505  1554.26686461
0.35200002 22675.07527580  1320.70982199
0.35300002 22714.31624138  1567.96932441
0.35400002 22761.35963631  1454.45094965
0.35500002 22815.10522482  1340.15934438
0.35600002 22875.37937165  1837.46493506
0.35700002 22942.46484076  1355.21146233
0.35800002 23016.58569356  1611.27615780
0.35900002 23096.41412407  1371.92706395
0.36000002 23182.92201933  1631.96187285
0.36100002 23274.43186268  1263.80171000
0.36200002 23372.79712244  1908.97329540
0.36300002 23474.73370154  1794.40872914
0.36400002 23582.76066584  1549.38744914
0.36500002 23695.15900307  1561.03714906
0.36600002 23813.17109558  2228.55572254
0.36700002 23935.26754734  1321.22683120
0.36800002 24063.08498472  1598.27018039
0.36900002 24194.16605908  1745.60916385
0.37000002 24328.61212929  1895.44226078
0.37100002 24467.30506265  2184.44109947
0.37200002 24610.29688915  1514.64079379
0.37300002 24756.08922566  1527.69833848
0.37400002 24906.28293970  1400.97848172
0.37500002 25058.53432013  2261.28224417
0.37600002 25214.97160061  1568.49738272
0.37700002 25372.96251337  1438.64704266
0.37800002 25534.71309665  1451.64850831
0.37900002 25698.76479875  2197.24449438
0.38000002 25865.31609164  1478.20288466
0.38100002 26033.64085528  1790.07323001
0.38200002 26204.29182222  1806.52396381
0.38300002 26376.73001027  1975.08963674
0.38400002 26551.67441934  1840.03112443
0.38500002 26727.13531515  2166.50169128
0.38600002 26905.32724246  1561.85432042
0.38700002 27083.77329130  1891.53081628
0.38800002 27263.57312572  1908.99548070
0.38900002 27444.74793685  1766.06961340
0.39000002 27627.51655970  1620.35392299
0.39100002 27810.23770874  2289.33887664
0.39200002 27994.38502035  2310.37670519
0.39300002 28178.64350787  1998.42949226
0.39400002 28364.31158915  1848.64409541
0.39500002 28549.37788207  1865.41643919
0.39600002 28734.80340258  2737.85219791
0.39700002 28920.12322915  1899.18458244
0.39800002 29106.57266499  2438.83983915
0.39900002 29291.86556838  4393.78004343
0.40000002 29477.12613555  2127.65906527
0.40100002 29662.05082517  2682.93262425
0.40200002 29847.56357135  2165.14236405
0.40300002 30031.57031484  1819.91324731
0.40400002 30215.01892478  2753.34372997
0.40500002 30398.09338945  2591.74156518
0.40600002 30580.40466419  2613.70731049
0.40700002 30761.88407106  2447.41561265
0.40800002 30942.45771044  2847.47980572
0.40900002 31121.45490377  2679.55739418
0.41000002 31300.01813401  2508.54007221
0.41100002 31477.16912818  2334.34697315
0.41200002 31652.32763980  2156.94796922
0.41300002 31826.64848185  2371.72195725
0.41400002 31999.44937052  2788.75214478
0.41500002 32171.14685971  2609.72355692
0.41600002 32340.06757970  2225.15845526
0.41700002 32508.13244211  2242.08600077
0.41800002 32675.31392569  2259.00793529
0.41900002 32838.71042877  2482.60662605
0.42000002 33001.11041427  3542.83437640
0.42100002 33161.99052781  2099.15409988
0.42200002 33320.75305052  2537.04225748
0.42300002 33477.06036680  2342.05525424
0.42400002 33631.14396939  3001.57974150
0.42500002 33783.64444755  2374.65248074
0.42600002 33932.41993578  2608.04591985
0.42700002 34080.33219657  2187.95743070
0.42800002 34225.28280361  2422.63675805
0.42900002 34368.46239955  2216.76592982
0.43000002 34509.17952292  2454.12041807
0.43100002 34646.05594851  2245.06453185
0.43200002 34781.28752825  2484.94920521
0.43300002 34913.52144562  3409.30553073
0.43400002 35043.64473437  2515.25772000
0.43500002 35170.54468914  2530.16910484
0.43600002 35295.78945737  2776.36693029
0.43700002 35417.31130532  2792.30095564
0.43800002 35535.25917941  2807.99631343
0.43900002 35651.63227790  2823.60941022
0.44000002 35764.29560158  3075.55074601
0.44100002 35874.83837054  3092.05246569
0.44200002 35982.17703143  3347.42208787
0.44300002 36086.80742437  2403.38148836
0.44400002 36187.75967401  3140.19299453
0.44500002 36285.21123657  3398.47304547
0.44600002 36380.35644468  3171.09391978
0.44700002 36472.70477897  2450.96587730
0.44800002 36560.82576002  3201.08325112
0.44900002 36647.25179025  3215.79649700
0.45000002 36730.14694818  2733.27401468
0.45100002 36808.83361640  3493.89465245
0.45200002 36885.22222199  3007.62116252
0.45300002 36957.89467837  3020.19929625
0.45400002 37027.89806366  3538.01582766
0.45500002 37094.61829243  4820.81682176
0.45600002 37157.76855533  3056.59818622
0.45700002 37217.77317612  2556.86113838
0.45800002 37273.86302980  3849.45838684
0.45900002 37327.13801450  2833.12990957
0.46000002 37377.78647952  3360.07627483
0.46100002 37423.84157811  3112.16681314
0.46200002 37467.58552420  3642.97351318
0.46300002 37507.59230154  2871.58140270
0.46400002 37543.83680570  2880.55101544
0.46500002 37577.76230860  2889.35428085
0.46600002 37607.46012963  3424.72351902
0.46700002 37633.93577208  3698.66338298
0.46800002 37657.79217013  3973.83870710
0.46900002 37677.54880491  3187.52077997
0.47000002 37693.67849783  3461.97606572
0.47100002 37707.09697134  3737.52762895
0.47200002 37716.86194211  2943.61262979
0.47300002 37724.06315051  2682.18101713
0.47400002 37726.38494436  3763.20707657
0.47500002 37726.70837453  2963.05581618
0.47600002 37723.87029438  3238.97165700
0.47700002 37716.63842719  3245.13972409
