# SAXS profile: number of points = 501, q_min = 0, q_max = 0.5, delta_q = 0.001
#    q    intensity    error
0.00000000 1664650.74656090 399.51617917
0.00100000 1664581.83015594 699.12438527
0.00200000 1664375.02367540 1048.55629812
0.00300000 1664030.50378764 1198.10200541
0.00400000 1663548.13650932 1746.72560971
0.00500000 1662928.36868803 1646.29915016
0.00600000 1662170.95352851 2443.39140116
0.00700000 1661276.55203653 2392.23833435
0.00800000 1660244.57184909 2465.46329329
0.00900000 1659076.40554745 2986.33765764
0.01000000 1657771.22463753 3008.85490264
0.01100000 1656330.25720550 3577.67351133
0.01200000 1654752.98363523 3549.44530552
0.01300000 1653040.78657591 5207.07870737
0.01400000 1651192.87003328 5572.77618341
0.01500000 1649211.08698662 4353.91746352
0.01600000 1647094.33800182 5460.11797456
0.01700000 1644844.60913287 4885.18870827
0.01800000 1642461.56797202 7021.52351903
0.01900000 1639945.89352136 5411.82169282
0.02000000 1637298.28371974 6188.98779242
0.02100000 1634520.33733067 8090.87603661
0.02200000 1631610.19745860 7880.67761176
0.02300000 1628570.93441151 7621.71231997
0.02400000 1625402.27851351 6704.78470459
0.02500000 1622105.57091274 8856.69682167
0.02600000 1618681.06884676 6555.65862867
0.02700000 1615129.89499367 10175.31880450
0.02800000 1611451.78680299 8411.77871287
0.02900000 1607649.42060907 9404.74954237
0.03000000 1603723.05591735 7457.31255279
0.03100000 1599672.92721865 12285.48864633
0.03200000 1595500.09494502 7897.72583373
0.03300000 1591207.37769856 8115.15800038
0.03400000 1586792.65167252 11662.92652792
0.03500000 1582259.48488324 8544.20161292
0.03600000 1577607.50665450 11382.43868654
0.03700000 1572838.55971101 14344.28832795
0.03800000 1567953.96709747 10089.78424522
0.03900000 1562954.92219204 10315.50296418
0.04000000 1557840.53521779 10538.79170911
0.04100000 1552614.65264661 10759.62004173
0.04200000 1547277.43618234 10977.93391901
0.04300000 1541829.40593110 12211.28946180
0.04400000 1536273.83208169 11406.83373296
0.04500000 1530610.43501516 13729.57624003
0.04600000 1524839.58584745 13975.15545395
0.04700000 1518964.84965915 12030.20216880
0.04800000 1512985.83746370 22240.89284554
0.04900000 1506905.65270221 12431.97221347
0.05000000 1500723.64292832 11480.53640301
0.05100000 1494443.30686973 12822.32417026
0.05200000 1488062.89179025 16562.14075744
0.05300000 1481587.86806875 19201.37966530
0.05400000 1475016.40118632 13385.77446500
0.05500000 1468352.58048084 13567.57847656
0.05600000 1461594.95800268 16245.62871629
0.05700000 1454748.49166554 15187.57496192
0.05800000 1447811.69984958 15375.76097033
0.05900000 1440786.92334645 15560.49949891
0.06000000 1433676.41041926 13118.13976820
0.06100000 1426482.33277783 14592.91494626
0.06200000 1419204.59022843 17434.92920593
0.06300000 1411846.68100924 17619.84740282
0.06400000 1404406.57632730 19170.15066339
0.06500000 1396890.83233326 16595.06386440
0.06600000 1389296.96212395 16754.92214715
0.06700000 1381628.20812913 16911.13005892
0.06800000 1373887.33246850 19907.62837933
0.06900000 1366075.12796937 15778.16846676
0.07000000 1358191.37966213 20250.63441907
0.07100000 1350240.80157895 18957.38174209
0.07200000 1342222.26479589 17636.80138565
0.07300000 1334140.67413168 16289.85839442
0.07400000 1325995.10963751 23867.91309202
0.07500000 1317788.23231439 16525.06520779
0.07600000 1309520.21689046 18149.95105698
0.07700000 1301196.43730930 19791.19873945
0.07800000 1292814.93080850 21447.80070793
0.07900000 1284378.23688741 18495.04747867
0.08000000 1275889.91333626 23253.09476138
0.08100000 1267350.22193595 17147.24930731
0.08200000 1258760.38535133 18805.88103962
0.08300000 1250123.11836908 15751.55203070
0.08400000 1241439.14145565 22159.68971513
0.08500000 1232712.22758327 22262.78387528
0.08600000 1223941.90873519 19166.93119071
0.08700000 1215131.49859990 19247.68384165
0.08800000 1206279.78763491 25766.13747396
0.08900000 1197393.13875819 19397.76975899
0.09000000 1188469.71371691 17844.87358973
0.09100000 1179512.60717939 17905.00221818
0.09200000 1170522.63976733 22860.30822879
0.09300000 1161503.24468755 16377.19651969
0.09400000 1152452.68054416 24633.67720435
0.09500000 1143375.66105477 19757.53235168
0.09600000 1134273.09337273 21454.77656969
0.09700000 1125147.57117438 23155.53810337
0.09800000 1116000.16283328 23201.64447619
0.09900000 1106833.08267664 24903.74553126
0.10000000 1097645.57276236 16629.33120938
0.10100000 1088440.65325939 19983.77133371
0.10200000 1079220.54790489 21676.14572424
0.10300000 1069986.12346569 20030.14117351
0.10400000 1060740.36412811 20047.99382518
0.10500000 1051485.52416896 20062.34474506
0.10600001 1042218.06512701 20073.12087886
0.10700001 1032946.07568078 25100.59082022
0.10800001 1023666.28055911 25105.41671222
0.10900001 1014383.12100757 26779.71565500
0.11000001 1005096.70667823 20081.83314467
0.11100001 995809.20703407 21748.47410540
0.11200001 986523.11572887 20065.88111857
0.11300001 977237.26444509 23395.06121227
0.11400001 967955.85477920 25045.85892168
0.11500001 958679.44060052 26689.63688308
0.11600001 949408.86496300 21660.76427417
0.11700001 940147.48661075 19968.73355604
0.11800001 930893.12381015 26586.30886819
0.11900001 921650.29156504 19907.64723549
0.12000001 912419.09058428 21528.52945644
0.12100001 903202.75559731 19834.33344728
0.12200001 894000.21705542 29689.74860713
0.12300001 884814.71931329 16457.55455462
0.12400001 875645.69376854 22985.70054445
0.12500001 866496.04225414 16376.77597028
0.12600001 857367.81527368 16332.85765062
0.12700001 848260.95542091 19543.93333393
0.12800001 839175.68247749 21109.46528759
0.12900001 830115.63256445 16187.25559795
0.13000001 821080.27101622 16134.22808595
0.13100001 812070.88604315 16079.00430158
0.13200001 803090.32931921 19225.98339022
0.13300001 794139.87127726 23943.31824777
0.13400001 785217.60790522 19080.78877167
0.13500001 776328.07296852 17420.80277877
0.13600001 767469.76455143 20502.95572672
0.13700001 758645.83000112 17274.36636367
0.13800001 749855.18538932 28142.06643472
0.13900001 741102.65082308 24901.05024194
0.14000001 732385.51654632 20136.94072711
0.14100001 723706.63058046 16956.44715422
0.14200001 715065.35212663 27608.67454778
0.14300001 706466.59882003 15259.67925428
0.14400001 697904.65529028 21251.19775601
0.14500001 689388.17077345 18117.12198255
0.14600001 680911.88487202 21019.75087759
0.14700001 672482.22924963 19407.83805174
0.14800001 664094.74129259 16326.76998495
0.14900001 655751.97265797 19180.74610521
0.15000001 647456.49647197 27863.29164034
0.15100001 639207.82753474 23318.30264874
0.15200001 631007.93635756 20274.28595185
0.15300001 622856.64024979 18704.38578934
0.15400001 614752.60575168 15722.29863405
0.15500001 606700.74533433 24134.55678838
0.15600001 598697.73511316 16919.19879280
0.15700001 590750.05090292 18201.00992735
0.15800001 582849.84762032 15291.06647404
0.15900001 575005.75512631 16560.16652929
0.16000001 567212.58726903 16437.82155496
0.16100001 559476.77871896 20392.92954694
0.16200001 551793.51206128 13491.35200677
0.16300001 544166.66446996 13386.50057791
0.16400001 536595.40089043 13280.73679902
0.16500001 529080.92450501 15808.93877057
0.16600001 521623.03839366 18293.32082015
0.16700001 514222.12894068 14254.23808725
0.16800001 506877.96651445 14134.29276363
0.16900001 499594.62268469 17835.52887200
0.17000001 492369.04175269 23995.60638288
0.17100001 485202.68896416 12518.22996640
0.17200001 478095.96200959 14887.90896003
0.17300001 471049.38545906 15982.70640340
0.17400001 464063.86016973 17054.34766665
0.17500001 457138.43308478 14482.14624408
0.17600001 450271.98329517 14345.66606532
0.17700001 443469.69108444 13024.70544231
0.17800001 436727.58814658 15243.97718426
0.17900001 430047.38833425 16255.79204685
0.18000001 423430.06702015 14944.96492140
0.18100001 416876.03069479 13656.85941066
0.18200001 410381.57486940 15770.96466722
0.18300001 403952.68501458 11149.09463308
0.18400001 397584.98353163 11032.98381421
0.18500001 391281.42535460 13100.10273975
0.18600001 385040.75399291 10800.39365975
0.18700001 378862.95152919 11752.32931167
0.18800001 372748.37706488 12680.90038687
0.18900001 366699.14090750 10450.92600964
0.19000001 360709.63365815 19635.22983592
0.19100001 354788.55961966 14305.07539978
0.19200001 348927.42345940 11111.59432510
0.19300001 343132.64716415 12980.70865559
0.19400001 337400.55892608 13816.55354091
0.19500001 331732.70052017 9752.94185617
0.19600001 326127.22858133 9637.06005999
0.19700001 320586.39017098 10473.55786184
0.19800001 315109.00008634 12227.80532622
0.19900001 309696.18379964 9290.88595308
0.20000001 304344.77919147 11928.79418418
0.20100001 299058.65629152 12686.06879946
0.20200001 293834.53840259 8947.26211724
0.20300001 288674.39340657 12366.81159805
0.20400001 283577.15311440 10463.99744451
0.20500001 278542.17259430 12049.73495598
0.20600001 273570.41569272 9343.79798965
0.20700001 268661.09043591 8382.22641782
0.20800001 263813.98062329 10751.73928854
0.20900001 259031.25658566 13055.17594905
0.21000001 254308.17284803 11268.39567158
0.21100001 249647.11445761 8732.65647655
0.21200001 245047.50574884 10960.97545032
0.21300001 240509.19350855 11580.51821491
0.21400001 236032.80568903 9134.47001201
0.21500001 231617.87167598 7504.41939709
0.21600001 227261.79467892 8876.84611984
0.21700001 222966.98275062 7291.02068066
0.21800001 218732.10839188 8622.42012048
0.21900001 214555.66498142 7080.33727916
0.22000001 210438.61300193 9766.45649120
0.22100001 206382.78414192 6872.54703688
0.22200001 202384.70415300 10831.62987844
0.22300001 198444.69922355 6667.74220920
0.22400001 194561.33368230 7223.08985451
0.22500001 190738.86946085 7759.25757658
0.22600001 186971.67256774 7639.66290238
0.22700001 183262.58415086 7521.09680922
0.22800001 179609.50674243 7403.50421803
0.22900001 176012.30367307 7286.90971667
0.23000001 172471.17944030 5976.12665023
0.23100001 168987.10775704 7056.90195367
0.23200001 165556.19043346 8679.28369395
0.23300001 162181.08339054 7400.32318510
0.23400001 158860.24281568 7279.77097133
0.23500001 155592.19850000 7711.14972237
0.23600001 152378.35496571 6500.46093029
0.23700001 149217.48741034 5327.06455251
0.23800001 146109.15813684 5761.81492365
0.23900001 143053.19904096 6179.89849088
0.24000001 140048.53341675 6075.30566698
0.24100001 137096.66455470 7464.91373810
0.24200001 134194.86897086 5380.54352590
0.24300001 131343.49913808 6730.04121418
0.24400001 128541.53408304 4723.90160101
0.24500001 125789.56986164 5569.96241696
0.24600001 123086.86116118 7296.58947480
0.24700001 120433.37027777 4928.13374490
0.24800001 117827.00382973 4400.83880123
0.24900001 115268.27523940 5187.07263116
0.25000001 112757.34551895 4669.84568559
0.25100001 110292.33571710 4585.95553607
0.25200001 107875.01862616 4503.24286560
0.25300001 105503.43004828 4823.61705001
0.25400001 103176.33023088 5130.44326346
0.25500001 100894.38992492 4649.21370770
0.25600001 98657.15548085  4183.55687610
0.25700001 96463.55932271  4853.08189914
0.25800001 94313.44121516  5129.70831040
0.25900001 92206.62314417  3955.66432005
0.26000001 90142.69268360  3881.99524410
0.26100001 88118.79916092  4155.68276506
0.26200001 86138.92570556  3737.99885786
0.26300001 84198.59585963  4001.11746457
0.26400001 82298.83977665  4252.79274669
0.26500001 80440.06945265  5777.20606146
0.26600001 78619.80066954  3463.59548239
0.26700001 76839.95233864  4324.55272226
0.26800001 75098.45751538  3636.26748497
0.26900001 73394.57518132  3269.72847906
0.27000001 71729.03028096  3790.52078457
0.27100001 70100.47020327  3718.12911553
0.27200001 68509.14111384  4208.17419206
0.27300001 66953.54076950  2751.79065585
0.27400001 65432.76598758  5398.20344944
0.27500001 63949.52252343  3441.76346509
0.27600001 62499.00378841  3116.20047637
0.27700001 61084.72936215  3820.85000243
0.27800001 59703.15311858  2998.29249152
0.27900001 58355.81882281  3676.41675983
0.28000001 57040.96151568  2644.70430584
0.28100001 55758.52894707  3302.02024053
0.28200001 54508.81596937  2545.28928216
0.28300001 53290.50180318  2497.19303269
0.28400001 52103.61961770  3341.14476612
0.28500001 50947.53734830  2622.77934683
0.28600001 49821.09354279  3002.71744995
0.28700001 48724.87506876  2525.89764312
0.28800001 47657.45146878  2479.14074275
0.28900001 46620.32565381  2230.78268813
0.29000001 45610.52331997  2588.16926830
0.29100001 44629.86420910  2932.18221733
0.29200001 43676.20401649  2495.44003460
0.29300001 42749.74120037  2450.84277903
0.29400001 41849.97273311  2407.41979543
0.29500001 40977.73961553  2365.23524257
0.29600001 40130.06751614  1966.57405172
0.29700001 39307.85828545  2108.47361824
0.29800001 38511.29106415  2072.67778319
0.29900001 37739.47568885  2037.93178367
0.30000001 36991.52560256  2338.23444403
0.30100001 36268.40737216  1971.55071808
0.30200001 35567.50638212  1778.19756576
0.30300001 34890.27039989  2545.59424889
0.30400001 34236.25027239  2036.20108135
0.30500001 33603.46332062  1850.87884732
0.30600001 32992.78953078  1671.24983280
0.30700001 32404.00672800  1646.77169988
0.30800001 31836.08608060  1475.60265970
0.30900001 31288.89377690  1891.41371836
0.31000001 30762.85268244  1722.10457470
0.31100001 30255.05744767  1415.93675559
0.31200001 29768.13172989  2096.42077633
0.31300001 29299.61647119  1656.01440136
0.31400001 28851.44555676  1908.52321394
0.31500001 28420.95220258  1886.01447746
0.31600002 28008.54108595  1731.34804920
0.31700002 27613.53361849  1580.59873916
0.31800002 27236.50980992  1563.92046734
0.31900002 26876.72346396  1419.09106609
0.32000002 26533.36784754  1533.09806682
0.32100002 26206.91922543  1772.11196193
0.32200002 25896.66772639  1380.16297183
0.32300002 25601.39800499  1244.22800196
0.32400002 25321.91504154  1357.88775840
0.32500002 25057.17130232  1592.88445511
0.32600002 24807.74257388  1216.81983087
0.32700002 24572.43705191  1692.54954428
0.32800002 24352.18818824  1562.31470720
0.32900002 24144.42720706  1434.17904401
0.33000002 23951.88943138  1783.81704987
0.33100002 23770.20086889  1657.25848306
0.33200002 23603.81615438  1296.91174002
0.33300002 23448.83637408  1527.22278537
0.33400002 23306.95294880  1405.40932937
0.33500002 23176.55741286  1401.71825871
0.33600002 23058.03437884  1515.25880096
0.33700002 22950.20258449  1629.00545659
0.33800002 22854.96392878  1162.17497082
0.33900002 22769.41880110  1625.73657939
0.34000002 22695.25906744  1276.94881190
0.34100002 22631.24987076  1509.27812536
0.34200002 22578.30595668  1277.81928613
0.34300002 22533.81153242  1627.84262220
0.34400002 22499.73954825  1280.79773444
0.34500002 22474.64172815  1749.65094140
0.34600002 22459.89046808  1402.84482508
0.34700002 22451.81563951  1406.38179827
0.34800002 22454.01106485  1880.74805587
0.34900002 22464.07712801  1533.17333660
0.35000002 22482.35521246  1657.17448120
0.35100002 22508.56248515  2139.21387991
0.35200002 22541.74199007  1312.94382440
0.35300002 22582.69836375  1918.62614386
0.35400002 22631.29543168  1325.62819270
0.35500002 22686.52032908  1938.33638872
0.35600002 22748.07202899  2070.87083524
0.35700002 22816.36099446  1715.33410081
0.35800002 22891.52966577  1232.70893089
0.35900002 22972.35675069  1860.76098494
0.36000002 23059.71757131  1623.28889532
0.36100002 23151.94965536  1508.58111100
0.36200002 23250.91215077  1392.61344923
0.36300002 23353.38116324  1402.60413910
0.36400002 23461.77992849  1284.53251193
0.36500002 23574.60306734  1941.36865455
0.36600002 23692.77316728  1565.14466957
0.36700002 23814.98516697  1446.04596784
0.36800002 23942.88757510  2252.90611310
0.36900002 24073.99872051  1336.10699228
0.37000002 24208.29591603  2290.22594362
0.37100002 24346.85868694  1630.26573490
0.37200002 24489.45268856  2055.27741425
0.37300002 24634.92328122  2211.23081847
0.37400002 24784.70249801  1394.13958155
0.37500002 24936.51167702  1547.06125773
0.37600002 25092.31450133  1702.76454272
0.37700002 25249.77974249  1574.82883714
0.37800002 25410.83763526  1877.98804440
0.37900002 25574.00840084  1457.71854790
0.38000002 25739.88414337  1618.13789333
0.38100002 25907.33021264  1484.49009151
0.38200002 26077.05787873  2097.37786455
0.38300002 26248.58281575  1814.30213017
0.38400002 26422.41413552  2136.25228406
0.38500002 26596.72963097  2001.93593416
0.38600002 26773.89931858  2175.91490070
0.38700002 26951.27215869  1568.56411395
0.38800002 27129.91389256  2216.24277088
0.38900002 27309.79290247  2076.90984863
0.39000002 27491.35403531  1934.84158867
0.39100002 27672.75452374  2766.16867324
0.39200002 27855.51413829  1970.49916350
0.39300002 28038.49818301  2154.19791746
0.39400002 28222.81098912  1839.42179336
0.39500002 28406.45228107  2193.54634907
0.39600002 28590.53734248  2724.10652705
0.39700002 28774.34287708  1717.82835115
0.39800002 28959.26819302  1906.53351182
0.39900002 29143.19313846  1923.45083827
0.40000002 29327.01187892  2822.43175695
0.40100002 29510.30609907  2669.20731313
0.40200002 29694.32616813  1795.02210191
0.40300002 29876.82674917  2534.75010150
0.40400002 30058.76423827  2373.89101819
0.40500002 30240.24097668  1841.63076274
0.40600002 30421.01238699  1857.20289422
0.40700002 30600.93580959  1872.77736028
0.40800002 30780.01691371  2266.02495255
0.40900002 30957.30538779  1903.87437156
0.41000002 31134.36046029  2303.32009599
0.41100002 31309.93501039  2515.44029792
0.41200002 31483.58510911  2340.48982791
0.41300002 31656.37439643  2555.61922612
0.41400002 31827.52486966  2575.64257212
0.41500002 31997.75927463  2395.99232801
0.41600002 32165.10130954  2213.11990047
0.41700002 32331.67540065  2027.19614368
0.41800002 32497.35689005  2655.19667052
0.41900002 32659.17562570  2469.03379430
0.42000002 32820.04423320  2487.10306984
0.42100002 32979.50742282  3548.92496193
0.42200002 33136.86138890  2523.04074571
0.42300002 33291.62609967  3387.75603243
0.42400002 33444.35902129  2771.70138523
0.42500002 33595.41423745  2361.42177865
0.42600002 33742.84022743  2377.35192088
0.42700002 33889.32360620  3263.54201792
0.42800002 34032.93546247  2190.01950079
0.42900002 34174.84882761  2865.56120999
0.43000002 34314.23479822  2662.09846180
0.43100002 34449.76478361  2232.34486376
0.43200002 34583.78490821  3144.70371072
0.43300002 34714.83869745  2485.92971693
0.43400002 34843.71603340  2500.90783681
0.43500002 34969.52350978  2287.00694592
0.43600002 35093.57374428  2760.46064154
0.43700002 35213.89793685  2544.90852450
0.43800002 35330.85051384  3024.49760157
0.43900002 35446.12668541  3041.27781373
0.44000002 35557.74768645  2822.57414511
0.44100002 35667.29386552  3783.58671256
0.44200002 35773.67286828  2614.87674223
0.44300002 35877.36344202  2628.37577032
0.44400002 35977.47728342  2641.64639472
0.44500002 36074.04931174  2654.68941466
0.44600002 36168.33877115  4122.64829021
0.44700002 36259.80109651  3167.65637391
0.44800002 36347.22474923  2937.58284345
0.44900002 36432.92912198  2951.06739874
0.45000002 36515.17719168  2717.27703950
0.45100002 36593.15153842  3225.32052945
0.45200002 36668.90376356  2491.65212882
0.45300002 36740.99360556  3252.68031805
0.45400002 36810.50283602  2763.54863139
0.45500002 36876.72701661  3026.84189698
0.45600002 36939.40598247  2532.19640011
0.45700002 36999.01595521  3304.38227157
0.45800002 37054.69323624  3061.45890027
0.45900002 37107.58495749  2816.46583176
0.46000002 37157.95112870  3083.36693079
0.46100002 37203.87570364  2836.05157930
0.46200002 37247.31280928  2845.50859693
0.46300002 37287.05476763  3114.21496179
0.46400002 37323.20553725  3644.61119345
0.46500002 37356.97022350  3655.75327934
0.46600002 37386.68502626  3142.72489226
0.46700002 37413.11203303  4202.24094272
0.46800002 37437.00452910  3423.80141148
0.46900002 37456.80501351  3168.84585433
0.47000002 37473.09550003  2912.22175481
0.47100002 37486.62841971  3184.86410149
0.47200002 37496.60928810  3724.53837712
0.47300002 37503.91687412  2933.18147775
0.47400002 37506.59006712  3206.81360273
0.47500002 37507.15686419  2678.01112703
0.47600002 37504.67341883  2951.80546134
0.47700002 37497.91005756  3764.04038999
