# SAXS profile: number of points = 501, q_min = 0, q_max = 0.5, delta_q = 0.001
#    q    intensity    error
0.00000000 1646666.22097351 444.59987966
0.00100000 1646598.13048344 642.17328614
0.00200000 1646393.81250394 1037.22813472
0.00300000 1646053.43739677 1283.92172691
0.00400000 1645576.87820543 1604.43751722
0.00500000 1644964.55589349 1480.46815890
0.00600000 1644216.26496643 1899.06986335
0.00700000 1643332.58497298 2366.39902071
0.00800000 1642313.02980187 2438.83495222
0.00900000 1641158.93655547 2954.08621208
0.01000000 1639869.43716399 2705.78468816
0.01100000 1638445.79666139 4718.72409983
0.01200000 1636887.47464611 5426.28221636
0.01300000 1635195.83762143 4464.08483359
0.01400000 1633370.25386154 5880.13317457
0.01500000 1631412.24127739 5481.54537478
0.01600000 1629320.88480882 4570.24528619
0.01700000 1627098.18954026 5711.11490148
0.01800000 1624743.86911751 5556.62428242
0.01900000 1622258.39456023 6326.80802427
0.02000000 1619642.59164713 6122.24927337
0.02100000 1616897.98036204 6936.49265024
0.02200000 1614022.78964214 5568.37887725
0.02300000 1611020.09820497 6959.60714104
0.02400000 1607889.48575335 6632.54443116
0.02500000 1604632.33695865 8135.48631993
0.02600000 1601249.11698167 8430.57698651
0.02700000 1597740.43562131 8052.61216435
0.02800000 1594106.42022575 8321.23589519
0.02900000 1590349.70920498 10734.86103002
0.03000000 1586470.47724373 8114.79686410
0.03100000 1582468.93481227 9874.60660759
0.03200000 1578346.14638367 8594.09516289
0.03300000 1574104.84441213 12041.90261489
0.03400000 1569743.10328718 10713.49717426
0.03500000 1565264.25422104 9297.67009942
0.03600000 1560668.07534802 9527.87904032
0.03700000 1555956.23437674 11529.63622995
0.03800000 1551130.24908785 12703.75732795
0.03900000 1546191.06160081 11132.57615908
0.04000000 1541137.86621993 12321.39781139
0.04100000 1535974.51479838 12579.63185947
0.04200000 1530701.36433492 11847.62910960
0.04300000 1525318.33696596 13087.23193865
0.04400000 1519829.29239393 11284.73302011
0.04500000 1514233.72803664 11493.03452982
0.04600000 1508531.82474295 18079.75476002
0.04700000 1502727.18829551 10819.63625893
0.04800000 1496819.62873737 16502.43717466
0.04900000 1490812.09746208 12299.20037656
0.05000000 1484703.99763093 13629.58333293
0.05100000 1478498.62772610 17298.43475023
0.05200000 1472194.32235226 16385.52357137
0.05300000 1465796.54921829 13060.24786238
0.05400000 1459303.50495397 13243.17992504
0.05500000 1452719.21736430 15863.69459365
0.05600000 1446042.02969572 16072.75791009
0.05700000 1439277.18332316 17530.39691117
0.05800000 1432423.13491760 17747.72347031
0.05900000 1425481.75149685 16678.13727148
0.06000000 1418456.18669044 19468.31207186
0.06100000 1411347.41130313 14438.08469234
0.06200000 1404156.32994737 14596.20573208
0.06300000 1396885.98758200 13410.10610778
0.06400000 1389534.29793762 20321.94005773
0.06500000 1382107.75097835 15051.15411221
0.06600000 1374604.05046315 17959.20275959
0.06700000 1367026.33695394 15338.03621843
0.06800000 1359377.10358351 14069.55368067
0.06900000 1351657.77113951 15611.64798758
0.07000000 1343867.44141139 20037.06448975
0.07100000 1336010.97796298 15871.81116160
0.07200000 1328087.35309144 17451.06863715
0.07300000 1320101.36974811 26375.62660341
0.07400000 1312052.29978003 17712.70687712
0.07500000 1303942.35870897 20810.92102045
0.07600000 1295772.01260598 16462.78419194
0.07700000 1287546.41259242 21090.01122714
0.07800000 1279264.12157752 19707.06471709
0.07900000 1270926.79140756 16776.23443345
0.08000000 1262538.63615294 18407.81417864
0.08100000 1254099.69579315 20053.05507659
0.08200000 1245610.82943076 20160.21222036
0.08300000 1237074.92836075 17145.85931177
0.08400000 1228493.21331473 23494.93380746
0.08500000 1219869.01322877 15736.31100939
0.08600000 1211201.72939226 17386.80164176
0.08700000 1202494.86775497 17460.22629969
0.08800000 1193747.07316124 19123.82901017
0.08900000 1184964.55095880 25595.23550291
0.09000000 1176145.55381248 24081.58134555
0.09100000 1167293.49277787 19330.38114857
0.09200000 1158408.52752680 21007.73963378
0.09300000 1149494.71838876 17828.66392002
0.09400000 1140549.93972874 16252.83740498
0.09500000 1131578.82519415 24442.10377304
0.09600000 1122582.35075318 21233.64616264
0.09700000 1113563.32765124 18006.31985465
0.09800000 1104522.54353010 22963.02475966
0.09900000 1095461.99733744 21361.50995255
0.10000000 1086381.22617138 18104.54398555
0.10100000 1077283.17412382 24723.65000894
0.10200000 1068170.19696732 19803.87638328
0.10300000 1059043.02623323 21477.39358232
0.10400000 1049904.25993322 26457.58859502
0.10500000 1040756.56720734 19857.63623661
0.10600001 1031596.32981363 16557.12187258
0.10700001 1022431.66068158 19876.07241897
0.10800001 1013258.96719319 19880.14187192
0.10900001 1004082.94496877 26507.79099478
0.11000001 994903.44312969 19878.17172939
0.11100001 985722.72771582 18216.15686568
0.11200001 976543.64053101 23173.38168074
0.11300001 967364.34220839 23158.70344280
0.11400001 958189.56576296 23140.27910272
0.11500001 949019.60345778 19815.53025327
0.11600001 939855.26738715 19793.35286327
0.11700001 930699.69784021 31299.43231241
0.11800001 921550.97429521 23029.55993229
0.11900001 912413.73865155 24635.17210395
0.12000001 903287.83802334 22952.54504535
0.12100001 894176.40531232 17999.77188687
0.12200001 885078.64903422 21228.61239719
0.12300001 875997.22049013 19552.25888253
0.12400001 866932.48621953 21131.48034726
0.12500001 857886.35812162 24321.07939877
0.12600001 848861.73651209 17787.89852684
0.12700001 839857.80637892 19350.32477088
0.12800001 830875.23599636 24116.15486137
0.12900001 821917.18456296 20835.60161070
0.13000001 812983.64651173 19170.15528833
0.13100001 804075.56974516 17512.76673456
0.13200001 795195.84256721 19036.98936847
0.13300001 786345.57700575 17386.10152723
0.13400001 777523.39120684 17319.33435566
0.13500001 768733.15085650 23523.23552529
0.13600001 759973.67568352 21864.44368034
0.13700001 751248.18591866 23326.25727268
0.13800001 742555.36689249 18578.73615574
0.13900001 733900.32038835 18494.28894594
0.14000001 725279.69189679 16873.63282775
0.14100001 716696.82342039 19845.33597648
0.14200001 708151.26969139 21265.78363184
0.14300001 699647.43098660 15112.38522213
0.14400001 691179.96271830 19543.11436771
0.14500001 682757.10718273 14952.38135264
0.14600001 674373.93525332 16356.94057120
0.14700001 666036.70003650 17743.21852604
0.14800001 657740.94678730 14700.51085425
0.14900001 649489.65964014 14613.51803138
0.15000001 641284.35120421 21787.63686017
0.15100001 633125.78344570 18765.84910680
0.15200001 625014.73924760 17212.90673110
0.15300001 616951.76554879 25652.85562205
0.15400001 608935.81876338 19820.86183611
0.15500001 600970.85442706 18281.53425443
0.15600001 593053.87739238 15363.06141891
0.15700001 585191.91453076 18029.76373764
0.15800001 577376.39314384 20655.64143964
0.15900001 569616.34480053 16404.95150458
0.16000001 561906.34024131 17641.05038458
0.16100001 554253.28374278 14815.19097378
0.16200001 546651.55142796 18711.88348869
0.16300001 539105.87322852 15914.40612899
0.16400001 531614.66781819 13157.46364966
0.16500001 524179.50352224 15662.48430469
0.16600001 516800.42915669 12945.85136159
0.16700001 509477.18916948 14122.70835058
0.16800001 502210.21537095 12731.02956077
0.16900001 495003.08497574 18933.86889434
0.17000001 487852.78081358 13764.76686062
0.17100001 480760.94946813 16124.72300659
0.17200001 473728.24620131 14751.89828334
0.17300001 466754.48963781 15836.98058130
0.17400001 459841.05598836 14484.99394770
0.17500001 452986.94697403 17938.28394735
0.17600001 446191.07458204 11846.37358965
0.17700001 439458.43622990 11733.54080152
0.17800001 432785.24519173 13944.34125870
0.17900001 426173.07293317 11506.67351270
0.18000001 419622.97002395 12532.04059172
0.18100001 413135.20571143 12406.45081355
0.18200001 406706.50036782 15629.73154745
0.18300001 400342.13338168 12154.38774363
0.18400001 394038.42260619 15308.39344143
0.18500001 387797.64766778 10819.55488107
0.18600001 381619.21680920 12845.30344465
0.18700001 375502.68174795 13765.92896325
0.18800001 369448.76425017 12568.64755361
0.18900001 363459.39133840 10358.59314256
0.19000001 357528.53674272 11267.51236782
0.19100001 351665.72662047 13166.36542678
0.19200001 345861.55250928 15019.03862739
0.19300001 340123.19338771 9897.58539527
0.19400001 334446.53270601 11739.07385270
0.19500001 328833.36989967 12568.01199147
0.19600001 323281.93329416 9552.98158028
0.19700001 317794.20515723 11326.18600705
0.19800001 312369.09283210 9324.21786169
0.19900001 307007.59764400 11052.27403751
0.20000001 301706.89122520 12735.04848049
0.20100001 296470.65866299 11677.97979666
0.20200001 291295.43751651 10643.93578992
0.20300001 286183.40703947 12260.09773704
0.20400001 281133.74790512 11238.32210369
0.20500001 276145.21521746 12799.33133031
0.20600001 271219.63137934 10105.64394287
0.20700001 266355.18894377 13296.45166058
0.20800001 261552.41770817 9839.60241930
0.20900001 256813.29951912 9707.54318071
0.21000001 252132.78904785 13566.00535602
0.21100001 247513.75876405 9445.12548094
0.21200001 242955.32373699 10867.39214451
0.21300001 238457.64593616 9950.83803535
0.21400001 234020.72122501 8301.88547794
0.21500001 229644.76552386 11160.73613211
0.21600001 225327.05327146 8067.83552382
0.21700001 221069.62856983 10120.56807442
0.21800001 216871.47900500 7836.65126437
0.21900001 212731.31695625 7020.13379148
0.22000001 208649.50757281 8991.75095400
0.22100001 204628.22707738 8176.94434065
0.22200001 200664.18713707 8725.88259025
0.22300001 196757.40726356 7933.25903599
0.22400001 192906.56067231 7161.65640361
0.22500001 189116.05532390 7052.13803650
0.22600001 185379.80462633 9468.27396903
0.22700001 181701.35425368 6835.60527027
0.22800001 178078.09038533 6728.68096341
0.22900001 174510.02703126 6622.65583903
0.23000001 170997.51535679 7110.07702478
0.23100001 167541.33427976 6996.52645041
0.23200001 164137.61408197 6883.93186016
0.23300001 160789.14282037 5643.69917991
0.23400001 157494.31773916 5551.67496287
0.23500001 154251.55284025 6006.55575169
0.23600001 151062.63794876 6981.36014300
0.23700001 147926.09918239 5809.05818965
0.23800001 144841.03162354 7269.57172103
0.23900001 141808.27818469 5105.09825612
0.24000001 138826.02102552 5520.41698720
0.24100001 135896.03343782 4933.02624713
0.24200001 133015.39115755 5333.25236074
0.24300001 130184.89751890 6670.67446441
0.24400001 127403.13231465 5150.27186745
0.24500001 124670.68704780 5060.38342665
0.24600001 121987.12508823 6327.47247765
0.24700001 119352.17485818 7103.84178361
0.24800001 116763.76788876 7413.91579282
0.24900001 114222.65787227 4711.68486013
0.25000001 111728.86727302 6309.88807775
0.25100001 109280.38796515 4543.87874656
0.25200001 106879.09106408 5272.88020710
0.25300001 104523.22081231 5973.50235203
0.25400001 102211.13106165 3909.57594807
0.25500001 99943.92142135  4605.41611699
0.25600001 97720.71804583  4520.56063068
0.25700001 95540.92954069  5546.15122224
0.25800001 93404.01419050  3628.74612299
0.25900001 91310.08676310  4985.53097315
0.26000001 89258.76375887  4193.37691980
0.26100001 87246.76803758  5486.07703378
0.26200001 85278.40605883  5046.34991731
0.26300001 83349.22814233  4950.94438592
0.26400001 81460.29110976  5180.87475973
0.26500001 79611.90455834  4447.12119906
0.26600001 77801.52697554  4050.73669366
0.26700001 76031.43173814  4584.69555076
0.26800001 74299.09136091  4197.15586959
0.26900001 72604.02731541  3234.50956996
0.27000001 70947.10717323  3172.40004738
0.27100001 69326.67462544  4242.79268786
0.27200001 67743.19920614  3051.49255265
0.27300001 66195.07295900  3808.86467831
0.27400001 64681.46222865  3201.73253184
0.27500001 63205.03508356  2878.35743392
0.27600001 61760.92295192  3336.01641113
0.27700001 60352.97169123  3523.40665408
0.27800001 58977.24597878  2961.83743323
0.27900001 57635.55079517  3146.90122235
0.28000001 56325.92019435  2848.96517827
0.28100001 55048.65341950  2794.26977982
0.28200001 53803.65432377  2512.36175756
0.28300001 52589.78118579  2464.35726300
0.28400001 51407.17642150  2197.65689604
0.28500001 50255.01803993  2371.53441355
0.28600001 49132.14493349  2749.68062135
0.28700001 48039.48425373  2075.30581799
0.28800001 46975.16319826  2647.28544734
0.28900001 45940.98282525  2398.11941699
0.29000001 44933.87114588  2157.49992519
0.29100001 43955.87900208  2502.84786885
0.29200001 43004.30112165  2079.04303614
0.29300001 42080.05843276  3525.88826298
0.29400001 41182.06308585  2733.45956672
0.29500001 40311.60751660  2326.78609600
0.29600001 39465.27882567  2285.63173138
0.29700001 38644.43363181  1900.14689163
0.29800001 37848.84456207  2376.52906255
0.29900001 37077.97814337  1835.36000498
0.30000001 36330.88886251  1804.37368077
0.30100001 35608.20539233  1613.05178063
0.30200001 34907.62328871  2538.48248573
0.30300001 34230.64683887  1873.10108370
0.30400001 33576.67788146  1843.35970296
0.30500001 32943.79596046  2570.60452049
0.30600001 32332.99999460  1935.61513631
0.30700001 31743.94175749  1613.22719649
0.30800001 31175.37215188  1733.97428118
0.30900001 30627.51257645  1851.43322290
0.31000001 30100.72481576  1685.03865496
0.31100001 29591.99118987  1800.37682923
0.31200001 29104.14488686  2322.94743413
0.31300001 28634.37636342  1483.54710963
0.31400001 28184.95446605  1464.91307773
0.31500001 27753.22544819  1447.05324338
0.31600002 27339.20332493  1689.97293355
0.31700002 26942.73942493  2056.26997027
0.31800002 26563.97371361  1652.41206309
0.31900002 26202.47286239  1635.03438403
0.32000002 25857.24117233  2116.54457638
0.32100002 25528.74869205  2096.16565436
0.32200002 25216.50713318  1466.08779414
0.32300002 24919.25326270  1332.18334250
0.32400002 24637.53944634  1321.18811537
0.32500002 24370.58125031  1549.23792344
0.32600002 24118.87809527  1301.33412925
0.32700002 23881.23221833  1292.45234886
0.32800002 23658.48139304  1751.31916805
0.32900002 23448.29112520  1160.69046566
0.33000002 23253.01333599  1269.96338348
0.33100002 23068.84296707  1263.71127758
0.33200002 22899.86263056  1487.00265033
0.33300002 22742.15647805  1253.32030286
0.33400002 22597.53557197  1362.63145952
0.33500002 22464.39359595  1471.86713811
0.33600002 22343.07254010  1242.38660743
0.33700002 22232.35696886  1465.33471721
0.33800002 22134.25526072  1350.63231997
0.33900002 22045.66955098  1798.92672055
0.34000002 21968.65944231  1573.17577717
0.34100002 21901.76911798  1460.62905165
0.34200002 21845.74101173  1348.75611394
0.34300002 21798.33881216  1349.75320317
0.34400002 21761.17078885  1689.21096248
0.34500002 21733.06612265  1804.71389630
0.34600002 21715.26629134  1808.44746239
0.34700002 21704.11374837  1132.95479132
0.34800002 21703.24880736  1136.16512888
0.34900002 21710.25297181  1253.76716850
0.35000002 21725.39220250  1258.22614900
0.35100002 21748.59837221  1263.15865328
0.35200002 21778.77418775  1268.50476265
0.35300002 21816.61321266  1390.15465975
0.35400002 21862.19312369  1396.99420677
0.35500002 21914.40801898  1521.29827673
0.35600002 21972.83987297  1529.63932021
0.35700002 22038.16546487  1301.79449567
0.35800002 22110.20090463  1547.82468764
0.35900002 22188.07686980  1198.15620772
0.36000002 22272.52795540  1326.66319050
0.36100002 22361.83535587  1335.67248907
0.36200002 22457.76445044  1345.10786547
0.36300002 22557.29942020  1724.28004935
0.36400002 22662.77132432  1613.02282541
0.36500002 22772.79516847  1375.24916537
0.36600002 22888.14754898  1385.99184048
0.36700002 23007.51711969  1524.01800620
0.36800002 23132.70835260  1536.47456156
0.36900002 23261.18084262  1807.39383709
0.37000002 23392.63019376  2213.05988431
0.37100002 23528.58748122  1312.89524364
0.37200002 23668.49936597  1853.95364316
0.37300002 23811.41400055  1469.40242758
0.37400002 23958.63043217  1886.74223591
0.37500002 24107.99513515  1495.66008904
0.37600002 24261.37497484  1371.98081982
0.37700002 24416.38572900  1522.85005006
0.37800002 24575.16983130  1955.93785953
0.37900002 24736.03049983  1691.94456634
0.38000002 24899.52530499  1707.60952631
0.38100002 25064.79785812  2297.94077649
0.38200002 25232.45290006  2174.40673167
0.38300002 25401.81154765  1463.14441446
0.38400002 25573.59774889  1919.93794195
0.38500002 25745.83492995  1788.82069568
0.38600002 25921.11827679  1805.66518470
0.38700002 26096.67286791  2430.12229259
0.38800002 26273.51943448  1992.97791112
0.38900002 26451.55299887  1702.15751612
0.39000002 26631.49941019  1874.32501729
0.39100002 26811.32305098  2364.75880513
0.39200002 26992.36791732  2068.56021335
0.39300002 27173.91384599  1927.17406126
0.39400002 27356.76255955  2269.24356183
0.39500002 27539.16629771  1799.40921114
0.39600002 27721.95022658  1815.92643563
0.39700002 27904.50930784  1999.07914153
0.39800002 28088.30326297  1849.19353293
0.39900002 28271.14916608  2205.14973943
0.40000002 28454.00659498  2224.96115111
0.40100002 28636.27341435  2417.47431618
0.40200002 28819.58151666  1916.35816375
0.40300002 29001.30661958  1933.22719086
0.40400002 29182.56366830  2304.69307490
0.40500002 29363.32919935  1788.22683297
0.40600002 29543.64731758  2525.09565587
0.40700002 29723.03070175  1819.04956514
0.40800002 29901.92047172  2017.93119865
0.40900002 30078.84060494  2034.83366334
0.41000002 30255.78116128  2424.84969606
0.41100002 30431.13713902  2068.70880073
0.41200002 30604.82083776  2085.56561481
0.41300002 30777.68580707  2293.55325502
0.41400002 30948.96667633  2119.23059358
0.41500002 31119.52726232  2912.78788977
0.41600002 31287.14481020  2152.71210067
0.41700002 31454.07154555  2366.60445523
0.41800002 31620.27907003  2384.80156046
0.41900002 31782.74206493  2202.54412947
0.42000002 31944.21188625  2824.18790669
0.42100002 32104.57434122  2438.66358252
0.42200002 32262.73825986  2456.48500751
0.42300002 32418.43996452  2061.81287944
0.42400002 32572.26325514  2284.13006900
0.42500002 32724.37290660  2300.19628060
0.42600002 32873.15525835  3158.28854111
0.42700002 33021.00056536  2755.93283778
0.42800002 33166.04353776  2347.65850307
0.42900002 33309.52826453  2578.15760985
0.43000002 33450.49765972  2811.34720903
0.43100002 33587.68335109  2829.42657957
0.43200002 33723.59533648  2409.38238299
0.43300002 33856.60627553  2644.87820758
0.43400002 33987.47322671  2882.98755308
0.43500002 34115.51615819  3569.84777996
0.43600002 34241.73264079  2244.54568097
0.43700002 34364.30923483  2483.50874609
0.43800002 34483.74502528  2270.75471752
0.43900002 34601.53334315  2283.70130887
0.44000002 34715.77218090  2985.38297017
0.44100002 34828.06918427  2770.92131561
0.44200002 34937.20948806  2553.73544855
0.44300002 35043.83963073  3500.87974502
0.44400002 35147.11440322  2815.28399712
0.44500002 35246.67336990  2593.80281621
0.44600002 35344.23007149  2606.81381246
0.44700002 35438.92868706  3095.94495682
0.44800002 35529.88714181  2392.93801241
0.44900002 35619.07005540  3846.85974829
0.45000002 35704.97745915  2898.53020750
0.45100002 35786.55650326  2668.96151050
0.45200002 35866.17589047  2924.52812071
0.45300002 35942.18157178  3181.96148535
0.45400002 36015.71510783  3687.10900891
0.45500002 36086.07572949  2961.94523625
0.45600002 36152.90217476  2478.28156153
0.45700002 36216.83672653  2736.90648114
0.45800002 36277.03311193  3246.97600257
0.45900002 36334.29607733  3760.59982223
0.46000002 36389.31166145  3522.84942891
0.46100002 36439.98201628  3030.34904810
0.46200002 36488.19727598  2787.51596301
0.46300002 36532.84299508  3051.22319156
0.46400002 36573.91942086  2806.13410056
0.46500002 36612.75156526  2815.15460128
0.46600002 36647.65348271  3080.60189776
0.46700002 36679.35496726  2832.37992482
0.46800002 36708.56711170  3357.18216432
0.46900002 36733.83447789  2589.73545344
0.47000002 36755.74197054  2856.47262263
0.47100002 36774.84869076  3384.75723392
0.47200002 36790.56465944  3393.37789220
0.47300002 36803.52851623  3140.07720184
0.47400002 36812.18030733  2622.86797121
0.47500002 36818.65321014  3154.62235657
0.47600002 36822.25453368  3688.48541146
0.47700002 36821.68510608  2904.12644197
