# SAXS profile: number of points = 501, q_min = 0, q_max = 0.5, delta_q = 0.001
#    q    intensity    error
0.00000000 1646666.22097351 296.39991978
0.00100000 1646598.12493421 543.37739413
0.00200000 1646393.78953160 814.96495162
0.00300000 1646053.38229106 1086.39527101
0.00400000 1645576.78279970 1727.85568759
0.00500000 1644964.41855942 1924.60844589
0.00600000 1644216.04988108 2244.35499946
0.00700000 1643332.30363572 2169.19873095
0.00800000 1642312.66100560 2217.12218596
0.00900000 1641158.46515571 3200.25914386
0.01000000 1639868.85574419 2976.36210169
0.01100000 1638445.09335779 4423.80194468
0.01200000 1636886.64285811 3830.31491222
0.01300000 1635194.86925698 4120.69125227
0.01400000 1633369.10659709 5512.62097914
0.01500000 1631410.94596612 4698.46373360
0.01600000 1629319.43277395 4154.76473931
0.01700000 1627096.52655314 4832.47690064
0.01800000 1624741.98756866 7871.87528399
0.01900000 1622256.31974415 6326.79993248
0.02000000 1619640.26743182 5101.86707320
0.02100000 1616895.44822698 6936.48178738
0.02200000 1614020.01903283 7238.88011424
0.02300000 1611017.06841818 6959.59405236
0.02400000 1607886.20988082 9647.31769918
0.02500000 1604628.79083586 6883.85782708
0.02600000 1601245.23859027 8430.55656678
0.02700000 1597736.31624947 10065.73925339
0.02800000 1594101.99544948 9014.64719767
0.02900000 1590344.96402172 13597.45006670
0.03000000 1586465.39649309 8114.77087606
0.03100000 1582463.53497184 9114.99038085
0.03200000 1578340.37284966 8594.06372599
0.03300000 1574098.75511648 9633.48482542
0.03400000 1569736.63440460 9065.22948196
0.03500000 1565257.40562920 11833.34653300
0.03600000 1560660.83267821 9527.83482382
0.03700000 1555948.59325199 11529.57960921
0.03800000 1551122.18679533 14518.50434031
0.03900000 1546182.59895299 14843.35363734
0.04000000 1541128.98274063 12321.32678797
0.04100000 1535965.19926098 10644.23932442
0.04200000 1530691.64273741 10860.25770906
0.04300000 1525308.17358289 12080.44129553
0.04400000 1519818.73378619 16414.04308719
0.04500000 1514222.63643803 11492.95034458
0.04600000 1508520.23643318 13825.58860962
0.04700000 1502715.13271126 14065.41429633
0.04800000 1496807.12662594 11001.53289258
0.04900000 1490799.13776329 13417.19286441
0.05000000 1484690.41607644 17036.82331782
0.05100000 1478484.57447196 12685.39823991
0.05200000 1472179.79130380 12874.21287491
0.05300000 1465781.48057031 14247.39665533
0.05400000 1459287.84732146 13243.03783202
0.05500000 1452703.06943110 15863.51825821
0.05600000 1446025.33429196 12363.51718513
0.05700000 1439259.98620543 15025.87495737
0.05800000 1432405.36110111 16479.82444895
0.05900000 1425463.50890703 16677.92383317
0.06000000 1418437.21207574 15574.44131621
0.06100000 1411327.88662614 17062.95494669
0.06200000 1404136.28681935 15922.90623682
0.06300000 1396865.32351698 14750.89850602
0.06400000 1389512.97335153 16257.30254851
0.06500000 1382085.97227018 15050.91694207
0.06600000 1374581.55748286 16577.45435888
0.06700000 1367003.30456803 16732.12123096
0.06800000 1359353.49413951 14069.30932292
0.06900000 1351633.51970987 15611.36788356
0.07000000 1343842.58205068 21467.88625357
0.07100000 1335985.52966784 15871.50883584
0.07200000 1328061.30347206 18904.95354056
0.07300000 1320074.69076775 16118.11272950
0.07400000 1312024.92749554 16236.30923866
0.07500000 1303914.33940268 22296.93624890
0.07600000 1295743.35159427 20952.17097753
0.07700000 1287517.12470348 21089.53149150
0.07800000 1279234.20276979 19706.60381783
0.07900000 1270896.25053657 19825.98243828
0.08000000 1262507.57556086 18407.36131519
0.08100000 1254067.82467493 16967.53846394
0.08200000 1245578.48467016 20159.68872038
0.08300000 1237041.89321543 20262.74716184
0.08400000 1228459.48448672 15662.85916240
0.08500000 1219834.60428412 17309.45384739
0.08600000 1211166.67185388 18966.87097175
0.08700000 1202459.15355797 17459.70772953
0.08800000 1193710.68966860 23904.05768324
0.08900000 1184927.54326712 17596.17484400
0.09000000 1176107.95494603 17659.26177307
0.09100000 1167255.21308452 16108.12269734
0.09200000 1158369.62581412 16159.25703938
0.09300000 1149455.19551445 16207.31901837
0.09400000 1140509.71668030 21127.94349446
0.09500000 1131538.01176504 26070.63701646
0.09600000 1122540.86530217 16332.97035792
0.09700000 1113521.24078438 22916.26821270
0.09800000 1104479.70938080 16401.52445547
0.09900000 1095418.52959011 24646.91807474
0.10000000 1086337.15509354 21395.41127573
0.10100000 1077238.50582373 26370.79986283
0.10200000 1068124.89809080 24753.79567758
0.10300000 1058997.03572477 24780.53180165
0.10400000 1049857.73542455 29763.46819951
0.10500000 1040709.43150842 18202.00881348
0.10600001 1031548.54837759 24834.53247074
0.10700001 1022383.21642156 16562.60888543
0.10800001 1013209.96806130 23192.37726040
0.10900001 1004033.26300522 23193.16946702
0.11000001 994853.21435209 33128.61359727
0.11100001 985671.98092064 21527.07707666
0.11200001 976492.29204756 18206.69964235
0.11300001 967312.46030888 18195.14823505
0.11400001 958136.93434807 23139.00805399
0.11500001 948966.49472279 16512.01778569
0.11600001 939801.56005854 19792.22178688
0.11700001 930645.42818504 26355.87976743
0.11800001 921496.09451364 21383.31788031
0.11900001 912358.40410565 19706.94245691
0.12000001 903231.92883661 22951.12439285
0.12100001 894119.99816911 24543.59510594
0.12200001 885021.78771277 19594.38330308
0.12300001 875939.78031142 19550.97681768
0.12400001 866874.48998370 22755.45643425
0.12500001 857827.89393040 17834.24275517
0.12600001 848802.72744937 17786.66199187
0.12700001 839798.22437067 20961.36466813
0.12800001 830815.22559251 20899.15798474
0.12900001 821856.63889776 19231.44625663
0.13000001 812922.67839158 22363.50393665
0.13100001 804014.14714083 23879.22129569
0.13200001 795133.99367311 22208.09349019
0.13300001 786283.30066524 23706.44263265
0.13400001 777460.65684759 22041.01066077
0.13500001 768670.07545771 18817.04433439
0.13600001 759910.10230820 17177.76867262
0.13700001 751184.29273012 21769.32182981
0.13800001 742491.00591868 20125.21966445
0.13900001 733835.48975716 16951.60061280
0.14000001 725214.59544365 16872.11835870
0.14100001 716631.39371166 19843.52422776
0.14200001 708085.43467182 22782.64993512
0.14300001 699581.32254982 19644.24446377
0.14400001 691113.45117516 16534.89009931
0.14500001 682690.31022265 17941.10219897
0.14600001 674306.74919162 17842.15742530
0.14700001 665969.29666443 16262.97099178
0.14800001 657673.14480842 16168.89502794
0.14900001 649421.47553713 17534.38066679
0.15000001 641215.96885336 23237.66780767
0.15100001 633057.10487667 18763.81347391
0.15200001 624945.90767600 17211.01110953
0.15300001 616882.68967240 14249.99080388
0.15400001 608866.40016007 19818.60226047
0.15500001 600901.31109046 15467.20047741
0.15600001 592984.13473451 18154.21014168
0.15700001 585121.84947322 20801.08273052
0.15800001 577306.31179295 17899.38304197
0.15900001 569546.02670747 15036.01581479
0.16000001 561835.80981090 18995.66962635
0.16100001 554182.61187800 13466.63810432
0.16200001 546580.81848013 14700.29180697
0.16300001 539035.00027846 15912.31395941
0.16400001 531543.69448077 23680.27270705
0.16500001 524108.51552852 19575.45397917
0.16600001 516729.33293937 18121.69856176
0.16700001 509406.00689301 16688.14157374
0.16800001 502138.99685839 16547.99142280
0.16900001 494931.66606771 12620.75808065
0.17000001 487781.39762861 17516.23081595
0.17100001 480689.61897878 13641.97203081
0.17200001 473656.94348667 13520.53809031
0.17300001 466683.13610474 13398.47347030
0.17400001 459769.74172964 16896.53880652
0.17500001 452915.73188601 19131.16141838
0.17600001 446119.86280063 17766.72437514
0.17700001 439387.34937123 12904.80706053
0.17800001 432714.07822505 17427.56032365
0.17900001 426102.01818241 12655.23053777
0.18000001 419552.02307028 15947.17315017
0.18100001 413064.46916956 12404.32659510
0.18200001 406635.79843504 17859.44511091
0.18300001 400271.52432924 12152.24405270
0.18400001 393968.00392606 12025.87388795
0.18500001 387727.43387422 11899.35550775
0.18600001 381549.25221952 11772.70273342
0.18700001 375432.95252623 11645.93073757
0.18800001 369379.20906925 13613.47139343
0.18900001 363389.99621880 11392.27691972
0.19000001 357459.34053375 14337.69482625
0.19100001 351596.81945417 13163.78554235
0.19200001 345792.94521719 15016.05935559
0.19300001 340054.80021634 11874.71418467
0.19400001 334378.45179108 13692.79824788
0.19500001 328765.61055368 15465.13505125
0.19600001 323214.44230180 11461.18466564
0.19700001 317727.05998854 10380.14354037
0.19800001 312302.25115707 9322.22263760
0.19900001 306941.12051076 12891.52767071
0.20000001 301640.81519324 14551.15361263
0.20100001 296404.89079675 12573.49606185
0.20200001 291230.14124972 10641.54986422
0.20300001 286118.56191632 8755.22840845
0.20400001 281069.22526419 10371.45490246
0.20500001 276081.12313145 10237.08852959
0.20600001 271156.01582827 13471.03150310
0.20700001 266292.03512297 9969.97426628
0.20800001 261489.71344668 9837.24348487
0.20900001 256751.11106860 10513.95849527
0.21000001 252071.11039906 8775.85612340
0.21100001 247452.55170590 7868.99151624
0.21200001 242894.69044275 10088.63144447
0.21300001 238397.40328861 9183.06840881
0.21400001 233961.12244768 9054.29586678
0.21500001 229585.64764605 8926.29040249
0.21600001 225268.53443451 8798.98937102
0.21700001 221011.72953159 7949.79228711
0.21800001 216814.15751021 7834.57995205
0.21900001 212674.46781336 8421.90932361
0.22000001 208593.29977737 7606.35503603
0.22100001 204572.66719915 9537.17819578
0.22200001 200609.20995108 10736.60542426
0.22300001 196703.07741406 6609.22371363
0.22400001 192852.94525637 9763.18081527
0.22500001 189063.05260629 8332.00912236
0.22600001 185327.51713165 11358.72406213
0.22700001 181649.81418313 8697.39351438
0.22800001 178027.23455777 8561.33011475
0.22900001 174459.82730882 7222.63719215
0.23000001 170947.99317584 7700.35271677
0.23100001 167492.50733104 7577.36139001
0.23200001 164089.51461836 6881.91456856
0.23300001 160741.81934601 6206.24193847
0.23400001 157447.80972397 5550.03555526
0.23500001 154205.71821395 6004.77095125
0.23600001 151017.60943709 8053.01440412
0.23700001 147881.75118965 5807.31664389
0.23800001 144797.59862192 5710.09357174
0.23900001 141765.56830140 5103.56070025
0.24000001 138784.17680662 6020.45787464
0.24100001 135854.95121590 5917.84195489
0.24200001 132975.11148612 5331.63734723
0.24300001 130145.43479902 5239.65545286
0.24400001 127364.56025315 5148.71259179
0.24500001 124632.95080542 6438.53854318
0.24600001 121950.31203437 5873.73705699
0.24700001 119316.09969483 5326.27094234
0.24800001 116728.59661269 6103.73860563
0.24900001 114188.38463613 5994.89047700
0.25000001 111695.47513548 4625.86832158
0.25100001 109247.89538950 4129.57064109
0.25200001 106847.41702306 5271.31756822
0.25300001 104492.47909154 4777.39637009
0.25400001 102181.31898188 4299.27919957
0.25500001 99914.93982625  5755.10080628
0.25600001 97692.74122410  5649.08302856
0.25700001 95513.88604025  4066.02632111
0.25800001 93377.83269775  4353.27476634
0.25900001 91284.82113267  4272.12983114
0.26000001 89234.41264452  4192.23290440
0.26100001 87223.35166722  4456.24124753
0.26200001 85255.96718027  4372.35248373
0.26300001 83327.73253533  4619.68971035
0.26400001 81439.78990637  4532.12452274
0.26500001 79592.30514002  3493.30643789
0.26600001 77782.89464673  4361.28710922
0.26700001 76013.70081267  3055.75091727
0.26800001 74282.38332654  3596.75317087
0.26900001 72588.28967721  3233.80845815
0.27000001 70932.32151021  4036.75860817
0.27100001 69312.87357223  3110.76191313
0.27200001 67730.38312650  3050.91525231
0.27300001 66183.18467019  3264.15482241
0.27400001 64670.56310119  3201.19302500
0.27500001 63195.06133838  3401.15836219
0.27600001 61752.00658059  3078.95519382
0.27700001 60344.99486050  3019.66368573
0.27800001 58970.26565215  2467.90573434
0.27900001 57629.54555275  3388.61743888
0.28000001 56320.88446518  2848.71047107
0.28100001 55044.66659431  2561.22845785
0.28200001 53800.58551914  2512.21845972
0.28300001 52587.70083169  2464.25977761
0.28400001 51406.02970279  3076.65102333
0.28500001 50254.81865158  2155.93182220
0.28600001 49132.99911135  2538.21085423
0.28700001 48041.30350602  2075.38440969
0.28800001 46977.97092383  2443.79416313
0.28900001 45944.74606259  2798.03516765
0.29000001 44938.61324120  1961.57056083
0.29100001 43961.58422813  3080.82796854
0.29200001 43011.05742261  2079.36966952
0.29300001 42087.70528088  1856.06789075
0.29400001 41190.69102106  2551.76342955
0.29500001 40321.12857840  2148.30983235
0.29600001 39475.86249721  2637.97463625
0.29700001 38655.90039347  3110.25389289
0.29800001 37861.34614035  2037.69774574
0.29900001 37091.38069473  2002.93465233
0.30000001 36345.18662140  1969.18230437
0.30100001 35623.45604954  2259.23968961
0.30200001 34923.83427892  1746.01717743
0.30300001 34247.76579220  2342.54729109
0.30400001 33594.79948473  1844.35457903
0.30500001 32962.73635283  1664.28863725
0.30600001 32352.86414562  1489.84946444
0.30700001 31764.68212623  1614.28122208
0.30800001 31197.09804640  2024.37978807
0.30900001 30650.08433280  1852.79768564
0.31000001 30124.17651573  1545.82219109
0.31100001 29616.36443129  1386.04592101
0.31200001 29129.37622802  2188.19884585
0.31300001 28660.53678832  1484.90248131
0.31400001 28211.98144621  1599.61942374
0.31500001 27781.09749519  1448.50649198
0.31600002 27367.95370475  1691.75013836
0.31700002 26972.32416147  1801.21189279
0.31800002 26594.42848846  1272.54346343
0.31900002 26233.74743612  1385.14193021
0.32000002 25889.34243520  1869.85784592
0.32100002 25561.63040633  1481.55216850
0.32200002 25250.21406092  1345.71022210
0.32300002 24953.72624550  1455.30138355
0.32400002 24672.85840792  1202.80190434
0.32500002 24406.65249411  1312.83389982
0.32600002 24155.73810474  1421.80681217
0.32700002 23918.80164477  1647.52713531
0.32800002 23696.86061327  1403.32815197
0.32900002 23487.34312447  1278.88589369
0.33000002 23292.89263995  1156.49217434
0.33100002 23109.39517409  1265.93272758
0.33200002 22941.12530881  1375.09111613
0.33300002 22784.14198201  1255.63412409
0.33400002 22640.24202267  1251.43943707
0.33500002 22507.74078708  1247.82920833
0.33600002 22387.14053522  1584.33801071
0.33700002 22277.07251548  1468.28191903
0.33800002 22179.66714809  1466.18696626
0.33900002 22091.70809723  1915.35118274
0.34000002 22015.37962671  1238.69539336
0.34100002 21949.01624936  1576.37842168
0.34200002 21893.64683218  1802.28509258
0.34300002 21846.79578609  1578.21260233
0.34400002 21810.26850787  1354.41773848
0.34500002 21782.69660390  1808.83521165
0.34600002 21765.50763992  1359.47367158
0.34700002 21754.91213108  1589.84905384
0.34800002 21754.53862389  1594.39021126
0.34900002 21762.09343669  1256.76095549
0.35000002 21777.79816038  1605.24157843
0.35100002 21801.46973530  1266.22942220
0.35200002 21832.12081600  1502.81410755
0.35300002 21870.44551539  1393.58485425
0.35400002 21916.49245606  1400.46393427
0.35500002 21969.18378365  1407.78536353
0.35600002 22028.04490323  1533.48241857
0.35700002 22093.80512230  1305.08113039
0.35800002 22166.26883244  1432.38435980
0.35900002 22244.53743836  1921.92812571
0.36000002 22329.37790101  1571.87663180
0.36100002 22419.03524032  1460.82440545
0.36200002 22515.38649707  1471.15542340
0.36300002 22615.21312935  1481.74883442
0.36400002 22721.09168653  1492.77579451
0.36500002 22831.38446478  1378.78737314
0.36600002 22947.07119311  1515.88359482
0.36700002 23066.73197133  1655.26876467
0.36800002 23192.19089016  1668.79417455
0.36900002 23320.93430229  1682.60548961
0.37000002 23452.62802341  1696.68045472
0.37100002 23588.86097836  1974.38775742
0.37200002 23729.01695866  1593.16627407
0.37300002 23872.09687876  1740.99210784
0.37400002 24019.53240115  1891.53826619
0.37500002 24169.08636796  1635.76384287
0.37600002 24322.61023061  1650.53240844
0.37700002 24477.80026504  1526.68047485
0.37800002 24636.72641025  1680.71755533
0.37900002 24797.73432354  1554.81801574
0.38000002 24961.35245519  1569.19549643
0.38100002 25126.72022418  2159.64170558
0.38200002 25294.46106049  1743.80022812
0.38300002 25463.84874495  1906.73308435
0.38400002 25635.74398167  1480.46428508
0.38500002 25808.00554543  1643.71195106
0.38600002 25983.30137452  1960.82993112
0.38700002 26158.86477723  1979.17980281
0.38800002 26335.73960440  1690.35952659
0.38900002 26513.81027388  1706.16377196
0.39000002 26693.66826692  2035.25883343
0.39100002 26873.51195841  2054.21135142
0.39200002 27054.52970580  1913.83752206
0.39300002 27235.96562674  2414.46846720
0.39400002 27418.70680582  2111.92599178
0.39500002 27601.03353229  1639.50146949
0.39600002 27783.70797409  1985.42386589
0.39700002 27966.17528257  1836.53881782
0.39800002 28149.81399891  2021.71973719
0.39900002 28332.48621942  2889.91373130
0.40000002 28515.25071960  2572.78861807
0.40100002 28697.31674710  2076.53793821
0.40200002 28880.45024461  2094.98796000
0.40300002 29061.93381771  2289.49925464
0.40400002 29242.95544709  2309.46251586
0.40500002 29423.52941385  2329.46093407
0.40600002 29603.58358823  2710.94829554
0.40700002 29782.76593364  2004.97589765
0.40800002 29961.32641907  2205.75295548
0.40900002 30138.00355722  2224.18476791
0.41000002 30314.58478191  2429.56251246
0.41100002 30489.66892073  2072.68779144
0.41200002 30663.00687718  3039.31738568
0.41300002 30835.54461923  2680.84237622
0.41400002 31006.55391464  2509.20549444
0.41500002 31176.71016717  3112.68289058
0.41600002 31343.94504399  2548.73301202
0.41700002 31510.51712900  2370.85142113
0.41800002 31676.28050665  2389.02518901
0.41900002 31838.37806741  2406.98149595
0.42000002 31999.43304784  3031.14643909
0.42100002 32159.35498120  3053.53090016
0.42200002 32317.07009941  2460.62183397
0.42300002 32472.34362959  2065.24115270
0.42400002 32625.67835655  2079.88709379
0.42500002 32777.31407995  3141.70570344
0.42600002 32925.61029603  2530.66252727
0.42700002 33072.93896420  2335.61106033
0.42800002 33217.50421520  2565.05579705
0.42900002 33360.40568355  3442.79402969
0.43000002 33500.84051943  2598.99533066
0.43100002 33637.53091068  2397.68331693
0.43200002 33772.92493602  3509.68252567
0.43300002 33905.34951154  3090.13370092
0.43400002 34035.60766321  2220.82350527
0.43500002 34163.06312845  2234.26443448
0.43600002 34288.68220915  2247.62322532
0.43700002 34410.68641483  2939.01686597
0.43800002 34529.46434114  3183.27146846
0.43900002 34646.70188108  3201.35540552
0.44000002 34760.27462390  2989.20995794
0.44100002 34871.89452248  2774.40805969
0.44200002 34980.41850558  2556.89381184
0.44300002 35086.38737765  3271.45491413
0.44400002 35189.00057780  3523.29884982
0.44500002 35287.90190999  2596.83682462
0.44600002 35384.75183521  3084.31203989
0.44700002 35478.77221818  2622.59096666
0.44800002 35569.03496327  2395.57461831
0.44900002 35657.49979958  2888.25762065
0.45000002 35742.63920141  2901.58758788
0.45100002 35823.59187336  3157.49153736
0.45200002 35902.46062878  2683.52954688
0.45300002 35977.74229292  2450.08436626
0.45400002 36050.54059852  2706.49446370
0.45500002 36120.12015649  2964.73960295
0.45600002 36186.17174516  2728.61840976
0.45700002 36249.38069283  2988.39908595
0.45800002 36308.76641217  3249.81629174
0.45900002 36365.28426402  3261.96615308
0.46000002 36419.51619207  4533.13739527
0.46100002 36469.39651799  2780.06222833
0.46200002 36516.84971263  4057.75253238
0.46300002 36560.70190961  4580.32495232
0.46400002 36600.96826871  3574.08472083
0.46500002 36638.97679861  3073.27751953
0.46600002 36673.05502482  4110.31620199
0.46700002 36703.95876968  2834.27983053
0.46800002 36732.34767681  2842.53285969
0.46900002 36756.78137109  3368.75917233
0.47000002 36777.85492456  4157.36891772
0.47100002 36796.16404303  2865.68539150
0.47200002 36811.01040060  3917.61196757
0.47300002 36823.16837433  3927.19109326
0.47400002 36830.98076177  2624.20750366
0.47500002 36836.61830489  3156.16160596
0.47600002 36839.38724158  2899.44411028
0.47700002 36837.98311990  3697.79692084
