# SAXS profile: number of points = 501, q_min = 0, q_max = 0.5, delta_q = 0.001
#    q    intensity    error
0.00000000 1664650.74656090 324.60689558
0.00100000 1664582.07372776 499.37463398
0.00200000 1664376.01173333 1198.35076639
0.00300000 1664032.72134547 998.41966837
0.00400000 1663552.09121303 1247.66411582
0.00500000 1662934.54907852 1795.96938409
0.00600000 1662179.84820413 2792.46225867
0.00700000 1661288.62305497 2790.96500273
0.00800000 1660260.36347557 2689.62190239
0.00900000 1659096.40096709 3732.96706175
0.01000000 1657795.87825710 3282.43598068
0.01100000 1656360.04617247 3875.88267680
0.01200000 1654788.40698715 3549.52128861
0.01300000 1653082.28939852 4165.76755301
0.01400000 1651241.04609810 5944.46802948
0.01500000 1649266.28696831 4749.88711798
0.01600000 1647157.02865736 5040.30073301
0.01700000 1644915.26501826 4441.27141478
0.01800000 1642540.70938459 6085.61360211
0.01900000 1640033.92819000 5904.12240789
0.02000000 1637395.65802816 6189.35586733
0.02100000 1634627.47323012 5933.69799685
0.02200000 1631727.61433935 7318.29868280
0.02300000 1628699.04700017 8208.64357053
0.02400000 1625541.46779521 7924.51501684
0.02500000 1622256.34431021 8224.84004129
0.02600000 1618843.89933022 6556.31809216
0.02700000 1615305.00447819 7462.70946249
0.02800000 1611639.68990563 9113.82286437
0.02900000 1607850.46057599 8682.39288576
0.03000000 1603937.69890865 10441.63489985
0.03100000 1599901.50671853 12287.24413697
0.03200000 1595743.06933962 8688.82141275
0.03300000 1591465.01475350 11363.06072918
0.03400000 1587065.47457807 10831.72236378
0.03500000 1582547.68314483 9400.33367197
0.03600000 1577911.56269390 12260.37340873
0.03700000 1573158.79570749 12553.80777033
0.03800000 1568290.68780777 12844.30132757
0.03900000 1563308.47051025 10317.83638319
0.04000000 1558211.20183007 10541.29926885
0.04100000 1553002.72883600 15654.26823250
0.04200000 1547683.49168433 9982.55898448
0.04300000 1542253.32019734 11196.75962436
0.04400000 1536716.14172967 11410.11788225
0.04500000 1531071.43098449 13733.71137407
0.04600000 1525319.43801444 10753.50253790
0.04700000 1519463.68716963 12034.15296207
0.04800000 1513504.16365746 13349.10734457
0.04900000 1507443.62570754 11305.82771906
0.05000000 1501281.58925975 13781.76563117
0.05100000 1495021.29570315 16325.63330959
0.05200000 1488661.22264775 15385.31445304
0.05300000 1482206.60561540 15607.63628472
0.05400000 1475655.90331347 19478.65883210
0.05500000 1469013.03004390 12339.71002801
0.05600000 1462276.36177845 17503.44886727
0.05700000 1455451.17884107 13928.66843168
0.05800000 1448535.87589186 16665.40603028
0.05900000 1441532.33089527 12973.79158401
0.06000000 1434443.74515260 14437.67696947
0.06100000 1427271.20024090 17255.70961730
0.06200000 1420015.48465883 14761.06165301
0.06300000 1412679.60748988 14917.89735258
0.06400000 1405261.57812322 17811.69133571
0.06500000 1397767.81875450 17989.27266887
0.06600000 1390196.19800410 15368.61968801
0.06700000 1382549.74305916 16922.40964700
0.06800000 1374831.00494611 15652.45172399
0.06900000 1367041.35716452 15789.32841449
0.07000000 1359180.05292170 18817.84871391
0.07100000 1351251.74753179 14593.51955687
0.07200000 1343255.49485843 20592.10770085
0.07300000 1335196.25588188 20748.95078861
0.07400000 1327073.17319143 16422.53128787
0.07500000 1318888.55907962 15035.33027825
0.07600000 1310642.82587222 30275.85069700
0.07700000 1302341.19335990 16761.13194445
0.07800000 1293982.10918104 15333.68871289
0.07900000 1285567.37258463 26225.57563080
0.08000000 1277101.20640772 21723.49254007
0.08100000 1268583.54994137 18724.29407564
0.08200000 1260015.43815500 18824.63152939
0.08300000 1251399.68161896 17344.40040125
0.08400000 1242737.31026537 19013.88173955
0.08500000 1234031.99632476 23878.52024986
0.08600000 1225282.99423965 17588.93820814
0.08700000 1216493.79045861 19269.26254570
0.08800000 1207663.32887721 17734.53681744
0.08900000 1198797.30332177 22657.27009699
0.09000000 1189894.42502825 22738.88353046
0.09100000 1180957.93616780 19556.66434173
0.09200000 1171988.06780507 21254.00460830
0.09300000 1162988.86507600 18037.95814497
0.09400000 1153958.26656265 19732.68728561
0.09500000 1144900.71638147 19783.88530897
0.09600000 1135817.30481043 23136.59958659
0.09700000 1126711.11366051 24843.98122420
0.09800000 1117582.57553103 18255.71222964
0.09900000 1108433.90799542 21614.46222228
0.10000000 1099264.62238492 24980.78971847
0.10100000 1090077.73329468 23349.46614534
0.10200000 1080875.44351511 25049.28958169
0.10300000 1071658.54730817 18389.66153687
0.10400000 1062429.83142427 21753.25182180
0.10500000 1053191.66865225 20094.89798334
0.10600001 1043940.83590797 23457.35168660
0.10700001 1034684.97391450 21790.46657605
0.10800001 1025420.97170124 18442.19704397
0.10900001 1016153.34283933 21796.49022977
0.11000001 1006882.06409255 23470.42201874
0.11100001 997609.22758777 18435.81939366
0.11200001 988337.62833911 16752.32358900
0.11300001 979065.63527418 31809.84398769
0.11400001 969797.86777154 21747.71820876
0.11500001 960534.86822344 20055.96899290
0.11600001 951277.29598111 23372.88426292
0.11700001 942028.17553477 18341.28944144
0.11800001 932785.78913041 16650.22712018
0.11900001 923554.83249595 18286.38654474
0.12000001 914334.85191311 21573.73184712
0.12100001 905129.43919245 21533.03037277
0.12200001 895937.25889677 24795.06480810
0.12300001 886761.52600991 16493.76516088
0.12400001 877602.33160314 18100.54894217
0.12500001 868461.68577974 21338.10462507
0.12600001 859342.35542017 16370.47264219
0.12700001 850243.66117472 24487.01859582
0.12800001 841166.23768448 19531.88095956
0.12900001 832113.35667137 17848.83234185
0.13000001 823085.17304387 25877.79906025
0.13100001 814082.14065042 17730.70985915
0.13200001 805107.52690618 20880.46469462
0.13300001 796162.41489641 17603.15182322
0.13400001 787245.35410343 22318.40684105
0.13500001 778360.27445920 19054.26041714
0.13600001 769506.08626284 22138.69114564
0.13700001 760685.94395952 18895.43973894
0.13800001 751898.37500233 15677.08185806
0.13900001 743148.74498722 15606.12438069
0.14000001 734433.75874961 15533.27473011
0.14100001 725756.58890803 15458.61607282
0.14200001 717116.71869472 16920.36977566
0.14300001 708518.92146688 19895.21225320
0.14400001 699957.33751211 19791.29465171
0.14500001 691440.56550953 19685.31382865
0.14600001 682963.85249907 18071.22438962
0.14700001 674533.06123713 23959.41546546
0.14800001 666143.89759543 16377.14849504
0.14900001 657799.38860971 19240.63302462
0.15000001 649501.37689151 14711.20688071
0.15100001 641249.81953028 19006.64554771
0.15200001 633046.55988704 17434.10308195
0.15300001 624891.22101650 17321.98546399
0.15400001 616783.21945245 18642.27368770
0.15500001 608726.49422735 14244.20063715
0.15600001 600718.24063827 16976.29828163
0.15700001 592764.87638862 14048.52823346
0.15800001 584858.44233265 22318.19921280
0.15900001 577007.72275048 13848.18599965
0.16000001 569207.45531090 17870.26890301
0.16100001 561464.47024382 15007.94599806
0.16200001 553773.13673742 16247.70459887
0.16300001 546138.05840577 18808.99561943
0.16400001 538557.83101660 15995.16833632
0.16500001 531034.18125426 15867.30208499
0.16600001 523566.66277066 14426.88007378
0.16700001 516155.66473989 14307.83570213
0.16800001 508801.15867807 20636.97597039
0.16900001 501506.83436379 14067.26736813
0.17000001 494269.88835229 17749.23252884
0.17100001 487091.83706133 13823.66698857
0.17200001 479973.30013765 14946.36927210
0.17300001 472913.99623673 16045.97265007
0.17400001 465915.55313793 15899.36900170
0.17500001 458976.93648070 13328.69086488
0.17600001 452096.98587969 12003.17554200
0.17700001 445280.60431665 11888.99269678
0.17800001 438524.33359963 15306.69258726
0.17900001 431829.36005545 15157.21125388
0.18000001 425197.06489610 12698.51094294
0.18100001 418627.61178505 14857.09464405
0.18200001 412117.52742584 14706.41466089
0.18300001 405672.49467310 11196.56138190
0.18400001 399288.55376985 11080.25789055
0.18500001 392968.19968474 12060.19461807
0.18600001 386710.56908354 13016.67837030
0.18700001 380515.48078995 12876.64447829
0.18800001 374383.18209042 13797.89282784
0.18900001 368316.35748229 12596.42002104
0.19000001 362308.50324030 10380.13910828
0.19100001 356369.16414061 10263.43241220
0.19200001 350489.48020007 12176.00511748
0.19300001 344675.61385897 18054.10950704
0.19400001 338924.24544081 9913.53464760
0.19500001 333236.81316332 14695.74415495
0.19600001 327611.93798480 12585.21319242
0.19700001 322051.16444862 15303.87205782
0.19800001 316553.76679856 9449.13038549
0.19900001 311120.40639735 9333.61263303
0.20000001 305748.57039455 14749.31173290
0.20100001 300441.74479103 10924.06235690
0.20200001 295196.58566934 8988.73645847
0.20300001 290015.38736608 11536.81265471
0.20400001 284896.97699643 8760.58245672
0.20500001 279840.41055470 9511.77600435
0.20600001 274847.34569662 10240.81258472
0.20700001 269916.27044912 10947.80444691
0.20800001 265047.21861671 9140.15376605
0.20900001 260242.62999312 11476.70052521
0.21000001 255497.33208837 11321.08732001
0.21100001 250814.11515477 9571.06708676
0.21200001 246192.17764647 9439.00853719
0.21300001 241631.56908181 7756.37373421
0.21400001 237132.53460278 9177.02952299
0.21500001 232695.02490428 9047.18299601
0.21600001 228316.27227426 7431.69501389
0.21700001 223998.70258368 10987.13688120
0.21800001 219740.94582723 7218.49041172
0.21900001 215541.85543659 7824.16972229
0.22000001 211401.88828180 7708.77022069
0.22100001 207323.14933515 7594.24731923
0.22200001 203302.23314504 8160.55202431
0.22300001 199339.35289907 8037.36308894
0.22400001 195433.01550172 7255.45104359
0.22500001 191587.52502283 11041.18958917
0.22600001 187797.35067812 7673.40011157
0.22700001 184065.49477890 6924.54424104
0.22800001 180389.48248473 8055.29272129
0.22900001 176769.36623539 10367.52382000
0.23000001 173205.47311783 7201.88391283
0.23100001 169698.59162400 7086.61352136
0.23200001 166244.84535605 5810.25761998
0.23300001 162847.12221216 6287.52768598
0.23400001 159503.75725673 6747.00925106
0.23500001 156213.02674147 7188.92383065
0.23600001 152976.82260234 7069.82419095
0.23700001 149793.63115627 9625.73919338
0.23800001 146662.92804018 8938.37257218
0.23900001 143584.85220471 6719.77140102
0.24000001 140558.22636310 5589.29813570
0.24100001 137584.32668824 6992.03581303
0.24200001 134660.61819802 5890.05571859
0.24300001 131787.61546759 7235.14043141
0.24400001 128964.19619370 6161.26476460
0.24500001 126190.78259639 6984.66014712
0.24600001 123466.71578188 5031.88623972
0.24700001 120792.05871184 4493.46479665
0.24800001 118164.72551795 6178.83378963
0.24900001 115585.21160961 6935.11302466
0.25000001 113053.61974832 5533.40968036
0.25100001 110568.26787770 4597.42879585
0.25200001 108130.58938269 6155.33409182
0.25300001 105738.99526402 5640.11827422
0.25400001 103392.02252455 5536.64306813
0.25500001 101090.36683828 4270.05729727
0.25600001 98833.48970380  3810.03120834
0.25700001 96620.76598791  3739.22382065
0.25800001 94451.44332946  5504.15812045
0.25900001 92325.77840029  5761.12884476
0.26000001 90243.26672020  4592.93127704
0.26100001 88200.84840500  3812.92285696
0.26200001 86202.82241417  4760.98210721
0.26300001 84244.49786256  4003.29872785
0.26400001 82326.95026601  3599.74607071
0.26500001 80450.67520293  3530.98030174
0.26600001 78613.08632877  4407.83595903
0.26700001 76816.25698017  4323.21914742
0.26800001 75057.95798940  4240.02424746
0.26900001 73337.53695825  3267.18742610
0.27000001 71655.71762113  3786.64657688
0.27100001 70011.17630621  2856.45612847
0.27200001 68404.06793933  3921.60540055
0.27300001 66832.93104043  3570.88367448
0.27400001 65296.89378887  2962.84669589
0.27500001 63798.72258537  2905.39396404
0.27600001 62333.45894692  2848.95087600
0.27700001 60904.79877106  3047.67627474
0.27800001 59509.00884487  2988.54256563
0.27900001 58147.85454329  2686.43100704
0.28000001 56819.39670572  2394.93768449
0.28100001 55523.70540624  2818.38341981
0.28200001 54260.85804217  3685.39765265
0.28300001 53029.76577312  2259.06812886
0.28400001 51830.38510336  2658.89888165
0.28500001 50662.05495572  3477.44361675
0.28600001 49523.63950721  3411.18845071
0.28700001 48415.78547574  2719.03064102
0.28800001 47336.94527718  3488.49634732
0.28900001 46288.79315487  2818.98763656
0.29000001 45268.13381620  2173.54954807
0.29100001 44277.01085273  1939.33316715
0.29200001 43313.08405695  2093.97114785
0.29300001 42376.77486525  2242.57903202
0.29400001 41467.20384804  1834.92385713
0.29500001 40585.58050035  2522.79980332
0.29600001 39728.85810933  2123.90485507
0.29700001 38897.80246449  1912.60503772
0.29800001 38092.68770288  2391.83997409
0.29900001 37312.59124112  2182.78669094
0.30000001 36556.75201505  1815.59117478
0.30100001 35825.87341725  2272.07699968
0.30200001 35117.54059123  1596.09229543
0.30300001 34433.11271907  1570.15001432
0.30400001 33772.28616276  2163.11503113
0.30500001 33132.79836446  1824.95462031
0.30600001 32515.86973822  2096.29822127
0.30700001 31921.05850665  1622.22827011
0.30800001 31347.33449317  1598.24392480
0.30900001 30794.61808753  2147.92471330
0.31000001 30263.24160719  1552.95831660
0.31100001 29750.46092449  1392.32163719
0.31200001 29258.82201934  1785.81228650
0.31300001 28785.81813537  1762.55572788
0.31400001 28333.47844428  2008.13537982
0.31500001 27898.98396130  1586.89428285
0.31600002 27482.85526858  1698.85277886
0.31700002 27084.45242597  1808.69981864
0.31800002 26704.09654475  1788.90751223
0.31900002 26341.35983851  1390.82386533
0.32000002 25995.30632235  1752.34368216
0.32100002 25666.28333204  1363.64969800
0.32200002 25353.73114245  1719.74366482
0.32300002 25056.49698927  1583.06955474
0.32400002 24775.19679381  1328.56999098
0.32500002 24508.83381510  1438.17843637
0.32600002 24258.04533893  1903.77148835
0.32700002 24021.65000911  1536.42480734
0.32800002 23800.44432125  1879.28317260
0.32900002 23591.94479083  1634.92185142
0.33000002 23398.83804413  1858.80378225
0.33100002 23216.88109288  1387.44087981
0.33200002 23050.48134998  1266.50875775
0.33300002 22895.54964053  1261.77380044
0.33400002 22753.96783115  1600.74171273
0.33500002 22624.05020784  1596.35305826
0.33600002 22506.22646062  1251.45878161
0.33700002 22399.22722687  1249.20496160
0.33800002 22305.03670118  1701.31675495
0.33900002 22220.63933341  1246.57792564
0.34000002 22147.89538136  1246.15139265
0.34100002 22085.51935605  1586.18207527
0.34200002 22034.27832615  1247.03004093
0.34300002 21991.64348343  1361.72262898
0.34400002 21959.63982782  1363.69369789
0.34500002 21936.74044289  1593.92363607
0.34600002 21924.34992365  1483.51120784
0.34700002 21918.74883643  1487.40636649
0.34800002 21923.59531325  1262.47029591
0.34900002 21936.41470930  1497.16037482
0.35000002 21957.58685012  1271.67370265
0.35100002 21986.83370552  1393.08584956
0.35200002 22023.22783117  1399.35596267
0.35300002 22067.51003060  1406.14180575
0.35400002 22119.51171537  1295.65046009
0.35500002 22178.27640794  1184.32001628
0.35600002 22243.44102748  1429.36358813
0.35700002 22315.53376886  1557.84748619
0.35800002 22394.48044429  1567.72567776
0.35900002 22479.30446210  1456.65899814
0.36000002 22570.75199913  1466.64753437
0.36100002 22667.16662250  1476.99264708
0.36200002 22770.31335270  1363.82798286
0.36300002 22877.08237171  1249.08875666
0.36400002 22989.91366791  1510.43739953
0.36500002 23107.19467341  1902.87757149
0.36600002 23229.99272961  1278.81116034
0.36700002 23356.82304446  1547.15603175
0.36800002 23489.48846268  1430.15757279
0.36900002 23625.37003120  1573.44971861
0.37000002 23764.41731188  1454.73887466
0.37100002 23907.87442732  1600.87134749
0.37200002 24055.43477073  1749.67213093
0.37300002 24205.86616532  1765.33390306
0.37400002 24360.71383644  2192.46434914
0.37500002 24517.59473909  2765.58481758
0.37600002 24678.59462961  2232.91934786
0.37700002 24841.13003781  2253.58742379
0.37800002 25007.43243294  1706.00712139
0.37900002 25175.87901208  1865.53272317
0.38000002 25346.88300062  1448.57443211
0.38100002 25519.60027702  2193.40974772
0.38200002 25694.75896138  1919.01316394
0.38300002 25871.51351382  1788.23909879
0.38400002 26050.69079247  1805.31295744
0.38500002 26230.35568751  1518.73766626
0.38600002 26412.85561617  1993.24624350
0.38700002 26595.60194268  1857.43692767
0.38800002 26779.65321723  1718.85212318
0.38900002 26964.90352482  1892.93631712
0.39000002 27151.79896563  1910.94370173
0.39100002 27338.60282289  1768.26091436
0.39200002 27526.66739423  1622.69711977
0.39300002 27714.94089422  1801.74839289
0.39400002 27904.58351369  1984.01598182
0.39500002 28093.60076378  2169.38795376
0.39600002 28283.01457005  2357.95503642
0.39700002 28472.06184620  1869.76039003
0.39800002 28662.36131257  1715.44240583
0.39900002 28851.50568598  1904.19946549
0.40000002 29040.46730251  2096.14102921
0.40100002 29228.93645349  2467.50693231
0.40200002 29418.24055179  2489.66581586
0.40300002 29605.84329413  2332.34844522
0.40400002 29792.90040226  2533.88629927
0.40500002 29979.38525212  2008.31911319
0.40600002 30165.25531370  2025.74781657
0.40700002 30350.11698575  2414.65542180
0.40800002 30534.17301657  2060.59876366
0.40900002 30716.40364940  2833.58837092
0.41000002 30898.39518345  2095.37476865
0.41100002 31078.70991404  2496.86367280
0.41200002 31257.14925803  1936.38048829
0.41300002 31434.70478713  2147.30478575
0.41400002 31610.55548378  2754.86004094
0.41500002 31785.44151456  2776.77630228
0.41600002 31957.37662608  2398.72080321
0.41700002 32128.41949126  3223.12319609
0.41800002 32298.59298601  2638.95666497
0.41900002 32464.91928640  2249.81901315
0.42000002 32630.16156870  2884.83272099
0.42100002 32793.98994982  2698.61756084
0.42200002 32955.55742807  2300.13323968
0.42300002 33114.54624831  2737.91081355
0.42400002 33271.41404007  3181.57911834
0.42500002 33426.49462665  2563.14372943
0.42600002 33577.98235882  2150.66987199
0.42700002 33728.45402372  2814.97690621
0.42800002 33876.02638604  2615.90688149
0.42900002 34021.71744284  2194.40087905
0.43000002 34164.85811443  2208.75818177
0.43100002 34304.11288608  2889.77860646
0.43200002 34441.82122877  2236.99639481
0.43300002 34576.46393028  2476.02069938
0.43400002 34708.86914300  2944.17996457
0.43500002 34838.17585806  2506.25849000
0.43600002 34965.61935005  2521.19610271
0.43700002 35089.26081164  2766.43745349
0.43800002 35209.45354526  2550.39688841
0.43900002 35327.97322737  3031.14024655
0.44000002 35442.75393043  2578.99211197
0.44100002 35555.35181184  3300.24791157
0.44200002 35664.69798972  2843.90315247
0.44300002 35771.36469912  2858.84760224
0.44400002 35874.43352221  5028.69895729
0.44500002 35973.71375002  3128.63403311
0.44600002 36070.81142014  3144.11242644
0.44700002 36164.92701917  2673.31153195
0.44800002 36254.97176521  2930.12695693
0.44900002 36343.21584364  2943.80062285
0.45000002 36428.00815952  4189.40327693
0.45100002 36508.36454492  4455.48102022
0.45200002 36586.49617980  3231.86829321
0.45300002 36660.84795396  3245.58502318
0.45400002 36732.59986166  3760.50008906
0.45500002 36800.97031092  3272.34243513
0.45600002 36865.79125945  2527.15011061
0.45700002 36927.44187813  2790.60691499
0.45800002 36985.14087027  3055.71248352
0.45900002 37039.89100619  2555.75260055
0.46000002 37092.09632696  2821.41044083
0.46100002 37139.81316291  3603.30484384
0.46200002 37185.00192299  3098.99820714
0.46300002 37226.49852461  3627.35018816
0.46400002 37264.23760688  3119.01683552
0.46500002 37299.56477126  2867.96367119
0.46600002 37330.76657589  4445.53454839
0.46700002 37358.63828592  3147.09183837
0.46800002 37383.93657037  3155.95207485
0.46900002 37405.08888404  3164.47066957
0.47000002 37422.67743092  3965.86842871
0.47100002 37437.41402281  3180.68284613
0.47200002 37448.54036941  5313.94813028
0.47300002 37456.98624778  2663.19184845
0.47400002 37460.76149696  3469.80319812
0.47500002 37462.29509392  3209.76959578
0.47600002 37460.82062881  3216.38621164
0.47700002 37454.98074662  3491.17892087
