# SAXS profile: number of points = 501, q_min = 0, q_max = 0.5, delta_q = 0.001
#    q    intensity    error
0.00000000 1682732.95097188 302.89193117
0.00100000 1682663.64485496 656.23883708
0.00200000 1682455.68262576 832.81558927
0.00300000 1682109.22608907 1513.89835741
0.00400000 1681624.15185464 1387.33997800
0.00500000 1681000.90843117 1664.19096522
0.00600000 1680239.23044207 1940.67639017
0.00700000 1679339.76555599 2821.29092339
0.00800000 1678301.99189113 3171.99089860
0.00900000 1677127.30449724 3270.39838357
0.01000000 1675814.74020739 5806.69832555
0.01100000 1674365.64924819 3616.62995984
0.01200000 1672779.48624098 3588.11215530
0.01300000 1671057.56448388 5965.67576832
0.01400000 1669199.32010928 4131.26850041
0.01500000 1667206.26782192 5201.68378723
0.01600000 1665077.50596389 6793.51652803
0.01700000 1662815.02300508 4938.56083986
0.01800000 1660418.41364560 5205.41196101
0.01900000 1657888.40372406 7957.86469695
0.02000000 1655225.68985423 5213.96115890
0.02100000 1652431.85868519 7088.93299516
0.02200000 1649505.15087367 8536.18954359
0.02300000 1646448.48774551 5927.21482568
0.02400000 1643261.56433473 6778.45426196
0.02500000 1639945.95514061 7035.36846886
0.02600000 1636501.80772941 7290.61588689
0.02700000 1632930.03042637 10973.29030705
0.02800000 1629230.66033848 9213.29980673
0.02900000 1625406.24458289 7314.32843645
0.03000000 1621457.02523831 8293.75306532
0.03100000 1617383.25859446 10092.47199802
0.03200000 1613186.07661850 8783.79859175
0.03300000 1608868.14700533 11487.31909919
0.03400000 1604427.59052896 12634.86785839
0.03500000 1599867.68340170 12958.92883397
0.03600000 1595188.24015587 8853.29514201
0.03700000 1590391.08038425 10878.27549292
0.03800000 1585477.37945384 11130.05171886
0.03900000 1580448.62893581 11379.23065531
0.04000000 1575303.62747123 11625.74130946
0.04100000 1570046.37720951 10880.42189855
0.04200000 1564677.24350589 15138.25303323
0.04300000 1559196.18019914 11319.76479369
0.04400000 1553607.01789209 12584.21742936
0.04500000 1547909.12800595 14952.80287132
0.04600000 1542103.19040400 11959.01079752
0.04700000 1536192.29833229 17696.93609984
0.04800000 1530176.63118311 13496.15851499
0.04900000 1524058.94602839 13716.53115273
0.05000000 1517838.80911890 12772.61417351
0.05100000 1511519.41270422 12968.83716514
0.05200000 1505099.35210269 11965.54040683
0.05300000 1498583.59371555 15780.08597746
0.05400000 1491970.89803992 16001.38862768
0.05500000 1485265.11508068 13723.85030355
0.05600000 1478464.58763081 13904.96009553
0.05700000 1471574.54631329 15363.23898064
0.05800000 1464593.46115550 19442.47910466
0.05900000 1457523.29607160 15741.25233278
0.06000000 1450367.24433141 13270.86090563
0.06100000 1443126.33890813 18789.50581064
0.06200000 1435801.39810026 18995.65338479
0.06300000 1428395.45375564 16455.11639663
0.06400000 1420906.56020223 23551.52733678
0.06500000 1413341.14633903 19588.90920458
0.06600000 1405696.78605301 15539.97869691
0.06700000 1397976.92047615 15685.30178180
0.06800000 1390184.26135249 18704.93011206
0.06900000 1382319.78134635 18868.66589879
0.07000000 1374382.70866213 16100.89418596
0.07100000 1366378.02161376 17708.25998953
0.07200000 1358304.59146218 20822.81036260
0.07300000 1350167.63089112 17984.23368613
0.07400000 1341965.82397410 15097.11622722
0.07500000 1333702.04116762 19765.46517656
0.07600000 1325376.32209193 18369.71668538
0.07700000 1316994.16940572 16949.71575500
0.07800000 1308553.68559396 17056.99809163
0.07900000 1300056.99040798 17160.75307829
0.08000000 1291508.43723736 21968.55954798
0.08100000 1282907.74782934 22091.67245412
0.08200000 1274255.81543081 15864.48564656
0.08300000 1265555.96002958 17540.60642923
0.08400000 1256808.69570533 19229.17394688
0.08500000 1248017.93127897 19319.31848315
0.08600000 1239182.97023783 25874.14163340
0.08700000 1230307.23251804 16240.05623183
0.08800000 1221389.60220498 17936.10715073
0.08900000 1212436.38609608 22915.04877353
0.09000000 1203445.40344491 18069.73358156
0.09100000 1194420.46040085 19779.60375351
0.09200000 1185361.82173013 26457.27710416
0.09300000 1176273.19809357 19902.54344701
0.09400000 1167152.97683712 16631.93070159
0.09500000 1158005.21146580 21677.85857756
0.09600000 1148831.33179595 25073.24499508
0.09700000 1139634.10350751 18427.88432006
0.09800000 1130414.55480397 18465.32262092
0.09900000 1121173.98166669 23544.65472213
0.10000000 1111912.78262986 20214.57533885
0.10100000 1102633.48412748 18557.32241065
0.10200000 1093338.60900228 18581.29053399
0.10300000 1084028.84825690 18601.93591114
0.10400000 1074707.06967021 23697.29200107
0.10500000 1065375.60772398 20327.36755176
0.10600001 1056031.03126227 20339.15861914
0.10700001 1046681.02081408 18651.85666862
0.10800001 1037323.14288791 18656.25760283
0.10900001 1027961.09006677 16961.35878440
0.11000001 1018595.39528351 16959.61412975
0.11100001 1009228.07534288 16955.03246389
0.11200001 999861.35173466 20337.18085170
0.11300001 990494.27159128 27099.92454662
0.11400001 981131.34720525 22001.87149702
0.11500001 971773.17017824 21981.51014450
0.11600001 962420.26051427 20268.57164091
0.11700001 953075.74740019 16869.44152345
0.11800001 943737.70306981 20214.86255184
0.11900001 934411.18701714 26911.04345365
0.12000001 925095.38221519 25185.72296718
0.12100001 915794.60119967 21786.75458887
0.12200001 906506.80904051 20070.06169768
0.12300001 897235.39408909 20026.29493960
0.12400001 887980.33427961 21644.52166790
0.12500001 878744.03553607 21590.74197049
0.12600001 869528.99799762 18220.98101168
0.12700001 860334.63851988 21473.95358945
0.12800001 851161.73464622 18116.97837578
0.12900001 842013.31185548 18061.18639056
0.13000001 832889.70201598 19639.54009924
0.13100001 823791.38385006 19573.28420292
0.13200001 814721.77835599 19504.44029329
0.13300001 805681.34388558 21052.45450821
0.13400001 796669.70081654 20972.33086275
0.13500001 787689.76247894 24103.30786828
0.13600001 778740.95008598 25605.00364612
0.13700001 769826.42516409 17528.94852753
0.13800001 760944.57590949 22211.97321822
0.13900001 752100.88300367 20532.35507427
0.14000001 743291.97053094 17292.68850994
0.14100001 734521.20310897 15645.30236410
0.14200001 725787.89280391 18681.78124190
0.14300001 717097.21827876 21685.02090358
0.14400001 708442.54284989 15408.62603381
0.14500001 699833.43645643 22989.52947206
0.14600001 691264.23826430 21339.32804189
0.14700001 682741.20925431 16672.54111654
0.14800001 674260.45050696 18083.66613576
0.14900001 665824.48374838 19475.36706850
0.15000001 657435.35873966 25314.54968268
0.15100001 649092.95165302 16279.25199559
0.15200001 640799.40109749 22059.52042370
0.15300001 632554.04362531 17534.39891672
0.15400001 624356.07300409 18871.16319710
0.15500001 616209.94506970 15861.24473463
0.15600001 608112.96457010 17185.27318981
0.15700001 600070.80400509 15643.84659875
0.15800001 592076.28035291 16945.22394349
0.15900001 584137.61593153 18225.09447730
0.16000001 576250.11767738 20874.66149820
0.16100001 568420.18424122 16575.13335489
0.16200001 560642.27329605 15078.47465209
0.16300001 552921.15457491 19042.60546252
0.16400001 545255.38014242 20242.60694343
0.16500001 537646.64704006 16064.88257200
0.16600001 530094.34020151 14606.75023388
0.16700001 522599.33634116 18437.30545663
0.16800001 515160.96159675 13059.33099309
0.16900001 507783.60540896 14243.33080426
0.17000001 500464.06526445 16687.97504424
0.17100001 493203.74667773 13997.12299168
0.17200001 486003.34184255 13872.96604802
0.17300001 478863.03842620 13748.15848247
0.17400001 471784.11554955 18576.50042706
0.17500001 464765.47707493 13496.79009168
0.17600001 457805.79041847 13370.21874063
0.17700001 450910.39579569 12039.30813637
0.17800001 444075.69234071 14308.11948302
0.17900001 437302.94351846 14168.61603923
0.18000001 430593.30454581 15197.79140181
0.18100001 423947.05977315 15045.88186206
0.18200001 417360.94400703 12602.21429959
0.18300001 410840.23869061 15874.86757292
0.18400001 404381.29607986 11221.58149633
0.18500001 397986.63594720 14434.97596774
0.18600001 391655.11367082 12084.51910323
0.18700001 385387.04801125 11954.70679411
0.18800001 379182.05750865 11824.79302208
0.18900001 373043.05922429 11694.90045924
0.19000001 366964.11630342 14718.93140038
0.19100001 360953.81303924 14553.65842940
0.19200001 355004.09931087 14388.31682494
0.19300001 349120.97709241 16255.07346152
0.19400001 343300.61006536 13054.00631459
0.19500001 337544.98233823 11908.58753963
0.19600001 331852.50758445 11767.49047503
0.19700001 326224.68753967 12595.53578114
0.19800001 320661.07112913 9571.73342555
0.19900001 315162.20895064 9454.86671536
0.20000001 309725.22053240 10272.03742443
0.20100001 304354.01290284 15677.27594557
0.20200001 299045.30290399 10927.11588457
0.20300001 293801.00776935 10788.37351520
0.20400001 288620.39620935 10650.09312351
0.20500001 283502.11627763 14016.34529127
0.20600001 278447.78022683 10374.96478166
0.20700001 273456.29863574 12797.75538109
0.20800001 268527.46482309 10943.83734618
0.20900001 263663.79694718 11627.57399502
0.21000001 258860.18149808 8192.92513171
0.21100001 254119.22040694 8889.09075005
0.21200001 249440.24891503 9563.53959551
0.21300001 244823.10176062 10216.46851946
0.21400001 240268.51843776 8523.52609454
0.21500001 235775.82748133 9930.87832302
0.21600001 231342.64481864 8283.22378935
0.21700001 226971.21831962 8164.15510895
0.21800001 222660.45720881 12434.47382073
0.21900001 218408.94340420 7207.49547312
0.22000001 214217.15754228 9231.68884078
0.22100001 210087.50260512 7695.50558430
0.22200001 206015.97194705 8958.60496372
0.22300001 202003.51919374 8823.51413561
0.22400001 198047.89019460 8689.35159318
0.22500001 194154.01590350 8556.36788547
0.22600001 190316.16786018 9720.39873312
0.22700001 186537.08371104 8293.43913398
0.22800001 182814.58237357 6907.64932165
0.22900001 179148.60370674 6180.62712017
0.23000001 175539.63855970 7298.93851649
0.23100001 171988.26056981 7182.23010106
0.23200001 168490.66526128 5888.74902938
0.23300001 165049.72616181 9269.19305963
0.23400001 161663.73217045 7408.24087709
0.23500001 158331.09386669 7846.88938316
0.23600001 155053.63523036 7165.80409109
0.23700001 151829.66878943 5420.31943215
0.23800001 148659.06241527 5862.37040363
0.23900001 145541.57834212 5763.44677496
0.24000001 142476.20821618 6180.61820476
0.24100001 139464.15769676 7593.82374579
0.24200001 136502.87416553 6468.18899829
0.24300001 133592.93625512 5867.40203787
0.24400001 130733.22988671 8167.55892353
0.24500001 127924.09111304 4720.39918537
0.24600001 125164.96502487 7883.51569502
0.24700001 122455.86501259 5010.89423336
0.24800001 119794.71452203 4921.76607897
0.24900001 117181.95172258 4833.75573723
0.25000001 114617.67695730 4746.89131575
0.25100001 112100.22018206 4661.12737568
0.25200001 109631.00672430 4160.49690202
0.25300001 107208.47181419 4493.10726630
0.25400001 104831.14517349 5212.72894037
0.25500001 102499.65732583 3935.98702753
0.25600001 100213.70127209 5022.20987686
0.25700001 97972.29082137  4549.83340101
0.25800001 95774.86513535  3720.85368656
0.25900001 93621.64857034  3651.24446700
0.26000001 91512.11205213  4299.23922763
0.26100001 89443.23477209  3515.11929287
0.26200001 87419.33753335  4483.30093753
0.26300001 85435.67915102  4059.90366536
0.26400001 83493.21798929  3982.62668654
0.26500001 81592.53475472  4557.75920707
0.26600001 79731.34715961  4151.21278630
0.26700001 77911.10021634  3445.22901460
0.26800001 76130.05032659  4607.77151406
0.26900001 74387.30599015  4217.76044923
0.27000001 72683.67510266  2954.59153274
0.27100001 71017.94424657  3187.28548862
0.27200001 69390.05906701  3409.82766392
0.27300001 67798.60403552  2786.52275773
0.27400001 66242.63594485  3005.75974824
0.27500001 64725.17382119  2679.62232301
0.27600001 63241.11807721  3415.96915460
0.27700001 61793.85787334  2834.48439480
0.27800001 60380.13690238  3032.29061875
0.27900001 59001.27133812  2973.66421618
0.28000001 57655.80218579  3402.26904801
0.28100001 56343.45404947  3574.99232864
0.28200001 55064.42080693  2571.23325128
0.28300001 53817.54506479  3438.94129241
0.28400001 52602.72849070  3148.27344918
0.28500001 51419.51401226  3088.25615775
0.28600001 50266.48732856  3029.56133469
0.28700001 49144.53219961  2547.65266981
0.28800001 48051.99033091  2083.05387944
0.28900001 46990.57346118  2248.49904655
0.29000001 45956.86568796  2607.82246690
0.29100001 44953.10934617  3150.31405210
0.29200001 43977.08277301  2126.07216730
0.29300001 43028.91917251  2277.09051040
0.29400001 42107.91961096  2235.93063718
0.29500001 41215.06753012  2378.93381045
0.29600001 40347.75727560  2156.99120606
0.29700001 39506.18434872  2472.29713358
0.29800001 38690.97813822  2255.87758714
0.29900001 37901.19080757  2899.44123404
0.30000001 37135.95170475  2012.02595861
0.30100001 36396.05356328  1978.48956536
0.30200001 35678.98977204  1783.77117810
0.30300001 34986.11545567  2712.12379852
0.30400001 34317.15620824  2512.01595337
0.30500001 33669.81718568  1854.53361839
0.30600001 33045.34968569  1673.91226758
0.30700001 32443.27350873  1948.54309918
0.30800001 31862.64308569  1476.83357694
0.30900001 31303.21362170  1601.15945256
0.31000001 30765.47413272  2296.33509799
0.31100001 30246.60260083  2264.86570998
0.31200001 29748.96808089  1676.05694103
0.31300001 29270.46550823  1654.36678885
0.31400001 28812.88757318  1361.40900229
0.31500001 28373.12614196  1479.37486709
0.31600002 27952.13025653  1594.94862795
0.31700002 27549.11866701  1576.91162716
0.31800002 27164.38928085  1819.74252409
0.31900002 26797.51457758  1286.28076063
0.32000002 26447.57628614  1400.79594432
0.32100002 26114.78577777  1387.47863407
0.32200002 25798.69730028  1624.93102640
0.32300002 25498.12412429  1858.81333668
0.32400002 25213.71431146  1352.08549398
0.32500002 24944.36059230  1585.71307794
0.32600002 24690.87973821  1332.19647936
0.32700002 24451.88937480  1323.33631563
0.32800002 24228.36899542  1554.37108651
0.32900002 24017.67001916  1545.53713892
0.33000002 23822.64112501  1774.19128180
0.33100002 23638.71296806  1412.64955387
0.33200002 23470.59927724  1641.29908518
0.33300002 23314.19243240  1284.84520579
0.33400002 23171.23426303  1280.79003454
0.33500002 23040.00585797  1161.21635023
0.33600002 22921.06297595  1737.98968246
0.33700002 22813.10571986  1619.27432068
0.33800002 22718.14449985  1732.82655379
0.33900002 22633.07569116  1385.14429790
0.34000002 22559.70747756  1269.32200134
0.34100002 22496.81817379  1731.13024046
0.34200002 22445.31276692  1616.73595517
0.34300002 22402.39466428  1502.75270525
0.34400002 22370.31265148  1736.49560181
0.34500002 22347.37853305  1623.76060111
0.34600002 22335.10568752  1395.05076731
0.34700002 22329.65362838  1398.72956953
0.34800002 22334.72221152  1753.83414472
0.34900002 22347.88058295  1759.89567926
0.35000002 22369.60577973  1648.86372012
0.35100002 22399.34638954  2128.83398169
0.35200002 22436.25920772  1544.39997571
0.35300002 22481.17541135  1671.25065924
0.35400002 22533.92361824  1439.91778741
0.35500002 22593.43769948  1327.13859333
0.35600002 22659.54253013  1456.10227195
0.35700002 22732.51314545  1586.95681785
0.35800002 22812.49048644  1596.98847214
0.35900002 22898.24223126  1483.80616687
0.36000002 22990.74563564  1244.94893514
0.36100002 23088.29779835  1880.54194475
0.36200002 23192.57784819  1767.97029311
0.36300002 23300.58251643  1272.21186566
0.36400002 23414.66339797  1410.14816994
0.36500002 23533.21174896  1421.17072484
0.36600002 23657.24475124  1432.56452377
0.36700002 23785.44238540  1575.54777824
0.36800002 23919.40720628  2118.30280253
0.36900002 24056.56485379  1468.65335389
0.37000002 24197.04045147  1615.87843789
0.37100002 24341.80132652  1901.58160971
0.37200002 24490.83104653  2192.41929914
0.37300002 24642.63354580  1520.69698815
0.37400002 24798.87289857  1813.41766661
0.37500002 24957.15375119  1970.61695354
0.37600002 25119.58819580  1562.56405774
0.37700002 25283.53250845  2293.72217782
0.37800002 25451.21814451  1446.90182006
0.37900002 25621.12246266  1606.44445451
0.38000002 25793.48663627  1621.50761420
0.38100002 25967.58329664  1785.53111206
0.38200002 26144.09064728  1952.57150249
0.38300002 26322.18257472  1516.15778813
0.38400002 26502.79889219  2754.96607536
0.38500002 26683.82685912  2162.99110767
0.38600002 26867.56312497  2651.42559260
0.38700002 27051.53192831  1574.39923281
0.38800002 27236.81687424  1748.19517389
0.38900002 27423.30854529  1764.68998849
0.39000002 27611.43535828  1943.29291258
0.39100002 27799.42855043  1798.06712383
0.39200002 27988.70288179  2309.90775827
0.39300002 28178.04345641  1665.32244717
0.39400002 28368.79351126  2017.02131421
0.39500002 28558.80243516  2035.67153402
0.39600002 28749.16404891  2054.41536027
0.39700002 28939.19870682  1900.43726912
0.39800002 29130.49005923  2092.15189518
0.39900002 29320.43500400  2286.99403867
0.40000002 29510.21244637  2130.04723530
0.40100002 29699.59775556  1969.97441246
0.40200002 29889.55382602  1806.82361439
0.40300002 30077.86415315  2187.26238485
0.40400002 30265.56130510  2022.49623004
0.40500002 30452.69325690  2967.31057154
0.40600002 30639.10657414  2805.77631747
0.40700002 30824.55636620  1886.46293899
0.40800002 31008.97693408  3424.32148508
0.40900002 31191.70307956  2110.11881331
0.41000002 31374.01224089  2707.89112482
0.41100002 31554.66107204  2925.11721998
0.41200002 31733.24132263  2752.22415032
0.41300002 31910.98345433  1981.67216641
0.41400002 32087.02637496  2197.15923513
0.41500002 32261.95329343  2415.77517708
0.41600002 32433.95451032  2028.74395075
0.41700002 32604.95806651  2862.06335469
0.41800002 32775.02359636  2883.87446289
0.41900002 32941.19346265  2282.82481513
0.42000002 33106.27353171  2090.66127259
0.42100002 33269.81069049  2948.37076310
0.42200002 33431.01335872  2757.55726756
0.42300002 33589.60454036  3631.70821499
0.42400002 33746.02223382  3011.83262709
0.42500002 33900.59781110  2816.12279361
0.42600002 34051.49554849  2180.99839323
0.42700002 34201.34466592  2634.87171792
0.42800002 34348.23474439  3978.55621897
0.42900002 34493.16266668  2447.29000717
0.43000002 34635.49246708  2463.10316352
0.43100002 34773.91471504  3154.68969244
0.43200002 34910.57967544  2947.67493458
0.43300002 35044.28974940  2509.52170788
0.43400002 35175.62202989  2524.73039084
0.43500002 35303.71487794  3232.40828740
0.43600002 35429.93894850  3019.16239057
0.43700002 35552.41876356  2569.37342580
0.43800002 35671.24352080  2818.74179659
0.43900002 35788.34953216  2834.43741727
0.44000002 35901.73769818  2849.88007354
0.44100002 36012.81382743  2387.64966991
0.44200002 36120.62068920  2640.23689440
0.44300002 36225.59402039  3860.19948175
0.44400002 36326.95813068  3152.27194118
0.44500002 36424.53084817  3411.52172092
0.44600002 36519.86256399  3183.25397125
0.44700002 36612.14020173  2460.33593816
0.44800002 36700.15317519  3460.45760689
0.44900002 36786.43990004  2731.39329202
0.45000002 36869.13728429  3491.87615768
0.45100002 36947.47245105  3757.55812635
0.45200002 37023.45696771  3018.89282422
0.45300002 37095.54178972  2778.82716716
0.45400002 37165.00769191  3043.81427422
0.45500002 37231.02706791  3565.24332099
0.45600002 37293.48346594  2556.46841275
0.45700002 37352.66058096  3849.19185530
0.45800002 37407.85739254  4378.40287602
0.45900002 37460.08167232  3101.69490947
0.46000002 37509.64869004  3371.93002880
0.46100002 37554.63275430  2862.78979054
0.46200002 37597.09151512  4177.78900717
0.46300002 37635.88001480  4191.13179709
0.46400002 37670.76042350  3153.04279689
0.46500002 37703.22222784  3426.09196623
0.46600002 37731.45468465  2907.39737852
0.46700002 37756.35509564  2915.54587867
0.46800002 37778.56412299  4252.35537923
0.46900002 37796.67619789  3197.59895790
0.47000002 37811.09024417  2938.48901760
0.47100002 37822.66655752  4016.76737879
0.47200002 37830.60496496  4026.12232422
0.47300002 37835.85757195  3497.16848113
0.47400002 37836.20183468  2965.41245935
0.47500002 37834.46020787  3511.79476295
0.47600002 37829.57551655  2706.70625650
0.47700002 37820.18612510  3254.04896844
