# SAXS profile: number of points = 501, q_min = 0, q_max = 0.5, delta_q = 0.001
#    q    intensity    error
0.00000000 1682732.95097188 277.65093691
0.00100000 1682663.63629308 656.23883374
0.00200000 1682455.64878001 908.52607911
0.00300000 1682109.14676450 1412.97173362
0.00400000 1681624.02055739 1639.58348234
0.00500000 1681000.70744543 1664.19076624
0.00600000 1680238.93186736 2117.10114034
0.00700000 1679339.36922267 2619.76952487
0.00800000 1678301.46778547 2492.27778489
0.00900000 1677126.62803923 2515.69004960
0.01000000 1675813.92987638 3318.11172443
0.01100000 1674364.65088775 3315.24215310
0.01200000 1672778.29434678 4892.87672549
0.01300000 1671056.18632963 4561.98358989
0.01400000 1669197.68304547 4882.40343935
0.01500000 1667204.42158281 4001.29078997
0.01600000 1665075.41381970 5519.72524356
0.01700000 1662812.62642207 5387.51315128
0.01800000 1660415.75639264 7098.27767798
0.01900000 1657885.45451337 4973.65658796
0.02000000 1655222.43091231 5735.34598255
0.02100000 1652428.25679156 5453.01349464
0.02200000 1649501.20476807 7967.09118099
0.02300000 1646444.13169272 10076.23854461
0.02400000 1643256.85704995 6778.43484441
0.02500000 1639940.87460730 8314.50061399
0.02600000 1636496.28908564 7290.59130134
0.02700000 1632924.10567218 8915.76602532
0.02800000 1629224.33424559 10630.68926847
0.02900000 1625399.40329460 8045.72741572
0.03000000 1621449.71943928 9801.66400455
0.03100000 1617375.43609499 9316.08294057
0.03200000 1613177.75805021 11179.32237819
0.03300000 1608859.29799998 9025.70107787
0.03400000 1604418.28619538 11792.47494765
0.03500000 1599857.75837419 12094.92521183
0.03600000 1595177.76795936 10623.88442558
0.03700000 1590380.01583406 9971.68316045
0.03800000 1585465.71796353 11129.96985519
0.03900000 1580436.36321750 11379.14234213
0.04000000 1575290.73736725 12594.45002887
0.04100000 1570032.85981587 9891.20747546
0.04200000 1564663.07730023 15138.11597518
0.04300000 1559181.24506719 14406.83537316
0.04400000 1553591.42606785 11535.41687428
0.04500000 1547892.97002366 13884.60058626
0.04600000 1542086.27471406 16307.56311319
0.04700000 1536174.65071860 13272.54959949
0.04800000 1530158.26963329 16869.99570764
0.04900000 1524039.80500152 14859.38879043
0.05000000 1517818.92780401 13933.57840607
0.05100000 1511498.73372271 15326.59787392
0.05200000 1505077.87616379 14358.44360772
0.05300000 1498561.33528806 20635.19054889
0.05400000 1491947.82677879 16001.14118840
0.05500000 1485241.13128476 17466.43651871
0.05600000 1478439.77048648 13904.72669028
0.05700000 1471548.90076786 14082.72363771
0.05800000 1464566.96501723 18145.98554384
0.05900000 1457495.94815728 15740.95697529
0.06000000 1450338.99041208 15924.72285871
0.06100000 1443097.15871911 16104.96504391
0.06200000 1435771.38259553 21708.86431959
0.06300000 1428364.46305310 17825.98933236
0.06400000 1420874.67155636 13853.52869556
0.06500000 1413308.27202592 20987.62882134
0.06600000 1405662.99910478 14126.91380198
0.06700000 1397942.15843395 14259.01068333
0.06800000 1390148.42375985 15826.84054535
0.06900000 1382282.91835423 17416.76558670
0.07000000 1374344.93722229 19027.80654689
0.07100000 1366339.25147862 23610.34337141
0.07200000 1358264.73306062 22309.49928565
0.07300000 1350126.74507377 22479.61135877
0.07400000 1341923.97301952 16606.30994436
0.07500000 1333659.04634749 18244.45660920
0.07600000 1325332.36485102 16838.34848482
0.07700000 1316949.10176413 18489.96625574
0.07800000 1308507.53236026 20157.55948132
0.07900000 1300009.78016387 20280.15352177
0.08000000 1291460.09024136 18829.48899903
0.08100000 1282858.23836149 22090.81990105
0.08200000 1274205.28336067 22209.39913116
0.08300000 1265504.25732631 17539.88982972
0.08400000 1256755.85092714 25637.82056232
0.08500000 1247963.94393964 17708.60919584
0.08600000 1239127.90971706 17787.68197915
0.08700000 1230250.99418341 17863.24527436
0.08800000 1221332.41433507 21196.22504624
0.08900000 1212377.80354211 18003.81122823
0.09000000 1203385.72864561 19711.45916117
0.09100000 1194359.61533043 24723.24519887
0.09200000 1185299.74727696 24802.39837715
0.09300000 1176209.99158861 18243.01782682
0.09400000 1167088.56666663 18294.11414228
0.09500000 1157939.64701836 16674.33170080
0.09600000 1148764.43252829 20057.42793480
0.09700000 1139566.12718365 23452.27200000
0.09800000 1130345.20708339 25178.44067161
0.09900000 1121103.52600828 20179.86441706
0.10000000 1111841.11153331 21897.71172144
0.10100000 1102560.74341152 21929.93421786
0.10200000 1093264.58069009 18580.03242276
0.10300000 1083953.62664663 18600.64510824
0.10400000 1074630.51525262 16925.43141149
0.10500000 1065297.73999409 22019.70532169
0.10600001 1055952.05978895 20337.63762849
0.10700001 1046600.87420334 18650.42845595
0.10800001 1037241.58921596 23742.46109451
0.10900001 1027878.37502051 18655.99338468
0.11000001 1018511.45943869 25437.32489680
0.11100001 1009142.82736432 16953.60029778
0.11200001 999774.97228867 18640.80523588
0.11300001 990406.72323083 25403.93364691
0.11400001 981042.50144557 16922.98394675
0.11500001 971683.04736659 18598.01440234
0.11600001 962328.89766628 23644.42212911
0.11700001 952983.19635618 21928.14438086
0.11800001 943643.98813144 18528.45057962
0.11900001 934316.25212047 23544.77066243
0.12000001 924999.30339138 21825.35959160
0.12100001 915697.26685959 18432.98685023
0.12200001 906408.13226167 20067.87699370
0.12300001 897135.41322036 18355.39141929
0.12400001 887879.29763197 19977.28513800
0.12500001 878641.78663786 23248.86276994
0.12600001 869425.57977163 16562.55807513
0.12700001 860229.98536839 21471.34144666
0.12800001 851055.84233079 23055.10385531
0.12900001 841906.22955649 16417.17225013
0.13000001 832781.53148782 27819.06837060
0.13100001 823682.02411248 17939.79533081
0.13200001 814611.25857211 17876.64491208
0.13300001 805569.77696018 17811.14860826
0.13400001 796556.73885427 17743.30219450
0.13500001 787575.63819543 16066.54377670
0.13600001 778625.78619134 20800.98885888
0.13700001 769710.06195176 27086.09835728
0.13800001 760827.08103072 25381.19262005
0.13900001 751982.23116843 26845.76691871
0.14000001 743172.33493582 18861.71475020
0.14100001 734400.49951573 28156.91647940
0.14200001 725666.17502587 21791.75626384
0.14300001 716974.30542780 27875.96230988
0.14400001 708318.57640267 20027.70869249
0.14500001 699708.25877099 24517.77854389
0.14600001 691138.06675187 22859.39263619
0.14700001 682614.12762119 15154.03434810
0.14800001 674132.27942470 15066.85715598
0.14900001 665695.38392261 19471.59089842
0.15000001 657305.23814919 19354.35365050
0.15100001 648961.68035724 17755.59241237
0.15200001 640667.22477236 17643.97620280
0.15300001 632420.87747648 14608.92295909
0.15400001 624222.09362956 17415.79723413
0.15500001 616075.04611270 20182.61946313
0.15600001 607977.17241991 21476.79462933
0.15700001 599934.08651589 14218.43852149
0.15800001 591938.60772571 16941.28375272
0.15900001 583999.07520139 15417.57631304
0.16000001 576110.84411291 18087.00080468
0.16100001 568279.96266784 20713.80561702
0.16200001 560501.38491485 15074.68545890
0.16300001 552779.32578372 17677.88367310
0.16400001 545112.81653411 18888.15998461
0.16500001 537503.25622213 18737.36439652
0.16600001 529950.30406144 19912.88361526
0.16700001 522454.49762404 19748.78094262
0.16800001 515015.40732920 19583.46178835
0.16900001 507637.27445039 14239.22622068
0.17000001 500316.96880641 16683.07011262
0.17100001 493056.05379422 17809.18550402
0.17200001 485855.23742862 13868.73840732
0.17300001 478714.27830087 18741.66488054
0.17400001 471634.60081038 13618.44974155
0.17500001 464615.33231498 14719.01442288
0.17600001 457655.22477194 15795.97082903
0.17700001 450759.28740939 13238.80089649
0.17800001 443924.17624255 14303.23763411
0.17900001 437150.82161463 15343.99456343
0.18000001 430440.74027869 11686.46665058
0.18100001 423794.04393024 16197.40912412
0.18200001 417207.34370876 13742.81055095
0.18300001 410686.36502783 17002.41631533
0.18400001 404227.03655377 13460.76095314
0.18500001 397831.98595511 12209.46422576
0.18600001 391500.19004066 16472.37127417
0.18700001 385231.77124657 11949.89010864
0.18800001 379026.46899237 12894.48108433
0.18900001 372887.28637879 14878.20342947
0.19000001 366807.95629272 11559.95328876
0.19100001 360797.60276230 14547.36003074
0.19200001 354847.88935282 13354.70094682
0.19300001 348964.32415490 10154.86231275
0.19400001 343143.99128015 14051.74710692
0.19500001 337388.14991716 11903.05449156
0.19600001 331695.69043807 9801.60811563
0.19700001 326067.86814966 10652.63775587
0.19800001 320504.18702032 12437.16556509
0.19900001 315005.13376580 12285.20079746
0.20000001 309568.25338373 12133.52826482
0.20100001 304197.07703028 10138.88905661
0.20200001 298888.47520951 13651.73175042
0.20300001 293644.31634300 10782.61980575
0.20400001 288463.72579448 13305.38998116
0.20500001 283345.65639214 12257.53367490
0.20600001 278291.52907433 8640.95238620
0.20700001 273300.39550805 11937.76184008
0.20800001 268371.85303030 11778.84118629
0.20900001 263508.46016216 10790.67195373
0.21000001 258705.10111492 9006.81852109
0.21100001 253964.41204582 8883.67555332
0.21200001 249285.78185210 8761.14921737
0.21300001 244669.08091504 8639.26565554
0.21400001 240114.85243002 7743.70435696
0.21500001 235622.66281107 8397.59209960
0.21600001 231189.93390789 8277.75597493
0.21700001 226819.16896751 10383.78204627
0.21800001 222508.77840342 10964.12057422
0.21900001 218257.87099314 7922.76109165
0.22000001 214066.71211797 7805.94302647
0.22100001 209937.68992411 9787.29556704
0.22200001 205866.83984719 8263.49534220
0.22300001 201855.06712397 7460.56363368
0.22400001 197900.20001060 10018.69809928
0.22500001 194007.01309986 7234.52186059
0.22600001 190170.03248349 9712.93486840
0.22700001 186391.72830576 8286.97663236
0.22800001 182670.14988402 8157.13592882
0.22900001 179005.00275241 6175.67288701
0.23000001 175396.88494759 7293.00282102
0.23100001 171846.35339834 6578.27871919
0.23200001 168349.79437330 7060.59070994
0.23300001 164909.83395990 5788.33544575
0.23400001 161524.93544887 6832.50509263
0.23500001 158193.32367900 7280.05710003
0.23600001 154916.85825351 6608.75348567
0.23700001 151694.04391290 8123.21643575
0.23800001 148524.64670859 9584.29590543
0.23900001 145408.27702181 7328.57750854
0.24000001 142344.17549027 7204.03906232
0.24100001 139333.29131185 6069.35845663
0.24200001 136373.31312429 5467.88824836
0.24300001 133464.71638323 5861.77062083
0.24400001 130606.30473982 4799.78192624
0.24500001 127798.55946256 6602.07389414
0.24600001 125040.70280224 5096.03408377
0.24700001 122333.08784570 5005.87019145
0.24800001 119673.35082067 4916.77985106
0.24900001 117061.98896751 5706.77223214
0.25000001 114499.23813761 4741.98617180
0.25100001 111983.34503261 6349.45596374
0.25200001 109515.68832835 4987.34468242
0.25300001 107094.68444977 4488.33843764
0.25400001 104718.99938512 4406.05210758
0.25500001 102389.10608782 4324.91604577
0.25600001 100104.87332431 3859.04304923
0.25700001 97865.24162791  4544.86203623
0.25800001 95669.39255656  4831.78289968
0.25900001 93517.97111534  5106.08146449
0.26000001 91410.21807817  5368.06531063
0.26100001 89343.03477565  5617.89029251
0.26200001 87321.01411548  4478.25842081
0.26300001 85339.18969726  3379.43207192
0.26400001 83398.64117139  3978.11537211
0.26500001 81499.86648356  3251.84482657
0.26600001 79640.50876732  4465.44353789
0.26700001 77822.25091351  4379.83648867
0.26800001 76043.18264991  4295.67959117
0.26900001 74302.49649469  3611.10150052
0.27000001 72600.89446174  2951.22649953
0.27100001 70937.13813798  3183.65891029
0.27200001 69311.28322015  3122.12690040
0.27300001 67721.90378235  3618.38149033
0.27400001 66168.15604165  3002.38022248
0.27500001 64652.68780427  3211.94568212
0.27600001 63170.82535920  2887.22270968
0.27700001 61725.68449905  3603.54563160
0.27800001 60314.33221931  3281.40139969
0.27900001 58937.65483833  2970.45794444
0.28000001 57594.38713242  4369.68635855
0.28100001 56284.30674830  2380.82628814
0.28200001 55007.45807979  2335.06670600
0.28300001 53762.94243359  3206.42203850
0.28400001 52550.35674019  2471.18064267
0.28500001 51369.50829757  2644.50241233
0.28600001 50218.81541516  2594.30412714
0.28700001 49099.24494749  2333.19623034
0.28800001 48009.03192638  2497.42995902
0.28900001 46950.03376806  2246.55922214
0.29000001 45918.70800144  2405.22203896
0.29100001 44917.42963596  1967.38351118
0.29200001 43943.86380764  2317.59948692
0.29300001 42998.10083985  2275.45960416
0.29400001 42079.54703959  2048.22204911
0.29500001 41189.15763735  2377.43829137
0.29600001 40324.28586154  2694.67053026
0.29700001 39485.21804926  2470.98506249
0.29800001 38672.65100294  2601.70271938
0.29900001 37885.29226281  1704.83823253
0.30000001 37122.58103817  2178.90999718
0.30100001 36385.23531582  1648.25123784
0.30200001 35670.75808496  1783.35963488
0.30300001 34980.41575318  1754.61773725
0.30400001 34314.05723819  2197.81547015
0.30500001 33669.29186913  2472.67291193
0.30600001 33047.34201564  1674.01318905
0.30700001 32447.91080660  1499.09355024
0.30800001 31869.84917500  2215.75136879
0.30900001 31313.06260831  1601.66322824
0.31000001 30777.86650570  1722.94504856
0.31100001 30261.60666071  1557.86758465
0.31200001 29766.59085629  1537.29565756
0.31300001 29290.75181239  3035.10784650
0.31400001 28835.71366769  1907.48254943
0.31500001 28398.62620127  1884.53292394
0.31600002 27980.30646259  1463.50999882
0.31700002 27579.94110786  1578.67590376
0.31800002 27197.80051907  1561.69777975
0.31900002 26833.50604690  1932.01252686
0.32000002 26486.14020823  1402.83848255
0.32100002 26156.00970358  2147.67005845
0.32200002 25842.53033156  1377.27771924
0.32300002 25544.61746240  1862.20270119
0.32400002 25262.81066708  1477.87449400
0.32500002 24996.08458006  1711.23203138
0.32600002 24745.14353514  1456.49921745
0.32700002 24508.83874803  1205.83492350
0.32800002 24287.87866727  1558.18892968
0.32900002 24079.73445926  1549.53098583
0.33000002 23887.25880673  1423.20294710
0.33100002 23705.95740092  1298.61240792
0.33200002 23540.41233745  1293.42801713
0.33300002 23386.47958339  1757.49402392
0.33400002 23246.07064687  1752.17265798
0.33500002 23117.43863676  1398.14275496
0.33600002 23000.95037888  1627.77733540
0.33700002 22895.56578159  1625.12733614
0.33800002 22803.04446287  1275.48835243
0.33900002 22720.46810771  1738.11589255
0.34000002 22649.59356952  1506.08479573
0.34100002 22589.17405258  1158.82468378
0.34200002 22540.07404280  1507.59292375
0.34300002 22499.60107726  1277.07741763
0.34400002 22469.99749698  1860.51588086
0.34500002 22449.39075171  1281.63577871
0.34600002 22439.47885704  1401.56991579
0.34700002 22436.43794251  1288.30032767
0.34800002 22443.87437482  1292.43056709
0.34900002 22459.35767607  1414.93960061
0.35000002 22483.28913803  1183.74522918
0.35100002 22515.37779284  1783.21800565
0.35200002 22554.53607589  1313.68901596
0.35300002 22601.75667640  1440.18400363
0.35400002 22656.71139684  1689.05791463
0.35500002 22718.42313008  1698.42939365
0.35600002 22786.64946191  1464.27016378
0.35700002 22861.82001569  1473.21575159
0.35800002 22943.89914892  1606.18773600
0.35900002 23031.78228489  1368.08793252
0.36000002 23126.32989978  1502.74898807
0.36100002 23226.00150522  1387.28913562
0.36200002 23332.28563674  1651.57591703
0.36300002 23442.29356662  1279.94928936
0.36400002 23558.33644928  1418.80087986
0.36500002 23678.81211209  2079.94695445
0.36600002 23804.77796879  1310.45308926
0.36700002 23934.87391764  1453.32561312
0.36800002 24070.74064648  1598.77866947
0.36900002 24209.78867279  1612.37200198
0.37000002 24352.00155550  1626.22674091
0.37100002 24498.57314282  1913.82862457
0.37200002 24649.27151808  2206.60289083
0.37300002 24802.81615105  1530.58185719
0.37400002 24960.77925132  1544.44828934
0.37500002 25120.71747435  1841.85109247
0.37600002 25284.71254493  1858.80573079
0.37700002 25450.28707493  1587.33448006
0.37800002 25619.48438048  1602.11453163
0.37900002 25790.86124552  1617.08707670
0.38000002 25964.73915738  1632.27340445
0.38100002 26140.29333760  1647.62276712
0.38200002 26318.23461100  2267.97397504
0.38300002 26497.69334496  1831.52065077
0.38400002 26679.57277038  1848.89448058
0.38500002 26861.96269414  2177.43079914
0.38600002 27046.93116991  1570.07442880
0.38700002 27232.18179682  2218.87827792
0.38800002 27418.68075473  1759.86810762
0.38900002 27606.27416221  2099.45724950
0.39000002 27795.49193417  1793.22624709
0.39100002 27984.56138298  1810.04151600
0.39200002 28174.90399658  1660.91066929
0.39300002 28365.19406045  1844.02135323
0.39400002 28556.92785027  2030.39766635
0.39500002 28747.85692505  2219.90961693
0.39600002 28939.11183900  2240.32144916
0.39700002 29129.97081289  2782.49494388
0.39800002 29322.07100022  2632.38904876
0.39900002 29512.87879663  1947.85009286
0.40000002 29703.32433676  2322.65155656
0.40100002 29893.31271146  2163.08021029
0.40200002 30084.00059791  2182.29350677
0.40300002 30272.81830446  2935.25260187
0.40400002 30461.17257600  1850.51632167
0.40500002 30648.75679415  2426.46219036
0.40600002 30835.71811372  2635.52895205
0.40700002 31021.51134919  2657.92321833
0.40800002 31206.32501844  2105.95894365
0.40900002 31389.38392307  2123.49192301
0.41000002 31572.01523478  2141.05631459
0.41100002 31752.92108726  2158.56367779
0.41200002 31931.74661943  1978.17179680
0.41300002 32109.73755432  2193.41627627
0.41400002 32285.81870782  2813.70923371
0.41500002 32460.86053035  2430.66935169
0.41600002 32632.92017067  2449.42710407
0.41700002 32803.93365956  3290.89078066
0.41800002 32973.95646766  2901.37856707
0.41900002 33140.09586262  2296.60875210
0.42000002 33304.96686646  2523.85050873
0.42100002 33468.37995114  2330.40340642
0.42200002 33629.42263066  2773.92305713
0.42300002 33787.74679220  3008.46111694
0.42400002 33943.85436574  2380.31290019
0.42500002 34098.12880312  3486.19285403
0.42600002 34248.62609932  2412.98706617
0.42700002 34398.03670150  2208.35406088
0.42800002 34544.48285273  2445.23133460
0.42900002 34688.86479092  3132.40463906
0.43000002 34830.65600911  2251.80201770
0.43100002 34968.49369204  2265.95849862
0.43200002 35104.55854840  3420.06177865
0.43300002 35237.58220450  2982.15672328
0.43400002 35368.18954875  2769.32937290
0.43500002 35495.54297913  2321.40862084
0.43600002 35620.99814964  2801.94784723
0.43700002 35742.60153351  2583.11793524
0.43800002 35860.56067746  2361.41803252
0.43900002 35976.83115491  3086.81225937
0.44000002 36089.18754829  3342.21981723
0.44100002 36199.27354250  3120.01553449
0.44200002 36306.05667038  2412.53758008
0.44300002 36409.98954765  3394.86758631
0.44400002 36510.29005798  3168.18056992
0.44500002 36606.61577281  2693.88098239
0.44600002 36700.73588112  2952.94134894
0.44700002 36791.81689613  2719.65123385
0.44800002 36878.53762288  3228.90051459
0.44900002 36963.52960284  4241.56522294
0.45000002 37044.94286115  3508.52670466
0.45100002 37121.86354338  3271.92120778
0.45200002 37196.41549189  2780.24620770
0.45300002 37267.03003396  3553.03881183
0.45400002 37335.03099552  2802.92758483
0.45500002 37399.51241003  3069.75212410
0.45600002 37460.45104749  3595.07965741
0.45700002 37518.03396304  4381.73139421
0.45800002 37571.55468642  2586.80166276
0.45900002 37622.10003984  4153.48004125
0.46000002 37669.96628785  2865.36612149
0.46100002 37713.28958015  2874.88420095
0.46200002 37753.95193217  3146.41450315
0.46300002 37790.94386503  4471.42469003
0.46400002 37824.00182827  3429.69152833
0.46500002 37854.63722243  3439.85104744
0.46600002 37880.95855444  3980.34190876
0.46700002 37903.93273786  4257.36992690
0.46800002 37924.24513967  3468.36200364
0.46900002 37940.38628794  4279.67577612
0.47000002 37952.78144059  3217.63696304
0.47100002 37962.29853649  3494.05012291
0.47200002 37968.13985746  3501.99154574
0.47300002 37971.31876369  3779.66524888
0.47400002 37969.58733906  2705.33322613
0.47500002 37965.65899195  2981.82299856
0.47600002 37958.63880639  2987.53480886
0.47700002 37947.09592982  3264.96828855
