# SAXS profile: number of points = 501, q_min = 0, q_max = 0.5, delta_q = 0.001
#    q    intensity    error
0.00000000 1664650.74656090 424.48594037
0.00100000 1664582.00806791 549.31207571
0.00200000 1664375.74630700 1048.55675338
0.00300000 1664032.12424589 1098.26124113
0.00400000 1663551.02508161 1746.72864271
0.00500000 1662932.88693826 1496.63965748
0.00600000 1662177.43792615 3316.04412367
0.00700000 1661285.34914951 2591.60525238
0.00800000 1660256.05944166 3362.01866231
0.00900000 1659090.97766032 3235.22754474
0.01000000 1657789.18613642 4376.56364038
0.01100000 1656351.96693438 3279.57703732
0.01200000 1654778.78613229 3226.81877443
0.01300000 1653071.01399903 4165.73913901
0.01400000 1651227.98278495 4458.31575116
0.01500000 1649251.30551186 5937.30496422
0.01600000 1647140.02916476 4200.20726213
0.01700000 1644896.08395884 5329.46355110
0.01800000 1642519.22191599 5617.41599172
0.01900000 1640010.01374274 5412.03328956
0.02000000 1637369.19167696 7220.79846193
0.02100000 1634598.36360146 5933.59232889
0.02200000 1631695.71600199 6755.22057115
0.02300000 1628664.24881415 8794.78734392
0.02400000 1625503.68391933 6705.20300191
0.02500000 1622215.37129349 8224.63230808
0.02600000 1618799.66613173 6556.13894770
0.02700000 1615257.42406349 8819.30593932
0.02800000 1611588.61938367 9113.53406056
0.02900000 1607795.86108601 7958.58987779
0.03000000 1603879.35171529 8949.64719394
0.03100000 1599839.38146984 8447.15232284
0.03200000 1595676.96141710 9478.32158737
0.03300000 1591394.89849553 8927.72579213
0.03400000 1586991.26883635 9998.04545498
0.03500000 1582469.29461712 13672.53533686
0.03600000 1577828.80018338 8756.95024571
0.03700000 1573071.56443827 11656.46083157
0.03800000 1568198.92788369 11926.15339849
0.03900000 1563212.16546226 10317.20076984
0.04000000 1558110.16870250 10540.61577971
0.04100000 1552896.93767276 10761.57627705
0.04200000 1547572.80216940 9981.84503708
0.04300000 1542137.64832215 16284.97432220
0.04400000 1536595.52421526 12446.42432418
0.04500000 1530945.64029853 12676.23049067
0.04600000 1525188.50259703 12903.09533180
0.04700000 1519327.48141515 13126.99004994
0.04800000 1513362.60179839 11123.21564076
0.04900000 1507296.62738926 14696.14280111
0.05000000 1501129.03915862 11483.63768431
0.05100000 1494863.24453815 11659.93385056
0.05200000 1488497.62815205 15383.62370385
0.05300000 1482037.36514100 18006.75482590
0.05400000 1475480.90233628 15824.53341552
0.05500000 1468832.25894907 13572.01070581
0.05600000 1462089.77582281 17501.21543328
0.05700000 1455258.69257996 15192.90145972
0.05800000 1448337.35903700 17944.90071636
0.05900000 1441328.00628948 16863.53846121
0.06000000 1434233.31441613 19684.85316001
0.06100000 1427054.65691297 13271.60892949
0.06200000 1419792.93071861 17442.15696919
0.06300000 1412450.91955066 17627.38830017
0.06400000 1405026.71748427 16438.81336336
0.06500000 1397527.01492034 20753.27714236
0.06600000 1389948.91710270 15365.88599752
0.06700000 1382296.22964452 14099.42220221
0.06800000 1374571.36083517 15649.49567565
0.06900000 1366775.47531642 20091.60042782
0.07000000 1358907.82834845 17366.84285956
0.07100000 1350973.34382774 23344.82047476
0.07200000 1342970.80793175 17646.63724291
0.07300000 1334905.37366156 20744.43047869
0.07400000 1326775.89044277 17911.47536038
0.07500000 1318584.92790242 16535.05577094
0.07600000 1310332.91752145 16647.78049757
0.07700000 1302025.02401119 24373.90959235
0.07800000 1293659.57655839 19928.82671147
0.07900000 1285238.54548693 18507.43592308
0.08000000 1276766.27328013 17063.98204288
0.08100000 1268242.27062283 17159.31872661
0.08200000 1259668.04951666 18819.44154288
0.08300000 1251046.13998106 23644.77315534
0.08400000 1242377.59918566 15840.31513314
0.08500000 1233666.12781541 19097.15255510
0.08600000 1224911.05288412 17583.59898973
0.08700000 1216115.76639583 20868.54753129
0.08800000 1207279.13097103 19340.61258646
0.08900000 1198407.36084147 19414.20015751
0.09000000 1189498.48020307 17860.32051925
0.09100000 1180556.04300339 17920.84157473
0.09200000 1171580.40428308 19612.25688921
0.09300000 1162575.39049681 16392.31377632
0.09400000 1153539.02938394 21369.31152364
0.09500000 1144475.85274624 23072.63427584
0.09600000 1135386.89127631 23127.83206249
0.09700000 1126275.07410235 18211.86880443
0.09800000 1117141.11246804 23225.36482021
0.09900000 1107986.87356752 21605.74505052
0.10000000 1098812.31692074 16647.00738421
0.10100000 1089620.12852101 18338.30762549
0.10200000 1080412.57313729 18361.61254413
0.10300000 1071190.56248108 20052.68827294
0.10400000 1061956.83769752 21743.56727478
0.10500000 1052713.87176800 18411.96648349
0.10600001 1043458.03079403 20097.00261873
0.10700001 1034197.37443133 21780.19773045
0.10800001 1024928.73005182 18433.34407749
0.10900001 1015656.37926303 18434.16415124
0.11000001 1006380.65571360 21783.11031824
0.11100001 997103.53912140 21776.74231952
0.11200001 987827.53972196 20092.41310384
0.11300001 978551.34828378 26773.16614955
0.11400001 969279.33618088 20064.08320365
0.11500001 960012.38721907 23385.90285385
0.11600001 950750.86031318 16685.67838425
0.11700001 941498.01859420 18330.96728532
0.11800001 932251.84910735 21632.90517741
0.11900001 923017.28700295 18275.74314348
0.12000001 913793.82230210 18243.89452164
0.12100001 904585.15852021 19864.69101689
0.12200001 895389.91742325 23127.92265663
0.12300001 886210.92415631 18131.87636251
0.12400001 877048.65699983 19733.59571229
0.12500001 867905.12863586 26245.45232665
0.12600001 858782.95780389 19631.77934051
0.12700001 849681.52031715 19576.66315068
0.12800001 840601.75358121 24398.46704758
0.12900001 831546.37007489 21079.70147493
0.13000001 822515.87933492 16162.43779075
0.13100001 813510.78695365 20939.76864324
0.13200001 804534.40550041 25680.73943417
0.13300001 795587.30361785 22387.82777924
0.13400001 786668.64957089 22302.05726678
0.13500001 777781.95488669 17453.42789056
0.13600001 768926.32738860 17381.58045017
0.13700001 760104.82965255 17307.58778730
0.13800001 751316.08790849 25063.90587453
0.13900001 742565.33650107 18712.64736228
0.14000001 733849.47422843 15520.91711191
0.14100001 725171.49414235 16990.76890909
0.14200001 716530.98276408 16906.54933572
0.14300001 707932.83516333 18349.61995294
0.14400001 699370.75516432 16732.44610657
0.14500001 690854.01541976 16642.67401653
0.14600001 682376.93708030 18055.69460691
0.14700001 673946.24509413 16457.76808162
0.14800001 665557.31205090 20825.28927658
0.14900001 657213.21706589 17744.75769799
0.15000001 648915.61292225 17637.52719142
0.15100001 640664.66427724 14607.15503476
0.15200001 632462.21775273 17418.01029881
0.15300001 624307.94407007 17305.81702627
0.15400001 616200.80511382 18624.67021348
0.15500001 608145.39665890 21345.90443010
0.15600001 600138.50396695 19786.56740962
0.15700001 592186.43071567 15438.30097740
0.15800001 584281.84655176 15328.63496778
0.15900001 576432.69159236 15217.82377633
0.16000001 568634.45062131 15105.77489378
0.16100001 560893.37823924 14992.68070805
0.16200001 553204.27787911 18936.18332570
0.16300001 545571.43508645 17447.37531772
0.16400001 537993.77705988 14646.88127193
0.16500001 530472.70477346 18492.27936145
0.16600001 523008.02456081 13101.35163380
0.16700001 515599.77784226 15591.73801811
0.16800001 508248.24197668 19326.14031367
0.16900001 500957.06923029 12774.40586855
0.17000001 493723.39169828 13930.40615456
0.17100001 486548.71095876 16318.84453615
0.17200001 479433.73121327 18661.95886875
0.17300001 472378.16811891 19726.51323222
0.17400001 465383.55127165 18324.47819671
0.17500001 458448.89594868 13313.35656711
0.17600001 451572.85928435 16784.96397234
0.17700001 444760.71468933 16625.15630030
0.17800001 438008.58572396 12936.58419038
0.17900001 431318.11808469 22126.62050286
0.18000001 424690.33562695 14989.44610398
0.18100001 418125.50124831 12556.30939560
0.18200001 411620.20132138 14688.66757802
0.18300001 405179.95405583 16774.45089032
0.18400001 398800.99437272 18813.43779829
0.18500001 392485.76809182 15330.49482591
0.18600001 386233.35551072 11917.23074729
0.18700001 380043.72746917 11788.95698306
0.18800001 373916.93449542 11660.60015316
0.18900001 367855.41806629 12580.65589227
0.19000001 361853.27020034 10367.09668107
0.19100001 355919.68189973 15375.73098457
0.19200001 350045.70513381 12160.58837095
0.19300001 344237.96325207 15025.98780597
0.19400001 338492.56381350 11881.08955128
0.19500001 332811.27834986 9784.65204586
0.19600001 327192.55755189 12569.10269233
0.19700001 321638.11098427 13373.71328674
0.19800001 316147.04930503 11324.38784128
0.19900001 310720.26271518 13050.25165079
0.20000001 305354.88243751 9206.45014060
0.20100001 300054.60998917 9091.65511236
0.20200001 294816.35658764 8977.15848239
0.20300001 289641.88331795 11521.95466297
0.20400001 284530.35387630 8749.30879524
0.20500001 279480.73072403 8635.95498757
0.20600001 274494.60759092 11932.28115599
0.20700001 269570.55425127 8410.60169020
0.20800001 264708.70149211 15767.37454970
0.20900001 259911.32248392 9005.92774979
0.21000001 255173.27938164 9691.48160905
0.21100001 250497.29490556 10355.55866094
0.21200001 245882.76836016 10998.33674869
0.21300001 241329.42397734 13169.34728903
0.21400001 236837.91747023 11457.03479927
0.21500001 232407.80225383 9036.01577883
0.21600001 228036.71520152 11133.89314611
0.21700001 223726.74970585 8779.03807353
0.21800001 219476.58805645 10814.70938781
0.21900001 215285.11746793 12077.49566099
0.22000001 211152.75388462 8399.65694669
0.22100001 207081.85739119 8964.57403034
0.22200001 203068.56782239 8151.17269781
0.22300001 199113.56083698 8697.28074861
0.22400001 195214.93444001 6588.50434890
0.22500001 191377.35274630 7785.23107786
0.22600001 187595.01571079 7026.37164571
0.22700001 183870.96020741 8803.74199105
0.22800001 180202.77167599 7427.95859975
0.22900001 176590.49117390 7310.84668034
0.23000001 173034.44591537 7194.77260141
0.23100001 169535.39603822 7079.79847338
0.23200001 166089.52457852 8707.24373783
0.23300001 162699.68644355 6852.91111711
0.23400001 159364.22312885 8426.38369647
0.23500001 156081.24192512 9392.96958331
0.23600001 152852.97443688 6520.70819789
0.23700001 149677.56250082 5877.83815742
0.23800001 146554.72930231 5779.38602339
0.23900001 143484.51707360 8264.70857436
0.24000001 140465.67150550 6601.18454464
0.24100001 137499.56929787 7486.85190241
0.24200001 134583.45767729 6867.79417013
0.24300001 131718.23981174 6267.15414670
0.24400001 128902.48634723 5684.59991681
0.24500001 126136.64262178 5585.33079950
0.24600001 123420.28055459 5487.26593303
0.24700001 120753.19377119 6288.82662910
0.24800001 118133.32356577 5294.73581269
0.24900001 115561.35799605 4766.90624285
0.25000001 113037.35289402 5107.02784536
0.25100001 110559.32878086 5850.79995588
0.25200001 108128.95985292 4103.49422055
0.25300001 105744.71375561 6043.31067704
0.25400001 103404.91558978 3955.23820844
0.25500001 101110.38660160 5435.69464088
0.25600001 98860.85339109  4954.41190210
0.25700001 96655.18682383  4114.61149777
0.25800001 94492.77361988  4405.25331459
0.25900001 92374.07784452  4323.10704767
0.26000001 90298.48712272  4595.74171956
0.26100001 88262.80532817  4162.47409623
0.26200001 86271.57228112  4424.43779379
0.26300001 84319.90116349  4006.88189288
0.26400001 82409.01011870  3930.90996867
0.26500001 80539.21214319  3534.86618823
0.26600001 78708.10426046  4097.93764223
0.26700001 76917.58003531  4638.13029561
0.26800001 75165.59079896  3336.22490548
0.26900001 73451.34037812  3867.21325391
0.27000001 71775.71321546  3501.21945634
0.27100001 70137.19813545  3147.75760128
0.27200001 68536.03396502  3087.20579605
0.27300001 66970.75868465  3853.49763708
0.27400001 65440.50467578  2969.36304019
0.27500001 63947.92650287  2647.44428251
0.27600001 62488.31593915  2856.02861516
0.27700001 61065.01093835  2801.05218431
0.27800001 59674.74070072  2497.38801652
0.27900001 58318.72092841  3429.14095288
0.28000001 56995.37402609  3123.06166757
0.28100001 55704.93204397  2591.95061068
0.28200001 54446.98782724  2311.27474266
0.28300001 53220.77614198  3627.52827353
0.28400001 52026.11638134  2891.35155474
0.28500001 50862.44584473  2400.19893302
0.28600001 49728.56609332  2568.97784598
0.28700001 48625.24899815  2940.85519861
0.28800001 47550.69831273  2679.71973025
0.28900001 46506.79022810  2832.26365895
0.29000001 45490.18304456  2184.21124227
0.29100001 44503.16438029  2144.16256134
0.29200001 43543.10850726  2296.46365138
0.29300001 42610.49475655  2254.94748926
0.29400001 41704.62704733  3137.23071814
0.29500001 40826.50833673  2175.23646715
0.29600001 39973.26573775  1780.80907292
0.29700001 39145.44395662  1749.80142769
0.29800001 38343.59593858  2407.59450296
0.29900001 37566.53460604  1859.54355103
0.30000001 36813.68974445  2326.99343891
0.30100001 36085.66214033  2288.55280128
0.30200001 35380.05097129  1929.62807132
0.30300001 34698.25257026  1740.46443132
0.30400001 34039.92321890  1713.05921709
0.30500001 33402.80370574  1993.14539148
0.30600001 32788.09120075  2566.81584117
0.30700001 32195.45479042  1784.91609808
0.30800001 31623.73062488  1465.75998386
0.30900001 31072.86285491  1589.37701028
0.31000001 30543.31882967  1567.33047995
0.31100001 30032.23193114  2108.26278138
0.31200001 29542.06252478  1803.09987157
0.31300001 29070.54479169  1643.06726942
0.31400001 28619.52825030  1757.95460601
0.31500001 28186.26582653  1469.63196978
0.31600002 27771.10606922  1320.51615611
0.31700002 27373.69478344  1828.01542419
0.31800002 26994.23946314  1420.84186142
0.31900002 26632.21685245  1406.18111639
0.32000002 26286.75880355  1392.27824595
0.32100002 25958.16699841  1880.66928808
0.32200002 25646.00282139  1242.54889553
0.32300002 25349.04880031  1478.35659604
0.32400002 25067.85977666  1588.67568857
0.32500002 24801.50029955  1819.19013311
0.32600002 24550.70428851  1565.47573309
0.32700002 24314.08631115  1794.37965473
0.32800002 24092.62937148  1426.76557894
0.32900002 23883.66145872  1418.68955783
0.33000002 23690.12008867  1764.32177715
0.33100002 23507.46353051  1873.07478281
0.33200002 23340.32578037  1865.35892470
0.33300002 23184.55249456  1742.31920247
0.33400002 23042.09451379  1157.86530415
0.33500002 22911.10584768  1385.66374729
0.33600002 22792.09264514  1267.35437155
0.33700002 22683.81377759  1610.09717818
0.33800002 22588.38465276  1378.34329679
0.33900002 22502.45855768  1491.91307303
0.34000002 22428.23436205  1606.08593873
0.34100002 22364.13908356  1720.92058398
0.34200002 22311.13894035  1262.69896813
0.34300002 22266.72062832  1148.96283884
0.34400002 22232.78128056  1610.76508006
0.34500002 22207.86585903  1613.62360974
0.34600002 22193.38746293  1501.71563380
0.34700002 22185.58322459  1737.13124876
0.34800002 22188.07025439  1161.54553283
0.34900002 22198.54407241  1631.59306660
0.35000002 22217.26290153  1286.71284188
0.35100002 22244.01518041  1526.82927430
0.35200002 22277.73960327  1297.56700465
0.35300002 22319.28708491  1303.66962038
0.35400002 22368.52162024  1310.23621596
0.35500002 22424.46348377  1436.95968810
0.35600002 22486.64564864  1565.40791097
0.35700002 22555.79121887  1695.74446415
0.35800002 22631.64562515  1218.71417464
0.35900002 22713.27435274  1349.16856046
0.36000002 22801.46971205  2098.98939376
0.36100002 22894.64931124  1740.45132308
0.36200002 22994.43227870  1252.04689688
0.36300002 23097.80829719  1261.14039276
0.36400002 23207.18683991  1524.71224760
0.36500002 23320.94950500  1536.38422616
0.36600002 23440.10583096  1548.45346454
0.36700002 23563.32367716  1560.83463431
0.36800002 23692.26973309  1573.64063021
0.36900002 23824.44710104  2380.06237814
0.37000002 23959.62998202  1333.35347166
0.37100002 24099.26142684  2151.58216211
0.37200002 24242.86385443  1763.30478598
0.37300002 24389.36448644  1641.89209500
0.37400002 24540.20643989  1380.38667763
0.37500002 24693.10643893  1531.96039604
0.37600002 24849.98247671  1545.79323319
0.37700002 25008.47888274  1843.37506577
0.37800002 25170.59483412  1574.04322252
0.37900002 25334.86844857  1444.08756998
0.38000002 25501.66334079  1603.16214187
0.38100002 25670.18954074  1617.99212340
0.38200002 25841.02596351  1929.93711551
0.38300002 26013.44379640  2247.56165048
0.38400002 26188.33814086  1663.61425921
0.38500002 26363.65653399  2137.03809989
0.38600002 26541.73946294  1694.82285370
0.38700002 26720.10103954  2332.66493126
0.38800002 26899.75157240  1883.52069433
0.38900002 27080.52987694  1901.05328743
0.39000002 27263.01463456  1918.77106088
0.39100002 27445.43997857  1613.79194720
0.39200002 27629.02357946  1954.47722061
0.39300002 27812.80390381  2301.23150403
0.39400002 27997.98201957  2322.43271855
0.39500002 28182.55878631  1841.44847834
0.39600002 28367.40434541  1689.27900880
0.39700002 28551.98980636  1875.00925942
0.39800002 28737.79645751  2407.94007926
0.39900002 28922.41703196  2082.41412496
0.40000002 29106.99825250  1750.78602784
0.40100002 29290.93451774  1942.86777861
0.40200002 29475.77879009  2672.71636842
0.40300002 29658.86317228  2156.79263208
0.40400002 29841.47622432  2719.30464978
0.40500002 30023.48797869  3291.17490816
0.40600002 30204.95702486  2397.21652786
0.40700002 30385.42033327  2789.38171876
0.40800002 30565.09112078  2250.20211493
0.40900002 30742.91429622  1890.68931880
0.41000002 30920.53832722  2096.87640601
0.41100002 31096.52845421  3074.82487924
0.41200002 31270.58278543  2712.09777349
0.41300002 31443.83838847  2147.92870209
0.41400002 31615.51331422  2361.67895648
0.41500002 31786.13830819  2776.83717418
0.41600002 31953.86123012  2198.58552612
0.41700002 32120.72292121  2215.36636485
0.41800002 32286.68487326  2840.90553661
0.41900002 32448.89608421  2044.28055017
0.42000002 32610.02625057  2265.25558083
0.42100002 32769.85226065  2281.76492103
0.42200002 32927.38322760  2507.09107775
0.42300002 33082.33458444  2314.44023720
0.42400002 33235.25861306  2754.37218808
0.42500002 33386.44269067  2986.75130464
0.42600002 33534.08951710  2362.64438888
0.42700002 33680.74188928  3027.22522446
0.42800002 33824.54367001  2394.27043714
0.42900002 33966.50192047  2848.09132099
0.43000002 34105.90459453  2645.93620383
0.43100002 34241.55043717  2884.50834552
0.43200002 34375.65089449  2232.69863140
0.43300002 34506.78882551  3369.58808849
0.43400002 34635.64609527  2485.97361629
0.43500002 34761.48528774  2955.42161922
0.43600002 34885.50102066  2286.74470027
0.43700002 35005.79222776  2759.85679002
0.43800002 35122.70392806  2775.39619592
0.43900002 35238.01474281  2325.70908324
0.44000002 35349.55032619  3039.88472436
0.44100002 35459.01766108  3056.21287704
0.44200002 35565.34346917  3072.31234118
0.44300002 35668.91183430  3800.87942519
0.44400002 35769.08725096  3103.86269330
0.44500002 35865.41664663  3599.09473105
0.44600002 35959.67788850  3375.53512336
0.44700002 36050.99014633  2664.88931791
0.44800002 36138.30459614  2677.30642289
0.44900002 36223.89603812  3423.15833783
0.45000002 36306.02565992  3192.93357798
0.45100002 36383.86824488  2960.19166069
0.45200002 36459.55561920  3468.39769043
0.45300002 36531.43153214  3234.12778681
0.45400002 36600.82838913  2997.60798714
0.45500002 36666.88599570  2508.01512097
0.45600002 36729.43370849  2769.58308005
0.45700002 36788.92530854  3032.87914618
0.45800002 36844.48346379  3297.76564872
0.45900002 36897.15972244  3564.26579811
0.46000002 36947.41907824  2810.40556538
0.46100002 36993.24318540  3332.72143653
0.46200002 37036.54398920  3343.84453255
0.46300002 37076.26110243  2838.55868454
0.46400002 37112.22525871  2847.43561793
0.46500002 37145.84901501  3375.44345997
0.46600002 37175.43863238  3124.96751955
0.46700002 37201.79521750  2611.56614805
0.46800002 37225.59550651  2880.70284481
0.46900002 37245.34173596  3938.69507526
0.47000002 37261.58003978  2895.78383004
0.47100002 37275.03679713  3694.70182245
0.47200002 37284.96119434  2909.90493433
0.47300002 37292.20585648  4242.36153931
0.47400002 37294.88054476  3454.43847419
0.47500002 37295.39890381  3195.46992954
0.47600002 37292.96394808  2668.31169696
0.47700002 37286.20802097  3742.78973855
