# SAXS profile: number of points = 501, q_min = 0, q_max = 0.5, delta_q = 0.001
#    q    intensity    error
0.00000000 1664650.74656091 349.57665678
0.00100000 1664582.06676104 599.24955827
0.00200000 1664375.97902140 1423.04150712
0.00300000 1664032.65343296 1297.94551591
0.00400000 1663551.96050663 1372.43041957
0.00500000 1662934.33413441 1795.96915195
0.00600000 1662179.54066582 2094.34630650
0.00700000 1661288.21216847 2392.25512495
0.00800000 1660259.80441552 4034.43149506
0.00900000 1659095.70787345 2488.64366819
0.01000000 1657795.00983173 3555.97044963
0.01100000 1656359.00969437 4472.16952089
0.01200000 1654787.19360064 5162.93627040
0.01300000 1653080.85215865 4165.76393117
0.01400000 1651239.38961474 4829.87542874
0.01500000 1649264.34927116 7124.82230611
0.01600000 1647154.83981810 4620.26953223
0.01700000 1644912.85184449 7994.27681858
0.01800000 1642537.95727096 5617.48006664
0.01900000 1640030.86914384 5412.10211238
0.02000000 1637392.26502752 5673.56445497
0.02100000 1634623.78790473 6473.11049358
0.02200000 1631723.57465666 5629.44658832
0.02300000 1628694.62979658 6449.63102757
0.02400000 1625536.64322306 6705.33895904
0.02500000 1622251.11479997 6959.45760033
0.02600000 1618838.21982739 7211.92459919
0.02700000 1615298.94005236 9497.95820252
0.02800000 1611633.17393476 10515.90694218
0.02900000 1607843.51545597 10129.41461246
0.03000000 1603930.28061279 10441.58660674
0.03100000 1599893.62281903 9215.38769147
0.03200000 1595734.69901228 16587.66296023
0.03300000 1591456.13864772 8928.06934940
0.03400000 1587056.01621803 9165.24891655
0.03500000 1582537.81044171 11109.41594231
0.03600000 1577901.10711864 10508.82185906
0.03700000 1573147.82112228 13450.41449264
0.03800000 1568279.08078170 12844.20626603
0.03900000 1563296.31693598 9379.77833599
0.04000000 1558198.49822393 14374.38181221
0.04100000 1552989.39145516 16632.51715368
0.04200000 1547669.51414647 10980.71571230
0.04300000 1542238.86509862 12214.53237855
0.04400000 1536701.05772354 14521.82566991
0.04500000 1531055.58657287 12677.14084587
0.04600000 1525303.03488779 13979.40296461
0.04700000 1519446.66261358 10940.01647962
0.04800000 1513486.44488573 16686.18883124
0.04900000 1507425.28599651 11305.69017123
0.05000000 1501262.53462505 17226.98838702
0.05100000 1495001.62229629 11661.01319713
0.05200000 1488640.96452142 15385.10508529
0.05300000 1482185.59342596 14406.84463972
0.05400000 1475634.15268536 15826.17702559
0.05500000 1468990.68571710 17275.33126991
0.05600000 1462253.33220796 18753.39986068
0.05700000 1455427.37704710 15194.66252564
0.05800000 1448511.42010703 19228.98999977
0.05900000 1441507.18706108 18162.99140529
0.06000000 1434417.85845911 17062.40122351
0.06100000 1427244.68416085 14600.71380128
0.06200000 1419988.19235972 20128.33356757
0.06300000 1412651.56915303 18986.03797711
0.06400000 1405232.84905735 19181.42928669
0.06500000 1397738.56334530 15221.37366685
0.06600000 1390166.08536648 16765.40377395
0.06700000 1382518.84328647 15511.86214761
0.06800000 1374799.63196379 14229.17685688
0.06900000 1367009.21259567 17224.31688513
0.07000000 1359147.13449299 23159.86825630
0.07100000 1351218.07472351 18971.10265768
0.07200000 1343221.17654790 20591.58160113
0.07300000 1335161.33665987 22230.43729701
0.07400000 1327037.45361144 17915.00646333
0.07500000 1318852.27884289 15034.91668353
0.07600000 1310605.83369171 22706.24713319
0.07700000 1302303.55345892 21331.73320587
0.07800000 1293943.71743288 18399.88052478
0.07900000 1285528.36565472 21596.87755597
0.08000000 1277061.49194049 17067.92764046
0.08100000 1268543.27515831 18723.69961982
0.08200000 1259974.47317126 26667.36097604
0.08300000 1251358.17605016 22073.95926150
0.08400000 1242695.27249132 17428.80201478
0.08500000 1233989.23098730 20694.00037514
0.08600000 1225239.55443777 15989.37693614
0.08700000 1216449.84284714 20874.28028347
0.08800000 1207618.54815891 17733.87921256
0.08900000 1198752.21804685 17801.47127413
0.09000000 1189848.68558016 19489.72238534
0.09100000 1180911.65191188 22815.21418682
0.09200000 1171941.38188186 17983.44134996
0.09300000 1162941.46555577 22956.46560884
0.09400000 1153910.50603265 21376.19312888
0.09500000 1144852.36616946 16485.87484772
0.09600000 1135768.67458171 28093.23948638
0.09700000 1126661.75378037 18218.12141511
0.09800000 1117532.89699156 18254.90073066
0.09900000 1108383.69022757 19950.90736224
0.10000000 1099214.00923617 16653.09302308
0.10100000 1090026.65230921 18345.14942117
0.10200000 1080823.93509150 20038.47669913
0.10300000 1071606.64030793 21732.18368774
0.10400000 1062377.64312828 16732.44866645
0.10500000 1053139.23200653 18419.40603442
0.10600001 1043887.98583959 20105.28355330
0.10700001 1034631.67552811 25141.55089844
0.10800001 1025367.65803631 18441.23819766
0.10900001 1016099.68956097 21795.33936689
0.11000001 1006828.09344678 16763.68854495
0.11100001 997555.21818023 20110.71414519
0.11200001 988283.17852089 25127.10099680
0.11300001 979011.01918520 25111.63382438
0.11400001 969742.99025873 23419.29431743
0.11500001 960479.94646057 18383.58704090
0.11600001 951222.10159188 16693.94866908
0.11700001 941972.89194903 25009.38145906
0.11800001 932730.40853994 18314.16243425
0.11900001 923499.29711423 18285.28694413
0.12000001 914279.20640420 16594.16837790
0.12100001 905073.86236218 19875.42295377
0.12200001 895881.72382752 18181.92044165
0.12300001 886706.01438320 23089.82570240
0.12400001 877546.68726288 19744.80139374
0.12500001 868406.16369069 37749.61771441
0.12600001 859286.82585485 19643.29776470
0.12700001 850188.25512230 22853.06137467
0.12800001 841110.88337277 17903.04599635
0.12900001 832058.17766437 21092.67579793
0.13000001 823029.94351830 17789.79306767
0.13100001 814027.18871362 20953.06082517
0.13200001 805052.78714889 25697.28617717
0.13300001 796107.81497979 19202.12140256
0.13400001 787191.20322677 19128.74714025
0.13500001 778306.41710939 19052.94198915
0.13600001 769452.38582293 17393.47200164
0.13700001 760632.60167179 20468.62427615
0.13800001 751845.34605690 15675.97620450
0.13900001 743096.03961418 17165.51932458
0.14000001 734381.24885212 18638.59697487
0.14100001 725704.63524502 20094.76229766
0.14200001 717065.15923709 16919.15323020
0.14300001 708467.91940515 22954.36167143
0.14400001 699906.56768678 16745.26542178
0.14500001 691390.56509946 18169.74490792
0.14600001 682914.19934542 19575.73644771
0.14700001 674483.91223986 19465.60662556
0.14800001 666095.38502544 17864.67906921
0.14900001 657751.43516281 19239.23038623
0.15000001 649453.88815043 16181.14438674
0.15100001 641203.15525809 17543.31915564
0.15200001 633000.42725418 17432.83258918
0.15300001 624845.85876493 18764.12202417
0.15400001 616738.35238289 15773.08410654
0.15500001 608682.33537215 24213.38444381
0.15600001 600674.88302903 14145.89416295
0.15700001 592722.17140636 15452.26773786
0.15800001 584816.58254785 16737.45138251
0.15900001 576966.59890099 18001.35873539
0.16000001 569167.24081451 15119.92846593
0.16100001 561424.85543784 17735.41202047
0.16200001 553734.38303131 24369.85134761
0.16300001 546100.10898139 17464.28230968
0.16400001 538520.87326864 14661.23146689
0.16500001 530998.05140402 26443.70420836
0.16600001 523531.47055438 14425.91035222
0.16700001 516121.50948593 13006.26265313
0.16800001 508767.86521054 12897.26599205
0.16900001 501474.62100963 15345.12412746
0.17000001 494238.71460699 16480.39071677
0.17100001 487061.60976056 15079.42815026
0.17200001 479943.93535808 18681.81856602
0.17300001 472885.85892564 14810.78580098
0.17400001 465888.55356054 15898.44764107
0.17500001 458951.06553202 14539.57044272
0.17600001 452072.00569717 14403.01478175
0.17700001 445256.74810342 17832.53360378
0.17800001 438501.49881369 16483.27211895
0.17900001 431807.70309877 11658.80853435
0.18000001 425176.54049410 18469.66979148
0.18100001 418608.25469219 17142.00883937
0.18200001 412099.46113308 11312.13074246
0.18300001 405655.49298540 12315.70134882
0.18400001 399272.77781730 16619.73016177
0.18500001 392953.62979103 13156.08814692
0.18600001 386697.22608220 11931.54347445
0.18700001 380503.48677387 11803.21871737
0.18800001 374372.43253227 13797.49665286
0.18900001 368306.68046418 12596.08906701
0.19000001 362300.28213123 10379.90357350
0.19100001 356362.09283634 13342.19738621
0.19200001 350483.54577394 11161.14904255
0.19300001 344671.25446379 13038.91417249
0.19400001 338921.09493755 13878.81949352
0.19500001 333235.10471311 12736.24630399
0.19600001 327611.34872143 10649.00739342
0.19700001 322051.91994887 15303.90795920
0.19800001 316555.84356281 14173.78856536
0.19900001 311123.94414067 14000.57814800
0.20000001 305753.35274911 10140.31042317
0.20100001 300447.75609427 10013.92418390
0.20200001 295204.17362532 9887.86426292
0.20300001 290024.24703150 8874.74237863
0.20400001 284907.27683386 9636.98909440
0.20500001 279852.06565331 8647.42923742
0.20600001 274860.19492362 12801.61418367
0.20700001 269930.49725121 10106.19829480
0.20800001 265062.81695978 9140.69167494
0.20900001 260259.53976856 12297.26383537
0.21000001 255515.75232169 12130.61091491
0.21100001 250833.81224539 8774.16716713
0.21200001 246213.23372972 10226.46714641
0.21300001 241653.88307510 11635.63502015
0.21400001 237156.38929840 14531.75844127
0.21500001 232720.09298319 8294.14450605
0.21600001 228342.74944775 8175.81253052
0.21700001 224026.48121924 8058.23291045
0.21800001 219770.14821414 10107.22959424
0.21900001 215572.35260394 9959.44316120
0.22000001 211433.64323968 9111.73328624
0.22100001 207356.36135860 6904.96715973
0.22200001 203336.61854109 8161.93225417
0.22300001 199375.09670157 7368.90392253
0.22400001 195469.92366719 8576.24330644
0.22500001 191625.89729622 7795.34187063
0.22600001 187836.96698203 8314.60373664
0.22700001 184106.28563041 6926.07879294
0.22800001 180431.59334581 8057.17318188
0.22900001 176812.73338932 6710.04354945
0.23000001 173250.07233144 7804.04987724
0.23100001 169744.44976404 8860.66069673
0.23200001 166291.98829430 9299.04842520
0.23300001 162895.40241062 6861.15467403
0.23400001 159553.15753532 7311.52378986
0.23500001 156263.74605977 6084.91055936
0.23600001 153028.67111279 6528.20341844
0.23700001 149846.57189336 7489.33201746
0.23800001 146717.06901382 6837.74932481
0.23900001 143640.07048922 5688.14706042
0.24000001 140614.52165540 7116.50127759
0.24100001 137641.75923342 5496.03570616
0.24200001 134719.12716937 6874.71738464
0.24300001 131847.11757227 4825.60473141
0.24400001 129024.71412410 6638.32185570
0.24500001 126252.29889473 5590.45205951
0.24600001 123529.30997261 4576.76115099
0.24700001 120855.61254709 5394.99479932
0.24800001 118229.26250785 4857.44947993
0.24900001 115650.71448840 4770.59219833
0.25000001 113120.08606977 6814.35430722
0.25100001 110635.60448653 5436.63386167
0.25200001 108198.73003984 4927.37039913
0.25300001 105808.00109702 4434.41353577
0.25400001 103461.84030664 5936.12336844
0.25500001 101160.99044798 5049.95688209
0.25600001 98905.01852034  5337.90410209
0.25700001 96693.01854399  5613.02999205
0.25800001 94524.39716189  4406.72760419
0.25900001 92399.44563967  3603.57855045
0.26000001 90317.64712845  3889.52965762
0.26100001 88275.91141561  4856.94087590
0.26200001 86278.46443441  3744.05414129
0.26300001 84320.80199462  4340.83509208
0.26400001 82403.88671255  3603.11011700
0.26500001 80528.12272779  4498.30114843
0.26600001 78691.19866774  4412.21571808
0.26700001 76894.82992847  3709.40677128
0.26800001 75136.97366010  4547.66554598
0.26900001 73416.97394427  3568.06510254
0.27000001 71735.69335558  3499.26728748
0.27100001 70091.57274571  3431.68356403
0.27200001 68484.86820206  3926.23767983
0.27300001 66914.09242400  3850.23706029
0.27400001 65378.31685451  2696.85569788
0.27500001 63880.44489565  2644.65054384
0.27600001 62415.58974354  3112.04145189
0.27700001 60987.09842215  2543.16212456
0.27800001 59591.54333852  2493.90620675
0.27900001 58230.47309190  2934.81598273
0.28000001 56902.17381950  2878.11208801
0.28100001 55606.59227217  2587.37486088
0.28200001 54343.91311803  2537.58914315
0.28300001 53112.91848821  2488.87147816
0.28400001 51913.51747806  2219.30297723
0.28500001 50745.21124045  3265.45449788
0.28600001 49606.75520316  3203.35636886
0.28700001 48498.95398178  2723.70138454
0.28800001 47420.03322404  2466.79024508
0.28900001 46371.77542659  2017.17232654
0.29000001 45350.92337243  2375.48147869
0.29100001 44359.62077799  3303.01751948
0.29200001 43395.52099110  2097.95656162
0.29300001 42458.94631172  2059.68358308
0.29400001 41549.27397559  2206.26655254
0.29500001 40667.28250340  2527.87840007
0.29600001 39810.25871457  1773.54710969
0.29700001 38978.82248004  2613.53017101
0.29800001 38173.34041992  2396.90415843
0.29900001 37392.87018424  2019.21508554
0.30000001 36636.59881764  2315.79952089
0.30100001 35905.26870596  1626.50874938
0.30200001 35196.43215854  1599.67791734
0.30300001 34511.56200972  2045.84549279
0.30400001 33850.15321015  2322.96687402
0.30500001 33210.07653754  1524.34258524
0.30600001 32592.54078636  2251.32986140
0.30700001 31997.10691255  2217.39961402
0.30800001 31422.76534915  2184.66786433
0.30900001 30869.27403455  1578.96344162
0.31000001 30337.25566476  1981.32626127
0.31100001 29823.74627816  2233.20222704
0.31200001 29331.30170036  1514.81514803
0.31300001 28857.54585943  1359.19047433
0.31400001 28404.40132478  1476.31882875
0.31500001 27969.06446217  1856.02720559
0.31600002 27551.96103398  1310.09580920
0.31700002 27152.70366461  1683.73923396
0.31800002 26771.50528305  1537.21990614
0.31900002 26407.84591984  1901.36499626
0.32000002 26060.75081629  1254.82521122
0.32100002 25730.66432251  1739.90760387
0.32200002 25417.17311242  1847.19314341
0.32300002 25118.85826589  2075.32016820
0.32400002 24836.53134006  1816.17144024
0.32500002 24569.02195817  1561.85279984
0.32600002 24317.15521566  1312.03217179
0.32700002 24079.56849313  1421.65779115
0.32800002 23857.18885610  1412.82279096
0.32900002 23647.54556717  1287.60891711
0.33000002 23453.23309665  1397.34369407
0.33100002 23270.06784432  1506.50426358
0.33200002 23102.29502246  1500.14759832
0.33300002 22946.21577426  1149.60546473
0.33400002 22803.33931127  1260.45464012
0.33500002 22672.07196636  1371.20697746
0.33600002 22552.90947684  1254.05459085
0.33700002 22444.53955570  1137.93820936
0.33800002 22349.09298799  1250.09657548
0.33900002 22263.28538535  1362.51313011
0.34000002 22189.14730074  1361.96992582
0.34100002 22125.27970503  1475.53497341
0.34200002 22072.63162883  1135.63695109
0.34300002 22028.53186171  1250.33952769
0.34400002 21995.07122098  1252.06948855
0.34500002 21970.67779325  1710.41734721
0.34600002 21956.78752454  1257.13592926
0.34700002 21949.70524059  1374.92960139
0.34800002 21952.93342359  1953.70140256
0.34900002 21964.29033052  1268.43782666
0.35000002 21983.97577346  1273.20201722
0.35100002 22011.67175744  1510.88122099
0.35200002 22046.42915638  1284.09432703
0.35300002 22089.09382617  1524.81021904
0.35400002 22139.48739743  1178.92775975
0.35500002 22196.66981356  1422.36266902
0.35600002 22260.27301008  1311.24144377
0.35700002 22330.66854509  1199.15695767
0.35800002 22408.03850177  1448.00751657
0.35900002 22491.16248914  1578.87968152
0.36000002 22580.97696520  1345.03595664
0.36100002 22675.74320856  1354.42220600
0.36200002 22777.26530870  1736.31101673
0.36300002 22882.35983708  1624.18997817
0.36400002 22993.55185550  2014.23523795
0.36500002 23109.15096690  1776.16942745
0.36600002 23230.24738713  1662.47273301
0.36700002 23355.38408924  2191.66934675
0.36800002 23486.33755418  1819.95638328
0.36900002 23620.53918792  1966.40998054
0.37000002 23757.93806754  1983.19397413
0.37100002 23899.65104284  1733.68076877
0.37200002 24045.55395053  1479.88368799
0.37300002 24194.26126130  1628.75774527
0.37400002 24347.37755227  2191.26408351
0.37500002 24502.60517711  1381.94699745
0.37600002 24661.89509768  1813.01930399
0.37700002 24822.78174860  1548.19697100
0.37800002 24987.37152018  2130.79820732
0.37900002 25154.19736888  1577.16824974
0.38000002 25323.47905029  1591.96058591
0.38100002 25494.55103898  3506.01082497
0.38200002 25667.95146147  1474.62388132
0.38300002 25843.06374092  1637.41659620
0.38400002 26020.68382160  1652.96401807
0.38500002 26198.64028829  2123.66188238
0.38600002 26379.48100338  2450.12631167
0.38700002 26560.58400899  2009.57388132
0.38800002 26742.97864343  2184.63402888
0.38900002 26926.57121349  2047.76583780
0.39000002 27111.92034606  2703.19414617
0.39100002 27297.14820733  1605.07239063
0.39200002 27483.62636112  2592.25576119
0.39300002 27670.37045549  1798.85086854
0.39400002 27858.42482464  1650.61174906
0.39500002 28045.90176878  1832.51930839
0.39600002 28233.70052334  1849.44864040
0.39700002 28421.29740159  2036.10184232
0.39800002 28609.99631234  2397.23170459
0.39900002 28797.58956900  2073.42654720
0.40000002 28985.11581953  1917.80027906
0.40100002 29172.17760671  2286.80711094
0.40200002 29359.94203222  1952.28943793
0.40300002 29546.12231211  1969.54460664
0.40400002 29731.68115752  1806.19971590
0.40500002 29916.77506020  2186.31802499
0.40600002 30101.20494032  2205.21437841
0.40700002 30284.77596811  1853.42837707
0.40800002 30467.48339775  3177.60633153
0.40900002 30648.38447744  2073.36330814
0.41000002 30829.01052507  2850.91288339
0.41100002 31008.02227114  2107.92545387
0.41200002 31185.12214813  1931.91840862
0.41300002 31361.36900732  2531.80343992
0.41400002 31536.06838449  1963.12034995
0.41500002 31709.66492695  2176.55150372
0.41600002 31880.43215267  2193.53323820
0.41700002 32050.28467388  2813.37412198
0.41800002 32219.29010598  2429.97897494
0.41900002 32384.50330941  2244.24618568
0.42000002 32548.56201873  2466.53014666
0.42100002 32711.28991607  2277.68722478
0.42200002 32871.82477370  2294.28911880
0.42300002 33029.72009701  2310.75932748
0.42400002 33185.55904782  2538.69538746
0.42500002 33339.61587836  3195.60233337
0.42600002 33490.18649915  2788.56051099
0.42700002 33639.68707460  2807.56841629
0.42800002 33786.29646775  3478.63724916
0.42900002 33931.08882032  2407.41086588
0.43000002 34073.39126747  2202.84484983
0.43100002 34211.76809930  2216.92267789
0.43200002 34348.59625628  2230.94143256
0.43300002 34482.51754499  2244.81199856
0.43400002 34614.08124367  2484.42579900
0.43500002 34742.63143317  2953.81866443
0.43600002 34869.27869568  2514.24945950
0.43700002 34992.31695354  2988.69393263
0.43800002 35111.80776776  2543.32391618
0.43900002 35229.65771691  2790.18902341
0.44000002 35343.83565321  2337.99483926
0.44100002 35455.83271483  3761.15491263
0.44200002 35564.63756209  3308.57838920
0.44300002 35670.69329112  2613.23511435
0.44400002 35773.27829210  2626.65308308
0.44500002 35872.10070477  3119.79674614
0.44600002 35968.73340306  3376.38516456
0.44700002 36062.42603916  3635.09271702
0.44800002 36152.04742428  3165.29266224
0.44900002 36239.92734453  3180.05377519
0.45000002 36324.29264569  2457.33851394
0.45100002 36404.38168812  3208.68235406
0.45200002 36482.22766804  2726.86423628
0.45300002 36556.37118048  2738.43789491
0.45400002 36627.87059375  2749.83751515
0.45500002 36696.00506328  3765.01029793
0.45600002 36760.60914516  2771.93386396
0.45700002 36822.10676942  2529.67885495
0.45800002 36879.74623293  3300.92184302
0.45900002 36934.37298039  2803.31904207
0.46000002 36986.54124088  3069.14333763
0.46100002 37034.18023526  3079.76257433
0.46200002 37079.37923137  2832.67931064
0.46300002 37120.87749617  3358.69715504
0.46400002 37158.64541181  3110.17876838
0.46500002 37194.02966158  3899.79419485
0.46600002 37225.33937930  3389.92569124
0.46700002 37253.33664359  3399.73966323
0.46800002 37278.69811932  3933.83480549
0.46900002 37300.02758726  3155.58248345
0.47000002 37317.89268034  3427.46201568
0.47100002 37332.84562442  3171.79871458
0.47200002 37344.26060918  3444.44804054
0.47300002 37352.95860554  2921.37503100
0.47400002 37357.01546248  3726.36246900
0.47500002 37358.91746006  5334.85366616
0.47600002 37357.81635965  2672.95188723
0.47700002 37352.32112155  3213.79386163
