# SAXS profile: number of points = 501, q_min = 0, q_max = 0.5, delta_q = 0.001
#    q    intensity    error
0.00000000 1646666.22097351 345.79990640
0.00100000 1646598.10816186 839.76505511
0.00200000 1646393.72099639 814.96491770
0.00300000 1646053.22830681 1185.15836660
0.00400000 1645576.50730891 1604.43715559
0.00500000 1644963.98346508 1628.51440809
0.00600000 1644215.41708809 1726.42625823
0.00700000 1643331.45812618 2169.19761488
0.00800000 1642311.52890932 2438.83272340
0.00900000 1641157.03584256 2707.90922490
0.01000000 1639867.10750915 3246.93701307
0.01100000 1638442.96586625 4128.87645375
0.01200000 1636884.12991807 3511.11661261
0.01300000 1635191.93338240 4464.07417502
0.01400000 1633365.67475261 4410.08751734
0.01500000 1631407.00000612 5873.06546154
0.01600000 1629314.97652606 4985.70405105
0.01700000 1627091.51204658 5271.77673552
0.01800000 1624736.34414851 5093.54866810
0.01900000 1622250.05505781 5353.42542325
0.02000000 1619633.32567668 6632.39876867
0.02100000 1616887.85147644 6402.87618214
0.02200000 1614011.68173040 6682.00866594
0.02300000 1611007.92342816 6379.59166716
0.02400000 1607876.26965173 8441.35080058
0.02500000 1604618.02705506 6258.01059132
0.02600000 1601233.55781700 6484.99620577
0.02700000 1597723.79644143 8723.57232812
0.02800000 1594088.57524970 9014.57130644
0.02900000 1590330.56423210 7872.13665439
0.03000000 1586450.01635325 8114.69220664
0.03100000 1582447.14100076 8355.32128894
0.03200000 1578322.95670498 10937.77859374
0.03300000 1574080.26326041 10436.15262653
0.03400000 1569717.04296195 9065.11634137
0.03500000 1565236.73448064 10987.96238346
0.03600000 1560638.96817027 12126.16534308
0.03700000 1555925.58250958 10642.53147656
0.03800000 1551097.88713993 11796.09997762
0.03900000 1546157.08074838 12060.02578834
0.04000000 1541102.25749053 10425.55725503
0.04100000 1535937.14639642 15482.24715353
0.04200000 1530662.21334621 10860.04890752
0.04300000 1525277.48022647 12080.19820413
0.04400000 1519786.67809598 11284.41660893
0.04500000 1514189.18047143 11492.69641379
0.04600000 1508485.40814827 12761.78714619
0.04700000 1502678.88752276 10819.28849335
0.04800000 1496769.41299763 13201.50683688
0.04900000 1490759.94136433 13416.84009680
0.05000000 1484649.71315071 17036.35625172
0.05100000 1478442.37483354 14991.40637917
0.05200000 1472136.10225102 15214.52732578
0.05300000 1465736.23126954 13059.71042943
0.05400000 1459240.95329060 13242.61226867
0.05500000 1452654.60275407 15862.98900207
0.05600000 1445975.27087519 12363.08914290
0.05700000 1439208.25814762 15025.33491642
0.05800000 1432352.00236329 16479.21055664
0.05900000 1425408.56540017 17960.14876289
0.06000000 1418380.55000273 14276.00090274
0.06100000 1411269.57972071 14437.28847522
0.06200000 1404076.26719894 15922.22561430
0.06300000 1396803.54476955 16091.17758809
0.06400000 1389449.48471848 16256.55973147
0.06500000 1382020.87095722 16418.40871499
0.06600000 1374514.62517285 15195.25989225
0.06700000 1366934.51358535 15337.00596018
0.06800000 1359283.03785620 16882.29612042
0.06900000 1351561.18222500 18448.81100112
0.07000000 1343768.48043848 21466.70248026
0.07100000 1335909.59493268 14427.82430104
0.07200000 1327983.53880577 15995.56247426
0.07300000 1319995.21251310 14651.94754542
0.07400000 1311943.56979128 20663.11219257
0.07500000 1303831.16628542 23781.88158776
0.07600000 1295658.40646937 19454.31188517
0.07700000 1287430.35832536 19581.81666829
0.07800000 1279145.48933217 18189.44971132
0.07900000 1270805.77010561 15249.66995653
0.08000000 1262415.15082928 27609.02064380
0.08100000 1253973.54438799 16966.26285160
0.08200000 1245482.40177549 20158.13361866
0.08300000 1236944.01756811 21819.69349394
0.08400000 1228359.77905931 21926.22308540
0.08500000 1219732.99387966 25175.29017553
0.08600000 1211063.14820679 22126.12475659
0.08700000 1202353.84540535 23806.60725693
0.08800000 1193603.46392139 20714.98908921
0.08900000 1184818.54031525 23992.57656831
0.09000000 1175997.05466086 19262.83266023
0.09100000 1167142.48330306 19327.88043155
0.09200000 1158255.11289925 16157.65958414
0.09300000 1149338.83108155 21067.38176373
0.09400000 1140391.62756903 19500.69774791
0.09500000 1131418.01977872 19550.90430072
0.09600000 1122419.18457856 21230.55987430
0.09700000 1113397.65214973 22913.72475848
0.09800000 1104354.28290082 24599.49280823
0.09900000 1095291.41720699 18072.30923372
0.10000000 1086208.29780555 19747.26778276
0.10100000 1077107.97313108 16479.75276398
0.10200000 1067992.52660818 18150.53384344
0.10300000 1058862.93144678 19821.91500912
0.10400000 1049721.92013398 16533.12101991
0.10500000 1040571.95841045 18199.60440888
0.10600001 1031409.35121934 29797.41755880
0.10700001 1022242.37352779 18216.35995348
0.10800001 1013067.50404712 19876.38536482
0.10900001 1003889.18801240 18220.58961999
0.11000001 994707.50394253 16561.88072020
0.11100001 985524.74741562 18212.49818956
0.11200001 976343.33278415 23168.62837768
0.11300001 967162.04077925 18192.31884357
0.11400001 957984.87074218 21482.81173790
0.11500001 948812.96970867 19811.21574039
0.11600001 939646.43448103 18139.87527189
0.11700001 930488.81630568 23057.51395395
0.11800001 921338.13124937 18090.47505911
0.11900001 912198.93841572 19703.49799785
0.12000001 903071.12459881 18029.81585191
0.12100001 893957.78735398 24539.14241886
0.12200001 884858.14696717 24488.45037100
0.12300001 875774.77788712 16289.41163617
0.12400001 866708.16573942 26001.24619730
0.12500001 857660.36486506 16209.78165976
0.12600001 848633.81095962 17783.12234666
0.12700001 839628.13104739 19345.03305099
0.12800001 830643.76611136 30538.61950035
0.12900001 821684.10696681 24034.26126156
0.13000001 812748.83536869 20761.66997809
0.13100001 803839.24245084 22282.42485108
0.13200001 794957.95020763 19031.29422511
0.13300001 786106.28171208 22121.03181023
0.13400001 777282.52647939 17313.96909361
0.13500001 768490.96800617 21948.10308107
0.13600001 759730.00622719 23418.67854616
0.13700001 751003.19639137 17100.34358817
0.13800001 742308.94765845 15477.14228851
0.13900001 733652.50046207 20028.71420713
0.14000001 725030.73923494 24535.04137280
0.14100001 716446.79742995 19838.41275647
0.14200001 707899.99422547 16702.90115155
0.14300001 699395.19913490 16617.63071526
0.14400001 690926.42258095 25547.00567998
0.14500001 682502.66797172 17936.17096038
0.14600001 674118.30417825 22296.46396252
0.14700001 665780.32442376 17736.38867939
0.14800001 657483.53860354 17633.70933728
0.14900001 649231.34115292 16068.47645166
0.15000001 641025.27783889 20326.91251935
0.15100001 632865.85982393 28858.68456967
0.15200001 624754.17786302 15771.91996438
0.15300001 616690.57569519 15670.10826787
0.15400001 608673.82708710 15566.83386237
0.15500001 600708.41887791 18273.55096465
0.15600001 592790.92241825 18148.29494634
0.15700001 584928.27583754 22180.48126661
0.15800001 577112.50579948 22022.61426075
0.15900001 569352.00692146 17763.78345441
0.16000001 561641.73215142 16276.37816603
0.16100001 553988.13587889 16154.29480478
0.16200001 546386.39907303 22710.55174955
0.16300001 538840.30696839 14581.01939490
0.16400001 531349.05119582 15781.06756553
0.16500001 523913.85516547 16959.09229237
0.16600001 516534.79138144 14233.11684850
0.16700001 509211.52257258 15398.55716963
0.16800001 501944.55605756 13996.72460654
0.16900001 494737.46201542 16400.54764021
0.17000001 487587.25478584 21261.24324889
0.17100001 480495.72002243 16115.82721056
0.17200001 473463.33652573 13515.01157934
0.17300001 466489.91953199 13392.92622224
0.17400001 459576.84039477 16889.44968213
0.17500001 452723.24305921 14342.27301747
0.17600001 445927.70918609 13023.31936186
0.17700001 439195.64822340 14071.82923370
0.17800001 432522.80448773 13935.88541882
0.17900001 425911.22045830 17249.40524331
0.18000001 419361.75688026 12524.23946081
0.18100001 412874.83271924 14652.92850536
0.18200001 406446.75055950 14504.05297886
0.18300001 400083.16621377 15459.21427278
0.18400001 393780.37419858 12020.14649025
0.18500001 387540.53070256 11893.61944914
0.18600001 381363.08788420 10697.23512053
0.18700001 375247.66003792 12698.38141562
0.18800001 369194.69722619 12560.00419305
0.18900001 363206.32141923 14491.93290933
0.19000001 357276.65648193 16377.56270695
0.19100001 351415.07170087 11132.82999751
0.19200001 345612.11978626 10005.47134058
0.19300001 339875.10088836 10879.40249352
0.19400001 334199.81781761 10752.87964640
0.19500001 328588.04012610 11592.58660346
0.19600001 323037.94485086 13364.08041002
0.19700001 317551.75437748 12260.67381592
0.19800001 312128.13534037 12112.13286429
0.19900001 306768.22493492 17485.78964767
0.20000001 301469.10055011 14542.87009785
0.20100001 296234.36718410 12566.26244986
0.20200001 291061.12614312 14180.49873591
0.20300001 285950.91662172 14000.15753951
0.20400001 280902.89914202 11229.09392395
0.20500001 275916.27132414 11936.13846167
0.20600001 270992.43430817 10097.17857960
0.20700001 266130.04181599 14115.53808515
0.20800001 261329.27351334 10650.47504549
0.20900001 256592.12830253 10507.44815069
0.21000001 251913.75681557 7973.07078012
0.21100001 247296.77158001 10223.24902041
0.21200001 242740.46632213 9306.66991876
0.21300001 238244.82419713 7647.65921827
0.21400001 233810.28291447 10556.53477266
0.21500001 229436.50172585 10407.24021031
0.21600001 225121.10242890 8060.46145355
0.21700001 220866.13080412 10111.25194627
0.21800001 216670.29773189 9964.66746382
0.21900001 212532.41295280 7714.92695496
0.22000001 208453.05728928 6910.21917587
0.22100001 204434.41788108 8169.19972480
0.22200001 200472.75209447 8717.55803703
0.22300001 196568.53250333 8586.11390574
0.22400001 192720.27260052 7154.74045862
0.22500001 188932.39142150 8326.25088367
0.22600001 185198.82683542 7567.22442234
0.22700001 181523.12051073 7449.70921805
0.22800001 177902.59341479 6722.04981006
0.22900001 174337.28204480 6014.63651498
0.23000001 170827.42998897 5919.17072905
0.23100001 167374.06588237 6989.54132180
0.23200001 163973.20823841 6877.03667876
0.23300001 160627.55076130 6201.83002821
0.23400001 157335.70037202 5546.08370042
0.23500001 154095.84125161 6545.99164597
0.23600001 150909.79332591 7510.78076907
0.23700001 147776.15624184 7913.41354104
0.23800001 144694.31180427 8299.66611766
0.23900001 141664.44835232 8159.87261105
0.24000001 138685.27126406 6517.51463134
0.24100001 135758.32442962 6899.23837386
0.24200001 132880.75003705 7749.60570873
0.24300001 130053.35168558 5711.94347622
0.24400001 127274.74419708 7951.49001985
0.24500001 124545.50738218 6434.02121572
0.24600001 121865.15944289 4966.61480804
0.24700001 119233.31620658 5322.57548725
0.24800001 116648.16229546 4792.48997463
0.24900001 114110.29057783 5134.96331892
0.25000001 111619.75634719 5042.98083034
0.25100001 109174.55913640 6190.19779589
0.25200001 106776.44175335 4457.38277187
0.25300001 104423.87177240 4774.25964331
0.25400001 102115.07697001 4687.08225467
0.25500001 99851.09572178  5367.99515997
0.25600001 97631.37052147  6021.90321868
0.25700001 95454.95415961  4432.92828091
0.25800001 93321.24419693  6888.50796632
0.25900001 91230.68516248  3913.79657865
0.26000001 89182.65953298  4189.80154310
0.26100001 87174.05607180  4111.12867887
0.26200001 85209.10329159  4369.94906908
0.26300001 83283.28856984  3627.82022176
0.26400001 81397.80400786  3882.67543490
0.26500001 79552.78540652  3174.15628792
0.26600001 77745.82823505  4047.83673860
0.26700001 75979.04543658  4581.53665662
0.26800001 74250.16503548  3894.79259124
0.26900001 72558.52132678  3232.48227807
0.27000001 70905.00360013  3746.97509256
0.27100001 69287.95426789  3392.33840149
0.27200001 67707.91104291  3049.90299726
0.27300001 66163.14573816  4622.81921150
0.27400001 64652.94972766  3200.32116297
0.27500001 63179.85435767  3138.77531303
0.27600001 61739.26786926  3334.84671178
0.27700001 60334.63951482  3019.14550421
0.27800001 58962.34746393  2714.33179396
0.27900001 57624.00239937  3146.27067991
0.28000001 56317.70833217  2611.17067040
0.28100001 55043.82456162  3026.86005590
0.28200001 53802.13758022  2512.29093321
0.28300001 52591.63252932  2688.48438215
0.28400001 51412.29320386  2857.23833004
0.28500001 50263.41398895  3450.08089950
0.28600001 49143.97128665  2327.21287043
0.28700001 48054.59559824  2283.55449091
0.28800001 46993.55670686  2037.17077967
0.28900001 45962.64519170  2199.31267652
0.29000001 44958.81634734  3139.92388232
0.29100001 43984.04331261  2697.10166360
0.29200001 43035.82022001  1891.42438820
0.29300001 42114.64893455  2785.88415889
0.29400001 41219.92811834  1823.98190558
0.29500001 40352.57146575  1791.65425789
0.29600001 39509.50431464  2464.20790075
0.29700001 38691.68840917  2248.37411989
0.29800001 37899.34137356  2889.63541982
0.29900001 37131.55184865  2172.19588598
0.30000001 36387.48161752  1807.18436009
0.30100001 35667.87595418  2262.05680010
0.30200001 34970.36830803  2384.10497227
0.30300001 34296.39599004  2502.26516989
0.30400001 33645.47730641  2770.70518735
0.30500001 33015.47048238  1666.95118357
0.30600001 32407.57656874  2387.79035463
0.30700001 31821.41308173  2058.20909557
0.30800001 31255.84105383  1448.70830143
0.30900001 30710.79320563  1713.66234201
0.31000001 30186.83336169  1830.68059589
0.31100001 29680.92711730  1805.78769131
0.31200001 29195.83590346  2193.19129691
0.31300001 28728.92676875  2165.01202380
0.31400001 28282.18682027  1336.33339053
0.31500001 27853.19431207  1716.31391477
0.31600002 27441.80514203  1696.31526517
0.31700002 27047.96010512  1419.20653391
0.31800002 26671.88584737  1531.49975787
0.31900002 26312.92249881  1768.22847564
0.32000002 25970.18543710  1500.55738561
0.32100002 25644.19936114  1238.61488779
0.32200002 25334.45938915  1595.69100018
0.32300002 25039.60555036  1338.61737611
0.32400002 24760.35835660  1689.89453786
0.32500002 24495.72869055  1317.62530866
0.32600002 24246.38880096  1427.14251240
0.32700002 24010.99498563  1299.47511016
0.32800002 23790.56511606  1526.28377730
0.32900002 23582.51276688  1400.80132469
0.33000002 23389.54014839  1393.54886803
0.33100002 23207.49301471  1849.17313098
0.33200002 23040.56383617  1496.13908355
0.33300002 22884.98167147  1490.49892685
0.33400002 22742.41703039  1485.64846286
0.33500002 22611.25526272  1367.52878305
0.33600002 22491.91531077  2046.53947104
0.33700002 22383.08912029  1361.78720657
0.33800002 22286.96487027  2039.92599118
0.33900002 22200.19544743  1811.53603430
0.34000002 22125.04447760  1471.20490221
0.34100002 22059.83084465  1244.83631352
0.34200002 22005.56594025  1358.62370549
0.34300002 21959.80616615  1246.43865702
0.34400002 21924.34023038  1361.50159279
0.34500002 21897.77504177  1704.74186774
0.34600002 21881.55606248  1366.72205639
0.34700002 21871.95189808  1255.88753747
0.34800002 21872.50025916  1145.02544280
0.34900002 21880.99893855  1493.37824829
0.35000002 21897.57222942  1498.77940223
0.35100002 21922.10347316  1388.98454184
0.35200002 21953.55223998  1278.68471078
0.35300002 21992.66539591  1751.71588175
0.35400002 22039.45726926  1173.60115517
0.35500002 22092.85684685  1415.71033380
0.35600002 22152.43786141  1779.39465550
0.35700002 22218.84673548  1431.78255145
0.35800002 22291.97601427  1680.59215132
0.35900002 22370.82325718  1932.83922097
0.36000002 22456.20808844  1945.60596094
0.36100002 22546.40531555  1713.97781327
0.36200002 22643.29378345  1232.92740491
0.36300002 22743.60078714  1490.16079416
0.36400002 22849.93549288  1501.24083299
0.36500002 22960.65154985  1638.70177873
0.36600002 23076.70168030  1270.37248768
0.36700002 23196.72704897  2048.73503001
0.36800002 23322.49967994  1419.99046028
0.36900002 23451.55554699  1431.71753396
0.37000002 23583.51612596  1574.90728149
0.37100002 23719.97527632  1455.93215143
0.37200002 23860.35617509  2002.48048685
0.37300002 24003.58425439  1885.24159664
0.37400002 24151.15797216  1901.90378040
0.37500002 24300.84737883  1507.62464280
0.37600002 24454.44420140  1797.76855063
0.37700002 24609.72414572  2093.05713775
0.37800002 24768.65924875  1548.90817950
0.37900002 24929.65998025  1847.28789205
0.38000002 25093.26149971  2007.71194770
0.38100002 25258.57400345  1447.31635896
0.38200002 25426.18844670  1752.88151456
0.38300002 25595.49113168  1916.59046674
0.38400002 25767.22316394  1934.47437068
0.38500002 25939.31555679  1501.88644189
0.38600002 26114.40548809  1515.94131040
0.38700002 26289.73844091  1989.08170467
0.38800002 26466.34425748  1698.74238664
0.38900002 26644.12220486  1714.54934511
0.39000002 26823.65775044  2202.49064223
0.39100002 27003.14745698  2064.12068940
0.39200002 27183.81057649  1922.98285129
0.39300002 27364.86810229  2102.44291591
0.39400002 27547.21331918  2121.82420644
0.39500002 27729.06957049  1811.81749158
0.39600002 27911.27130117  1662.11628473
0.39700002 28093.23733438  3018.89942698
0.39800002 28276.32685878  1692.33824268
0.39900002 28458.46790569  1878.25897077
0.40000002 28640.65179347  2756.37645920
0.40100002 28822.12732725  1911.77179619
0.40200002 29004.59029453  2103.99307965
0.40300002 29185.44937541  1945.50214754
0.40400002 29365.77614683  1783.97098544
0.40500002 29545.65740030  2159.19674512
0.40600002 29724.97034064  2722.06428792
0.40700002 29903.45634560  2196.10993807
0.40800002 30081.21542190  2583.67571501
0.40900002 30257.08443849  2419.05401548
0.41000002 30432.88213865  3001.89963639
0.41100002 30607.10177953  2648.12657144
0.41200002 30779.56197078  2097.47334988
0.41300002 30951.18981291  2306.48277415
0.41400002 31121.34067577  2712.22496841
0.41500002 31290.51123774  2928.79199063
0.41600002 31456.83200426  1967.62493510
0.41700002 31622.45670609  2181.00094236
0.41800002 31787.20986430  1997.82623464
0.41900002 31948.29154765  3421.66218689
0.42000002 32108.29528146  2027.63894310
0.42100002 32267.17029301  3472.27035976
0.42200002 32423.86522601  2674.48264990
0.42300002 32577.99563980  2486.35274505
0.42400002 32730.23015813  2295.20749860
0.42500002 32880.77465029  2521.29791966
0.42600002 33027.90593895  2115.43747563
0.42700002 33174.08555639  2342.75403301
0.42800002 33317.45079531  3215.96709041
0.42900002 33459.16477513  2373.92785329
0.43000002 33598.39209591  2172.13615193
0.43100002 33733.87079611  2404.55042429
0.43200002 33867.99890910  3079.61728674
0.43300002 33999.17901575  2434.68132469
0.43400002 34128.16856537  2449.54941486
0.43500002 34254.33632175  2688.28044192
0.43600002 34378.62997292  3154.92702212
0.43700002 34499.33636567  3399.90975995
0.43800002 34616.79348403  3647.22553432
0.43900002 34732.68329645  2521.59292682
0.44000002 34844.89828136  2996.48716971
0.44100002 34955.14802671  2317.52642400
0.44200002 35062.33337295  2795.87059566
0.44300002 35166.86401414  2810.53590520
0.44400002 35268.08144125  2589.55900254
0.44500002 35365.56854604  3075.74364221
0.44600002 35460.97529316  2615.42435670
0.44700002 35553.58044026  3105.96093446
0.44800002 35642.36199381  2640.56451345
0.44900002 35729.40048352  2652.90811163
0.45000002 35813.05724476  2907.30412491
0.45100002 35892.55929385  2920.21876254
0.45200002 35969.93585161  2932.98870834
0.45300002 36043.75214968  2945.49556527
0.45400002 36115.05066624  3204.30802222
0.45500002 36183.09850810  3217.40127182
0.45600002 36247.66858136  3478.68891862
0.45700002 36309.34764854  3242.78799218
0.45800002 36367.18956510  4006.20979236
0.45900002 36422.17255875  2764.44302823
0.46000002 36474.88176617  3783.35729051
0.46100002 36523.23203423  3290.37812991
0.46200002 36569.12389662  3047.67092999
0.46300002 36611.42378802  2802.97073806
0.46400002 36650.12512915  2811.98098381
0.46500002 36686.56995924  2820.83049786
0.46600002 36719.10093738  3086.60777109
0.46700002 36748.41148454  3353.66019103
0.46800002 36775.24026406  3104.56593024
0.46900002 36798.08761507  2594.26529982
0.47000002 36817.60573555  2861.28036535
0.47100002 36834.34080565  2607.87145264
0.47200002 36847.61079492  2875.77192079
0.47300002 36858.19335711  3406.80297347
0.47400002 36864.41708647  2626.58984190
0.47500002 36868.46567658  2632.40857408
0.47600002 36869.65653716  3165.62886032
0.47700002 36866.68520255  2907.67559974
