# SAXS profile: number of points = 501, q_min = 0, q_max = 0.5, delta_q = 0.001
#    q    intensity    error
0.00000000 1646666.22097351 321.09991309
0.00100000 1646598.11424031 543.37739060
0.00200000 1646393.74338795 740.87720798
0.00300000 1646053.28261090 1086.39520522
0.00400000 1645576.60273964 1727.85549853
0.00500000 1644964.11954539 2220.70164928
0.00600000 1644215.63494597 1726.42648698
0.00700000 1643331.73893899 2169.19798555
0.00800000 1642311.89365166 2660.54538004
0.00900000 1641157.50996194 3692.60455526
0.01000000 1639867.68786815 3517.51634236
0.01100000 1638443.67279347 3244.11861338
0.01200000 1636884.96279429 5426.27388957
0.01300000 1635192.89829616 3777.29576166
0.01400000 1633366.82262423 4410.09061659
0.01500000 1631408.29678830 6264.60813862
0.01600000 1629316.42004349 6232.13558526
0.01700000 1627093.17330153 6150.41247098
0.01800000 1624738.22343165 6019.65538868
0.01900000 1622252.12098415 5840.10789906
0.02000000 1619635.65184029 7142.59354772
0.02100000 1616890.37788863 5869.31233784
0.02200000 1614014.46025136 9466.19523945
0.02300000 1611010.95805514 7539.53162689
0.02400000 1607879.53085554 9647.27762503
0.02500000 1604621.57168813 7509.62929847
0.02600000 1601237.43096142 6485.01189201
0.02700000 1597727.91301936 10736.73206724
0.02800000 1594093.00278096 10401.45732015
0.02900000 1590335.32111429 12166.06576512
0.03000000 1586455.09339143 7377.01652336
0.03100000 1582452.52016532 7595.77244630
0.03200000 1578328.72845912 10156.54583543
0.03300000 1574086.35929657 12844.54528400
0.03400000 1569723.50487986 13185.67804938
0.03500000 1565243.56954329 9297.54723243
0.03600000 1560646.20680952 10393.90421769
0.03700000 1555933.22704274 10642.58376517
0.03800000 1551105.92145233 9073.97006044
0.03900000 1546165.53345186 12987.79108246
0.04000000 1541111.11680033 10425.61718827
0.04100000 1535946.43359215 9676.46298029
0.04200000 1530671.93651326 14809.25167281
0.04300000 1525287.65947338 13086.96872575
0.04400000 1519797.23675303 12310.35818942
0.04500000 1514200.24952296 10447.98220717
0.04600000 1508496.98970160 14888.86598049
0.04700000 1502690.90509756 10819.37501989
0.04800000 1496781.89211523 14301.75164459
0.04900000 1490772.91713733 11180.79739897
0.05000000 1484663.27274432 15900.74439153
0.05100000 1478456.42883213 16144.74495493
0.05200000 1472150.62397557 17555.39700901
0.05300000 1465751.28315098 18996.13751520
0.05400000 1459256.59644169 12038.86748206
0.05500000 1452670.73995033 13422.67826330
0.05600000 1445991.96401077 14835.87824305
0.05700000 1439225.46649473 20034.01942877
0.05800000 1432369.77401924 15211.76771036
0.05900000 1425426.79703629 14111.72594976
0.06000000 1418399.51798513 16871.86305467
0.06100000 1411289.09193885 14437.48808522
0.06200000 1404096.30906521 14595.58181498
0.06300000 1396824.20031789 14750.46424502
0.06400000 1389470.82621135 20321.01178369
0.06500000 1382042.64109714 15050.44506557
0.06600000 1374537.08942720 16576.91807410
0.06700000 1366957.53927872 16731.56106379
0.06800000 1359306.65972671 15475.70704539
0.06900000 1351585.44522708 14191.64783932
0.07000000 1343793.32618069 18604.81947221
0.07100000 1335935.03966475 18756.52883541
0.07200000 1328009.58156313 18904.21727915
0.07300000 1320021.87935874 19047.91661165
0.07400000 1311970.92130855 23615.47769027
0.07500000 1303859.20573158 19323.19433467
0.07600000 1295687.07153585 17958.22365338
0.07700000 1287459.58091405 19582.26114389
0.07800000 1279175.40929720 19705.69810435
0.07900000 1270836.29151112 19825.04707744
0.08000000 1262446.19520875 23008.08298701
0.08100000 1254005.39785530 20051.54725249
0.08200000 1245514.74063531 18607.99109828
0.08300000 1236977.02262111 23378.86682476
0.08400000 1228393.48397895 20360.62295265
0.08500000 1219767.41316561 18882.00044222
0.08600000 1211098.15934675 22126.76441015
0.08700000 1202389.58237696 26981.62349553
0.08800000 1193639.82650236 15935.09243218
0.08900000 1184855.56153819 15995.55083207
0.09000000 1176034.68229795 19263.44900095
0.09100000 1167180.74718985 19328.51408154
0.09200000 1158294.02197071 17774.02260228
0.09300000 1149378.28327570 17826.85801133
0.09400000 1140431.84862859 17876.27006739
0.09500000 1131458.82862616 19551.60947764
0.09600000 1122460.66476024 21231.34447198
0.09700000 1113439.75757265 18004.32172638
0.09800000 1104397.12662732 24600.44715228
0.09900000 1095334.86791404 18073.02617042
0.10000000 1086252.39242443 21393.74187489
0.10100000 1077152.64499257 18128.47986784
0.10200000 1068037.83309013 19801.42235688
0.10300000 1058908.91510859 19822.77582331
0.10400000 1049768.41310664 19840.62394112
0.10500000 1040619.08961820 21509.59759442
0.10600001 1031457.19762736 16554.88880089
0.10700001 1022290.78135721 19873.33372478
0.10800001 1013116.50334500 18220.90117017
0.10900001 1003938.84766728 18221.49094277
0.11000001 994757.72144662 16562.71684169
0.11100001 985575.56300596 18213.43726172
0.11200001 976394.68719965 23169.84701802
0.11300001 967213.97586772 19847.23171923
0.11400001 958037.49341167 21483.99180132
0.11500001 948866.09516585 24765.40624998
0.11600001 939700.12977372 19790.08566498
0.11700001 930543.10083544 18117.67502652
0.11800001 921392.99428150 23025.61201156
0.11900001 912254.27496242 22988.80881186
0.12000001 903127.00016290 18030.93140760
0.12100001 894014.20589767 16360.46073864
0.12200001 884915.09510691 19592.02112867
0.12300001 875832.24232194 17919.52852217
0.12400001 866766.18779364 34128.92025244
0.12500001 857718.84415061 19453.06430197
0.12600001 848692.85369157 17784.35958717
0.12700001 839687.72889239 27407.40876266
0.12800001 830703.85294795 16074.12031210
0.12900001 821744.68189818 22433.63087316
0.13000001 812809.81364377 19166.05630911
0.13100001 803900.73772354 23875.85303584
0.13200001 795019.90239224 20618.84214052
0.13300001 786168.61395667 15801.98988548
0.13400001 777345.28524054 17315.36704508
0.13500001 768554.11596221 18814.20564581
0.13600001 759793.56872664 15613.75857353
0.13700001 751067.18846671 26430.05560841
0.13800001 742373.34858147 21669.87906695
0.13900001 733717.35586651 21571.29127974
0.14000001 725095.88940984 18402.93454111
0.14100001 716512.35281131 16787.88521814
0.14200001 707965.94588182 22778.80538312
0.14300001 699461.39285853 18130.04015804
0.14400001 690992.95668696 18034.91702023
0.14500001 682569.59597815 22422.41228560
0.14600001 674185.61122575 17838.95211457
0.14700001 665847.80511583 19216.36856220
0.14800001 657551.40327432 23514.03929045
0.14900001 649299.65718962 17531.09157125
0.15000001 641093.75781531 21781.16144947
0.15100001 632934.64917533 18760.18388676
0.15200001 624823.12625304 15773.66056657
0.15300001 616759.82749167 15671.86795610
0.15400001 608743.35084766 19814.59700516
0.15500001 600778.08907287 15464.02874253
0.15600001 592860.85449937 16754.24853887
0.15700001 584998.54506141 16637.35940678
0.15800001 577182.77619705 19272.13380684
0.15900001 569422.49366552 20499.21073953
0.16000001 561712.43480101 17634.96272299
0.16100001 554058.94779918 14809.99637377
0.16200001 546457.25851479 20041.32090210
0.16300001 538911.37866843 15908.66464931
0.16400001 531420.23081099 18413.71186690
0.16500001 523985.06560009 14351.95162436
0.16600001 516606.05131215 12940.98219635
0.16700001 509282.96957927 14117.32458328
0.16800001 502016.06107885 12726.10774923
0.16900001 494809.09456246 20188.21201140
0.17000001 487658.86424074 15010.14055010
0.17100001 480567.33121542 14878.36527701
0.17200001 473534.87321547 13517.05359425
0.17300001 466561.58246484 14612.70945288
0.17400001 459648.41623235 12065.77149592
0.17500001 452794.73320375 13149.15967324
0.17600001 445999.10493181 11841.27679519
0.17700001 439267.04134668 12901.27361369
0.17800001 432594.20509147 15099.70144191
0.17900001 425982.54558764 13801.83512895
0.18000001 419432.98839956 15942.64864212
0.18100001 412945.87927819 12400.76534049
0.18200001 406517.77305139 11158.91339738
0.18300001 400154.01094941 11044.25122393
0.18400001 393851.09826899 14208.17904126
0.18500001 387611.02484444 14058.65253527
0.18600001 381433.40399758 11769.12823636
0.18700001 375317.76328389 11642.35756711
0.18800001 369264.60838431 13609.24778499
0.18900001 363276.05792336 11388.70495398
0.19000001 357346.18678415 10237.96873510
0.19100001 351484.39223087 11135.02607200
0.19200001 345681.15248341 12008.96380471
0.19300001 339943.90028668 9892.36796578
0.19400001 334268.27791631 13688.28662750
0.19500001 328656.16544977 13527.48840916
0.19600001 323105.81062972 10502.55487083
0.19700001 317619.30414871 10376.62315691
0.19800001 312195.41822549 11182.84040932
0.19900001 306835.09373042 10125.55857164
0.20000001 301535.53893481 12727.81569997
0.20100001 296300.52452486 10773.48758090
0.20200001 291126.91144755 14183.70379610
0.20300001 286016.26876479 9627.30806165
0.20400001 280967.92552185 14687.59900087
0.20500001 275980.88042260 12791.71441221
0.20600001 271056.59201087 10099.56909571
0.20700001 266193.72525902 8305.24462066
0.20800001 261392.58949681 8194.65806809
0.20900001 256654.88576119 9701.55514038
0.21000001 251976.04356840 11962.56323391
0.21100001 247358.53645252 7866.00183104
0.21200001 242801.67049944 9309.01648703
0.21300001 238305.61909526 12239.37717536
0.21400001 233870.53029471 9050.78995030
0.21500001 229496.25226363 10409.95049484
0.21600001 225180.31463818 10994.42938201
0.21700001 220924.59011039 8669.08132580
0.21800001 216728.28517630 9255.38185605
0.21900001 212589.93352084 7015.46813789
0.22000001 208509.89953523 7603.31384606
0.22100001 204490.60604911 7490.49125376
0.22200001 200528.35185154 7378.44105526
0.22300001 196623.53528427 8588.51642733
0.22400001 192774.58057468 9108.59936287
0.22500001 188986.08644986 7047.29149696
0.22600001 185251.84409910 6307.82558986
0.22700001 181575.31876774 7451.85143462
0.22800001 177954.18040480 8557.81694037
0.22900001 174388.19681741 8422.95030461
0.23000001 170877.68919387 7697.18587375
0.23100001 167423.60362200 6991.61001791
0.23200001 164022.13459425 6305.83126270
0.23300001 160675.68991952 6767.66037948
0.23400001 157383.02548634 8321.62786616
0.23500001 154142.49656922 6547.97356395
0.23600001 150955.72577749 6439.77156625
0.23700001 147821.26002034 7915.82884849
0.23800001 144738.57365907 7783.31716666
0.23900001 141707.91224881 7652.22762338
0.24000001 138727.98659247 5516.51864778
0.24100001 135800.29911016 5422.50619996
0.24200001 132921.92154187 9205.50811182
0.24300001 130093.63956894 6189.85566349
0.24400001 127314.17691014 5146.67584505
0.24500001 124584.14970688 5516.58640998
0.24600001 121902.96968944 4516.50524065
0.24700001 119270.26984600 5324.22509779
0.24800001 116684.33371021 4358.16007025
0.24900001 114145.51266002 4708.50261997
0.25000001 111654.12759162 6305.66715405
0.25100001 109208.01002403 5366.48186646
0.25200001 106809.07540703 4864.08552415
0.25300001 104455.58831878 5571.66134452
0.25400001 102145.89305980 4688.49671326
0.25500001 99881.11887563  4986.06569017
0.25600001 97660.40467770  4141.28965629
0.25700001 95483.13467723  4434.23698421
0.25800001 93348.50546295  5439.88441324
0.25900001 91257.05361079  4982.63536290
0.26000001 89208.14591482  3841.74898560
0.26100001 87198.61423333  4797.66798213
0.26200001 85232.63898074  4034.91332027
0.26300001 83305.91506872  4618.48014995
0.26400001 81419.47738258  3560.06681701
0.26500001 79573.52670584  4762.47579870
0.26600001 77765.68601515  4048.87063397
0.26700001 75997.95895083  3055.11809439
0.26800001 74268.07037415  3895.73181583
0.26900001 72575.42456254  3821.09628404
0.27000001 70920.96459051  4324.40602055
0.27100001 69303.00894709  3110.31918873
0.27200001 67722.02552534  4714.46903005
0.27300001 66176.25455895  4079.76628663
0.27400001 64665.07349616  4001.15161193
0.27500001 63191.06526985  2616.11022598
0.27600001 61749.54244801  3591.97105419
0.27700001 60343.94012276  3019.61090665
0.27800001 58970.66418835  3455.09137832
0.27900001 57631.27508450  2662.56503492
0.28000001 56324.09689877  3086.27903564
0.28100001 55049.08257739  2794.29156388
0.28200001 53806.54520768  3654.54072347
0.28300001 52595.15041676  4257.05167622
0.28400001 51414.77596897  2197.98177671
0.28500001 50264.98409665  2803.27829575
0.28600001 49144.48913085  3808.20664300
0.28700001 48054.14901326  2906.31506988
0.28800001 46992.22705522  3055.66970890
0.28900001 45960.30300765  2199.20060301
0.29000001 44955.49327840  2943.46106173
0.29100001 43979.78682713  2118.94622963
0.29200001 43030.55065419  2647.66990708
0.29300001 42108.49680747  2599.77871596
0.29400001 41212.82862980  2917.86840511
0.29500001 40344.50448495  2328.68490910
0.29600001 39500.48030873  2111.69577727
0.29700001 38681.74174853  1729.07393801
0.29800001 37888.40933289  2209.08381073
0.29900001 37119.72552012  1837.42650023
0.30000001 36374.65989112  2299.24236056
0.30100001 35654.09058836  2261.18253216
0.30200001 34955.71926355  2065.35877046
0.30300001 34280.87850850  1719.52894739
0.30400001 33628.96802296  2307.78803983
0.30500001 32998.05728160  1514.61090093
0.30600001 32389.31270674  2088.13908906
0.30700001 31802.23513419  1910.04233259
0.30800001 31235.81063846  2171.66983745
0.30900001 30689.80879929  1712.49141208
0.31000001 30165.01687322  1547.91791414
0.31100001 29658.18771030  1526.80357561
0.31200001 29172.24281795  1643.56423818
0.31300001 28704.41049178  2027.96669726
0.31400001 28256.90318425  1602.16648640
0.31500001 27826.99407279  1450.89953965
0.31600002 27414.78736081  1433.93052080
0.31700002 27020.10805583  1288.85921529
0.31800002 26643.14982953  1402.36225768
0.31900002 26283.40629986  1892.40534319
0.32000002 25939.84370513  1748.60494696
0.32100002 25612.95314586  1237.10569552
0.32200002 25302.51949172  1716.26997839
0.32300002 25006.85718503  1336.86664841
0.32400002 24726.89851133  1808.15453926
0.32500002 24461.44898788  1555.01438579
0.32600002 24211.26836346  1543.83160030
0.32700002 23975.21606072  1415.49682325
0.32800002 23753.98000314  1406.71076240
0.32900002 23545.24104935  1864.78317941
0.33000002 23351.49524358  1739.10269062
0.33100002 23168.75960271  1499.94556771
0.33200002 23001.03549274  1148.90177727
0.33300002 22844.90694795  1487.88885998
0.33400002 22701.58365009  1254.83009568
0.33500002 22569.70453514  1478.76711117
0.33600002 22449.70856159  1475.28266799
0.33700002 22340.16582834  1359.17575336
0.33800002 22243.44515841  1357.29508784
0.33900002 22156.03637672  1694.93686309
0.34000002 22080.22380129  1129.40350092
0.34100002 22014.44332974  1355.20919556
0.34200002 21959.58962240  1581.74931541
0.34300002 21913.17293467  1130.71977698
0.34400002 21877.15153199  1358.57117448
0.34500002 21850.03871106  1247.41876909
0.34600002 21833.24600420  2045.55691501
0.34700002 21823.11988701  1480.91698567
0.34800002 21823.09350025  1256.68289873
0.34900002 21831.12371150  1489.97426388
0.35000002 21847.17795586  1725.38096078
0.35100002 21871.15546309  1154.79706315
0.35200002 21902.14088297  1507.63393909
0.35300002 21940.76905655  1747.58233813
0.35400002 21987.08341057  1287.89347177
0.35500002 22040.02331773  1294.63103100
0.35600002 22099.23802038  1183.41425204
0.35700002 22165.13539219  1309.29460963
0.35800002 22237.90160383  1437.01326970
0.35900002 22316.33382407  1446.09850029
0.36000002 22401.40653197  1819.55433174
0.36100002 22491.18738109  1465.52583917
0.36200002 22587.69647409  1352.89014440
0.36300002 22687.67805704  1362.62200865
0.36400002 22793.63073702  1372.74647616
0.36500002 22904.02358638  1886.14643168
0.36600002 23019.84531171  1520.69105332
0.36700002 23139.53230681  2299.14403891
0.36800002 23265.03449958  2060.35155288
0.36900002 23393.76680857  1298.35411938
0.37000002 23525.55374836  1571.03655373
0.37100002 23661.72040631  1716.42127958
0.37200002 23801.89046337  2130.74533521
0.37300002 23944.90626522  2014.96395767
0.37400002 24092.29123179  1355.19144598
0.37500002 24241.77809531  1503.95998428
0.37600002 24395.23691735  1931.37099824
0.37700002 24550.29485142  1670.40214082
0.37800002 24709.10785307  1404.71284799
0.37900002 24870.00167687  1701.10819528
0.38000002 25033.42727327  1716.79252373
0.38100002 25198.67148735  1732.66073355
0.38200002 25366.12626877  1748.74082781
0.38300002 25535.41481607  1617.92395939
0.38400002 25707.14928058  1484.58794128
0.38500002 25879.13443232  2097.76273646
0.38600002 26054.24729542  2117.42877801
0.38700002 26229.46793899  1679.21061701
0.38800002 26406.09762452  2003.03463020
0.38900002 26583.84359329  1866.18590866
0.39000002 26763.47407181  1569.67782868
0.39100002 26942.95195763  1584.24565016
0.39200002 27123.72148326  1758.83780291
0.39300002 27304.80735584  2420.57128677
0.39400002 27487.23510249  2280.06625977
0.39500002 27669.19275336  1643.55012742
0.39600002 27851.43881887  2156.11923831
0.39700002 28033.63696996  1840.96902704
0.39800002 28216.82936902  2026.53278130
0.39900002 28399.04990700  2215.12599770
0.40000002 28581.38592095  1891.08748906
0.40100002 28763.09921626  1907.85646141
0.40200002 28945.69632075  2099.72091059
0.40300002 29126.78929537  2294.60856941
0.40400002 29307.24786753  1958.45693154
0.40500002 29487.39671596  2334.51730861
0.40600002 29666.93955081  2897.86679263
0.40700002 29845.64633884  1826.55364248
0.40800002 30023.68245729  2578.73420844
0.40900002 30199.88820156  2785.93981860
0.41000002 30375.97606788  2247.21481598
0.41100002 30550.50768439  3587.24078227
0.41200002 30723.23511956  1903.30450584
0.41300002 30895.21614010  2494.17091717
0.41400002 31065.68226983  2513.99045681
0.41500002 31235.17964709  2533.79789303
0.41600002 31401.92193865  2357.02837240
0.41700002 31567.84438182  3166.88629844
0.41800002 31733.00537928  2592.74532737
0.41900002 31894.54450787  2813.09895889
0.42000002 32054.91500744  2226.69477650
0.42100002 32214.18603104  2650.90549411
0.42200002 32371.35359238  2053.96248276
0.42300002 32525.93955630  3309.83976609
0.42400002 32678.55754157  2499.90977039
0.42500002 32829.59313582  2097.81110079
0.42600002 32977.21768378  3168.28633910
0.42700002 33123.88353800  2551.86410869
0.42800002 33267.76298433  2783.01484433
0.42900002 33409.98209891  3016.92152649
0.43000002 33549.73547273  3470.38480175
0.43100002 33685.74547233  3055.97097406
0.43200002 33820.35620779  2635.95868775
0.43300002 33952.15440458  2431.31389213
0.43400002 34081.69049449  2446.21345116
0.43500002 34208.41411459  2684.67646694
0.43600002 34333.29731234  2475.60252002
0.43700002 34454.62551028  3169.13660462
0.43800002 34572.65257660  3414.91392008
0.43900002 34689.13179749  2518.43108784
0.44000002 34801.97747481  2762.58110287
0.44100002 34912.88998585  3240.61460206
0.44200002 35020.68379626  2327.12454854
0.44300002 35125.87147855  3041.19809674
0.44400002 35227.72421876  2351.45070304
0.44500002 35325.88626818  3072.29247434
0.44600002 35421.95167648  2612.54616971
0.44700002 35515.26284520  2386.62577630
0.44800002 35604.73384381  2637.77683183
0.44900002 35692.43128927  2650.16314882
0.45000002 35776.76852114  3388.41790722
0.45100002 35857.01543727  4132.87979517
0.45200002 35935.05476424  3662.68063043
0.45300002 36009.64864239  3187.93434540
0.45400002 36081.62466248  2462.57099992
0.45500002 36150.40810619  2719.95683482
0.45600002 36215.70192255  2730.84513289
0.45700002 36278.12023828  3738.46046773
0.45800002 36336.77870905  3502.50226576
0.45900002 36392.51363578  2511.08355988
0.46000002 36445.94258138  2520.23704895
0.46100002 36495.06475131  3287.84053927
0.46200002 36541.71674425  3045.38681780
0.46300002 36584.80534981  4074.08411685
0.46400002 36624.31262346  2554.54592656
0.46500002 36661.56679570  3331.43673262
0.46600002 36694.83783985  3341.61556626
0.46700002 36724.95425725  2835.90110216
0.46800002 36752.52981859  2585.54059528
0.46900002 36776.21807437  4148.35759541
0.47000002 36796.57385272  4419.45271205
0.47100002 36814.07994014  3127.72437996
0.47200002 36828.17478713  4442.03051249
0.47300002 36839.59982806  3143.15480631
0.47400002 36846.62954881  3675.45147170
0.47500002 36851.52547112  3420.55875636
0.47600002 36853.54167463  2636.87103180
0.47700002 36851.31270583  2906.46317087
