# SAXS profile: number of points = 501, q_min = 0, q_max = 0.5, delta_q = 0.001
#    q    intensity    error
0.00000000 1664650.74656091 449.45570157
0.00100000 1664581.90329308 649.18695770
0.00200000 1664375.32204181 1348.14405354
0.00300000 1664031.17267877 1397.78623484
0.00400000 1663549.32187229 1372.42824269
0.00500000 1662930.23676635 2244.95590849
0.00600000 1662173.62684578 2443.39533094
0.00700000 1661280.17799033 2192.88992608
0.00800000 1660249.30328909 3586.13864651
0.00900000 1659082.43981563 3235.21089594
0.01000000 1657778.63113019 3008.86834542
0.01100000 1656339.22186642 3875.83394792
0.01200000 1654763.63487895 3226.78922949
0.01300000 1653053.26449390 3818.55320940
0.01400000 1651207.37044650 3715.21674820
0.01500000 1649227.72850399 4749.77606959
0.01600000 1647113.20459545 6300.20828922
0.01700000 1644865.86704413 5773.47945232
0.01800000 1642485.37734882 6085.40859691
0.01900000 1639972.36236060 5411.90903999
0.02000000 1637327.55588114 6704.85664463
0.02100000 1634552.57609773 7012.23086938
0.02200000 1631645.50672651 6755.01270474
0.02300000 1628609.50166539 7035.59336744
0.02400000 1625444.17715446 6704.95753649
0.02500000 1622150.93915558 6959.02784680
0.02600000 1618730.16362974 6555.85746255
0.02700000 1615182.61543136 7462.14402507
0.02800000 1611508.36629138 10515.09257227
0.02900000 1607709.88527241 7958.16429749
0.03000000 1603787.65692556 8203.37424224
0.03100000 1599741.71555578 9214.51270559
0.03200000 1595573.24574258 9477.70551624
0.03300000 1591284.88898051 12173.32996190
0.03400000 1586874.79827559 9997.31169042
0.03500000 1582346.20758322 8544.66991553
0.03600000 1577699.03065553 9631.85302728
0.03700000 1572934.99219335 15241.74077925
0.03800000 1568055.28602153 11007.74861730
0.03900000 1563061.32592564 10316.20522885
0.04000000 1557952.06795651 10539.54622812
0.04100000 1552731.42721366 9782.20844501
0.04200000 1547399.71996664 12974.94725387
0.04300000 1541956.95496850 13229.99128774
0.04400000 1536407.03185439 15556.12191998
0.04500000 1530749.29124916 11618.38766043
0.04600000 1524984.05150058 12901.36567544
0.04700000 1519114.97174141 12031.39113575
0.04800000 1513141.78269136 12233.75188227
0.04900000 1507067.61626040 12433.30841289
0.05000000 1500891.59548434 17222.73186018
0.05100000 1494617.31901415 12823.81719453
0.05200000 1488243.02905404 16564.14568528
0.05300000 1481774.21458301 13202.60886741
0.05400000 1475209.01475269 20689.80739675
0.05500000 1468551.59210826 18503.75092375
0.05600000 1461800.17601700 17497.74892344
0.05700000 1454960.16955339 16455.60028577
0.05800000 1448029.98136045 14096.57252675
0.05900000 1441011.48404082 14266.01435831
0.06000000 1433907.53649027 19680.38185777
0.06100000 1426719.95864245 13268.49623543
0.06200000 1419448.99341047 20120.69042211
0.06300000 1412097.78686104 14911.75332646
0.06400000 1404664.37574916 19173.66962567
0.06500000 1397155.20092372 17981.38827702
0.06600000 1389568.00157699 15361.67497618
0.06700000 1381906.07560953 18324.07542013
0.06800000 1374171.86357655 19911.75123527
0.06900000 1366366.67567588 17216.22091956
0.07000000 1358489.62033551 17361.49816090
0.07100000 1350545.83612280 20420.25399862
0.07200000 1342534.04680866 16170.82335136
0.07300000 1334459.26411311 22218.74778856
0.07400000 1326320.48618463 25365.88048703
0.07500000 1318120.42821487 16529.23094458
0.07600000 1309859.18324111 19667.53655839
0.07700000 1301542.07979207 15228.04304759
0.07800000 1293167.57094704 24518.45829498
0.07900000 1284737.40025070 18500.21943134
0.08000000 1276256.15334145 18607.81558863
0.08100000 1267722.95790559 23389.48967075
0.08200000 1259139.86843229 18811.55051711
0.08300000 1250509.05523241 23634.62225311
0.08400000 1241831.69345495 25333.36773560
0.08500000 1233111.47109464 20679.28034105
0.08600000 1224347.74736662 19173.28662398
0.08700000 1215543.92989025 19254.21675360
0.08800000 1206698.80367612 16109.42978564
0.08900000 1197818.56216177 17787.60648358
0.09000000 1188901.39986007 17851.35535748
0.09100000 1179950.65806658 19539.98381559
0.09200000 1170967.03224808 19601.98904087
0.09300000 1161953.93577936 18021.90639083
0.09400000 1152909.61358386 19714.75531883
0.09500000 1143838.66235678 18118.40526335
0.09600000 1134742.12941695 24765.74813871
0.09700000 1125622.67337646 16546.65407654
0.09800000 1116481.20734843 21553.67072126
0.09900000 1107319.78995542 23253.71668251
0.10000000 1098138.22096286 24955.19224495
0.10100000 1088938.80105672 23325.07021565
0.10200000 1079724.46090943 21686.26681741
0.10300000 1070495.71033132 16699.73386674
0.10400000 1061255.43637296 16714.77390922
0.10500000 1052005.90615107 23417.65257271
0.10600001 1042743.82065574 21756.85084172
0.10700001 1033477.18923877 23439.26375493
0.10800001 1024202.46230808 20094.85325618
0.10900001 1014924.35968913 20095.50326765
0.11000001 1005642.96030588 20092.74729267
0.11100001 996360.48836225 25108.28548866
0.11200001 987079.09421435 18404.09057804
0.11300001 977797.89256453 28424.58607510
0.11400001 968521.02754088 23389.78391641
0.11500001 959249.36864977 26705.50368072
0.11600001 949983.17605085 21673.86718225
0.11700001 940726.12577890 16650.85321046
0.11800001 931475.67362117 21614.89402440
0.11900001 922237.26927177 23240.38028031
0.12000001 913010.09676966 21542.47424804
0.12100001 903797.67944210 23155.29763811
0.12200001 894599.07445603 23107.49518182
0.12300001 885416.91546888 21409.38202473
0.12400001 876251.61778654 19715.66232915
0.12500001 867105.43218438 24582.44016076
0.12600001 857980.70721202 17978.98656686
0.12700001 848876.98736003 17928.28281794
0.12800001 839794.96930758 17875.03676415
0.12900001 830737.77083950 17819.32602437
0.13000001 821705.62979692 22605.12294120
0.13100001 812699.12403359 19309.73209725
0.13200001 803721.20815184 24051.35828773
0.13300001 794773.12869535 15974.94063988
0.13400001 785853.55918139 17504.88885604
0.13500001 776966.29971741 19020.13591385
0.13600001 768110.18571335 15784.66506067
0.13700001 759288.54033410 20432.45558385
0.13800001 750499.79100877 20342.29779455
0.13900001 741749.35294463 20249.75829033
0.14000001 733033.82731409 18604.39941463
0.14100001 724356.66256074 15428.79764021
0.14200001 715716.98412568 26098.62105709
0.14300001 707119.91181695 16801.16989724
0.14400001 698559.12135784 15193.66160622
0.14500001 690044.02706802 15111.96490565
0.14600001 681568.91165870 18034.31425325
0.14700001 673140.14053382 14943.71182484
0.14800001 664753.49745674 20800.13791674
0.14900001 656411.67185448 17723.11597626
0.15000001 648116.86302571 22019.77146026
0.15100001 639868.83886120 18965.71327874
0.15200001 631669.34871022 15946.49346066
0.15300001 623518.40051483 17283.93087788
0.15400001 615414.81884919 17170.07425617
0.15500001 607363.11684695 17054.75712593
0.15600001 599360.04678964 19760.90167527
0.15700001 591412.42497362 16819.77016009
0.15800001 583511.99643713 16700.11412625
0.15900001 575667.65978494 15197.62693566
0.16000001 567873.94906921 17828.40347257
0.16100001 560137.99400466 17694.76006588
0.16200001 552454.07126308 16209.00321602
0.16300001 544826.72991518 17423.55964522
0.16400001 537254.61311670 14626.75753263
0.16500001 529739.37759739 14509.56223741
0.16600001 522280.43654948 15699.75066391
0.16700001 514878.52996173 18164.91539470
0.16800001 507533.37491225 14152.56882766
0.16900001 500248.71524073 19134.51426145
0.17000001 493021.82362213 13910.61141035
0.17100001 485854.00554663 16295.54411553
0.17200001 478746.06103152 14908.15304453
0.17300001 471697.81466583 13542.44489859
0.17400001 464710.63638604 15858.25121560
0.17500001 457783.49675753 19336.77581627
0.17600001 450915.29539403 14366.16198975
0.17700001 444111.14307674 13043.54488822
0.17800001 437367.04757775 18789.28925140
0.17900001 430684.93900867 12791.34329274
0.18000001 424065.48296025 18421.40544993
0.18100001 417509.30109428 12537.80490410
0.18200001 411012.80275034 11282.30196845
0.18300001 404581.44606149 15633.02781431
0.18400001 398211.52295182 11050.37028394
0.18500001 391905.42337364 15307.82656015
0.18600001 385662.36916486 12981.39595938
0.18700001 379482.02543750 13911.81170980
0.18800001 373364.86539688 14818.85220774
0.18900001 367313.10833211 15702.63612311
0.19000001 361320.69367408 14492.57370802
0.19100001 355397.03139977 13306.06548432
0.19200001 349533.20791942 15178.48027110
0.19300001 343735.49839847 12003.24417126
0.19400001 338000.34165626 9886.51046062
0.19500001 332329.47362127 14655.73047926
0.19600001 326721.14591754 9654.61031810
0.19700001 321177.22649380 10492.86048542
0.19800001 315696.89517002 12250.61859602
0.19900001 310280.87414624 10239.26933073
0.20000001 304926.32635546 10112.88209153
0.20100001 299636.92854890 9986.89930054
0.20200001 294409.63847182 9861.25130669
0.20300001 289246.22958033 12391.30906089
0.20400001 284145.79267736 14853.72201428
0.20500001 279107.33375104 12074.18382878
0.20600001 274132.42936045 14470.08096776
0.20700001 269219.65390592 9239.61895880
0.20800001 264369.19962902 10774.36724019
0.20900001 259582.98553470 8176.86443087
0.21000001 254856.47605853 9679.44941827
0.21100001 250191.98925979 7956.10563457
0.21200001 245588.93835987 10200.53703700
0.21300001 241047.18017345 11606.42227405
0.21400001 236567.37697996 9155.15792195
0.21500001 232148.89806134 9778.11204863
0.21600001 227789.21923675 8155.99338038
0.21700001 223490.81937623 10231.41019478
0.21800001 219252.36956529 10803.66102113
0.21900001 215072.50616528 7807.13234293
0.22000001 210951.85170432 11888.19216490
0.22100001 206892.54278153 9645.33080054
0.22200001 202890.95980205 7465.37321891
0.22300001 198947.37267140 8690.02164920
0.22400001 195060.44683144 8558.27750942
0.22500001 191234.44266426 7779.41749545
0.22600001 187463.60296575 8298.07677768
0.22700001 183751.12579766 6912.71767940
0.22800001 180094.52065488 6186.24707704
0.22900001 176493.68236422 6697.93556247
0.23000001 172949.02738971 6591.95249070
0.23100001 169461.51727176 5897.26107995
0.23200001 166026.95592180 6963.17086067
0.23300001 162648.45689114 6279.85721757
0.23400001 159324.12787012 5616.17577304
0.23500001 156052.47384992 7733.96096979
0.23600001 152835.32602917 5976.62570705
0.23700001 149670.97793463 5877.57958149
0.23800001 146559.11353185 8932.04559667
0.23900001 143499.84872988 5682.59427849
0.24000001 140491.77755403 6094.53359857
0.24100001 137536.49042726 5491.83232253
0.24200001 134631.19163128 7360.96075063
0.24300001 131776.54175679 5787.62598773
0.24400001 128971.29747172 6635.57356881
0.24500001 126215.98543441 5588.84409941
0.24600001 123510.12431339 4576.05032228
0.24700001 120853.17011346 4945.31195499
0.24800001 118243.50718707 5299.67424283
0.24900001 115681.68405566 4771.86969304
0.25000001 113167.49690616 5538.98339811
0.25100001 110699.41970566 5439.76974169
0.25200001 108278.74721542 4109.17865123
0.25300001 105904.17940104 4841.93931129
0.25400001 103573.95290298 5150.21505176
0.25500001 101288.92776141 6223.19201609
0.25600001 99048.59262923  3818.32342651
0.25700001 96851.99300459  4872.62399860
0.25800001 94698.78300851  6254.38141972
0.25900001 92588.95771874  5055.35733064
0.26000001 90522.13137593  4252.72993326
0.26100001 88495.22085009  3477.86234397
0.26200001 86512.46471088  4436.79196263
0.26300001 84569.29010210  3348.94404651
0.26400001 82666.57346693  4600.39503112
0.26500001 80804.92536969  4191.35167726
0.26600001 78981.93195330  3795.87182929
0.26700001 77199.20942604  3724.09003894
0.26800001 75454.85366824  4566.90523438
0.26900001 73748.19642712  3285.48230630
0.27000001 72079.86593754  3516.05602682
0.27100001 70448.68097573  3736.59821578
0.27200001 68854.69004116  3947.43956687
0.27300001 67296.40919284  4148.82382308
0.27400001 65772.90476231  2713.13244984
0.27500001 64287.01530929  2927.63081574
0.27600001 62833.95303441  2871.82595935
0.27700001 61417.12418340  3073.31303959
0.27800001 60032.83131476  3014.84893131
0.27900001 58682.98439546  3450.55964576
0.28000001 57365.53693220  3143.34474497
0.28100001 56080.71184837  3083.87849050
0.28200001 54828.42627087  2560.21348589
0.28300001 53607.61061208  3653.89491226
0.28400001 52418.25030898  2689.05636813
0.28500001 51259.68891626  2638.84891031
0.28600001 50130.72638598  3668.81738421
0.28700001 49032.14785203  2541.82666496
0.28800001 47962.26058710  2702.91332332
0.28900001 46922.85636554  2653.48765307
0.29000001 45910.61356564  2204.39821470
0.29100001 44927.56577549  2754.95846376
0.29200001 43971.53986300  2898.82390268
0.29300001 43042.76340750  2277.82314735
0.29400001 42140.60831753  2051.19420695
0.29500001 41265.95234675  2198.65004511
0.29600001 40416.02581148  2700.80105270
0.29700001 39591.53619084  2654.61262726
0.29800001 38792.57574550  2609.77065682
0.29900001 38018.45466903  2395.16275753
0.30000001 37268.23222056  2019.19291730
0.30100001 36542.82066935  1986.46782563
0.30200001 35839.53803467  2117.57920503
0.30300001 35160.02541614  2084.28640534
0.30400001 34503.74582976  1736.40109109
0.30500001 33868.51250129  1865.47775689
0.30600001 33255.64659189  1684.56485786
0.30700001 32664.62688654  1509.10583360
0.30800001 32094.32621515  1636.32929955
0.30900001 31544.81993561  2493.61813397
0.31000001 31016.38273436  1591.60575537
0.31100001 30506.36752795  1570.46787469
0.31200001 30017.08676671  1832.09297755
0.31300001 29546.30540284  1530.79415540
0.31400001 29095.88427473  1374.78059707
0.31500001 28662.96923441  1902.07472845
0.31600002 28248.20596428  1880.48316008
0.31700002 27850.87867262  1727.03306826
0.31800002 27471.44814726  1708.86151291
0.31900002 27109.38383411  1561.50058278
0.32000002 26763.60552127  1675.26796693
0.32100002 26434.64626651  2298.22825523
0.32200002 26121.96097392  1518.73088294
0.32300002 25824.34005661  1882.59447927
0.32400002 25542.47794570  1867.79378822
0.32500002 25275.20257650  1235.95746452
0.32600002 25023.36048387  1718.35424580
0.32700002 24785.58056233  1341.39568355
0.32800002 24562.82236504  1697.04547756
0.32900002 24352.50970333  1687.62900236
0.33000002 24157.44039529  1439.30036691
0.33100002 23973.24668081  1313.25451536
0.33200002 23804.25412407  1902.43607969
0.33300002 23646.73661896  1658.58218500
0.33400002 23502.14496244  1417.17940835
0.33500002 23369.13967827  1884.48751290
0.33600002 23248.01816861  1292.70611148
0.33700002 23137.50686031  1407.68598404
0.33800002 23039.60668954  1523.03327234
0.33900002 22951.27376476  1638.72102441
0.34000002 22874.36365656  1521.03088338
0.34100002 22807.57943372  1521.03754447
0.34200002 22751.91011606  1287.64441400
0.34300002 22704.59530590  1757.33575990
0.34400002 22667.71323350  1876.88674462
0.34500002 22639.74212239  1292.50293898
0.34600002 22622.09160192  1648.47189310
0.34700002 22611.09026644  1534.38865815
0.34800002 22610.34202179  1302.01660699
0.34900002 22617.48336936  1543.64331307
0.35000002 22632.79888352  1310.77860942
0.35100002 22655.96290571  1315.85838789
0.35200002 22686.07153529  1561.59580809
0.35300002 22723.96905070  1689.29993924
0.35400002 22769.49675883  1576.21848779
0.35500002 22821.63612724  1340.54296961
0.35600002 22880.05655572  1347.74979525
0.35700002 22945.19399693  1355.37267360
0.35800002 23017.12151926  1487.36646302
0.35900002 23094.72372036  1496.53816796
0.36000002 23178.89634337  1882.70594467
0.36100002 23267.92625509  1516.13814660
0.36200002 23363.53748079  1399.35914370
0.36300002 23462.59019786  1665.37473113
0.36400002 23567.68198136  1677.42984448
0.36500002 23677.14285010  1299.87520404
0.36600002 23791.94243647  1309.74649317
0.36700002 23910.72941249  1715.83402392
0.36800002 24035.19707129  1463.38304300
0.36900002 24162.89292059  1609.24874474
0.37000002 24293.55692288  1487.13015748
0.37100002 24428.66271072  1499.43138821
0.37200002 24567.78039226  1512.02411587
0.37300002 24709.61506725  1940.69325931
0.37400002 24855.83957549  1398.14104235
0.37500002 25003.99187662  1833.29277124
0.37600002 25156.20398061  1707.10008299
0.37700002 25309.98187014  2152.61406003
0.37800002 25467.40898458  1447.82226936
0.37900002 25626.96283477  1606.81064586
0.38000002 25788.97881802  1768.60825112
0.38100002 25952.72900732  1933.21887534
0.38200002 26118.69935164  1650.57128372
0.38300002 26286.46146677  1514.10025221
0.38400002 26456.54870305  1986.22548798
0.38500002 26627.04290560  2004.21761445
0.38600002 26800.35451324  1555.76065320
0.38700002 26973.91411738  2825.78737681
0.38800002 27148.71163684  1742.54013896
0.38900002 27324.69194884  1918.19346568
0.39000002 27502.37489203  1935.61723660
0.39100002 27680.00379754  1790.34273044
0.39200002 27858.75894785  1806.50130956
0.39300002 28037.76642287  1822.73528151
0.39400002 28218.09872638  2340.69140025
0.39500002 28397.93510059  1855.52116738
0.39600002 28577.99521780  2042.18363502
0.39700002 28757.87636980  2403.58342087
0.39800002 28938.83642509  2424.78521894
0.39900002 29118.72598443  2445.97309858
0.40000002 29298.57134552  2114.77097992
0.40100002 29477.85766665  1777.51490152
0.40200002 29657.96776137  2689.23635418
0.40300002 29836.46610405  2531.32590420
0.40400002 30014.39980117  2188.04984918
0.40500002 30191.79014585  2758.02016050
0.40600002 30368.61486038  2039.40442758
0.40700002 30544.49452420  1869.32315345
0.40800002 30719.62347414  2826.97348415
0.40900002 30892.90186322  2089.90491007
0.41000002 31066.00101891  1915.21905356
0.41100002 31237.51054049  2895.71736431
0.41200002 31407.21836756  2334.81272407
0.41300002 31575.97907505  1960.86839347
0.41400002 31743.18605333  3556.82416581
0.41500002 31909.44254232  2389.37917079
0.41600002 32072.78616396  2206.76815658
0.41700002 32235.36555873  3031.73627445
0.41800002 32397.09547101  2850.62056557
0.41900002 32555.08481956  2461.16452898
0.42000002 32712.00361996  3098.64468973
0.42100002 32867.52935871  2496.61764839
0.42200002 33021.00302149  2304.70101509
0.42300002 33171.83172803  2109.72859787
0.42400002 33320.69175234  3186.29129980
0.42500002 33467.82332877  2780.17221566
0.42600002 33611.49492357  3659.78779818
0.42700002 33754.10553063  2383.71504553
0.42800002 33893.91867715  2835.39590130
0.42900002 34031.96201094  3073.08631521
0.43000002 34167.59763271  2871.61587912
0.43100002 34299.37982197  3333.89987668
0.43200002 34429.73589567  2907.07488811
0.43300002 34557.05738190  2924.56390482
0.43400002 34682.21482604  2263.01462464
0.43500002 34804.40330298  3186.69131743
0.43600002 34924.79325204  2518.25233678
0.43700002 35041.51180321  2992.89566494
0.43800002 35154.85315580  2777.93662802
0.43900002 35266.53992585  3258.62844357
0.44000002 35374.65018277  2808.03986458
0.44100002 35480.72439438  3528.55820824
0.44200002 35583.60230766  3073.88963102
0.44300002 35683.81149213  3327.15874120
0.44400002 35780.60611600  2388.35557143
0.44500002 35873.67223465  3119.93342210
0.44600002 35964.68189796  3376.00484975
0.44700002 36052.73342633  2907.29256128
0.44800002 36136.93368326  3894.11615826
0.44900002 36219.37677030  3178.25046222
0.45000002 36298.36041509  2701.14261830
0.45100002 36373.17666285  2712.71164408
0.45200002 36445.80072721  3219.43995982
0.45300002 36514.74584539  2983.98517190
0.45400002 36581.13314655  3994.65992892
0.45500002 36644.33045465  3759.70848283
0.45600002 36704.00739910  3019.27179174
0.45700002 36760.62797427  2778.00078768
0.45800002 36813.45903426  3548.44948449
0.45900002 36863.39954382  3561.00456470
0.46000002 36910.91636619  2807.62898646
0.46100002 36953.99248775  3841.36770116
0.46200002 36994.65188009  2826.20656433
0.46300002 37031.75875430  2835.15158460
0.46400002 37065.12539115  2843.82188042
0.46500002 37096.25367087  3111.63390539
0.46600002 37123.36877912  3380.63973810
0.46700002 37147.15264389  3650.82233488
0.46800002 37168.53706038  2876.28737674
0.46900002 37185.82729359  3408.08123299
0.47000002 37199.71899472  3942.24040731
0.47100002 37210.87414998  2897.98301616
0.47200002 37218.46781856  2904.71545857
0.47300002 37223.49248028  2911.24948487
0.47400002 37223.87203530  3978.30151233
0.47500002 37222.18558507  2657.66417674
0.47600002 37217.60289554  3195.50353607
0.47700002 37208.64179103  2667.85974287
