# SAXS profile: number of points = 501, q_min = 0, q_max = 0.5, delta_q = 0.001
#    q    intensity    error
0.00000000 1682732.95097188 277.65093691
0.00100000 1682663.46881846 504.79905263
0.00200000 1682454.97107714 832.81523705
0.00300000 1682107.62858371 2220.38214883
0.00400000 1681621.30454977 1891.82403950
0.00500000 1680996.46287174 1815.47625176
0.00600000 1680232.83211635 2822.79127288
0.00700000 1679331.07804955 2418.23685289
0.00800000 1678290.61512276 2945.40015390
0.00900000 1677112.93125096 3773.50425662
0.01000000 1675797.01520691 3318.07823338
0.01100000 1674344.21248869 4219.34759918
0.01200000 1672753.98456536 4240.43153679
0.01300000 1671027.71008111 4561.90584972
0.01400000 1669164.65862366 5633.43097259
0.01500000 1667166.57505897 4401.31995414
0.01600000 1665032.40011402 4670.41609110
0.01700000 1662764.15259014 6734.19512008
0.01800000 1660361.47929809 6151.63955761
0.01900000 1657825.04846552 8952.25566566
0.02000000 1655155.62864983 6256.48855931
0.02100000 1652354.74572465 5998.04799892
0.02200000 1649420.64921763 5690.50149833
0.02300000 1646356.26715462 7112.25939785
0.02400000 1643161.38054629 6778.04100382
0.02500000 1639837.42339891 6395.36624334
0.02600000 1636384.71365064 8615.56591143
0.02700000 1632803.99610060 7543.55480749
0.02800000 1629095.44566843 8503.87861637
0.02900000 1625261.44914219 8776.41222833
0.03000000 1621302.52101546 8292.96277618
0.03100000 1617218.63485393 10091.44474583
0.03200000 1613011.14776582 9581.28665903
0.03300000 1608682.52372764 9845.13749908
0.03400000 1604231.13848090 8422.21386563
0.03500000 1599660.06556503 12093.43065412
0.03600000 1594969.25314101 12392.91166963
0.03700000 1590160.44452657 13595.87242948
0.03800000 1585234.77589826 12055.71102864
0.03900000 1580193.89417453 10429.28018453
0.04000000 1575036.53819965 13561.06522230
0.04100000 1569766.69889649 12856.38986007
0.04200000 1564384.70407680 11099.30999035
0.04300000 1558890.51314231 11317.54565075
0.04400000 1553288.11938757 14678.57340991
0.04500000 1547576.92955430 16017.42196513
0.04600000 1541757.27407188 11956.32821624
0.04700000 1535832.57703154 14375.39358958
0.04800000 1529802.82804178 12368.45644020
0.04900000 1523670.90108606 15998.54520610
0.05000000 1517436.43424892 15090.90604133
0.05100000 1511102.49023949 12965.25997023
0.05200000 1504667.60775327 13158.31884300
0.05300000 1498137.13334443 21842.84042243
0.05400000 1491509.53748716 12304.95425810
0.05500000 1484788.51753701 18708.33619370
0.05600000 1477972.71366135 20218.66766637
0.05700000 1471067.28468910 14078.11457162
0.05800000 1464070.72274546 15548.43180155
0.05900000 1456985.00190083 17046.72531842
0.06000000 1449813.19732789 18572.10792544
0.06100000 1442556.58681180 17440.50994957
0.06200000 1435215.82285600 14919.06917596
0.06300000 1427793.91025986 16448.18661523
0.06400000 1420289.02197389 18002.16419542
0.06500000 1412707.41740874 13985.80408657
0.06600000 1405047.03229791 16944.86800234
0.06700000 1397310.99535594 22804.11651142
0.06800000 1389502.04624217 17257.61622214
0.06900000 1381621.24759767 17408.42853477
0.07000000 1373667.94841538 21944.34650356
0.07100000 1365646.98044184 17698.78569550
0.07200000 1357557.28760304 17838.30359477
0.07300000 1349404.01439091 16476.22378772
0.07400000 1341186.00633922 18106.01193410
0.07500000 1332905.95579471 16714.64146912
0.07600000 1324564.07912346 22948.07374663
0.07700000 1316165.71820522 16939.05358755
0.07800000 1307709.04603079 17045.98821440
0.07900000 1299196.11517082 15590.35411330
0.08000000 1290631.50689482 17249.29089883
0.08100000 1282014.62066081 15768.78057397
0.08200000 1273346.91745373 22194.43781270
0.08300000 1264631.16863534 22308.09486169
0.08400000 1255868.07369462 20816.01429856
0.08500000 1247061.69551779 24130.64494109
0.08600000 1238211.07930101 22622.11748097
0.08700000 1229319.97067898 17849.72681244
0.08800000 1220387.06348257 24438.25209395
0.08900000 1211418.51339816 17989.56576893
0.09000000 1202412.39259963 27901.98088098
0.09100000 1193372.38494289 23055.95556029
0.09200000 1184298.97047731 24781.45712164
0.09300000 1175195.71824195 19884.31248706
0.09400000 1166060.87786410 16616.36829049
0.09500000 1156898.81559221 26654.94996410
0.09600000 1147710.82723770 20039.03198556
0.09700000 1138499.42171248 18409.53651457
0.09800000 1129266.09637167 26831.36371134
0.09900000 1120011.92182517 20160.21554084
0.10000000 1110737.52481011 16827.67429223
0.10100000 1101444.80978586 21907.73829700
0.10200000 1092136.84450804 28684.97557024
0.10300000 1082814.39286398 16891.90532329
0.10400000 1073479.97637824 21979.50355037
0.10500000 1064136.01678170 27071.62154063
0.10600001 1054779.38535027 22007.97291089
0.10700001 1045417.69279502 18629.34416226
0.10800001 1036047.92586753 18633.32282364
0.10900001 1026674.58396361 18634.14457597
0.11000001 1017297.72992699 23713.21120077
0.11100001 1007919.59945608 25399.57510194
0.11200001 998542.34681147 23695.41100535
0.11300001 989165.00808989 23680.61140857
0.11400001 979792.01227813 23661.97821063
0.11500001 970424.12331250 18573.91859481
0.11600001 961061.57676891 18553.29461323
0.11700001 951708.05703767 18529.75674318
0.11800001 942361.13408741 21867.49114642
0.11900001 933026.01486696 16794.46905865
0.12000001 923702.07376905 23471.27080008
0.12100001 914393.16584777 16733.39572329
0.12200001 905097.70061441 26718.48538088
0.12300001 895818.88276189 21660.90160572
0.12400001 886556.92191361 23272.12029676
0.12500001 877313.96536124 16581.23472664
0.12600001 868092.54618339 19844.59654090
0.12700001 858892.13767878 21437.94876676
0.12800001 849713.46925281 19730.34768593
0.12900001 840559.82918889 19669.10093007
0.13000001 831431.25239891 19605.14985565
0.13100001 822328.34313938 17910.31215783
0.13200001 813254.38768174 21091.75353880
0.13300001 804209.98145007 17781.08352811
0.13400001 795194.56879488 19323.22893272
0.13500001 786211.35208665 19246.45480652
0.13600001 777259.81393989 23959.03489438
0.13700001 768342.47690628 25447.50403507
0.13800001 759458.54087828 20585.12472121
0.13900001 750612.96144367 22068.02210713
0.14000001 741802.44011372 25102.59575730
0.14100001 733030.68477056 17174.90975419
0.14200001 724296.68029006 18643.39742999
0.14300001 715605.45539046 20094.20213516
0.14400001 706950.58736741 24601.88160085
0.14500001 698341.85615659 18352.42484552
0.14600001 689773.44210606 21293.30716231
0.14700001 681251.39230082 19660.91610934
0.14800001 672772.11245595 16540.10316507
0.14900001 664338.06113941 14947.60708088
0.15000001 655951.03287345 14857.29159559
0.15100001 647610.97847353 14765.53100591
0.15200001 639320.22509502 22008.59978742
0.15300001 631078.19644502 18951.27913354
0.15400001 622883.84897380 14482.05017206
0.15500001 614741.63330149 17261.94587775
0.15600001 606648.88206799 14286.58184696
0.15700001 598611.54257748 15605.80365154
0.15800001 590621.86154244 14086.33206264
0.15900001 582688.74348036 13984.53050361
0.16000001 574807.00380631 18046.06673632
0.16100001 566982.99850473 17910.99376824
0.16200001 559211.69559880 16407.27192339
0.16300001 551497.16659886 14923.51403267
0.16400001 543838.64166511 16152.00841998
0.16500001 536237.29742450 18693.23307075
0.16600001 528692.89065999 14568.13328994
0.16700001 521205.90505845 13134.38942761
0.16800001 513776.02501912 19536.33427379
0.16900001 506407.54193840 14204.73222209
0.17000001 499096.93942134 17922.57194092
0.17100001 491846.03721419 13958.59119528
0.17200001 484655.56251662 18865.21866183
0.17300001 477525.45028732 14956.09780929
0.17400001 470456.75166015 14819.38837716
0.17500001 463448.65870063 13458.54968428
0.17600001 456500.19145004 14544.09678650
0.17700001 449616.09379112 19207.60043394
0.17800001 442793.01265566 15455.69083675
0.17900001 436032.17791067 11772.86935966
0.18000001 429334.77812401 12822.08375433
0.18100001 422700.94114781 13847.68348612
0.18200001 416127.60606318 11422.70332602
0.18300001 409619.98487055 16958.26817474
0.18400001 403174.34832807 11188.08869464
0.18500001 396793.21946253 14391.69074980
0.18600001 390475.66881784 10952.84302779
0.18700001 384221.47279201 15169.06446249
0.18800001 378030.98703928 12860.61478669
0.18900001 371906.55485993 14839.07224002
0.19000001 365842.35576393 11529.52238666
0.19100001 359847.26726224 10363.60178683
0.19200001 353912.92887744 14344.09168518
0.19300001 348045.25345676 14179.36429584
0.19400001 342240.68660132 16016.86488980
0.19500001 336500.88938666 10882.43927702
0.19600001 330824.60239364 12708.62770151
0.19700001 325213.26760780 10624.71795485
0.19800001 319666.16960764 13358.84985923
0.19900001 314184.00767653 9425.52067575
0.20000001 308763.93684404 13032.92639014
0.20100001 303409.76183127 10112.64783978
0.20200001 298118.41585584 14524.32990697
0.20300001 292891.56221028 10754.97867269
0.20400001 287728.56045156 9732.41901728
0.20500001 282628.09562635 13973.13370823
0.20600001 277591.55376695 13790.74904300
0.20700001 272618.23138922 11907.96490996
0.20800001 267707.70093948 11749.69154964
0.20900001 262862.13964002 11592.22090610
0.21000001 258077.06291444 13069.02308379
0.21100001 253354.60958651 11279.34775200
0.21200001 248694.33039363 11124.09792439
0.21300001 244095.93796477 9402.57597491
0.21400001 239560.27999472 10043.56521360
0.21500001 235086.54193531 10663.52604633
0.21600001 230672.32303908 9010.06136389
0.21700001 226320.09909152 8140.73434921
0.21800001 222028.46249511 8022.99887159
0.21900001 217796.28881582 10062.18901905
0.22000001 213623.80773047 7789.79251721
0.22100001 209513.59288512 6976.80297296
0.22200001 205461.45350883 7559.95453933
0.22300001 201468.32026049 7446.26946893
0.22400001 197532.14127644 8000.05209999
0.22500001 193657.88512676 8534.50340111
0.22600001 189839.53412700 7110.44008697
0.22700001 186079.99119647 7000.32959985
0.22800001 182377.13757959 8770.51696096
0.22900001 178730.65840581 8632.69120925
0.23000001 175141.10313419 8496.09531484
0.23100001 171609.36599798 8360.80870683
0.23200001 168131.28260717 6463.80746553
0.23300001 164709.83296641 6359.44695160
0.23400001 161343.28269382 5687.35098394
0.23500001 158030.05535004 7831.96991357
0.23600001 154771.91272214 6602.57010901
0.23700001 151567.35028956 5952.05012739
0.23800001 148415.96912092 5852.78401911
0.23900001 145317.75566053 5231.43945122
0.24000001 142271.45807135 5657.42479781
0.24100001 139278.53170945 6572.55422226
0.24200001 136336.28937464 5466.40378105
0.24300001 133445.29416295 6837.73719635
0.24400001 130604.34832733 7679.53604492
0.24500001 127813.98290285 5659.60343066
0.24600001 125073.49832038 5097.37066518
0.24700001 122382.94333988 4552.64570761
0.24800001 119740.15328178 4919.52443031
0.24900001 117145.75570249 4392.96604666
0.25000001 114599.66642742 4746.14540962
0.25100001 112100.32837806 6356.08891974
0.25200001 109648.97654316 6241.76828502
0.25300001 107244.17854147 5311.80441446
0.25400001 104884.52422631 4413.01656561
0.25500001 102570.52031812 5514.19143319
0.25600001 100301.99762230 4639.97062954
0.25700001 98077.75175685  4934.29192435
0.25800001 95897.32458574  4470.73348372
0.25900001 93760.97648726  4388.01390722
0.26000001 91668.18165013  6459.85706654
0.26100001 89615.81045067  5635.04242777
0.26200001 87608.26138192  3456.14607505
0.26300001 85640.83193197  3391.37710498
0.26400001 83714.31762622  3993.17313972
0.26500001 81829.50487232  4244.49661857
0.26600001 79983.97359101  3523.69412329
0.26700001 78179.05103825  3771.35760055
0.26800001 76413.18699399  4008.25391344
0.26900001 74685.57071613  3629.71890857
0.27000001 72996.71800468  3857.51174550
0.27100001 71345.47423538  4366.34322983
0.27200001 69732.00684370  3712.18356000
0.27300001 68154.75233756  2801.16045364
0.27400001 66612.82763632  3297.33512404
0.27500001 65108.99013941  3504.16601514
0.27600001 63638.44948701  2644.17770132
0.27700001 62204.46410018  2853.31890331
0.27800001 60803.90699461  3816.96544223
0.27900001 59437.84178734  2746.02842054
0.28000001 58104.88100433  2694.03293527
0.28100001 56804.86979212  3363.98454830
0.28200001 55537.94258666  3064.86150670
0.28300001 54302.94515857  2775.96668789
0.28400001 53099.69546488  3405.01813285
0.28500001 51927.88471228  3341.55953940
0.28600001 50785.97327390  4154.03888056
0.28700001 49674.96284102  2145.95849631
0.28800001 48592.99686620  2527.80781663
0.28900001 47542.07685491  2688.50457340
0.29000001 46518.47220970  3045.79711210
0.29100001 45524.61008693  2592.17142105
0.29200001 44558.19814267  1958.33290107
0.29300001 43619.35123908  2308.33617684
0.29400001 42707.51845885  1889.80778126
0.29500001 41823.54727545  2228.35870432
0.29600001 40964.75092036  2007.47771388
0.29700001 40131.57602053  2332.04599295
0.29800001 39324.47690193  2116.44344705
0.29900001 38542.50533565  2428.17795109
0.30000001 37784.87403344  2047.18457204
0.30100001 37052.32151057  1678.47024389
0.30200001 36342.27297437  1982.10766186
0.30300001 35656.23218307  2438.88639678
0.30400001 34993.74556594  1921.15672252
0.30500001 34352.72150274  2049.82698911
0.30600001 33734.25601428  1708.80881930
0.30700001 33138.04617622  1837.17336699
0.30800001 32562.80266762  1962.07176763
0.30900001 32008.64861038  1637.24245394
0.31000001 31475.86662036  1762.01909683
0.31100001 30961.80682070  2173.51894172
0.31200001 30468.58697982  1716.60027172
0.31300001 29994.42682876  1836.55884168
0.31400001 29540.76249156  1674.96131258
0.31500001 29104.74194148  1931.39076668
0.31600002 28687.28345761  1909.71255019
0.31700002 28287.45216572  2293.82960473
0.31800002 27905.73030765  1468.81818429
0.31900002 27541.65445345  2379.59905745
0.32000002 27194.10925759  1309.39642275
0.32100002 26863.58481511  1816.51569121
0.32200002 26549.51602244  1672.22134585
0.32300002 26250.77373594  1530.94519677
0.32400002 25967.88108682  1772.30796810
0.32500002 25699.88188153  1256.72428351
0.32600002 25447.46659952  1373.01812539
0.32700002 25209.40281631  1364.33294502
0.32800002 24986.41819794  1479.69575575
0.32900002 24776.12148058  1349.05987850
0.33000002 24581.23805933  1220.45852744
0.33100002 24397.36360684  1822.48314773
0.33200002 24228.92387270  1694.32872665
0.33300002 24072.00044001  1206.00727916
0.33400002 23928.23339280  1202.39378493
0.33500002 23796.24600998  1319.26394127
0.33600002 23676.10126164  1436.19237054
0.33700002 23566.83981123  1314.32271851
0.33800002 23470.35405108  1312.81431602
0.33900002 23383.55848187  1908.09846248
0.34000002 23308.20837656  1311.43640641
0.34100002 23243.19132893  1430.85092597
0.34200002 23189.37900774  1431.71232774
0.34300002 23144.01580392  1313.65439924
0.34400002 23109.20164364  1435.08149003
0.34500002 23083.39596951  1317.83113831
0.34600002 23067.96882437  1320.75661759
0.34700002 23059.31120763  1444.43532246
0.34800002 23061.02207948  1327.96901934
0.34900002 23070.63552630  1453.45010699
0.35000002 23088.52065017  1337.17173679
0.35100002 23114.42102414  2074.75052939
0.35200002 23147.14465028  1348.20550401
0.35300002 23187.88397768  1723.78737654
0.35400002 23236.21210793  1855.99253003
0.35500002 23291.18620708  1492.49928284
0.35600002 23352.60790275  1250.53221242
0.35700002 23420.74890590  1760.77198614
0.35800002 23495.71961005  1391.76901702
0.35900002 23576.35706660  1909.68501285
0.36000002 23663.59156224  1537.66025255
0.36100002 23755.81263210  1547.92882443
0.36200002 23854.52677469  1818.43066217
0.36300002 23956.88062457  1831.26404168
0.36400002 24065.13389015  1581.07937147
0.36500002 24177.83152561  1592.83561636
0.36600002 24295.84665263  1604.98370590
0.36700002 24417.91298674  1482.65574679
0.36800002 24545.66939578  1358.60286541
0.36900002 24676.55652379  1917.36853272
0.37000002 24810.50927037  1932.98686882
0.37100002 24948.79871757  1531.35733782
0.37200002 25091.15794246  1965.39049473
0.37300002 25236.27779674  1840.48182690
0.37400002 25385.70440386  1856.32972247
0.37500002 25537.03482479  1728.34659882
0.37600002 25692.49995686  1888.78422380
0.37700002 25849.42050026  2051.92709651
0.37800002 26009.92621092  1774.39725017
0.37900002 26172.60838839  1641.02262369
0.38000002 26337.69012962  2257.79859332
0.38100002 26504.48316308  1974.31904435
0.38200002 26673.51360697  1685.63277225
0.38300002 26844.25289661  1700.85194411
0.38400002 27017.23222138  1716.26975817
0.38500002 27190.72983253  1889.21199826
0.38600002 27366.81999498  1906.37277116
0.38700002 27543.16089605  1923.61444811
0.38800002 27720.69652165  1779.25299053
0.38900002 27899.30474162  2121.74222612
0.39000002 28079.71401974  1811.56283581
0.39100002 28259.85426728  1827.84746060
0.39200002 28441.21058781  1844.27038794
0.39300002 28622.64120476  2875.71689808
0.39400002 28805.48474817  2560.08757828
0.39500002 28987.58411999  1894.04883614
0.39600002 29169.92686947  2431.89691833
0.39700002 29351.98418202  1927.54489256
0.39800002 29535.17830991  2828.28880896
0.39900002 29717.17911527  2496.24316395
0.40000002 29898.90840512  1978.26136835
0.40100002 30080.20472689  1995.22007407
0.40200002 30262.12401167  2744.01822477
0.40300002 30442.37435977  2398.25036569
0.40400002 30622.05797305  2604.40615401
0.40500002 30801.01752684  2250.93846751
0.40600002 30979.45308134  1891.29570023
0.40700002 31156.75565450  2478.83159732
0.40800002 31333.21691182  2498.98083321
0.40900002 31507.81955822  2712.82339250
0.41000002 31682.20498182  2148.52883264
0.41100002 31854.82231850  2165.49092382
0.41200002 32025.44915641  1983.97666925
0.41300002 32195.22011773  2199.25559045
0.41400002 32363.23637461  2618.99502771
0.41500002 32530.27754948  2232.87835680
0.41600002 32694.34267226  2454.03747726
0.41700002 32857.49204182  3296.26375783
0.41800002 33019.76110664  3112.93812583
0.41900002 33178.14527448  2717.29022674
0.42000002 33335.39739045  2105.13044496
0.42100002 33491.15665822  2755.98741200
0.42200002 33644.76491605  2348.23647859
0.42300002 33795.57652889  2149.39876909
0.42400002 33944.38768857  2813.14126299
0.42500002 34091.39336045  3267.66020844
0.42600002 34234.79112813  3069.83386593
0.42700002 34377.08568595  2207.00900562
0.42800002 34516.46605958  3109.58857466
0.42900002 34653.98310631  3129.25482279
0.43000002 34788.97633360  2923.83965451
0.43100002 34920.06028977  2489.10201541
0.43200002 35049.47993575  2276.46382970
0.43300002 35175.95308251  3434.93198128
0.43400002 35300.12975108  3455.00036311
0.43500002 35421.14974954  3243.16062476
0.43600002 35540.32747269  2329.66857624
0.43700002 35655.74123751  2576.84054135
0.43800002 35767.72293739  3532.95700056
0.43900002 35877.86065141  3315.11448129
0.44000002 35984.41975126  2380.36947935
0.44100002 36088.82249049  4306.84028012
0.44200002 36189.90203575  3366.74674594
0.44300002 36288.21967041  3866.87287133
0.44400002 36383.09015965  3885.71421320
0.44500002 36474.00684126  2684.12229065
0.44600002 36562.90488119  2696.69717731
0.44700002 36648.76429685  4186.75503169
0.44800002 36730.49273022  2721.17868288
0.44900002 36810.53805375  2733.18258002
0.45000002 36887.06182096  3743.11477568
0.45100002 36959.21003518  2756.41801506
0.45200002 37029.17106685  4277.42489851
0.45300002 37095.26045112  3031.42482773
0.45400002 37158.75010314  3550.51874062
0.45500002 37218.95772159  5091.55365762
0.45600002 37275.67427452  2810.77235188
0.45700002 37329.08965961  2564.50858116
0.45800002 37378.68695376  2830.87499061
0.45900002 37425.28337911  2840.57914310
0.46000002 37469.36933541  2591.00701234
0.46100002 37508.94219975  3899.05472646
0.46200002 37545.94656015  2868.32272341
0.46300002 37579.48194069  3138.63848044
0.46400002 37609.08594135  2885.55725561
0.46500002 37636.44905197  3946.18187013
0.46600002 37659.64307470  3165.66974690
0.46700002 37679.42375351  3438.62437472
0.46800002 37696.76486102  3712.75454713
0.46900002 37709.94208203  2658.55104279
0.47000002 37719.57993614  3730.84382831
0.47100002 37726.41381867  2671.03022496
0.47200002 37729.69733707  3212.30658353
0.47300002 37730.30145014  3219.14947230
0.47400002 37726.13815892  3763.18245972
0.47500002 37719.89144819  2962.52041476
0.47600002 37710.68361860  3777.47935712
0.47700002 37696.96779513  3784.02180663
