# SAXS profile: number of points = 501, q_min = 0, q_max = 0.5, delta_q = 0.001
#    q    intensity    error
0.00000000 1700912.83420645 382.70538770
0.00100000 1700842.76829269 816.40454817
0.00200000 1700632.52305796 1377.51238730
0.00300000 1700282.26091570 1530.25408934
0.00400000 1699791.85735743 1784.78151804
0.00500000 1699161.78061175 1682.17022939
0.00600000 1698391.72950181 1961.64252744
0.00700000 1697482.41185063 2240.67687677
0.00800000 1696433.22237246 2977.24043096
0.00900000 1695245.65332863 4068.58974191
0.01000000 1693918.68677843 4192.44893080
0.01100000 1692453.66062438 3351.05839394
0.01200000 1690850.09725560 3626.87361763
0.01300000 1689109.29107727 4611.26856802
0.01400000 1687230.55351121 4175.89580506
0.01500000 1685215.68881381 5257.87318323
0.01600000 1683063.56694037 5579.35597382
0.01700000 1680776.22227791 4991.90560410
0.01800000 1678353.25903161 5261.63770383
0.01900000 1675795.47546127 6032.86398388
0.02000000 1673103.52335724 6851.35923807
0.02100000 1670279.04040549 6063.11319156
0.02200000 1667320.19194664 8628.38238533
0.02300000 1664229.88905478 10185.08738462
0.02400000 1661007.97821290 6851.65822255
0.02500000 1657655.97914369 8404.31619809
0.02600000 1654173.97427518 8039.28588268
0.02700000 1650562.99323177 8318.83786690
0.02800000 1646823.04350043 10745.52085163
0.02900000 1642956.46392698 9611.29575527
0.03000000 1638963.92893599 7621.18261986
0.03100000 1634845.31856269 9416.70946821
0.03200000 1630602.09212305 8878.62880054
0.03300000 1626236.63863479 8293.80723939
0.03400000 1621747.37297707 10217.00892117
0.03500000 1617137.25752454 11352.30407205
0.03600000 1612406.43712881 11633.51298151
0.03700000 1607556.57420878 16493.53121417
0.03800000 1602588.73556998 12187.68789805
0.03900000 1597504.70380175 10543.53153336
0.04000000 1592303.16598094 11751.19790948
0.04100000 1586988.11396906 10997.82813974
0.04200000 1581559.91587337 12241.27431677
0.04300000 1576018.43062444 14562.41097493
0.04400000 1570367.80311132 12719.97979594
0.04500000 1564607.40624951 11875.37076522
0.04600000 1558737.52094532 15384.74004692
0.04700000 1552761.60450079 15651.83770130
0.04800000 1546679.68799802 15915.33473001
0.04900000 1540494.66718395 15019.82370418
0.05000000 1534206.17468523 12910.34556116
0.05100000 1527817.17152728 13108.67194236
0.05200000 1521326.38406827 15722.90891205
0.05300000 1514738.94355261 14723.26321770
0.05400000 1508053.51652765 12441.44209155
0.05500000 1501273.76617714 15132.84026900
0.05600000 1494398.35741497 14054.81720734
0.05700000 1487432.43975152 15528.79539587
0.05800000 1480374.50705731 14411.44649911
0.05900000 1473226.41486432 15910.84602366
0.06000000 1465991.48092915 16096.58721262
0.06100000 1458670.91394187 13565.64013360
0.06200000 1451265.38727659 15085.90440591
0.06300000 1443777.75203909 15246.29377438
0.06400000 1436206.36563191 21004.51907968
0.06500000 1428557.39940595 18385.53459039
0.06600000 1420828.92084413 14279.33132259
0.06700000 1413023.97659547 14412.84523578
0.06800000 1405145.36462446 18906.23176601
0.06900000 1397194.10209218 17604.64651059
0.07000000 1389169.58092663 22191.98509452
0.07100000 1381076.63059787 20881.87963270
0.07200000 1372914.10234090 21046.77417486
0.07300000 1364687.49231556 18177.63824937
0.07400000 1356395.14837654 19837.27997466
0.07500000 1348040.28058321 16904.42591087
0.07600000 1339622.82869485 15472.64439679
0.07700000 1331148.20069678 17131.87814626
0.07800000 1322614.52917988 23509.47435868
0.07900000 1314024.10215498 18921.94795854
0.08000000 1305381.26563625 22204.53637011
0.08100000 1296685.48847546 20734.00193352
0.08200000 1287938.18295370 16034.83113021
0.08300000 1279142.37419787 16117.19467131
0.08400000 1270298.48247098 21055.19833526
0.08500000 1261410.69964325 21153.85842609
0.08600000 1252478.36112043 21248.29639405
0.08700000 1243504.56616907 22979.96546189
0.08800000 1234488.77960563 21424.55377623
0.08900000 1225436.46622196 18197.73237814
0.09000000 1216346.26691123 18263.44005561
0.09100000 1207221.59131995 21657.55636578
0.09200000 1198063.09065210 26740.76943982
0.09300000 1188874.19512288 23468.37771456
0.09400000 1179653.26385505 23534.08371995
0.09500000 1170404.54741023 18539.20890237
0.09600000 1161129.33026547 18583.87580449
0.09700000 1151830.59521346 22011.48370935
0.09800000 1142509.21164377 18662.88884969
0.09900000 1133166.69668166 18697.25137444
0.10000000 1123803.47485483 22133.31047813
0.10100000 1114421.61463947 18755.71665650
0.10200000 1105024.15176454 20487.14873735
0.10300000 1095611.82330088 22219.00882174
0.10400000 1086187.08492911 25661.17108868
0.10500000 1076752.43766051 20544.43747717
0.10600001 1067304.93888621 23982.34310523
0.10700001 1057851.77399910 18850.91949974
0.10800001 1048390.50075504 18855.30404344
0.10900001 1038925.30224141 18856.49512317
0.11000001 1029456.29140639 25710.67208806
0.11100001 1019985.79000398 23990.06691019
0.11200001 1010515.70028135 29118.01127440
0.11300001 1001045.45019590 22253.24140556
0.11400001 991579.21758693 20525.69077049
0.11500001 982117.98127070 20506.62441455
0.11600001 972661.93551229 25605.32665815
0.11700001 963214.59271897 23868.45873166
0.11800001 953773.69530677 18727.34738937
0.11900001 944344.52535476 18698.02248273
0.12000001 934926.24146172 22059.58570640
0.12100001 925523.02085712 18630.77928751
0.12200001 916132.89533339 16902.65271521
0.12300001 906759.34638243 16865.72463733
0.12400001 897402.65978462 18508.93073015
0.12500001 888064.79674897 25176.63817417
0.12600001 878748.43936010 21762.20612626
0.12700001 869453.01861980 20032.19849305
0.12800001 860179.17006089 18308.91449763
0.12900001 850930.39659725 24889.71527357
0.13000001 841706.76814227 18193.49265094
0.13100001 832508.57827173 21428.77181482
0.13200001 823339.48502142 18068.18585054
0.13300001 814199.92084708 18001.96109860
0.13400001 805089.27712627 19563.67035651
0.13500001 796010.94453387 17862.48643752
0.13600001 786964.23911661 19406.53905165
0.13700001 777951.92220478 17713.96610387
0.13800001 768973.03498328 19239.70624254
0.13900001 760032.44792408 19152.81859090
0.14000001 751127.18398245 17474.97475948
0.14100001 742260.81358749 15810.15607507
0.14200001 733432.13316596 20451.75599795
0.14300001 724646.57919327 15652.36684886
0.14400001 715897.37748307 20241.99930315
0.14500001 707194.34814581 23231.33543246
0.14600001 698531.96172137 15402.63048257
0.14700001 689916.06384550 22974.20600990
0.14800001 681343.14813232 24364.83212671
0.14900001 672815.44130395 19679.85258665
0.15000001 664335.27438401 22570.79201215
0.15100001 655901.93909756 20936.39088388
0.15200001 647518.48004213 17832.65978183
0.15300001 639183.80103528 23624.23440107
0.15400001 630897.09894550 19068.86571551
0.15500001 622662.69670289 16027.33856951
0.15600001 614478.32299418 21706.44778420
0.15700001 606349.25769798 18681.62151139
0.15800001 598268.14508678 15695.56552716
0.15900001 590244.03792457 15582.44333671
0.16000001 582271.64322391 15468.04693237
0.16100001 574357.38828234 22331.01631054
0.16200001 566496.04447230 15235.91183531
0.16300001 558691.78457163 15118.20040421
0.16400001 550943.86315886 14999.44738262
0.16500001 543253.56889519 13527.01450412
0.16600001 535620.32851295 14759.01884899
0.16700001 528045.26019887 14637.41530381
0.16800001 520527.31138347 13195.36796661
0.16900001 513071.32851892 13083.31949500
0.17000001 505673.69551724 14267.58399273
0.17100001 498336.09402512 14142.77901627
0.17200001 491059.33322892 15291.58835886
0.17300001 483843.42728818 13891.14545345
0.17400001 476689.29525532 13764.40405054
0.17500001 469596.17179591 14876.80742509
0.17600001 462563.28385227 14737.26691956
0.17700001 455595.02212242 14597.26519824
0.17800001 448688.45783197 19275.65705889
0.17900001 441844.44884976 15508.74088716
0.18000001 435064.38712558 11811.99866840
0.18100001 428348.40722794 18710.25931152
0.18200001 421693.37436101 13890.58040761
0.18300001 415104.67329418 14893.95638138
0.18400001 408578.26755894 11338.04746038
0.18500001 402117.19494843 15706.69837670
0.18600001 395719.95778115 12209.93987418
0.18700001 389386.72673840 14274.91807665
0.18800001 383117.53014436 13033.65899130
0.18900001 376915.16986805 12890.49941853
0.19000001 370773.57248722 11684.92968903
0.19100001 364701.51227221 15755.10607459
0.19200001 358691.25043588 10384.11219078
0.19300001 352747.54315516 13344.44018812
0.19400001 346867.83302248 11160.47305487
0.19500001 341053.46516418 10026.97234965
0.19600001 335303.25513327 10899.03282316
0.19700001 329618.33207391 14684.49738785
0.19800001 323998.50952282 9671.35596631
0.19900001 318444.08385502 11463.98756057
0.20000001 312952.34605969 13209.71915149
0.20100001 307527.26066598 12113.49937015
0.20200001 302165.57500961 11961.22485208
0.20300001 296868.95228933 15443.12362800
0.20400001 291636.75810634 10761.39688277
0.20500001 286467.80320016 9737.04109101
0.20600001 281363.35295169 13104.49878315
0.20700001 276322.84039462 15518.29145010
0.20800001 271345.65901368 9357.35549341
0.20900001 266434.20699437 10071.21350047
0.21000001 261583.75493693 12418.68935269
0.21100001 256796.63042699 9799.35988034
0.21200001 252072.39988333 11275.19897981
0.21300001 247410.65185211 10324.44698988
0.21400001 242812.41251224 9396.84080847
0.21500001 238276.62913676 9264.19577883
0.21600001 233800.90936629 10654.30794354
0.21700001 229388.01700130 9751.28506376
0.21800001 225036.27563747 12567.15140716
0.21900001 220744.71334076 8013.03347314
0.22000001 216513.57295148 10048.39539579
0.22100001 212345.43616539 7778.21369452
0.22200001 208235.89645873 7662.04017249
0.22300001 204186.24094917 8232.78962436
0.22400001 200194.12130449 7432.20710487
0.22500001 196264.37975122 7984.03534582
0.22600001 192391.57748706 8516.21358018
0.22700001 188578.14755190 8384.18483664
0.22800001 184822.02557517 7618.36425448
0.22900001 181122.92167357 6873.61520257
0.23000001 177481.50445245 6764.70786212
0.23100001 173898.63388068 7262.00729430
0.23200001 170370.02139458 6549.87578228
0.23300001 166898.87035355 7615.59581441
0.23400001 163483.12132979 6339.05832937
0.23500001 160121.46138913 6235.13000139
0.23600001 156815.55363507 6132.27251494
0.23700001 153563.98365054 6030.45792318
0.23800001 150366.31951131 7007.82265229
0.23900001 147222.39734905 5830.00721078
0.24000001 144131.15041570 6252.40960077
0.24100001 141093.73623987 5633.87315455
0.24200001 138107.94447319 5537.43829558
0.24300001 135174.08420464 5936.84605910
0.24400001 132290.86861933 5834.02758208
0.24500001 129458.90410836 6210.14392384
0.24600001 126677.38913362 5162.73723836
0.24700001 123946.68592331 6455.14370825
0.24800001 121264.36526701 4982.14668268
0.24900001 118631.15641768 4893.53543373
0.25000001 116046.79483668 6116.82684522
0.25100001 113509.94806186 5148.81148767
0.25200001 111021.71047035 4634.60152285
0.25300001 108580.69898598 4550.61730979
0.25400001 106185.55846187 4873.91736399
0.25500001 103836.65043183 5183.52583480
0.25600001 101533.98841282 5479.78961390
0.25700001 99276.21249723  4994.58648705
0.25800001 97062.83606406  6033.42617521
0.25900001 94894.24780610  4441.05100745
0.26000001 92769.74504372  3995.12925934
0.26100001 90686.39295395  4989.56557641
0.26200001 88648.60421398  3846.90636189
0.26300001 86651.54001759  5833.38195001
0.26400001 84695.87863253  4039.99360194
0.26500001 82782.60850245  4954.53935332
0.26600001 80909.32430833  3888.50231026
0.26700001 79077.17800083  3178.90270606
0.26800001 77284.79541014  3430.28580660
0.26900001 75531.28428062  3976.72230556
0.27000001 73817.00821976  3300.72767874
0.27100001 72141.10017772  2943.35702654
0.27200001 70503.48569109  4619.38860109
0.27300001 68902.74679699  3398.28363285
0.27400001 67337.85666444  3888.76140641
0.27500001 65811.64622331  2997.06251085
0.27600001 64319.43367099  3206.96711461
0.27700001 62864.16971126  3145.72320123
0.27800001 61443.08594258  3342.81124891
0.27900001 60056.90209635  2522.39000743
0.28000001 58704.50051064  2474.39481363
0.28100001 57385.63333032  3883.85984762
0.28200001 56100.31358657  3095.89595180
0.28300001 54847.50814288  2336.50395747
0.28400001 53626.97086952  3438.82966977
0.28500001 52438.55550043  2924.49837868
0.28600001 51280.37230751  2869.90617203
0.28700001 50153.68536768  2599.96717252
0.28800001 49056.60352918  2339.26425001
0.28900001 47991.22933673  2296.38043246
0.29000001 46953.45146770  2664.37372965
0.29100001 45945.97286357  2414.92044802
0.29200001 44966.57932441  2964.42188228
0.29300001 44015.15945035  2135.17548601
0.29400001 43091.17834493  2669.49862483
0.29500001 42195.51524181  2435.52525505
0.29600001 41325.67034388  2393.37631126
0.29700001 40481.88456105  2352.40242320
0.29800001 39664.55113656  2312.64176349
0.29900001 38872.89206913  1924.20824851
0.30000001 38105.94070495  1892.53163470
0.30100001 37364.66123489  2369.66692770
0.30200001 36646.26887785  2165.24489915
0.30300001 35952.18894306  1803.36188276
0.30400001 35282.26143193  1775.57989062
0.30500001 34634.12700729  2066.61845636
0.30600001 34008.98469790  1566.11381948
0.30700001 33406.57447837  1697.72219537
0.30800001 32825.43569883  1977.89672167
0.30900001 32265.93916685  2100.51273921
0.31000001 31728.07676523  1628.12633629
0.31100001 31209.32050265  1752.71552241
0.31200001 30711.74935501  1730.30004058
0.31300001 30233.84248792  1708.81685832
0.31400001 29776.63634343  1829.02997399
0.31500001 29337.35822502  1529.64993028
0.31600002 28917.18704861  1650.01477112
0.31700002 28514.91149814  1496.17747715
0.31800002 28131.03375931  1615.28403494
0.31900002 27765.12400382  1599.27121834
0.32000002 27416.18416025  1452.09826280
0.32100002 27084.56164956  1569.82126754
0.32200002 26769.63576828  1556.38669726
0.32300002 26470.41728982  2058.33974592
0.32400002 26187.30023330  1404.29404151
0.32500002 25919.40535994  1520.95077854
0.32600002 25667.33358997  1258.98277220
0.32700002 25429.92976013  1501.38312413
0.32800002 25207.95323496  1741.61757147
0.32900002 24998.85717436  1237.44348873
0.33000002 24805.48838535  1354.75181232
0.33100002 24623.33330975  2084.61149672
0.33200002 24456.91629351  1588.10993472
0.33300002 24302.18884818  1339.29369085
0.33400002 24160.86302646  1699.71679440
0.33500002 24031.62032008  1332.31309364
0.33600002 23914.38803351  1329.75960958
0.33700002 23808.35665341  1207.08373949
0.33800002 23715.11095076  1326.50479385
0.33900002 23632.01914592  1325.75633687
0.34000002 23560.33654969  1807.66690738
0.34100002 23499.35985643  1446.62066127
0.34200002 23449.74005262  1568.43593770
0.34300002 23408.60709608  1570.24943837
0.34400002 23378.44157711  1814.75161337
0.34500002 23357.21097837  1212.23930719
0.34600002 23346.64161680  1579.75057982
0.34700002 23342.98255305  1949.60599517
0.34800002 23349.90655976  1222.36766630
0.34900002 23364.77231724  1962.64096760
0.35000002 23388.08759692  1477.65944436
0.35100002 23419.62155678  1483.86729212
0.35200002 23457.97632220  1490.51988611
0.35300002 23504.52006234  1372.89908187
0.35400002 23558.82331839  1505.40888135
0.35500002 23619.73679775  1387.42340521
0.35600002 23687.35885745  2029.53300303
0.35700002 23761.77176470  1531.20864504
0.35800002 23843.07927780  1412.34486792
0.35900002 23930.06017218  2067.55729681
0.36000002 24023.75325991  1430.97493071
0.36100002 24122.65035624  1571.83197166
0.36200002 24227.92825901  1583.05290743
0.36300002 24337.04912854  1594.56353443
0.36400002 24452.02868962  1606.49836100
0.36500002 24571.58236165  1483.87792911
0.36600002 24696.40392649  1495.49081061
0.36700002 24825.41971484  1370.36323317
0.36800002 24960.12351939  1934.16006314
0.36900002 25098.01542668  2367.99786768
0.37000002 25238.88891802  2247.27077571
0.37100002 25384.18273005  1558.08120978
0.37200002 25533.61280476  1857.18741533
0.37300002 25685.76107699  2449.65114995
0.37400002 25842.28767890  1889.71737604
0.37500002 26000.66080347  1906.36854042
0.37600002 26163.15606776  1479.52654572
0.37700002 26327.16004121  1642.02504956
0.37800002 26494.64312679  1807.46463973
0.37900002 26664.35081751  1975.82848918
0.38000002 26836.45532106  1687.07384368
0.38100002 27010.19576961  2011.98957819
0.38200002 27186.19434110  2186.58571444
0.38300002 27363.85202377  2206.62113173
0.38400002 27543.64322233  1749.71001859
0.38500002 27724.06203700  2247.31257518
0.38600002 27906.80798238  2105.98736416
0.38700002 28089.94077433  2288.76848272
0.38800002 28274.12557725  2969.63155007
0.38900002 28459.38918473  1664.87434618
0.39000002 28646.29313042  2688.16827471
0.39100002 28832.88944802  2543.06096980
0.39200002 29020.75386204  2224.00557758
0.39300002 29208.45654854  2416.70780932
0.39400002 29397.56836307  1741.80600803
0.39500002 29585.77559784  2284.61369990
0.39600002 29774.23402165  1950.36129199
0.39700002 29962.26688618  1967.62215964
0.39800002 30151.46643284  2526.39149210
0.39900002 30339.36869577  2366.47087039
0.40000002 30526.66616053  2203.41486786
0.40100002 30713.63016988  2778.04798049
0.40200002 30901.13410321  2241.56837405
0.40300002 31086.71238658  3014.16777581
0.40400002 31271.80517368  2279.71470517
0.40500002 31455.94323721  2107.23373730
0.40600002 31639.51972587  2124.75204786
0.40700002 31821.72773283  2336.98779543
0.40800002 32002.95291023  3141.41000651
0.40900002 32182.31220591  2572.97598277
0.41000002 32361.27383986  2394.08715211
0.41100002 32538.40070343  2815.22256225
0.41200002 32713.34011042  3242.54642538
0.41300002 32887.41098194  3267.69331000
0.41400002 33059.37492955  2469.53542425
0.41500002 33230.39892415  2488.29238934
0.41600002 33398.25687705  2715.77938664
0.41700002 33565.11952733  2314.98640349
0.41800002 33730.87353411  2331.98405228
0.41900002 33892.68203133  2348.76297607
0.42000002 34053.16319160  2795.59456468
0.42100002 34212.03507195  2165.62192267
0.42200002 34368.54658340  2834.88969926
0.42300002 34522.15885501  3073.85317011
0.42400002 34673.63948653  2873.57800861
0.42500002 34823.13660686  3560.31765539
0.42600002 34968.80429251  2463.72722318
0.42700002 35113.27325781  2705.12669997
0.42800002 35254.73157049  2268.64208406
0.42900002 35394.08723918  2739.50248213
0.43000002 35530.80402505  2297.06658907
0.43100002 35663.47443164  2542.09257795
0.43200002 35794.26253547  2557.32120803
0.43300002 35921.99583862  2806.22644789
0.43400002 36047.29479308  3057.71192572
0.43500002 36169.14265286  2602.00824575
0.43600002 36289.11979519  3092.37748989
0.43700002 36405.15427745  3587.72812406
0.43800002 36517.51657474  2404.67858040
0.43900002 36627.97961591  2417.44676921
0.44000002 36734.60485814  3401.99191713
0.44100002 36838.98249018  2930.90958581
0.44200002 36939.82899848  2454.65175328
0.44300002 37037.76443807  2466.71522847
0.44400002 37132.10403726  2974.28167434
0.44500002 37222.27925773  3237.22178046
0.44600002 37310.32249367  3502.32013846
0.44700002 37395.21854903  2764.25468615
0.44800002 37475.63256224  3533.57756176
0.44900002 37554.34682921  3295.39409044
0.45000002 37629.41965578  2545.63036036
0.45100002 37699.89265930  3067.26341213
0.45200002 37768.00475454  4619.40488045
0.45300002 37832.04275690  3091.63468062
0.45400002 37893.38432949  4137.95776489
0.45500002 37951.26492067  4412.97329412
0.45600002 38005.61607817  2865.81361620
0.45700002 38056.33664072  3398.81158646
0.45800002 38103.09603551  3672.75760093
0.45900002 38146.79226855  3684.98030779
0.46000002 38187.72456172  3432.88566218
0.46100002 38223.99844162  3973.38482632
0.46200002 38257.60188903  3188.38869254
0.46300002 38287.65806798  3197.78535340
0.46400002 38313.52966787  2672.36882099
0.46500002 38337.11000000  4287.62258561
0.46600002 38356.18895579  4567.64697829
0.46700002 38371.83306955  3501.81365190
0.46800002 38384.89994484  3510.49119084
0.46900002 38393.68952454  2977.43076375
0.47000002 38398.64447694  2984.15079696
0.47100002 38400.74479103  2990.65014607
0.47200002 38399.16364987  4631.51534315
0.47300002 38394.94042554  3821.83255110
0.47400002 38385.47442441  4375.94429179
0.47500002 38374.00423075  3013.89443513
0.47600002 38359.43881648  3019.07977515
0.47700002 38340.13049672  2748.98748691
