# SAXS profile: number of points = 501, q_min = 0, q_max = 0.5, delta_q = 0.001
#    q    intensity    error
0.00000000 1664650.74656091 349.57665678
0.00100000 1664581.88579176 599.24949312
0.00200000 1664375.25239514 973.65955348
0.00300000 1664031.01547284 1497.62796728
0.00400000 1663549.04308651 1746.72656161
0.00500000 1662929.79320841 1795.96424775
0.00600000 1662172.99044298 1745.28171102
0.00700000 1661279.32269500 2392.24232410
0.00800000 1660248.16471558 2689.60214039
0.00900000 1659080.99990636 3484.07024874
0.01000000 1657776.87240190 3008.86515333
0.01100000 1656337.06878332 3279.54753898
0.01200000 1654761.10021562 4194.81957296
0.01300000 1653050.29744642 3818.54635552
0.01400000 1651203.91318030 4458.25076323
0.01500000 1649223.74945758 4749.76460994
0.01600000 1647108.70899875 4620.14013528
0.01700000 1644860.80934272 6217.57413823
0.01800000 1642479.69068418 7021.60099363
0.01900000 1639966.04562641 6887.85770243
0.02000000 1637320.55045530 7736.33995086
0.02100000 1634544.90409931 7012.19795651
0.02200000 1631637.09272436 7317.89269334
0.02300000 1628600.26811344 8794.44184812
0.02400000 1625434.15725924 9752.60538825
0.02500000 1622140.07876429 10754.78921339
0.02600000 1618718.39749063 7211.39079066
0.02700000 1615169.98201737 7462.08565869
0.02800000 1611494.80742245 9113.00355389
0.02900000 1607695.36619871 10128.48127209
0.03000000 1603772.15828903 8203.29496672
0.03100000 1599725.17199288 11518.02176833
0.03200000 1595555.68481835 11057.20140507
0.03300000 1591266.22547412 8927.00393645
0.03400000 1586855.00636624 11663.38483494
0.03500000 1582325.32085161 10253.46855260
0.03600000 1577676.96062027 11382.93979692
0.03700000 1572911.76317804 11655.27670418
0.03800000 1568030.79761327 11924.87476773
0.03900000 1563035.59102765 10316.03537852
0.04000000 1557925.11398248 12455.61186347
0.04100000 1552703.13835756 11738.43627025
0.04200000 1547370.07683189 10978.59120445
0.04300000 1541925.99527092 11194.38324529
0.04400000 1536374.71866526 10370.52983262
0.04500000 1530715.57116366 10561.93793179
0.04600000 1524948.93253315 15051.24666379
0.04700000 1519078.42736559 12031.10170428
0.04800000 1513103.77867609 17794.10126516
0.04900000 1507028.07705071 13563.25332479
0.05000000 1500850.56253890 14925.95953949
0.05100000 1494574.78492387 11657.68386547
0.05200000 1488198.91509957 18929.89108222
0.05300000 1481728.54334992 18003.00264096
0.05400000 1475161.73599691 14604.10186742
0.05500000 1468502.70813086 13568.96565611
0.05600000 1461749.69867613 16247.34865895
0.05700000 1454908.00291753 18986.55032434
0.05800000 1447976.12999097 16658.96615339
0.05900000 1440956.02536737 14265.46531742
0.06000000 1433850.41561205 15743.67829895
0.06100000 1426661.16102233 17248.33424280
0.06200000 1419388.51897944 17437.18877074
0.06300000 1412035.48029272 18977.75774244
0.06400000 1404600.28717330 16433.82412848
0.06500000 1397089.51295736 16597.42419032
0.06600000 1389500.48260434 15360.92855391
0.06700000 1381836.74632099 15504.20901930
0.06800000 1374100.76587116 17066.33231098
0.06900000 1366293.65146351 22953.73441926
0.07000000 1358414.89804900 20253.96707837
0.07100000 1350469.19149491 21877.60192692
0.07200000 1342455.58986336 20579.84515671
0.07300000 1334379.03461755 20736.25116957
0.07400000 1326238.39966511 16412.20096500
0.07500000 1318036.48144297 19533.30157056
0.07600000 1309773.47444662 16640.67277297
0.07700000 1301454.56250161 16749.72100477
0.07800000 1293078.07093148 18387.57103095
0.07900000 1284646.14889085 16957.32996072
0.08000000 1276162.89223234 17055.91785480
0.08100000 1267627.82823674 18710.18762262
0.08200000 1259042.93788392 20377.61090587
0.08300000 1250410.27658184 20481.72129166
0.08400000 1241731.03530791 15832.07144331
0.08500000 1233008.95992760 22268.14286167
0.08600000 1224243.32005075 20769.28889981
0.08700000 1215437.64564552 17648.15544349
0.08800000 1206590.60362620 24161.97797235
0.08900000 1197708.52023251 22636.69209563
0.09000000 1188789.48968777 16226.97729651
0.09100000 1179836.88280238 21166.27467189
0.09200000 1170851.42144347 22866.72933522
0.09300000 1161836.52022685 18020.08527552
0.09400000 1152790.41880192 21355.44351196
0.09500000 1143717.56305273 16469.53368207
0.09600000 1134619.27259008 23112.19566911
0.09700000 1125497.96193484 26471.71330922
0.09800000 1116354.60211447 18235.65328294
0.09900000 1107191.51520607 19929.44821084
0.10000000 1098008.18412293 18298.30724893
0.10100000 1088807.05521488 24988.12309242
0.10200000 1079590.81560186 18347.64677416
0.10300000 1070360.34932734 18367.38445847
0.10400000 1061118.34315363 16712.61469092
0.10500000 1051867.10154909 16724.68770152
0.10600001 1042603.25607371 21753.91796158
0.10700001 1033334.94091471 23436.03756279
0.10800001 1024058.61411873 16743.35912881
0.10900001 1014778.90592975 20092.62328308
0.11000001 1005495.81860418 26786.40986844
0.11100001 996211.74266610 16736.35806463
0.11200001 986928.68925491 25092.66310560
0.11300001 977646.00670515 16717.74750174
0.11400001 968367.50109474 23386.07625256
0.11500001 959094.33410276 18357.06641912
0.11600001 949826.59809730 21670.29485608
0.11700001 940567.96874868 18312.85921398
0.11800001 931316.20219728 21611.19348984
0.11900001 922076.20459516 16597.37246448
0.12000001 912847.69884564 18225.00516594
0.12100001 903633.74519621 18190.14814770
0.12200001 894433.72041197 18152.53321095
0.12300001 885250.23344055 24698.48267665
0.12400001 876083.63268895 18069.22577559
0.12500001 866936.18673916 21300.62311188
0.12600001 857810.09090585 16341.28300181
0.12700001 848705.12087968 19554.16690658
0.12800001 839621.81056868 19496.01936024
0.12900001 830563.50636263 17815.58805116
0.13000001 821529.99206496 24214.59765747
0.13100001 812522.35817959 19305.53214036
0.13200001 803543.39444533 20839.89891734
0.13300001 794594.26570116 15971.34549353
0.13400001 785673.52670343 22273.84553216
0.13500001 776785.28799300 15846.42062219
0.13600001 767928.19664434 15780.92518512
0.13700001 759105.44172661 18856.18006162
0.13800001 750315.82111928 23466.12841207
0.13900001 741564.40470399 20244.70920312
0.14000001 732847.95378659 18599.68194428
0.14100001 724170.03693967 24679.71602287
0.14200001 715529.50448839 18417.73031421
0.14300001 706931.74670048 18323.67173876
0.14400001 698370.04634750 18227.45906946
0.14500001 689854.23529824 21150.93185198
0.14600001 681378.32166156 22536.58905210
0.14700001 672948.99134936 19421.30880657
0.14800001 664561.76941997 16338.25187201
0.14900001 656219.36131543 19194.41722408
0.15000001 647924.00344278 17610.57524449
0.15100001 639675.38075666 18959.97918025
0.15200001 631475.41535186 18840.06990603
0.15300001 623324.01571415 20158.29961945
0.15400001 615219.99638521 15734.25215007
0.15500001 607167.86135515 15628.50148884
0.15600001 599164.49821692 16932.38951873
0.15700001 591216.48987268 16814.19776556
0.15800001 583315.72615289 19476.91301553
0.15900001 575471.26292252 22098.09753927
0.16000001 567677.46346149 15080.35252868
0.16100001 559941.16975090 13606.57106723
0.16200001 552257.24242384 14852.95923614
0.16300001 544629.54529985 20096.83117029
0.16400001 537057.50527123 15950.60865958
0.16500001 529542.24233378 15822.72294794
0.16600001 522083.42195334 14386.00937113
0.16700001 514681.57412693 12969.97628037
0.16800001 507336.39961671 12860.97833753
0.16900001 500051.94244546 17851.85518823
0.17000001 492825.11962906 13905.06140693
0.17100001 485657.49386169 12529.96393331
0.17200001 478549.79744220 13660.20461306
0.17300001 471501.97635692 15998.06281329
0.17400001 464515.06756849 13412.87320948
0.17500001 457588.20533810 13288.36211060
0.17600001 450720.50398282 13163.29294051
0.17700001 443916.70337520 13037.83419391
0.17800001 437173.04263768 17607.14512386
0.17900001 430491.38325180 16272.57505553
0.18000001 423872.53369212 12658.95381666
0.18100001 417316.87734511 13671.30154761
0.18200001 410820.99456522 14660.14788357
0.18300001 404390.31339179 11161.17317686
0.18400001 398021.05787449 13254.10185335
0.18500001 391715.70120678 18579.07658595
0.18600001 385473.45167558 10812.53083032
0.18700001 379293.76899945 12835.30174934
0.18800001 373177.44890686 11637.53929399
0.18900001 367126.50037356 13602.03748150
0.19000001 361135.07029122 13450.47632852
0.19100001 355212.37988830 10230.11702416
0.19200001 349349.45156231 14159.13394086
0.19300001 343552.74868032 11996.86255080
0.19400001 337818.66174513 10869.31595527
0.19500001 332148.86427497 14647.76560671
0.19600001 326541.64334403 10614.23661849
0.19700001 320998.88347451 10487.03401870
0.19800001 315519.69447955 14127.39498797
0.19900001 310104.89274604 10233.46194425
0.20000001 304751.46363688 11025.90847548
0.20100001 299463.34382055 15425.35756923
0.20200001 294237.41607641 13439.29461448
0.20300001 289075.40444986 10614.84935311
0.20400001 283976.22008011 9605.49609822
0.20500001 278939.24283030 8619.22301086
0.20600001 273965.59339045 10207.95849224
0.20700001 269054.39718942 11752.29662475
0.20800001 264205.46985651 11595.97862015
0.20900001 259420.72413031 11440.45447495
0.21000001 254695.80950927 12091.68412805
0.21100001 250032.84764911 8746.14942423
0.21200001 245431.40356491 8625.68708606
0.21300001 240891.24758101 10825.65317808
0.21400001 236413.15468033 9149.18951867
0.21500001 231996.33007601 7516.68144983
0.21600001 227638.32922121 10373.47915305
0.21700001 223341.73389612 8763.93005244
0.21800001 219105.03448536 7197.60072315
0.21900001 214926.96358304 9929.62618702
0.22000001 210808.08333180 11880.09009788
0.22100001 206750.71259054 10327.19858220
0.22200001 202750.94719773 10173.02925667
0.22300001 198809.19065265 8683.98585833
0.22400001 194924.17365413 9868.03675786
0.22500001 191100.12337981 7773.95338670
0.22600001 187331.25959215 7654.35562890
0.22700001 183620.80438786 6907.81498774
0.22800001 179966.17391879 8036.38987638
0.22900001 176367.44321220 7301.61249429
0.23000001 172824.66221128 5988.37482882
0.23100001 169339.34075461 6482.31027065
0.23200001 165906.84300564 6378.28888100
0.23300001 162530.37368263 7986.74294049
0.23400001 159208.15342296 6734.50520830
0.23500001 155938.69062681 6072.25290020
0.23600001 152723.57562704 5429.32337033
0.23700001 149561.51594892 6407.21564630
0.23800001 146451.84960884 6300.35886817
0.23900001 143394.78724869 7743.31887768
0.24000001 140388.87134306 5582.56373301
0.24100001 137435.79797420 5487.81167269
0.24200001 134532.81103616 9317.07026902
0.24300001 131680.41366009 5783.40404152
0.24400001 128877.41774565 6630.74345667
0.24500001 126124.38419321 5584.78799626
0.24600001 123420.73201690 5487.28600505
0.24700001 120766.17629831 4941.75216790
0.24800001 118158.82248475 6619.84834287
0.24900001 115599.39217398 6502.46611740
0.25000001 113087.50272732 5109.29361493
0.25100001 110621.77014652 4599.65342030
0.25200001 108203.43782419 5748.84892358
0.25300001 105831.22211630 4838.60370407
0.25400001 103503.29639713 5938.50191174
0.25500001 101220.66229879 6218.99778587
0.25600001 98982.73946100  4578.94174411
0.25700001 96788.55424768  4869.43239459
0.25800001 94637.66873974  4412.00832540
0.25900001 92530.24765492  5413.01974393
0.26000001 90465.78949752  4958.43015697
0.26100001 88441.28956355  3475.74284431
0.26200001 86460.96626617  3751.97380865
0.26300001 84520.16504993  4016.39843322
0.26400001 82619.83643555  4597.79411520
0.26500001 80760.67984157  3544.58640597
0.26600001 78940.05466982  4110.01414087
0.26700001 77159.71191759  4342.54879221
0.26800001 75417.76821472  3651.72850976
0.26900001 73713.56781156  3283.93960141
0.27000001 72047.66305315  3221.61140588
0.27100001 70418.75971236  4022.31974512
0.27200001 68827.20517203  3945.86385924
0.27300001 67271.35174208  3317.82322493
0.27400001 65750.22817467  3525.85615273
0.27500001 64266.75182089  3724.90111182
0.27600001 62816.07039623  2871.00863333
0.27700001 61401.59266629  2816.49118890
0.27800001 60019.70942216  3265.37244565
0.27900001 58672.21423413  2710.65642591
0.28000001 57357.03792135  2417.59926281
0.28100001 56074.56922468  3083.54070761
0.28200001 54824.61015418  2327.30481120
0.28300001 53606.13421046  2511.98356799
0.28400001 52419.09185984  3137.28279630
0.28500001 51262.82763243  2199.17540952
0.28600001 50136.16091161  2158.36182940
0.28700001 49039.88117624  2330.37526380
0.28800001 47972.23345895  2911.43498643
0.28900001 46935.09514392  2654.17975602
0.29000001 45925.05420279  2205.09158192
0.29100001 44944.31210567  2165.41705975
0.29200001 43990.46661365  2706.73353886
0.29300001 43063.88765762  2278.94104272
0.29400001 42163.91438891  2798.62995004
0.29500001 41291.52628961  2200.01262485
0.29600001 40443.68955750  2522.47303711
0.29700001 39621.32242933  2302.39515536
0.29800001 38824.47615817  2437.78897337
0.29900001 38052.54019862  2226.07370700
0.30000001 37304.39566532  2021.15225283
0.30100001 36581.05131990  1822.83387356
0.30200001 35879.83927895  2119.96040416
0.30300001 35202.36898960  1605.22810192
0.30400001 34548.04909326  1896.68798501
0.30500001 33914.87600612  1712.36217062
0.30600001 33303.93231354  1993.74000234
0.30700001 32714.91926446  1964.85814405
0.30800001 32146.47080359  1787.98679075
0.30900001 31598.95956371  2057.09236499
0.31000001 31072.48384780  1739.43772815
0.31100001 30564.24155840  1430.40657266
0.31200001 30076.78735331  2118.15784964
0.31300001 29607.89660359  1952.34479448
0.31400001 29159.17496820  1791.10240722
0.31500001 28728.19408999  1634.05975721
0.31600002 28315.11826787  1884.93751234
0.31700002 27919.52306670  1598.11357601
0.31800002 27541.81886363  1713.23892353
0.31900002 27181.39876215  1435.17792260
0.32000002 26837.24294923  2067.54129471
0.32100002 26509.97022664  1280.43162258
0.32200002 26198.92327070  1396.27168183
0.32300002 25902.92492801  1510.65865333
0.32400002 25622.52640040  1623.82768752
0.32500002 25356.81077446  1363.94291614
0.32600002 25106.49126369  1600.91549124
0.32700002 24870.20478492  1590.69837337
0.32800002 24648.91787779  1459.70898584
0.32900002 24440.01578640  1451.73700646
0.33000002 24246.32496334  1444.59610972
0.33100002 24063.53680092  1677.70986521
0.33200002 23895.84548096  1432.31704596
0.33300002 23739.62671597  1308.29089027
0.33400002 23596.31516979  1422.85787212
0.33500002 23464.65911963  1419.14265076
0.33600002 23344.69246577  1416.08911203
0.33700002 23235.37380669  1178.03350779
0.33800002 23138.63926563  1294.25984862
0.33900002 23051.46601176  1528.31226896
0.34000002 22975.64091633  1645.28572394
0.34100002 22910.03235139  1645.39860140
0.34200002 22855.38209025  1175.90946423
0.34300002 22809.10645300  1412.33993846
0.34400002 22773.16181918  1296.36229795
0.34500002 22746.14712318  1180.52509160
0.34600002 22729.39764612  1301.37172386
0.34700002 22719.30320645  1304.54245190
0.34800002 22719.46746365  1546.17343147
0.34900002 22727.49378736  1431.83217642
0.35000002 22743.52661617  1436.93607967
0.35100002 22767.56711252  1562.76588062
0.35200002 22798.39735543  1448.61023657
0.35300002 22837.01007236  1940.23246764
0.35400002 22883.22858738  1462.23837599
0.35500002 22935.99720722  1347.26053976
0.35600002 22995.06230424  1477.66277366
0.35700002 23060.82346013  1362.20290631
0.35800002 23133.32848231  1370.30277755
0.35900002 23211.41118716  1504.09951617
0.36000002 23296.06197924  1639.92636070
0.36100002 23385.61565782  1396.82288940
0.36200002 23481.62774316  1406.43216029
0.36300002 23581.18359868  1802.54575966
0.36400002 23686.57877052  1685.89232385
0.36500002 23796.46204789  1437.06841114
0.36600002 23911.51309827  2106.12617346
0.36700002 24030.59616771  1459.13786842
0.36800002 24155.32282742  1336.99718183
0.36900002 24283.31615960  2021.58616605
0.37000002 24414.11485371  1630.37466716
0.37100002 24549.38711612  2191.76938555
0.37200002 24688.64930017  2071.99499067
0.37300002 24830.58552252  1392.99591380
0.37400002 24976.87741313  1685.93930525
0.37500002 25125.11939857  1983.87952169
0.37600002 25277.36168569  2287.09579366
0.37700002 25431.17845508  1730.33746405
0.37800002 25588.49355223  2036.58829830
0.37900002 25747.95841069  2054.68717851
0.38000002 25909.92345137  2073.05307355
0.38100002 26073.60012160  1942.22256507
0.38200002 26239.33481199  1507.44985636
0.38300002 26407.00671403  1977.35675642
0.38400002 26576.80076356  2148.73444353
0.38500002 26747.08009013  2168.11841482
0.38600002 26920.04500485  1875.25042388
0.38700002 27093.39978890  1892.20313090
0.38800002 27267.86893682  1750.18825063
0.38900002 27443.44782826  2087.07430622
0.39000002 27620.77867496  1619.95874603
0.39100002 27797.94340236  1797.97106445
0.39200002 27976.26597380  1649.20095729
0.39300002 28154.82723835  1830.34540548
0.39400002 28334.73946622  2014.60007149
0.39500002 28514.02172167  2201.85286167
0.39600002 28693.54162640  2904.79082417
0.39700002 28872.83561565  1723.70836792
0.39800002 29053.18113162  2260.48286504
0.39900002 29232.55310717  2280.13925039
0.40000002 29411.72516431  1946.02688770
0.40100002 29590.30661879  2676.44336048
0.40200002 29769.73695233  1979.53875243
0.40300002 29947.57089095  2177.78745837
0.40400002 30124.72990810  2013.08517149
0.40500002 30301.35439517  2583.49359814
0.40600002 30477.41377727  2232.77543911
0.40700002 30652.46736975  2251.11731029
0.40800002 30826.79836088  2836.83625357
0.40900002 30999.13635183  1906.44697597
0.41000002 31171.43552721  2113.89100044
0.41100002 31342.03557740  2130.63167951
0.41200002 31510.76852639  1952.09220270
0.41300002 31678.61210534  1967.24190495
0.41400002 31844.82468146  2180.57447339
0.41500002 32010.11196340  2197.17418928
0.41600002 32172.44898709  2414.86413540
0.41700002 32334.02001704  3041.01472670
0.41800002 32494.71301067  2246.52209044
0.41900002 32651.60278994  2468.46128789
0.42000002 32807.43579937  2486.14760268
0.42100002 32961.89771289  3129.73233614
0.42200002 33114.26215517  2521.32003997
0.42300002 33263.86060060  2538.69796134
0.42400002 33411.62295732  3407.98570314
0.42500002 33557.57170354  2358.76182681
0.42600002 33700.03619647  2806.03364687
0.42700002 33841.43606128  2824.40638751
0.42800002 33980.02525127  3061.26061995
0.42900002 34116.87146681  2640.64597666
0.43000002 34251.22539278  3321.51273986
0.43100002 34381.71284839  2673.52211778
0.43200002 34510.75777932  2689.76858878
0.43300002 34636.81747621  2254.85692455
0.43400002 34760.71086225  2948.57743862
0.43500002 34881.53923377  2965.62860619
0.43600002 35000.57077557  2753.14502767
0.43700002 35115.88378950  2999.24777659
0.43800002 35227.91231609  3015.68557673
0.43900002 35338.17521847  3032.01557743
0.44000002 35444.86353321  2579.14561722
0.44100002 35549.60764397  2356.93909849
0.44200002 35651.05769276  2842.81547514
0.44300002 35749.77974716  3095.21607719
0.44400002 35845.18801177  2631.93305449
0.44500002 35936.75810106  2885.00307708
0.44600002 36026.26320036  3864.89769930
0.44700002 36112.91399444  2912.14552252
0.44800002 36195.58320972  2681.54990918
0.44900002 36276.56205080  3428.13527627
0.45000002 36354.09027555  3443.09605317
0.45100002 36427.35859373  2716.75253267
0.45200002 36498.46757648  3224.09228617
0.45300002 36565.87834045  4233.23193610
0.45400002 36630.73908312  3500.06728527
0.45500002 36692.40307352  3011.71258701
0.45600002 36750.60207291  3778.88083724
0.45700002 36805.62985814  2781.40158020
0.45800002 36856.90044053  3045.11725872
0.45900002 36905.27959738  2801.11085420
0.46000002 36951.23008199  4088.28429003
0.46100002 36992.76968332  3332.67877872
0.46200002 37031.82544833  3086.23247914
0.46300002 37067.36229058  3095.86624524
0.46400002 37099.16470562  3363.96691912
0.46500002 37128.71391386  2595.29722558
0.46600002 37154.24402517  2862.92040905
0.46700002 37176.43060263  2609.78555200
0.46800002 37196.27458695  3663.46125770
0.46900002 37211.93737739  3672.81839323
0.47000002 37224.25553329  3681.85128931
0.47100002 37233.79794441  2899.76832135
0.47200002 37239.83464857  2906.38303290
0.47300002 37243.28455866  3707.19672068
0.47400002 37242.01383554  2653.49361155
0.47500002 37238.71823938  2924.72906915
0.47600002 37232.58189668  3463.18876927
0.47700002 37222.03763970  2935.70224779
