# SAXS profile: number of points = 501, q_min = 0, q_max = 0.5, delta_q = 0.001
#    q    intensity    error
0.00000000 1682732.95097189 302.89193117
0.00100000 1682663.51242807 555.27897229
0.00200000 1682455.14900168 832.81532513
0.00300000 1682108.02227697 1110.19133425
0.00400000 1681622.00925836 1513.45986584
0.00500000 1680997.56701356 1664.18765721
0.00600000 1680234.42105930 2117.09545673
0.00700000 1679333.25668333 2418.23999013
0.00800000 1678293.45381315 2492.26588414
0.00900000 1677116.50495793 3018.80983797
0.01000000 1675801.44056673 3318.08699560
0.01100000 1674349.53480253 3315.21222325
0.01200000 1672760.34998962 3588.07110804
0.01300000 1671035.16821978 3860.09140884
0.01400000 1669173.25869250 4131.20399840
0.01500000 1667176.45552455 4401.34603857
0.01600000 1665043.63819334 4670.44761392
0.01700000 1662776.84154595 6285.29674299
0.01800000 1660375.65427448 7098.10624142
0.01900000 1657840.83836841 5470.87501348
0.02000000 1655173.05617402 6256.55443536
0.02100000 1652374.00605782 5998.11791394
0.02200000 1649441.70704330 6828.68897740
0.02300000 1646379.20764989 8890.44812599
0.02400000 1643186.30937386 8626.72851757
0.02500000 1639864.45370881 11511.84899079
0.02600000 1636413.80423557 9278.46669440
0.02700000 1632835.36938494 7543.69975207
0.02800000 1629129.10186087 7795.38310990
0.02900000 1625297.40174741 9507.99023677
0.03000000 1621340.91925380 7539.23562107
0.03100000 1617259.53245909 7762.84611300
0.03200000 1613054.65143526 8783.08298160
0.03300000 1608728.66964034 9845.41991208
0.03400000 1604279.94658412 12633.70516227
0.03500000 1599711.63050323 10366.13184435
0.03600000 1595023.62757505 11508.09600479
0.03700000 1590217.77023975 9064.24170957
0.03800000 1585295.02496539 11128.77159029
0.03900000 1580257.09185341 13274.16018630
0.04000000 1575102.85373294 14530.32449901
0.04100000 1569836.07535236 14834.95159993
0.04200000 1564457.23483828 13117.97452270
0.04300000 1558966.30433545 15433.76712932
0.04400000 1553367.16802668 14679.32041959
0.04500000 1547659.33263163 11746.73488048
0.04600000 1541842.96055492 17391.98940356
0.04700000 1535921.70090833 13270.36411303
0.04800000 1529895.38534272 12369.20476601
0.04900000 1523767.00446497 11428.25306544
0.05000000 1517536.04540354 17413.72693190
0.05100000 1511205.68327228 15323.62634222
0.05200000 1504774.38464760 16748.13968161
0.05300000 1498247.58371833 15776.54779202
0.05400000 1491623.54415757 13536.48429449
0.05500000 1484906.27983776 16215.17733225
0.05600000 1478094.19483441 13901.47655112
0.05700000 1471192.49608861 15359.25037611
0.05800000 1464199.79335347 15549.80253147
0.05900000 1457117.85405682 19671.09194852
0.06000000 1449949.81719910 17247.15388135
0.06100000 1442697.14535098 13417.08407876
0.06200000 1435360.24034655 27128.30981062
0.06300000 1427942.13765544 16449.89419491
0.06400000 1420441.09347887 15234.23144002
0.06500000 1412863.40904665 13987.34840386
0.06600000 1405207.00914343 25420.19598478
0.06700000 1397474.87273240 27083.06430101
0.06800000 1389669.80617223 15821.39148386
0.06900000 1381792.82976557 17410.59047019
0.07000000 1373843.53300232 16094.57774281
0.07100000 1365826.38681534 23601.48106961
0.07200000 1357740.56923957 14867.25992966
0.07300000 1349591.24874768 17976.55627562
0.07400000 1341377.03662621 18108.59084310
0.07500000 1333100.96164404 15197.35167508
0.07600000 1324762.97460436 16831.11438140
0.07700000 1316368.47053837 16941.66301020
0.07800000 1307915.61835022 17048.68088471
0.07900000 1299406.72203201 20270.74581447
0.08000000 1290845.80329673 17252.15497038
0.08100000 1282232.64649044 18925.75475016
0.08200000 1273568.72143488 25369.49012145
0.08300000 1264856.69047243 15937.19504792
0.08400000 1256097.26081240 27225.90940606
0.08500000 1247294.52813515 22526.14023561
0.08600000 1238447.67791854 17777.91725122
0.08700000 1229560.05833345 19476.23223856
0.08800000 1220630.78116705 17924.96386326
0.08900000 1211665.62421110 17993.23536467
0.09000000 1202663.07280819 16416.35171500
0.09100000 1193626.45633684 18119.25045846
0.09200000 1184556.52849816 18177.02078388
0.09300000 1175456.65864603 23203.51553206
0.09400000 1166325.13089343 18282.14728597
0.09500000 1157166.22789564 21662.15280439
0.09600000 1147981.42401180 28395.32185773
0.09700000 1138773.32084244 18413.96546371
0.09800000 1129542.74525575 18451.08161128
0.09900000 1120291.90195970 25206.56897937
0.10000000 1111020.41949126 20198.35217622
0.10100000 1101730.76691853 18542.12967931
0.10200000 1092425.59666681 18565.77388862
0.10300000 1083105.90570402 18586.09821618
0.10400000 1073774.21829233 18603.13920710
0.10500000 1064432.86893814 18616.93175364
0.10600001 1055078.83624766 18627.41773044
0.10700001 1045719.71466140 20328.79220964
0.10800001 1036352.43798108 22027.67210595
0.10900001 1026981.54074664 18639.71584184
0.11000001 1017606.85239709 18637.47037891
0.11100001 1008230.97959808 18632.10938005
0.11200001 998855.76564089 16930.60602466
0.11300001 989480.66596945 25380.18027704
0.11400001 980109.58767186 21978.95853841
0.11500001 970743.66227134 21958.22267455
0.11600001 961382.96691180 18559.49905023
0.11700001 952031.10611336 16850.95137180
0.11800001 942686.01104606 20192.33530763
0.11900001 933352.43485651 16800.34461874
0.12000001 924030.18033723 21802.49313206
0.12100001 914722.46585729 18413.36410513
0.12200001 905428.22109143 21716.69690598
0.12300001 896150.62778401 18335.24270831
0.12400001 886889.90816511 29932.53581092
0.12500001 877648.02828933 19905.05821954
0.12600001 868427.50884120 23160.96275222
0.12700001 859228.11083945 19796.61660668
0.12800001 850050.08615333 19738.16393073
0.12900001 840897.13318542 18037.24435696
0.13000001 831769.16147631 26150.82366943
0.13100001 822666.69117605 16288.80125310
0.13200001 813593.03154312 19477.41809331
0.13300001 804549.17997884 19405.72713593
0.13400001 795533.73867096 25775.29434813
0.13500001 786550.76492288 17650.19999704
0.13600001 777599.09339205 20773.56075946
0.13700001 768681.70425196 20685.22563680
0.13800001 759797.57202909 17425.95813622
0.13900001 750951.65007884 17346.98393487
0.14000001 742140.73332070 17265.90497498
0.14100001 733368.62803357 24993.20402214
0.14200001 724633.88487576 15543.39756369
0.14300001 715942.10491482 18557.22023469
0.14400001 707286.43224885 16921.82868975
0.14500001 698676.73328476 16831.12329879
0.14600001 690107.23973448 18260.23842479
0.14700001 681584.29264177 19670.52361363
0.14800001 673103.78740397 27078.96664481
0.14900001 664668.23459483 25423.56117276
0.15000001 656279.98524514 14864.74236716
0.15100001 647938.43011760 20682.19566524
0.15200001 639645.98403725 24955.78924480
0.15300001 631402.28648806 16043.93285676
0.15400001 623206.16736601 17387.45289004
0.15500001 615062.15204305 14392.45503703
0.15600001 606967.34679656 17152.89803000
0.15700001 598927.96470064 19872.43080668
0.15800001 590935.95134131 16912.58772564
0.15900001 583000.70167514 13992.01750063
0.16000001 575116.53381658 16666.87793672
0.16100001 567290.13897140 16542.18123327
0.16200001 559516.36802931 19152.24618175
0.16300001 551799.11472383 14931.68474932
0.16400001 544137.78586208 17507.63408664
0.16500001 536533.70914141 17367.59698485
0.16600001 528986.23876727 14576.21649742
0.16700001 521496.39476709 13141.70976861
0.16800001 514063.39891830 20850.41244461
0.16900001 506691.64854573 19380.95647201
0.17000001 499377.75936144 14089.94414571
0.17100001 492123.53491799 20314.86048071
0.17200001 484929.64278637 17617.49475438
0.17300001 477796.00642853 12470.47635670
0.17400001 470723.70703540 12356.49789323
0.17500001 463711.89396804 15914.59295259
0.17600001 456759.77027616 13339.66972094
0.17700001 449871.79517111 13212.73524822
0.17800001 443044.76778648 17843.62886539
0.17900001 436279.88830798 15313.42480292
0.18000001 429578.38258372 13995.66436566
0.18100001 422940.52601374 13855.53228670
0.18200001 416362.91603706 12572.07884362
0.18300001 409851.08939293 14705.45778209
0.18400001 403400.99359414 12313.81591117
0.18500001 397015.55918558 13292.08154948
0.18600001 390693.51591709 14246.63973098
0.18700001 384434.75896095 11925.16678637
0.18800001 378239.52209847 15012.32734136
0.18900001 372110.54849976 14847.21158663
0.19000001 366041.63038828 10487.09320613
0.19100001 360041.77978942 18664.56674619
0.19200001 354102.70345871 13326.65587437
0.19300001 348230.01976795 10133.49405408
0.19400001 342420.46891360 10015.79918901
0.19500001 336675.86255577 13857.57915764
0.19600001 330994.56386235 9780.88982434
0.19700001 325377.99770184 12562.84508496
0.19800001 319825.90377310 14320.20551820
0.19900001 314338.56157611 10373.17302225
0.20000001 308913.20045740 10245.10677737
0.20100001 303553.83755411 10117.44988385
0.20200001 298257.28756584 10898.32180275
0.20300001 293025.24823319 11656.54492566
0.20400001 287856.68176130 10621.91205904
0.20500001 282750.86255140 10484.40247897
0.20600001 277708.98170619 9485.15071852
0.20700001 272730.24445712 11061.93923807
0.20800001 267814.31272532 10914.77283106
0.20900001 262963.30561812 12425.01677780
0.21000001 258172.67691754 13073.86497714
0.21100001 253444.70540228 9671.45041535
0.21200001 248778.87410622 10333.03102449
0.21300001 244175.01854473 12540.82954533
0.21400001 239633.86081289 7728.19237658
0.21500001 235154.56014693 9142.80973076
0.21600001 230734.64490933 10514.57826563
0.21700001 226376.94419326 7402.52642511
0.21800001 222079.72940708 8024.85140154
0.21900001 217841.90217970 8626.53973419
0.22000001 213663.86741441 9916.14055556
0.22100001 209548.11146862 12560.31439532
0.22200001 205490.42945026 7561.02070914
0.22300001 201491.70872299 9478.17042651
0.22400001 197550.12259501 9334.24373400
0.22500001 193670.15810470 10504.66987234
0.22600001 189846.24929961 9049.97113207
0.22700001 186081.37089118 7000.38150397
0.22800001 182372.97217053 6890.96307934
0.22900001 178721.10352674 6165.87836326
0.23000001 175125.91612171 8495.35859283
0.23100001 171588.93215761 7762.68365793
0.23200001 168105.29498148 6462.80837121
0.23300001 164678.58376544 9248.34970166
0.23400001 161306.57408742 8529.08550826
0.23500001 157988.02079853 5592.77620078
0.23600001 154724.59137379 5500.45948349
0.23700001 151514.89016636 10818.16366955
0.23800001 148358.33343444 6914.24045675
0.23900001 145254.94862073 6275.01407722
0.24000001 142203.47431615 7196.91817556
0.24100001 139205.37680184 6569.10204201
0.24200001 136258.08078676 6953.25019145
0.24300001 133362.16615481 7321.58326823
0.24400001 130516.28651937 6235.41588342
0.24500001 127721.05603767 5184.19790980
0.24600001 124975.64964517 6019.45244991
0.24700001 122280.27822469 5458.59187817
0.24800001 119632.71500734 5361.93854028
0.24900001 117033.74331408 5266.51869828
0.25000001 114482.96450273 4741.31219918
0.25100001 111979.04906989 4232.80825509
0.25200001 109523.18581826 5403.32662797
0.25300001 107113.96742878 5713.45929296
0.25400001 104749.93234174 4006.68510163
0.25500001 102431.65550099 4720.05090880
0.25600001 100158.90020867 3861.12578572
0.25700001 97930.47218285  5305.87323391
0.25800001 95745.95043831  7439.46070105
0.25900001 93605.53380596  5110.86238762
0.26000001 91508.67879861  5015.59092227
0.26100001 89452.49852094  4570.12836568
0.26200001 87441.16727629  4829.37589718
0.26300001 85470.02538149  5415.38106441
0.26400001 83539.75802494  3652.77609248
0.26500001 81651.50515160  4886.84281456
0.26600001 79802.37731675  3835.30243533
0.26700001 77994.08177521  3762.43468288
0.26800001 76224.86362800  3383.24073223
0.26900001 74494.00678970  3318.70815953
0.27000001 72801.95132607  3847.21929988
0.27100001 71147.65802644  4063.95441879
0.27200001 69531.18902721  3416.76279049
0.27300001 67951.09368875  3630.62710761
0.27400001 66406.31320654  3287.11265929
0.27500001 64899.77637316  2955.53595591
0.27600001 63426.56103777  3953.06060376
0.27700001 61990.10909399  3360.48397303
0.27800001 60586.97574781  3296.23457156
0.27900001 59218.66265802  3979.49431896
0.28000001 57883.34426261  3659.67461421
0.28100001 56581.21775932  2393.38562450
0.28200001 55312.20075282  2582.80333640
0.28300001 54075.15305036  2994.68211767
0.28400001 52870.06726148  2712.23457889
0.28500001 51696.43777451  2439.55501405
0.28600001 50552.85083988  2611.56039800
0.28700001 49440.18120484  2135.81592914
0.28800001 48356.72155173  2515.51677419
0.28900001 47304.40435347  2469.29002413
0.29000001 46279.48924541  2424.11976142
0.29100001 45284.42423009  2776.84102523
0.29200001 44316.90575759  2532.04653032
0.29300001 43377.02703511  2104.21968108
0.29400001 42464.24797212  2630.66028640
0.29500001 41579.43091738  2399.96486616
0.29600001 40719.90749081  2176.88635751
0.29700001 39886.19444964  2317.78686919
0.29800001 39078.42237465  1927.93405912
0.29900001 38296.08339820  3446.64766900
0.30000001 37538.08266264  1864.32896370
0.30100001 36805.32148743  2834.37794193
0.30200001 36095.05510232  2132.67643168
0.30300001 35408.95478971  2583.43746376
0.30400001 34746.55142380  1589.65480290
0.30500001 34105.65287387  1721.99449512
0.30600001 33487.34923965  1542.09250549
0.30700001 32891.53402423  1975.46562702
0.30800001 32316.64261858  1797.45174754
0.30900001 31763.10555255  1772.38137374
0.31000001 31230.89158892  2331.07385856
0.31100001 30717.46338790  1725.09282554
0.31200001 30225.05650519  1986.69305815
0.31300001 29751.81068297  2242.09655922
0.31400001 29299.07314033  1522.81939857
0.31500001 28864.17809183  1641.79452760
0.31600002 28447.87616931  1487.96623349
0.31700002 28049.19175855  1605.53581228
0.31800002 27668.85614024  1721.14127770
0.31900002 27306.13475536  1703.90288941
0.32000002 26960.02912968  1427.93801047
0.32100002 26631.12189499  1543.53989812
0.32200002 26318.72310515  1402.65641431
0.32300002 26021.73284497  2023.45004184
0.32400002 25740.67272454  1380.34364021
0.32500002 25474.57936206  1370.27768877
0.32600002 25224.17524053  1484.69502496
0.32700002 24988.13285921  1598.24105336
0.32800002 24767.32083218  1833.40101142
0.32900002 24559.21906173  1215.68140112
0.33000002 24366.60676066  1451.76249955
0.33100002 24185.13005554  1204.41953380
0.33200002 24019.12844297  1559.68217930
0.33300002 23864.72290490  1793.43401123
0.33400002 23723.42421965  1192.10212349
0.33500002 23594.15430604  1308.05997667
0.33600002 23476.77571079  1305.42617522
0.33700002 23370.22738209  1421.84470126
0.33800002 23276.56748280  1420.33621506
0.33900002 23192.74719135  1892.52826044
0.34000002 23120.22292762  1892.15913401
0.34100002 23058.38262028  1537.76360977
0.34200002 23007.62248474  1420.49067948
0.34300002 22965.34567900  1303.51308247
0.34400002 22933.69991031  1542.86473454
0.34500002 22911.17893529  1545.81731597
0.34600002 22898.99639329  1191.89281872
0.34700002 22893.68947757  1314.55571206
0.34800002 22898.80013970  1798.12836613
0.34900002 22911.90576048  1684.02515315
0.35000002 22933.21169368  1448.92038343
0.35100002 22962.68221891  1454.91561430
0.35200002 22998.98383896  1826.69437793
0.35300002 23043.32756532  1590.68097717
0.35400002 23095.33096511  1475.79171857
0.35500002 23153.97483570  1483.70677775
0.35600002 23219.10019176  1367.72116158
0.35700002 23291.06542009  1625.94935399
0.35800002 23369.80691321  1510.15699426
0.35900002 23454.22483403  1519.83384123
0.36000002 23545.31890599  1402.47698706
0.36100002 23641.44320150  1283.73042665
0.36200002 23744.03285692  1551.43518036
0.36300002 23850.35171054  1692.89804460
0.36400002 23962.50270617  1705.53121090
0.36500002 24079.18159777  2115.11541174
0.36600002 24201.16083562  1465.50136382
0.36700002 24327.22386427  1477.14910301
0.36800002 24458.99127072  1759.94680025
0.36900002 24593.96581734  1910.95123453
0.37000002 24731.88937925  2064.49456373
0.37100002 24874.19438374  1943.17215731
0.37200002 25020.67718416  1819.87904120
0.37300002 25169.81509847  2400.44537965
0.37400002 25323.31577932  1566.88023807
0.37500002 25478.71108385  1724.39924784
0.37600002 25638.29242063  2174.76825760
0.37700002 25799.27262516  1755.38259257
0.37800002 25963.81320818  2066.45999113
0.37900002 26130.59353615  1936.27707275
0.38000002 26299.72241673  2104.24089025
0.38100002 26470.58431927  2730.17619603
0.38200002 26643.58670353  2602.14601867
0.38300002 26818.46214149  2008.16654029
0.38400002 26995.39525888  1714.88256506
0.38500002 27172.86893006  1730.64010414
0.38600002 27352.88153372  1746.61833308
0.38700002 27533.23076442  1922.92092769
0.38800002 27714.77337543  1617.15710307
0.38900002 27897.33811423  1631.99435700
0.39000002 28081.56944294  1976.38095103
0.39100002 28265.56202332  2160.61966343
0.39200002 28450.73893273  2348.03959536
0.39300002 28636.03632638  2369.34575790
0.39400002 28822.67299965  2220.06649298
0.39500002 29008.55381422  2240.04063166
0.39600002 29194.60957402  1912.39299075
0.39700002 29380.40653061  2104.81242357
0.39800002 29567.24374866  2300.47950886
0.39900002 29752.93018257  2142.21107464
0.40000002 29938.21495123  1980.86208610
0.40100002 30123.03200227  2906.27026528
0.40200002 30308.53462280  2015.36610523
0.40300002 30492.27617151  2032.61522590
0.40400002 30675.37664947  2795.29382962
0.40500002 30857.70955812  2443.00498147
0.40600002 31039.51152327  2084.45849511
0.40700002 31220.12352669  2483.87314547
0.40800002 31399.82922698  2696.93146009
0.40900002 31577.58235428  2136.22354748
0.41000002 31755.17498991  1957.70663089
0.41100002 31930.91456967  2367.99673669
0.41200002 32104.57998449  2187.76670670
0.41300002 32277.35181884  2204.86600722
0.41400002 32448.30726928  3029.86083483
0.41500002 32618.20167677  3053.06382161
0.41600002 32785.08999018  3281.13196169
0.41700002 32951.03997649  2272.63333486
0.41800002 33115.98848890  2497.60797018
0.41900002 33277.04860363  2096.45416137
0.42000002 33436.92150309  2745.00420087
0.42100002 33595.19792662  2339.23374247
0.42200002 33751.32751667  3426.43493185
0.42300002 33904.48006749  3018.85504826
0.42400002 34055.68468606  2388.15500177
0.42500002 34204.95810612  2404.26661921
0.42600002 34350.55623388  2860.19920035
0.42700002 34494.98359970  3321.86707806
0.42800002 34636.46760270  3120.39951419
0.42900002 34776.03518025  2915.97068804
0.43000002 34912.96348588  2482.83551595
0.43100002 35045.94824803  2952.27082032
0.43200002 35177.22754421  3198.66545217
0.43300002 35305.43339965  2987.89897020
0.43400002 35431.34005996  3236.65306786
0.43500002 35553.93840279  3720.36429077
0.43600002 35674.68337431  2338.47560600
0.43700002 35791.53088644  3056.95479788
0.43800002 35904.93837617  2837.20836494
0.43900002 36016.37671516  2852.49717102
0.44000002 36124.15482778  2867.53554612
0.44100002 36229.84150799  3122.65018756
0.44200002 36332.01920233  2655.68906945
0.44300002 36431.37742354  2911.59582167
0.44400002 36527.19161523  2438.19015586
0.44500002 36619.02799954  2694.79439820
0.44600002 36708.71227695  3445.84698474
0.44700002 36795.38164006  2967.17971607
0.44800002 36877.78308642  2732.09068944
0.44900002 36958.44430379  3243.10364135
0.45000002 37035.51908563  2755.99828337
0.45100002 37108.15093857  2767.52602816
0.45200002 37178.48830205  3031.53407982
0.45300002 37244.91234801  2790.01651622
0.45400002 37308.65973927  3819.47422182
0.45500002 37369.03074145  3578.45855340
0.45600002 37425.92497682  2822.10200663
0.45700002 37479.35797545  2574.83201494
0.45800002 37528.88918551  3100.63697146
0.45900002 37575.40882470  3370.51433132
0.46000002 37619.33011074  3381.78984058
0.46100002 37658.60839351  2870.71585389
0.46200002 37695.32993495  3665.11710328
0.46300002 37728.53958263  3413.67842323
0.46400002 37757.70715142  3160.32023836
0.46500002 37784.53169444  2641.13889062
0.46600002 37807.12254678  3178.06687191
0.46700002 37826.23209133  2920.94178053
0.46800002 37842.92891040  5058.27533255
0.46900002 37855.28600755  3736.31690603
0.47000002 37864.06512745  2942.60596085
0.47100002 37870.00351277  4558.03383883
0.47200002 37872.29974104  2955.74377338
0.47300002 37871.97174720  3769.77624639
0.47400002 37866.61101982  3237.59539565
0.47500002 37859.16966785  3514.08829513
0.47600002 37848.79046150  3249.69730305
0.47700002 37833.77659881  3255.21829285
