# SAXS profile: number of points = 501, q_min = 0, q_max = 0.5, delta_q = 0.001
#    q    intensity    error
0.00000000 1682732.95097188 353.37391970
0.00100000 1682663.57802061 656.23881101
0.00200000 1682455.41494220 832.81545677
0.00300000 1682108.61614310 1412.97128789
0.00400000 1681623.07190736 1765.70429260
0.00500000 1680999.23116187 1664.18930472
0.00600000 1680236.81964199 2646.37309868
0.00700000 1679336.51441169 2418.24468126
0.00800000 1678297.74828754 2945.41267260
0.00900000 1677121.89215204 2767.25124034
0.01000000 1675808.09404689 4424.13355932
0.01100000 1674357.59806995 3315.22818852
0.01200000 1672769.91179369 3261.90147101
0.01300000 1671046.37209344 4561.95679702
0.01400000 1669186.29155496 4882.37011924
0.01500000 1667191.38175330 4801.51139326
0.01600000 1665060.57584921 4670.49512404
0.01700000 1662795.92266139 5836.41395036
0.01800000 1660397.08537423 7098.19785938
0.01900000 1657864.67458670 5470.95367300
0.02000000 1655199.47157321 6778.04214270
0.02100000 1652402.98667964 6543.51612392
0.02200000 1649473.49126153 11950.43598713
0.02300000 1646413.91328473 5927.09035762
0.02400000 1643224.08031059 9243.13587321
0.02500000 1639905.39759540 7674.75761126
0.02600000 1636457.98759499 7953.18618348
0.02700000 1632882.92676416 7543.91946717
0.02800000 1629180.16953676 7795.62746874
0.02900000 1625352.10897003 8045.49330880
0.03000000 1621399.32193612 9801.35935163
0.03100000 1617321.86137909 10868.40340856
0.03200000 1613120.79610034 11977.42246270
0.03300000 1608798.98127152 10666.33773755
0.03400000 1604354.39590309 9265.14706384
0.03500000 1599790.35918136 10366.64200621
0.03600000 1595106.68897283 12393.97954609
0.03700000 1590305.28498383 9064.74054363
0.03800000 1585387.24241369 11129.41895681
0.03900000 1580353.98664726 11378.54923080
0.04000000 1575204.42674854 10656.25844075
0.04100000 1569942.63007566 11868.76683369
0.04200000 1564568.81007854 12109.76315181
0.04300000 1559083.00371612 13376.93279281
0.04400000 1553488.94496454 12583.26103860
0.04500000 1547786.27334288 12815.67093876
0.04600000 1541975.29034757 13045.11156277
0.04700000 1536059.43110493 14377.51694381
0.04800000 1530038.63656777 12370.36295222
0.04900000 1523915.86057645 14858.18033223
0.05000000 1517690.57175754 13932.40009751
0.05100000 1511365.92672650 12967.52025539
0.05200000 1504940.53824001 15553.56118753
0.05300000 1498419.48992767 18205.79765134
0.05400000 1491801.55600397 14768.83609317
0.05500000 1485090.24551576 13722.23450870
0.05600000 1478284.20514421 18958.99581568
0.05700000 1471388.81083563 17921.51655253
0.05800000 1464402.31753733 15551.95333840
0.05900000 1457326.56587340 18362.31558763
0.06000000 1450164.96318948 18576.61404633
0.06100000 1442918.54590607 14761.05741442
0.06200000 1435588.02098850 16279.56891897
0.06300000 1428176.49827147 17823.64353178
0.06400000 1420682.02497561 19392.31054783
0.06500000 1413110.80338063 22383.67617261
0.06600000 1405461.11510402 16949.86184121
0.06700000 1397735.66068209 18533.97572802
0.06800000 1389937.37219400 18701.60821828
0.06900000 1382067.20128055 21767.55943930
0.07000000 1374124.68557329 16097.87144533
0.07100000 1366114.37469572 14754.03593776
0.07200000 1358035.45400992 20818.68448526
0.07300000 1349892.84057187 14983.81123242
0.07400000 1341685.62273012 19622.15315200
0.07500000 1333416.36558127 21281.32619219
0.07600000 1325085.29303192 18365.68302242
0.07700000 1316697.63255689 16945.89932558
0.07800000 1308251.81964794 26354.73414275
0.07900000 1299749.96717143 15597.00033761
0.08000000 1291195.97230393 18825.63815932
0.08100000 1282589.97858723 23663.78621520
0.08200000 1273932.86420684 19032.55788436
0.08300000 1265227.85095730 17536.05883727
0.08400000 1256475.52897991 19224.07649574
0.08500000 1247679.72350062 17704.57610762
0.08600000 1238839.75346157 27483.66122094
0.08700000 1229959.11915123 17859.00724869
0.08800000 1221036.90353730 16300.84342777
0.08900000 1212078.57803389 19635.67388643
0.09000000 1203083.02801655 18064.29251425
0.09100000 1194053.39486485 19773.52514795
0.09200000 1184990.24732163 24795.92209028
0.09300000 1175897.20978872 16580.15143716
0.09400000 1166772.41131305 18289.15840688
0.09500000 1157620.45039620 20003.68232307
0.09600000 1148442.25252911 20051.80267175
0.09700000 1139240.98297392 16746.84323703
0.09800000 1130017.21692376 20136.90775237
0.09900000 1120772.82732026 25217.38980049
0.10000000 1111507.72972870 28626.88292540
0.10100000 1102224.80478277 18550.44433695
0.10200000 1092926.33560845 16885.71267939
0.10300000 1083613.01707802 18594.80024777
0.10400000 1074287.70955464 20304.03866579
0.10500000 1064952.73881407 18626.02427820
0.10600001 1055605.15414351 18636.70987333
0.10700001 1046252.12322345 20339.14223258
0.10800001 1036890.99219732 20343.80222433
0.10900001 1027526.06377570 20345.01702031
0.11000001 1018157.53459143 23733.25324844
0.11100001 1008787.49846878 23726.68308088
0.11200001 999418.36506374 27104.22733652
0.11300001 990048.97155477 20315.80585279
0.11400001 980683.68565716 20300.15324892
0.11500001 971323.36970889 21971.33565740
0.11600001 961968.37388797 16882.54575676
0.11700001 952621.82648798 16861.40712292
0.11800001 943282.27169500 21888.86614561
0.11900001 933953.97825440 20173.40688050
0.12000001 924636.76316245 28529.66867126
0.12100001 915334.33510688 16750.61912155
0.12200001 906045.19541077 21731.49503573
0.12300001 896772.77112857 21683.96662752
0.12400001 887516.78858485 19969.12868405
0.12500001 878279.58191996 21579.33034460
0.12600001 869063.95265209 26489.07052509
0.12700001 859869.04882186 24764.22977312
0.12800001 850695.61122331 21399.24910885
0.12900001 841546.87226450 18051.18126086
0.13000001 832423.29962130 16357.11860855
0.13100001 823324.90684914 19562.20070885
0.13200001 814255.17555696 21117.70897357
0.13300001 805215.20887706 19421.79175372
0.13400001 796203.70307375 19347.75089685
0.13500001 787224.15968918 17665.31097631
0.13600001 778276.16597605 17592.93356141
0.13700001 769362.33699163 15925.80112668
0.13800001 760481.44086184 17441.64266864
0.13900001 751638.81705454 18941.29908301
0.14000001 742831.06551491 17281.96555423
0.14100001 734061.73209006 18762.61875712
0.14200001 725329.99333243 18669.99490895
0.14300001 716640.71310742 20123.27217322
0.14400001 707987.84196931 18478.48354703
0.14500001 699380.36124771 18379.71676060
0.14600001 690813.43243889 18278.92428463
0.14700001 682292.66413809 19690.96721598
0.14800001 673814.15560243 19577.67121468
0.14900001 665380.54139928 19462.38175418
0.15000001 656993.91010144 19345.18659570
0.15100001 648654.12386418 32536.49238826
0.15200001 640363.30626862 17635.60628681
0.15300001 632120.91980182 17522.39272377
0.15400001 623926.00197351 17407.53627654
0.15500001 615783.12476457 17291.19095941
0.15600001 607689.41925546 14311.08649888
0.15700001 599650.71212046 17054.06705760
0.15800001 591659.57635283 19755.51418686
0.15900001 583724.68210876 15410.33233505
0.16000001 575840.98933342 13906.56054883
0.16100001 568014.81813208 17943.58895181
0.16200001 560241.13241162 20546.84450113
0.16300001 552524.00243838 17669.71843213
0.16400001 544862.47458287 17530.95094733
0.16500001 537258.08817069 16053.27243244
0.16600001 529710.16131562 19903.86025116
0.16700001 522219.58576964 23687.88152893
0.16800001 514786.00866499 15659.79112299
0.16900001 507413.16221686 14232.93987223
0.17000001 500098.51050786 12827.52740024
0.17100001 492843.20869684 15258.42646178
0.17200001 485647.92940765 18903.84654489
0.17300001 478512.64335681 13738.09863955
0.17400001 471438.83842359 18562.90513958
0.17500001 464425.35328763 15939.07887760
0.17600001 457471.22242897 17004.20614078
0.17700001 450581.23085875 14436.62331856
0.17800001 443752.09306662 14297.69311392
0.17900001 436985.02084530 20057.61340419
0.18000001 430280.98254895 11682.12922801
0.18100001 423640.54268244 12721.92609769
0.18200001 417060.13733166 11448.30131055
0.18300001 410545.40774226 13597.26454675
0.18400001 404092.34502244 15698.98834575
0.18500001 397703.75534712 14424.71588789
0.18600001 391378.34338620 15369.42827088
0.18700001 385116.32542205 13032.33706799
0.18800001 378917.47393988 16113.46634059
0.18900001 372784.89273536 13811.68092841
0.19000001 366712.02279417 10506.29994946
0.19100001 360708.13776236 12466.07383009
0.19200001 354764.95217020 11297.49043568
0.19300001 348887.90135481 12183.16609100
0.19400001 343074.13090914 12041.90256394
0.19500001 337324.92886820 11900.82405284
0.19600001 331639.07096848 10779.92851125
0.19700001 326017.74987877 10651.00039188
0.19800001 320460.62227760 10522.32502976
0.19900001 314968.27293792 11338.85836164
0.20000001 309538.09863465 10265.83152639
0.20100001 304173.40926173 9216.45473622
0.20200001 298871.25661629 9100.63019409
0.20300001 293633.62589692 10782.22725255
0.20400001 288459.52987867 14192.20954084
0.20500001 283348.02408984 8755.45435822
0.20600001 278300.41050651 9505.35097015
0.20700001 273315.72416172 14496.66669478
0.20800001 268393.53998645 10096.96545158
0.20900001 263536.44490513 11621.95776970
0.21000001 258739.45198890 8189.10404257
0.21100001 254005.04748795 9692.83307035
0.21200001 249332.73167947 10356.03549988
0.21300001 244722.19734012 10212.25777779
0.21400001 240174.23784896 9294.74344418
0.21500001 235688.15963933 11454.44510001
0.21600001 231261.41661056 9033.07135988
0.21700001 226896.67679359 8161.47385014
0.21800001 222592.23525439 10237.01738336
0.21900001 218347.15503645 10087.63903964
0.22000001 214161.96161210 7809.41629943
0.22100001 210038.57802386 8393.14197469
0.22200001 205973.48287406 11023.70132467
0.22300001 201967.20216250 9500.53763896
0.22400001 198018.04549468 8688.04215690
0.22500001 194130.19080034 7239.11515726
0.22600001 190298.57996982 7127.63364982
0.22700001 186525.74124496 7017.09871747
0.22800001 182809.32527342 6907.45068211
0.22900001 179149.33206015 6180.65224836
0.23000001 175546.24529401 6082.67768710
0.23100001 172000.71609752 6584.18772360
0.23200001 168508.94694669 6478.32677175
0.23300001 165073.84154497 6373.50132348
0.23400001 161693.58532217 7409.60889783
0.23500001 158366.61423929 8409.26761383
0.23600001 155094.60895975 6064.97497023
0.23700001 151876.19466959 5964.17844677
0.23800001 148711.01995623 7463.80644463
0.23900001 145598.84746290 6289.87050791
0.24000001 142538.78820287 7213.88841217
0.24100001 139531.82882604 6078.00675116
0.24200001 136575.78919385 7467.28162739
0.24300001 133670.91125805 5870.82670016
0.24400001 130816.08705573 4807.49142671
0.24500001 128011.86770865 5668.36577028
0.24600001 125257.45658058 6033.02568160
0.24700001 122553.06544283 5014.87167515
0.24800001 119896.49326898 5373.76108253
0.24900001 117288.20071435 7037.29237578
0.25000001 114728.29674321 5615.37674975
0.25100001 112215.28846237 4665.91191500
0.25200001 109750.33027275 4998.03027708
0.25300001 107331.82018262 5316.14530515
0.25400001 104958.60558018 5620.53359473
0.25500001 102631.08694365 3941.03392509
0.25600001 100348.92809191 4255.29649707
0.25700001 98111.29257335  4935.97936290
0.25800001 95917.51532968  4099.03521156
0.25900001 93767.86479047  4754.03096981
0.26000001 91661.74888723  3947.41340260
0.26100001 89596.27147124  3521.13363543
0.26200001 87575.62185201  4145.83013464
0.26300001 85595.10384863  3728.52290007
0.26400001 83655.68829834  3657.84514393
0.26500001 81757.98927850  3262.14392657
0.26600001 79899.51960877  5439.95904998
0.26700001 78082.09355734  3766.68037145
0.26800001 76303.55732032  3386.73355193
0.26900001 74563.39642509  4529.72654718
0.27000001 72862.25168628  3258.03573833
0.27100001 71198.75978177  3195.40049022
0.27200001 69573.07272174  3703.72270161
0.27300001 67983.79917284  3352.96113388
0.27400001 66429.86287911  4384.37115751
0.27500001 64914.21978063  3224.93859132
0.27600001 63431.95238857  2635.59774648
0.27700001 61986.39399558  3101.79930234
0.27800001 60574.31890003  3295.54597572
0.27900001 59196.98748975  2734.90095146
0.28000001 57852.88585713  3413.89895600
0.28100001 56541.76003171  2870.05987505
0.28200001 55263.83827945  2580.54505060
0.28300001 54018.05675590  2301.16932672
0.28400001 52804.15897460  4063.28022541
0.28500001 51621.83153469  2878.94968095
0.28600001 50469.64311363  2824.53371054
0.28700001 49348.33794313  2345.03313005
0.28800001 48256.33991102  2510.29492099
0.28900001 47195.44893202  2874.20297601
0.29000001 46162.15919287  2417.97401298
0.29100001 45158.64017853  2175.74338679
0.29200001 44182.81991223  2330.20203247
0.29300001 43234.69984476  1906.65035341
0.29400001 42313.71282639  1872.38188120
0.29500001 41420.73963417  2022.98901950
0.29600001 40553.12528510  2348.63436207
0.29700001 39711.41812777  1952.61052178
0.29800001 38895.94307459  2442.27638127
0.29900001 38105.55759474  2229.17522482
0.30000001 37339.76292336  2023.06845096
0.30100001 36599.32162306  1823.74428281
0.30200001 35881.51369852  2120.05933724
0.30300001 35187.90334294  2246.39585576
0.30400001 34518.05771821  2526.72194459
0.30500001 33869.79415474  2176.47307542
0.30600001 33244.13982230  1837.07125355
0.30700001 32641.07170832  1809.62110118
0.30800001 32059.21371056  1634.53908842
0.30900001 31498.58238320  1611.15256518
0.31000001 30959.45562034  1733.11040768
0.31100001 30439.18704504  1994.37562962
0.31200001 29940.09437192  1405.68749731
0.31300001 29460.08794837  1942.59829129
0.31400001 29000.84456004  1507.31896737
0.31500001 28559.40411059  1624.45898272
0.31600002 28136.78124516  1337.90401155
0.31700002 27731.93635642  1455.09476952
0.31800002 27345.35669118  1570.17045555
0.31900002 26976.51375747  1294.87272167
0.32000002 26624.58205774  1666.56579282
0.32100002 26289.79370626  2285.63477305
0.32200002 25971.59177111  1258.32368089
0.32300002 25668.91061636  1372.26002653
0.32400002 25382.38177471  1856.08675516
0.32500002 25110.85095264  1350.71273670
0.32600002 24855.00172689  1341.05168168
0.32700002 24613.76101218  1816.49564871
0.32800002 24387.81698109  1323.89270751
0.32900002 24174.70158279  1794.97167752
0.33000002 23977.18458463  1309.51399810
0.33100002 23790.88436566  1658.70053652
0.33200002 23620.21569695  1415.79579592
0.33300002 23461.22863387  2115.73369839
0.33400002 23315.62796463  2226.05968534
0.33500002 23181.85427327  1285.20206177
0.33600002 23060.25645808  1515.40482491
0.33700002 22949.70159901  1628.96989664
0.33800002 22851.92291675  1162.02033535
0.33900002 22764.16869541  1509.26445598
0.34000002 22688.02059699  1392.59077019
0.34100002 22622.34186512  1508.68405043
0.34200002 22568.07847848  1393.35323125
0.34300002 22522.37465790  1510.80096360
0.34400002 22487.49488384  1396.47349842
0.34500002 22461.76828328  1282.34241202
0.34600002 22446.54576252  1402.01131473
0.34700002 22438.27375483  1639.78912366
0.34800002 22440.58351816  1292.24106310
0.34900002 22450.87351935  1532.27219027
0.35000002 22469.56757548  1774.53418332
0.35100002 22496.47413600  1781.72083596
0.35200002 22530.45137472  1431.58494815
0.35300002 22572.59308686  1438.32569962
0.35400002 22622.39449591  1325.10682036
0.35500002 22679.10762083  1211.06440431
0.35600002 22742.22743311  1217.84633673
0.35700002 22812.37609118  1715.03451577
0.35800002 22889.45209198  1602.37616960
0.35900002 22972.41990778  1240.51073378
0.36000002 23062.05251540  1498.57224343
0.36100002 23156.74694186  1508.89370220
0.36200002 23258.23268442  1646.33407855
0.36300002 23363.39621366  1403.20564306
0.36400002 23474.64405273  1542.28418732
0.36500002 23590.38022489  1683.64551640
0.36600002 23711.61425723  1566.38931203
0.36700002 23837.05073084  1447.38578894
0.36800002 23968.32791671  1857.30581824
0.36900002 24102.76395175  1471.47380896
0.37000002 24240.50008100  2023.47584011
0.37100002 24382.64852078  1768.71740748
0.37200002 24528.97662191  1509.63593771
0.37300002 24678.18240929  1938.22453824
0.37400002 24831.81381524  1536.46855260
0.37500002 24987.49928351  1550.22452898
0.37600002 25147.38808638  2133.12729548
0.37700002 25308.79915382  1865.51167400
0.37800002 25473.95315107  1737.83316629
0.37900002 25641.41448653  1900.02890346
0.38000002 25811.30592426  1770.13944414
0.38100002 25983.02952070  1786.59319448
0.38200002 26157.14884523  1803.27392682
0.38300002 26332.93107911  1820.13228241
0.38400002 26511.15158509  1837.22289188
0.38500002 26689.98542034  1699.88525195
0.38600002 26871.47396452  2183.84479256
0.38700002 27053.25469061  1574.49949759
0.38800002 27236.40042015  1748.16844379
0.38900002 27420.74837078  2085.34801239
0.39000002 27606.68994183  1619.13244180
0.39100002 27792.64533633  1634.20762320
0.39200002 27979.84088461  1814.35286812
0.39300002 28167.23295773  2497.02532000
0.39400002 28355.99876806  2016.11160793
0.39500002 28544.13352723  2543.28241777
0.39600002 28732.59981696  2737.64224026
0.39700002 28920.83236660  2071.88852891
0.39800002 29110.21964781  1916.47140131
0.39900002 29298.58070585  2636.87238846
0.40000002 29486.59183311  1950.98044107
0.40100002 29674.23589768  2326.16346223
0.40200002 29862.58032129  2346.75098574
0.40300002 30049.25356411  2367.28030794
0.40400002 30235.45208979  2020.48418163
0.40500002 30421.01495852  2223.16787850
0.40600002 30605.97657968  3176.44142982
0.40700002 30789.87543780  2072.77451268
0.40800002 30972.91678419  2470.24509517
0.40900002 31154.26983386  2299.18522268
0.41000002 31335.26844090  1931.81939091
0.41100002 31514.61255000  2726.64440702
0.41200002 31692.05621447  2748.65216572
0.41300002 31868.59115750  2374.84752558
0.41400002 32043.33952764  2194.16777812
0.41500002 32217.12714932  3417.59300994
0.41600002 32388.04239657  2836.22100706
0.41700002 32557.95995115  2245.52260423
0.41800002 32727.06022505  2468.27499913
0.41900002 32892.26680165  2072.21290669
0.42000002 33056.34671867  3131.26259130
0.42100002 33218.90813474  2523.30838148
0.42200002 33379.32755953  2541.50212081
0.42300002 33537.04772264  2346.25196985
0.42400002 33692.64488892  2792.27807748
0.42500002 33846.45883741  2162.78882220
0.42600002 33996.63023667  3048.47797778
0.42700002 34145.68934660  2192.15335993
0.42800002 34291.86459854  2868.68606893
0.42900002 34436.16196125  3331.69882763
0.43000002 34577.89581252  2906.09939128
0.43100002 34715.71390403  2249.57836758
0.43200002 34851.90049573  3848.17277559
0.43300002 34984.97358675  3871.78721032
0.43400002 35115.79673227  3207.82818351
0.43500002 35243.48465442  2535.41640619
0.43600002 35369.31227644  3477.68779438
0.43700002 35491.33716744  3264.49334736
0.43800002 35609.78504157  4220.82802100
0.43900002 35726.51586582  4244.31028600
0.44000002 35839.52325413  3319.09840586
0.44100002 35950.32573919  3098.55872230
0.44200002 36057.81010091  2396.04159475
0.44300002 36162.58265042  3130.95655425
0.44400002 36263.66594552  4115.01968818
0.44500002 36360.95038209  2675.80246543
0.44600002 36456.04573749  3422.12917556
0.44700002 36548.17635070  2947.24508059
0.44800002 36636.06348814  3207.67069072
0.44900002 36722.19016193  2478.74795340
0.45000002 36804.80052873  2738.82936114
0.45100002 36882.93450864  3750.99461730
0.45200002 36958.82287644  3264.75777352
0.45300002 37030.83662268  2773.98010287
0.45400002 37100.22762627  3038.50878660
0.45500002 37166.23084833  3304.82140366
0.45600002 37228.63885868  3062.42797765
0.45700002 37287.77465210  3074.00428801
0.45800002 37342.95817481  3856.59418828
0.45900002 37395.17182552  3096.32037390
0.46000002 37444.76157993  2589.30538597
0.46100002 37489.75649235  2857.84427286
0.46200002 37532.24688717  3649.26053780
0.46300002 37571.02905933  3399.42687040
0.46400002 37605.98347922  3147.62096639
0.46500002 37638.49905626  3157.11745047
0.46600002 37666.80056051  2902.41545475
0.46700002 37691.71702915  2910.55452694
0.46800002 37714.07186650  2918.50358972
0.46900002 37732.16486604  3192.14129896
0.47000002 37746.65832848  3466.84199850
0.47100002 37758.30765701  2940.61713970
0.47200002 37766.28866060  4555.18112270
0.47300002 37771.63841765  3491.23270442
0.47400002 37772.10430645  2960.38881533
0.47500002 37770.36387695  2696.80410864
0.47600002 37765.57160384  3782.97748686
0.47700002 37756.30769955  2707.12739037
