# SAXS profile: number of points = 501, q_min = 0, q_max = 0.5, delta_q = 0.001
#    q    intensity    error
0.00000000 1664650.74656090 374.54641798
0.00100000 1664581.95847508 649.18697922
0.00200000 1664375.55028115 973.65972775
0.00300000 1664031.68091026 1198.10285294
0.00400000 1663550.22965451 1497.19526358
0.00500000 1662931.63775688 2544.28550647
0.00600000 1662175.67019312 2268.86988218
0.00700000 1661282.94714824 1993.53961943
0.00800000 1660252.93440490 2465.47571168
0.00900000 1659087.00217150 2488.63060964
0.01000000 1657784.28330154 4103.01627834
0.01100000 1656346.03712502 3577.70759596
0.01200000 1654771.74529442 3549.48554928
0.01300000 1653062.77226695 4860.00476481
0.01400000 1651218.41804448 4086.76576583
0.01500000 1649240.35320469 4749.81242873
0.01600000 1647127.55169890 4620.19298905
0.01700000 1644882.06447611 4885.29995064
0.01800000 1642503.55980456 5617.36242730
0.01900000 1639992.58778703 4919.97798536
0.02000000 1637349.94979404 5673.41783268
0.02100000 1634577.17406982 5933.51541089
0.02200000 1631672.49155768 7318.05145711
0.02300000 1628638.92264404 5863.10038840
0.02400000 1625476.19547358 10971.96481974
0.02500000 1622185.63236703 7591.82910620
0.02600000 1618767.60096936 8522.81180892
0.02700000 1615222.92627481 8140.72392128
0.02800000 1611551.64172218 8412.29995557
0.02900000 1607756.27578118 7958.39393052
0.03000000 1603837.20398998 8203.62767549
0.03100000 1599794.57323088 7679.01430484
0.03200000 1595629.34104075 7898.36560194
0.03300000 1591344.47617190 8927.44292288
0.03400000 1586937.90775109 11663.99416015
0.03500000 1582413.02348111 11108.53993781
0.03600000 1577769.51373354 10507.94544708
0.03700000 1573009.25289608 14345.84504987
0.03800000 1568133.53766771 11008.29794389
0.03900000 1563143.55121530 13130.40643828
0.04000000 1558038.33843367 10540.12984792
0.04100000 1552821.88763608 17609.00102226
0.04200000 1547494.39026446 11977.60713632
0.04300000 1542055.97346679 17301.86882541
0.04400000 1536510.32242596 12445.73418965
0.04500000 1530857.06419969 10562.91423378
0.04600000 1525096.43622577 13977.50948778
0.04700000 1519231.98465938 15313.85911758
0.04800000 1513263.48511844 12234.73584644
0.04900000 1507193.97644694 20347.11962914
0.05000000 1501022.95025153 22965.65220827
0.05100000 1494753.48775467 15156.80107190
0.05200000 1488384.16288935 13015.92011103
0.05300000 1481920.25905103 15604.62105526
0.05400000 1475360.28659389 17040.41210482
0.05500000 1468707.88130336 12337.14677847
0.05600000 1461961.65881413 14999.72731938
0.05700000 1455126.95343466 13925.56559439
0.05800000 1448202.03794779 17943.22408799
0.05900000 1441188.85369428 12970.70028906
0.06000000 1434090.53478181 14434.12190692
0.06100000 1426908.26751113 14597.27225879
0.06200000 1419642.75253336 17440.31203009
0.06300000 1412297.12648405 16269.66365779
0.06400000 1404869.31276395 17806.71937204
0.06500000 1397365.72476185 17984.09771894
0.06600000 1389784.35534026 16760.80010962
0.06700000 1382128.02265023 14097.70649079
0.06800000 1374399.59003863 18492.54734959
0.06900000 1366600.09656422 17219.16202289
0.07000000 1358728.98826802 17364.55728322
0.07100000 1350790.88279523 21882.81332622
0.07200000 1342785.05905926 17644.19650261
0.07300000 1334716.07710020 17778.41897999
0.07400000 1326583.30344198 16416.46914944
0.07500000 1318389.15109494 19538.52813505
0.07600000 1310133.86747270 22698.07031806
0.07700000 1301822.71091828 24370.12229107
0.07800000 1293454.10022124 18392.91816770
0.07900000 1285030.05236755 20046.46975719
0.08000000 1276554.56964864 18612.16649859
0.08100000 1268027.71340742 18716.08992802
0.08200000 1259450.34402528 20384.20477458
0.08300000 1250825.66951422 26792.68709843
0.08400000 1242154.42302526 19004.96356435
0.08500000 1233440.15126891 17502.51656816
0.08600000 1224682.41225239 20776.73809936
0.08700000 1215884.50292133 16049.67619222
0.08800000 1207045.45501340 16114.05758121
0.08900000 1198171.10357201 19410.37278957
0.09000000 1189259.96644871 16233.39930460
0.09100000 1180315.26612079 17917.18658148
0.09200000 1171337.56306850 29412.28759064
0.09300000 1162330.40397560 16388.85946620
0.09400000 1153291.90353227 19721.29247725
0.09500000 1144226.87418638 21419.92809156
0.09600000 1135136.07317493 21471.09983341
0.09700000 1126022.47827900 18207.78432977
0.09800000 1116887.01105563 24878.65934100
0.09900000 1107731.22076871 18277.56600214
0.10000000 1098555.14379160 19971.73345335
0.10100000 1089361.67879771 18333.95791644
0.10200000 1080153.02798707 18357.20157410
0.10300000 1070929.99282718 26730.41387838
0.10400000 1061695.14546834 21738.20912614
0.10500000 1052451.17750305 21754.16686251
0.10600001 1043194.66900708 18417.60274793
0.10700001 1033933.39433308 23449.61048696
0.10800001 1024664.10717460 20103.91072889
0.10900001 1015391.33346642 16753.95779073
0.11000001 1006115.20528213 18427.00085209
0.11100001 996837.81557016 28469.68935285
0.11200001 987561.80867973 33478.34689031
0.11300001 978285.60477066 21747.29001793
0.11400001 969013.90956806 25073.23609063
0.11500001 959747.14602666 16699.60112721
0.11600001 950485.90375275 18349.13123603
0.11700001 941233.53999419 23323.76821949
0.11800001 931988.22995155 18299.58975698
0.11900001 922754.18780087 19931.49139530
0.12000001 913531.70579120 18238.66136525
0.12100001 904323.86636042 18204.04028739
0.12200001 895129.67631870 18166.65763674
0.12300001 885952.17757106 21422.32466297
0.12400001 876791.24515728 21371.78760769
0.12500001 867649.15534638 21318.14075138
0.12600001 858528.82874248 21261.46744572
0.12700001 849429.22312236 19570.85022304
0.12800001 840351.23086527 21139.03620868
0.12900001 831297.91629191 16210.31013172
0.13000001 822269.63414435 16157.59907252
0.13100001 813266.79602761 17712.95165243
0.13200001 804292.42608115 20859.32505373
0.13300001 795347.94697689 15986.49448789
0.13400001 786431.99175949 22295.34801751
0.13500001 777547.88951399 15861.97769395
0.13600001 768695.26955093 20535.69509433
0.13700001 759876.70341271 22021.22790327
0.13800001 751091.15092450 18792.30148230
0.13900001 742343.73332623 24942.75061602
0.14000001 733630.94526505 18619.55426894
0.14100001 724956.51416157 18529.88937589
0.14200001 716319.67068072 16901.56342688
0.14300001 707725.06488061 16815.54833471
0.14400001 699166.84154323 15206.87952087
0.14500001 690653.92562948 22687.98252717
0.14600001 682181.11196468 21058.93191979
0.14700001 673754.54994919 19444.55722886
0.14800001 665370.03471269 14871.02097742
0.14900001 657030.25219738 17739.81764631
0.15000001 648736.97747177 22040.83984955
0.15100001 640490.84043166 16063.51103598
0.15200001 632292.88695379 14511.12244033
0.15300001 624143.45688103 17301.25744117
0.15400001 616041.18161612 25781.32466728
0.15500001 607990.71841005 19917.77687509
0.15600001 599988.91225463 15542.71350549
0.15700001 592042.17786678 15434.54030545
0.15800001 584142.70285038 15324.98453260
0.15900001 576299.10213837 19363.65074582
0.16000001 568506.24865003 15102.36920826
0.16100001 560770.63743729 16352.07255956
0.16200001 553087.13622170 18932.17356658
0.16300001 545460.05644951 14760.14982432
0.16400001 537888.13719026 17306.55163113
0.16500001 530372.88302783 15847.54249305
0.16600001 522914.04414998 14408.89716684
0.16700001 515511.87567722 16888.16984456
0.16800001 508166.44999348 12882.02011558
0.16900001 500881.42556316 15326.97234594
0.17000001 493654.06871210 15194.67295245
0.17100001 486485.56484552 16316.72661542
0.17200001 479376.77194219 18659.74172902
0.17300001 472327.61395975 13560.52643717
0.17400001 465339.48832053 15879.71078887
0.17500001 458411.10993227 12102.05387376
0.17600001 451541.75442809 11988.43414627
0.17700001 444736.07980708 14249.34467002
0.17800001 437990.66044177 16464.06970364
0.17900001 431306.92690192 16303.40260696
0.18000001 424685.75317565 12683.24061768
0.18100001 418127.62672069 13697.86169841
0.18200001 411629.16658126 14688.98750333
0.18300001 405195.74112711 13420.08358009
0.18400001 398823.49871431 13280.82313458
0.18500001 392515.10188514 13141.40623194
0.18600001 386269.52685531 15168.80503623
0.18700001 380086.63620413 11790.28801208
0.18800001 373966.82299507 14842.74390594
0.18900001 367912.20127509 12582.59787810
0.19000001 361916.99530262 11405.81464587
0.19100001 355990.20795754 14353.52586305
0.19200001 350123.17724395 11149.67310617
0.19300001 344322.21283354 13025.70992699
0.19400001 338583.83102527 11884.29303057
0.19500001 332909.46286257 9787.53867067
0.19600001 327297.56831689 9671.64360081
0.19700001 321749.92614112 13378.36256118
0.19800001 316265.69494348 9440.53144021
0.19900001 310845.78211295 15853.13563698
0.20000001 305487.32284158 9210.44321897
0.20100001 300193.80631719 10005.46003743
0.20200001 294962.17309319 11676.07817375
0.20300001 289794.30694332 8867.70621159
0.20400001 284689.51263005 10505.04351258
0.20500001 279646.54758078 10369.29447442
0.20600001 274667.02425933 12792.61725956
0.20700001 269749.57722122 9257.80592784
0.20800001 264894.15878831 10795.76195174
0.20900001 260103.15656896 8193.24981923
0.21000001 255371.52247850 11315.51269593
0.21100001 250701.92678739 11161.25030820
0.21200001 246093.64833157 8648.96167949
0.21300001 241546.57464707 11630.46811909
0.21400001 237061.26569096 8409.74879797
0.21500001 232637.23871295 7537.44689065
0.21600001 228272.12403142 11888.41278162
0.21700001 223968.06448850 8056.13166054
0.21800001 219723.82728945 10826.89210159
0.21900001 215538.18647513 11380.41678397
0.22000001 211411.69461087 11914.10661312
0.22100001 207346.32647823 10356.94949730
0.22200001 203338.57978802 6801.67581552
0.22300001 199388.90663600 9379.25461166
0.22400001 195495.75109419 7917.57829371
0.22500001 191663.45626794 7147.13062220
0.22600001 187886.29351823 8956.54003555
0.22700001 184167.31107382 10707.48797218
0.22800001 180504.21034208 10540.54386139
0.22900001 176896.74267387 6713.23170195
0.23000001 173345.53366564 6006.42302557
0.23100001 169851.23322993 8275.15247432
0.23200001 166409.98615351 6397.63222024
0.23300001 163024.62584715 6294.38110165
0.23400001 159693.39502371 6755.03092898
0.23500001 156414.85009886 5537.08595538
0.23600001 153190.62944331 7624.29798800
0.23700001 150019.33107264 7497.96652165
0.23800001 146900.33113831 6846.29025652
0.23900001 143833.87938156 7249.22786372
0.24000001 140818.65453164 6108.71352253
0.24100001 137856.03311959 5504.59166284
0.24200001 134943.55332245 7378.03912690
0.24300001 132081.62366274 5317.60642020
0.24400001 129268.95998504 5225.69795459
0.24500001 126506.19975524 5601.69479015
0.24600001 123792.68123035 5045.17096221
0.24700001 121128.43577614 4956.57582644
0.24800001 118511.23330253 5754.31320522
0.24900001 115941.82605898 5652.16428776
0.25000001 113420.09187243 5124.31999322
0.25100001 110944.37469924 5871.17658684
0.25200001 108516.22307356 4530.00994652
0.25300001 106133.82107855 4448.06865184
0.25400001 103795.98270821 4367.21617907
0.25500001 101503.22786365 3897.72413437
0.25600001 99255.22308940  4208.91793424
0.25700001 97050.84349896  4131.45460322
0.25800001 94889.90548518  4055.12030277
0.25900001 92772.36743041  4703.55925127
0.26000001 90697.82040452  4971.14777158
0.26100001 88663.11971060  4181.35292340
0.26200001 86672.56426831  4103.07938661
0.26300001 84721.55633386  3690.47116853
0.26400001 82811.12890545  4279.26528868
0.26500001 80941.66123123  4521.40141032
0.26600001 79110.77314185  4752.57992139
0.26700001 77320.40252906  4662.42049313
0.26800001 75568.27903431  3354.09822366
0.26900001 73853.81076873  2991.07947768
0.27000001 72177.85072079  3227.43274771
0.27100001 70538.80253684  2877.98327970
0.27200001 68937.03422478  3669.86319063
0.27300001 67371.11178878  3599.63867322
0.27400001 65839.96589400  3530.66833815
0.27500001 64346.34827245  3196.72673346
0.27600001 62885.56671927  3658.05358918
0.27700001 61461.02360677  3331.80224741
0.27800001 60069.28881887  3268.06981286
0.27900001 58711.76358663  2712.48360608
0.28000001 57386.78422836  2660.73837668
0.28100001 56094.39344573  2847.35154607
0.28200001 54834.60305140  3957.13931649
0.28300001 53606.29375685  2968.71668876
0.28400001 52409.45863862  2912.65580170
0.28500001 51243.56588900  2857.85380490
0.28600001 50107.16262222  2157.11345299
0.28700001 49001.37134970  2328.54527675
0.28800001 47924.12401611  2493.01304932
0.28900001 46877.47753892  2650.92148030
0.29000001 45857.95781482  3002.54993005
0.29100001 44867.76434400  1965.20817129
0.29200001 43904.59890168  1929.60721307
0.29300001 42968.71799371  1894.92055322
0.29400001 42059.57568550  2419.47720584
0.29500001 41177.95568189  2193.96158259
0.29600001 40321.02734549  1796.30185327
0.29700001 39489.67580076  2118.22631023
0.29800001 38683.95024707  2081.97030085
0.29900001 37902.99531057  2046.76184366
0.30000001 37146.18775429  2180.29559345
0.30100001 36414.15651983  2309.38591581
0.30200001 35704.26356594  1785.03474148
0.30300001 35018.24575042  1916.19849818
0.30400001 34355.48272764  1728.93975012
0.30500001 33713.97488537  1856.96582460
0.30600001 33094.65827905  1981.21181167
0.30700001 32497.49427648  2702.49175198
0.30800001 31920.93716785  1775.44260933
0.30900001 31365.32310416  1604.33635273
0.31000001 30830.90951384  1582.08819661
0.31100001 30314.88566998  1702.48405983
0.31200001 29819.72284008  1400.03605363
0.31300001 29343.08219272  1520.26516038
0.31400001 28886.86135600  1774.37554280
0.31500001 28448.33464858  1618.14135143
0.31600002 28027.93352353  1332.72830215
0.31700002 27625.14890278  1844.80753108
0.31800002 27240.29196093  2085.51685127
0.31900002 26872.80526982  1418.88418543
0.32000002 26521.76804791  1915.53478796
0.32100002 26187.67669513  1644.32429755
0.32200002 25869.83263910  1754.75083100
0.32300002 25567.21961932  1615.33701204
0.32400002 25280.34631694  1478.90032957
0.32500002 25008.26327722  1345.19454538
0.32600002 24751.64371029  1456.88181777
0.32700002 24509.16833497  1688.19159485
0.32800002 24281.76236918  2037.11855043
0.32900002 24066.99357463  2025.23760521
0.33000002 23867.39651763  1422.01955186
0.33100002 23678.91190349  1415.05184236
0.33200002 23505.75228940  1408.93485895
0.33300002 23343.99118640  1286.48741520
0.33400002 23195.41950371  1631.79783936
0.33500002 23058.46139887  1510.79046240
0.33600002 22933.37863322  1391.13881377
0.33700002 22819.13973773  1504.00957134
0.33800002 22717.44205628  1617.25477658
0.33900002 22625.56295237  1961.63640087
0.34000002 22545.11944549  1614.45607995
0.34100002 22474.95383156  1152.96518616
0.34200002 22415.90547657  1383.95806967
0.34300002 22365.43925858  1384.86806448
0.34400002 22325.37560965  1386.40589102
0.34500002 22294.42635855  1157.08078281
0.34600002 22273.78733568  1275.28575430
0.34700002 22259.94359656  1278.16602185
0.34800002 22256.48131334  1514.66490752
0.34900002 22260.93759353  1636.17899062
0.35000002 22273.57641412  1407.24462449
0.35100002 22294.40955338  1294.85936819
0.35200002 22322.12679060  1300.15233650
0.35300002 22357.76489324  1780.79605809
0.35400002 22401.12881176  1431.43219887
0.35500002 22451.20623411  1678.45225756
0.35600002 22507.54145731  1446.33468255
0.35700002 22570.87460944  1333.26162633
0.35800002 22640.94665282  1219.21503500
0.35900002 22716.88818260  1840.06802995
0.36000002 22799.41719541  1358.04734957
0.36100002 22886.96400334  1242.76220425
0.36200002 22981.15269044  1751.85335257
0.36300002 23078.99622174  1386.12457873
0.36400002 23182.78937292  1396.18355612
0.36500002 23291.17039814  1406.55384697
0.36600002 23404.85433977  1674.96848017
0.36700002 23522.76215925  1428.30218597
0.36800002 23646.42898315  1832.36186870
0.36900002 23773.37662160  1319.42246500
0.37000002 23903.38757524  1463.24593973
0.37100002 24037.89469432  1609.57750498
0.37200002 24176.47430642  1623.20856182
0.37300002 24318.03071534  1364.24158776
0.37400002 24463.90194864  2064.14182470
0.37500002 24611.91288163  1943.35673319
0.37600002 24764.06100210  1540.44848761
0.37700002 24917.80256444  1695.40736680
0.37800002 25075.29199342  2423.40170951
0.37900002 25235.01716928  1438.39604679
0.38000002 25397.28055743  1596.60011788
0.38100002 25561.35753863  2050.53219889
0.38200002 25727.85365930  1773.67831530
0.38300002 25896.04355721  1640.77339751
0.38400002 26066.70235469  1655.88734553
0.38500002 26237.97502641  2126.85035640
0.38600002 26412.04428637  1686.54116781
0.38700002 26586.49978781  1856.80123315
0.38800002 26762.20685028  2186.20478117
0.38900002 26939.19545908  2363.91451353
0.39000002 27117.98714129  2385.70503178
0.39100002 27296.79098569  1926.06166320
0.39200002 27476.75734214  1943.70590647
0.39300002 27657.23142300  2288.35943635
0.39400002 27838.99903651  1814.40684817
0.39500002 28020.33072786  2163.73004132
0.39600002 28201.96621662  2015.31260132
0.39700002 28383.48909665  2372.29213109
0.39800002 28566.18716225  2051.62365920
0.39900002 28748.00598339  2587.32066109
0.40000002 28929.69181207  1914.13314944
0.40100002 29110.92495897  1755.38885820
0.40200002 29293.07378838  2124.91967329
0.40300002 29473.63445459  2500.54326560
0.40400002 29653.82175240  3062.49858658
0.40500002 29833.41313592  1998.54044067
0.40600002 30012.59265752  2015.49575541
0.40700002 30190.80824988  2032.44530768
0.40800002 30368.43515341  2049.41394343
0.40900002 30544.22697812  2629.85806742
0.41000002 30719.91997313  2840.82473412
0.41100002 30894.06830025  2482.02956485
0.41200002 31066.50278150  2117.02693236
0.41300002 31238.08579680  2133.87374189
0.41400002 31408.05469753  1955.15149756
0.41500002 31577.27134993  2955.63273840
0.41600002 31743.57547802  2779.78503633
0.41700002 31909.14251595  3001.05499583
0.41800002 32074.01230427  3023.77765326
0.41900002 32235.06339623  2436.97090823
0.42000002 32395.14528265  2250.32887369
0.42100002 32553.96279743  2884.93231981
0.42200002 32710.69539095  2075.49372090
0.42300002 32864.86417925  2717.26709910
0.42400002 33017.18670598  2736.29947792
0.42500002 33167.73522384  2331.36021936
0.42600002 33314.90131564  2987.34734253
0.42700002 33461.07858317  2148.20134684
0.42800002 33604.44968078  3027.42501520
0.42900002 33746.23198689  2394.29527293
0.43000002 33885.52783789  3505.11916565
0.43100002 34020.99268770  2645.47251676
0.43200002 34155.09811537  2440.21110049
0.43300002 34286.25513284  3124.84944089
0.43400002 34415.24979205  2470.15467088
0.43500002 34541.37464326  2484.90660959
0.43600002 34665.67516355  3181.26916052
0.43700002 34786.33996469  2742.55517278
0.43800002 34903.73379785  2528.25207746
0.43900002 35019.45806219  2542.41277580
0.44000002 35131.62478541  3718.33134350
0.44100002 35241.82949729  2336.53340640
0.44200002 35348.80243970  2583.82083678
0.44300002 35453.25123593  3069.54263747
0.44400002 35554.21062549  4034.51424193
0.44500002 35651.49673639  2385.08524470
0.44600002 35746.71298940  2636.49894148
0.44700002 35839.14262781  3612.58574809
0.44800002 35927.62690870  3629.58868046
0.44900002 36014.39058913  3160.26292397
0.45000002 36097.79773097  2930.41935868
0.45100002 36176.84226489  2452.79002180
0.45200002 36253.95165739  3695.18419780
0.45300002 36327.30122672  4453.00079541
0.45400002 36398.16470474  4471.51474590
0.45500002 36465.82173391  3491.96725474
0.45600002 36529.93626215  2504.12724945
0.45700002 36591.04709429  3016.56606542
0.45800002 36648.40441726  4037.18842194
0.45900002 36702.81149521  3798.74116979
0.46000002 36754.90918333  3049.92250858
0.46100002 36802.50496849  2805.45508671
0.46200002 36847.74141206  4094.52121977
0.46300002 36889.34762666  2824.24858815
0.46400002 36927.32120901  3090.81693168
0.46500002 36963.02324159  2842.08699175
0.46600002 36994.70173658  3109.77477537
0.46700002 37023.14298510  2858.92723681
0.46800002 37049.11380137  3909.60791919
0.46900002 37070.99416354  4181.60833984
0.47000002 37089.49205795  2620.37273809
0.47100002 37105.19606133  3152.45760679
0.47200002 37117.42901917  2896.82988510
0.47300002 37126.97383238  3431.64635398
0.47400002 37132.01342106  4233.04973064
0.47500002 37134.90282739  3181.71862506
0.47600002 37134.86595912  3188.39974237
0.47700002 37130.56124253  3727.16591419
