# SAXS profile: number of points = 501, q_min = 0, q_max = 0.5, delta_q = 0.001
#    q    intensity    error
0.00000000 1700912.83420644 306.16431016
0.00100000 1700842.82491927 612.30343151
0.00200000 1700632.75008027 918.34171412
0.00300000 1700282.77101253 1224.20363874
0.00400000 1699792.75933648 1402.32907974
0.00500000 1699163.18829283 1682.17162299
0.00600000 1698393.76080231 2853.30163431
0.00700000 1697485.17241599 2444.37874987
0.00800000 1696436.84469830 2519.20882074
0.00900000 1695250.21104663 3560.02559538
0.01000000 1693924.30556360 3074.47274735
0.01100000 1692460.47368986 3655.71478234
0.01200000 1690858.19661531 3956.60835355
0.01300000 1689118.78682684 4256.57953054
0.01400000 1687241.59209014 4555.55250060
0.01500000 1685228.31609520 5662.36739422
0.01600000 1683077.90426464 6008.58838683
0.01700000 1680792.41568929 4991.95369853
0.01800000 1678371.39994237 5261.69457558
0.01900000 1675815.67110786 5027.44724017
0.02000000 1673125.85600483 7378.48535875
0.02100000 1670303.62066634 11024.00439621
0.02200000 1667347.14828915 5752.34792294
0.02300000 1664259.28776251 7788.73382126
0.02400000 1661039.98591623 7474.68027745
0.02500000 1657690.64612157 7757.99257816
0.02600000 1654211.36693805 12059.20141655
0.02700000 1650603.28216707 10398.80115393
0.02800000 1646866.27349530 10029.41606553
0.02900000 1643002.84116745 10350.91837461
0.03000000 1639013.41424669 9907.83654454
0.03100000 1634898.17460893 8632.26275913
0.03200000 1630658.19006623 9686.11009512
0.03300000 1626296.26489593 14929.40040000
0.03400000 1621810.44689107 12771.75785856
0.03500000 1617204.08176215 10479.48293374
0.03600000 1612476.88917170 11634.02129303
0.03700000 1607630.87481778 10996.19569230
0.03800000 1602666.99958604 10313.16261962
0.03900000 1597586.95160514 15336.83544566
0.04000000 1592389.44667584 13710.47377121
0.04100000 1587078.55328509 10998.45488423
0.04200000 1581654.61669798 12242.00730118
0.04300000 1576117.66923851 15603.56564975
0.04400000 1570471.32250106 12720.81830304
0.04500000 1564715.25306182 11876.18932257
0.04600000 1558850.01978832 15385.85041055
0.04700000 1552878.73545377 16771.09112289
0.04800000 1546801.57754137 14779.68976108
0.04900000 1540621.34286520 11554.66060933
0.05000000 1534337.66626207 12911.45206283
0.05100000 1527953.58375135 16685.25391183
0.05200000 1521467.85904103 18143.50506457
0.05300000 1514885.37741900 15951.74376786
0.05400000 1508205.07515935 13686.96169535
0.05500000 1501430.51100183 12612.01688076
0.05600000 1494560.34951965 16612.03906010
0.05700000 1487599.76285016 14236.33039501
0.05800000 1480547.13326894 14413.12701536
0.05900000 1473404.45896002 18564.89704999
0.06000000 1466174.99073440 16098.60215037
0.06100000 1458859.88661348 20351.09636929
0.06200000 1451459.80217376 16459.55492603
0.06300000 1443977.86062981 16634.62573221
0.06400000 1436412.11015372 15405.52060186
0.06500000 1428768.91623685 18388.25681213
0.06600000 1421046.15765947 17137.81746323
0.06700000 1413246.95677028 21622.67945050
0.06800000 1405374.20465245 16000.18606892
0.06900000 1397428.84659280 17607.60429144
0.07000000 1389410.20963506 19236.38525321
0.07100000 1381323.08780385 14918.29004702
0.07200000 1373166.65426693 19547.02823921
0.07300000 1364945.89539992 19696.17019350
0.07400000 1356659.59942797 19841.14757147
0.07500000 1348310.76715326 18444.89215921
0.07600000 1339899.24939827 17023.42076167
0.07700000 1331430.69883332 24924.38385083
0.07800000 1322903.04529712 17244.04200413
0.07900000 1314318.86010012 22080.55788534
0.08000000 1305682.09651323 19036.84586020
0.08100000 1296992.59189788 19143.61155460
0.08200000 1288251.31340757 16038.72960454
0.08300000 1279461.75073643 19345.46257906
0.08400000 1270623.99050100 16200.45663932
0.08500000 1261742.39034013 21159.42087934
0.08600000 1252816.01007081 27793.72448838
0.08700000 1243848.37976882 22986.31913751
0.08800000 1234838.59635973 21430.62484629
0.08900000 1225792.59281511 21512.66101435
0.09000000 1216708.53250850 19929.68669870
0.09100000 1207590.00311585 19997.69139111
0.09200000 1198437.57222048 26749.12786882
0.09300000 1189254.82550284 21799.04197585
0.09400000 1180039.86966290 21860.23961288
0.09500000 1170797.26525946 18545.42955339
0.09600000 1161528.05226068 28730.39772322
0.09700000 1152235.35516016 20325.43262058
0.09800000 1142920.08225909 20366.83682346
0.09900000 1133583.41209093 25505.62797138
0.10000000 1124225.92359026 25548.03531504
0.10100000 1114850.16144769 18762.92909962
0.10200000 1105458.61087222 18787.26997546
0.10300000 1096052.00791967 20518.09455344
0.10400000 1086633.13014519 20537.36712593
0.10500000 1077204.38822088 20553.06069426
0.10600001 1067762.54713592 17137.58968792
0.10700001 1058314.91687567 17144.70246018
0.10800001 1048859.42742349 25723.27866814
0.10900001 1039399.69862094 20580.11500131
0.11000001 1029936.36613781 25722.66195505
0.11100001 1020471.25532155 22287.09326535
0.11200001 1011006.56569207 23991.18693331
0.11300001 1001541.63035506 32540.08910225
0.11400001 992080.81732935 22247.41337612
0.11500001 982624.69744456 20517.20464876
0.11600001 973173.85814765 30742.56362660
0.11700001 963731.53637766 22175.46369640
0.11800001 954295.86828134 18737.60025621
0.11900001 944871.47724185 23810.76234802
0.12000001 935458.13116266 18676.42246841
0.12100001 926059.79659997 22030.96359895
0.12200001 916674.50979973 16912.64550258
0.12300001 907305.99581529 18563.48154899
0.12400001 897953.71749590 20203.95959562
0.12500001 888620.42377321 18474.41948077
0.12600001 879308.66491559 18425.91394160
0.12700001 870017.60083436 20045.20646788
0.12800001 860748.18327902 18321.02594455
0.12900001 851503.58834330 18264.75283082
0.13000001 842284.05854548 16550.88253054
0.13100001 833089.90050683 21443.73504985
0.13200001 823924.68168265 23012.21744420
0.13300001 814789.02702370 21290.43827982
0.13400001 805682.38822820 24472.60369621
0.13500001 796607.65355272 24376.19534801
0.13600001 787564.55599893 22658.23334444
0.13700001 778555.88622703 16116.10760483
0.13800001 769580.25476758 17650.32397541
0.13900001 760643.15486074 23960.26050804
0.14000001 751741.11584135 25438.92055979
0.14100001 742877.72570272 23734.94445561
0.14200001 734052.01526046 22043.58305796
0.14300001 725269.55126380 15665.82304622
0.14400001 716523.15436469 20259.69314531
0.14500001 707822.77388693 20151.71532316
0.14600001 699162.98596994 18499.85348148
0.14700001 690549.68981008 18396.24460441
0.14800001 681979.05932279 16766.45596447
0.14900001 673453.55223577 16667.97620424
0.15000001 664975.48384611 16567.86496175
0.15100001 656544.38373361 19459.97645208
0.15200001 648162.90115579 22313.00892517
0.15300001 639830.01754784 16258.08151309
0.15400001 631544.88315828 17620.10307163
0.15500001 623312.09272428 20419.70512131
0.15600001 615129.29021027 17383.55456176
0.15700001 607001.43748735 23017.49559587
0.15800001 598921.89124010 22854.86044844
0.15900001 590898.66215920 17017.88227344
0.16000001 582927.33098306 16893.23484929
0.16100001 575013.93753219 20959.25901241
0.16200001 567153.19556034 16640.27554326
0.16300001 559349.67413076 23392.00447643
0.16400001 551602.18193989 15017.37011228
0.16500001 543912.45320323 16252.10486900
0.16600001 536279.29841130 17463.93617729
0.16700001 528704.41985242 14655.68721027
0.16800001 521186.71834747 14533.29232733
0.16900001 513730.40823370 17030.16383708
0.17000001 506332.79124477 16883.66772130
0.17100001 498994.89486900 15448.88267466
0.17200001 491717.39918408 14036.07382253
0.17300001 484500.83834932 17703.66146933
0.17400001 477346.19298083 15036.40578901
0.17500001 470252.33882502 14897.59479755
0.17600001 463218.23219705 13528.28911024
0.17700001 456248.94873921 13400.03225736
0.17800001 449341.05637285 13271.28872680
0.17900001 442495.79330086 19115.81917351
0.18000001 435714.14337086 15378.53141668
0.18100001 428996.71756386 15225.09422552
0.18200001 422339.87403597 13911.87610791
0.18300001 415749.25851187 18359.48812317
0.18400001 409220.98572978 11355.88289046
0.18500001 402757.79924877 16855.41469485
0.18600001 396358.27353882 14453.20512741
0.18700001 390022.78805972 13198.37177150
0.18800001 383751.15297708 13055.21484109
0.18900001 377546.19208429 12912.08037935
0.19000001 371401.89646794 15960.99725485
0.19100001 365326.83648980 11573.55472685
0.19200001 359313.41318836 15603.18570498
0.19300001 353366.78041634 11311.27117561
0.19400001 347483.89350501 10163.90436531
0.19500001 341666.23671114 11049.48661738
0.19600001 335912.51163132 13896.70126289
0.19700001 330223.98590483 14711.47926729
0.19800001 324600.41918459 13565.05215879
0.19900001 319042.27441785 13399.77615882
0.20000001 313546.73968210 17016.18236675
0.20100001 308117.59646083 11203.15633680
0.20200001 302751.65659443 11984.42489272
0.20300001 297450.78324217 9101.99439741
0.20400001 292214.23873869 12579.82357230
0.20500001 287040.80222718 10643.47344967
0.20600001 281931.73493100 10504.77694007
0.20700001 276886.48696158 9502.74468171
0.20800001 271904.33098611 11081.46153316
0.20900001 266988.05564396 9251.13656538
0.21000001 262132.57336136 12444.74450862
0.21100001 257340.35360688 8183.42363156
0.21200001 252610.81086566 8878.00736758
0.21300001 247943.65528156 10346.68922404
0.21400001 243339.91427689 9417.25512773
0.21500001 238798.52567925 7737.07259780
0.21600001 234317.27209786 9152.43308086
0.21700001 229898.52278858 9021.21846074
0.21800001 225541.02019907 11113.53429576
0.21900001 221243.42358211 10221.44665278
0.22000001 217006.24956207 10790.63626968
0.22100001 212831.94043785 9922.22553237
0.22200001 208716.13030878 8377.86586674
0.22300001 204660.10563821 8251.89584953
0.22400001 200661.58052344 8804.02726178
0.22500001 196725.33972288 11337.28186434
0.22600001 192845.86772384 7879.68252781
0.22700001 189025.73708269 7757.61661672
0.22800001 185262.78608935 9545.66550467
0.22900001 181556.88331795 8769.19787896
0.23000001 177908.63357062 8013.89477818
0.23100001 174318.66609636 8492.80581386
0.23200001 170782.92864091 9550.18182126
0.23300001 167304.64152933 6459.63251495
0.23400001 163881.59416662 7509.87440787
0.23500001 160512.72737879 5682.15081795
0.23600001 157199.45151472 6147.28484223
0.23700001 153940.23171158 6594.79983844
0.23800001 150735.13847589 7565.39695794
0.23900001 147583.53174197 6375.60887282
0.24000001 144484.69539944 5745.43418432
0.24100001 141439.53817219 5134.25547851
0.24200001 138445.92579213 8578.80219750
0.24300001 135504.13286614 5455.39664725
0.24400001 132613.03013506 4873.52908800
0.24500001 129773.10635351 4788.62785097
0.24600001 126983.68034665 4704.74557940
0.24700001 124244.82579484 5084.09851203
0.24800001 121554.47384555 4540.05981291
0.24900001 118912.96579114 6688.85464218
0.25000001 116320.38012354 4379.46251884
0.25100001 113775.29280126 4730.77689848
0.25200001 111278.79609937 4645.33356294
0.25300001 108829.39636493 4561.04021744
0.25400001 106425.83409692 5292.02485084
0.25500001 104068.61724599 3996.23509132
0.25600001 101757.38320586 4707.29676982
0.25700001 99491.07388476  3850.30474151
0.25800001 97269.32021922  4912.58725011
0.25900001 95092.17688656  4079.45458145
0.26000001 92959.01193207  5459.01823401
0.26100001 90867.08428643  3571.07658143
0.26200001 88820.71083878  4555.17037090
0.26300001 86814.95188979  4469.23393476
0.26400001 84850.70448616  3710.09722921
0.26500001 82928.64827307  5625.05047853
0.26600001 81046.64841700  3895.10210724
0.26700001 79205.89377503  3502.48478847
0.26800001 77404.78992626  4372.59678985
0.26900001 75642.39184453  3369.86871614
0.27000001 73919.42232646  3305.30712574
0.27100001 72234.84275522  3831.33624105
0.27200001 70588.51541142  3757.77979576
0.27300001 68978.94735339  3118.53835743
0.27400001 67405.20886143  2780.46499712
0.27500001 65870.39304882  3272.44128153
0.27600001 64369.43352977  2674.55008974
0.27700001 62905.40127938  2885.47089324
0.27800001 61475.47264412  2572.74865192
0.27900001 60080.56072931  2523.38367006
0.28000001 58719.50956866  3217.53567910
0.28100001 57391.87210129  3155.97919622
0.28200001 56097.93501267  3333.90043560
0.28300001 54836.40987812  3504.04675706
0.28400001 53607.28597206  2520.88274215
0.28500001 52410.16049639  2698.07519006
0.28600001 51243.49660365  2867.84242316
0.28700001 50108.15006484  2381.13940379
0.28800001 49002.58849544  2124.26231183
0.28900001 47928.59202616  2501.87262219
0.29000001 46882.32401755  2455.69624828
0.29100001 45866.27621351  2410.73159189
0.29200001 44878.52073199  2958.61661930
0.29300001 43918.68657481  2905.22125444
0.29400001 42986.39475071  2092.36286354
0.29500001 42082.33899059  2428.99272152
0.29600001 41204.29540635  2386.34688142
0.29700001 40352.25753258  1803.74599709
0.29800001 39526.71601060  2481.88261579
0.29900001 38726.81867236  1916.97761503
0.30000001 37951.78467664  2227.58010705
0.30100001 37202.50404137  2022.32821543
0.30200001 36476.10879537  1989.40706788
0.30300001 35774.10531747  2120.68906362
0.30400001 35096.27978219  1766.22036365
0.30500001 34440.30647592  2055.05318471
0.30600001 33807.30517022  2023.87441983
0.30700001 33197.06840017  1840.44555924
0.30800001 32608.41762907  1662.54025153
0.30900001 32041.27889427  1489.91953912
0.31000001 31495.86063557  1469.28196821
0.31100001 30969.65559650  1449.37995054
0.31200001 30464.74734768  1859.41594240
0.31300001 29979.37145413  1694.43415481
0.31400001 29514.93006131  2091.87076714
0.31500001 29068.44251388  1791.19751251
0.31600002 28641.07332199  1770.44803123
0.31700002 28231.75111817  1346.65459210
0.31800002 27840.90007961  1998.28069783
0.31900002 27468.06113841  1450.31369678
0.32000002 27112.36580853  1305.46047549
0.32100002 26773.97055889  2069.09254276
0.32200002 26452.35210371  1409.77817212
0.32300002 26146.46537582  1270.71827743
0.32400002 25856.91958126  1386.57737820
0.32500002 25582.53402043  1376.08457012
0.32600002 25324.16574368  1863.22558282
0.32700002 25080.33758122  1233.95266743
0.32800002 24852.25657286  1349.10481194
0.32900002 24637.05329938  1707.34787450
0.33000002 24437.73592132  1456.00037514
0.33100002 24249.59306439  1207.62979179
0.33200002 24077.36326234  1322.93078710
0.33300002 23916.95401562  1198.23945293
0.33400002 23770.11640802  1433.33808728
0.33500002 23635.11205912  1191.20970419
0.33600002 23512.54915919  1307.41535791
0.33700002 23401.12175942  1898.29908702
0.33800002 23302.60333663  1303.43117936
0.33900002 23214.36004862  1657.50538597
0.34000002 23137.64886305  1183.49079539
0.34100002 23071.61514270  1301.93130416
0.34200002 23017.14690305  1776.34839637
0.34300002 22971.26071387  1777.97566346
0.34400002 22936.33098430  1424.34622158
0.34500002 22910.63816244  1783.59326542
0.34600002 22895.61117554  1310.88827994
0.34700002 22887.58233581  2031.04415267
0.34800002 22890.14756825  1318.12921015
0.34900002 22900.87512116  1562.98480105
0.35000002 22920.24024612  1448.10084733
0.35100002 22947.73773252  1453.96873160
0.35200002 22982.27513314  1947.05844150
0.35300002 23025.06126133  1344.89389197
0.35400002 23075.73506180  1351.66124526
0.35500002 23133.20499180  1358.84452558
0.35600002 23197.31741995  1242.21640667
0.35700002 23268.37079094  1249.51157066
0.35800002 23346.48799092  1382.92928164
0.35900002 23430.46178949  2150.91649415
0.36000002 23521.14343428  2037.87196367
0.36100002 23617.05345671  1538.88727613
0.36200002 23719.68433386  1678.99793510
0.36300002 23826.12934656  1691.17874112
0.36400002 23938.59870241  1310.63834104
0.36500002 24055.64363824  1716.85136778
0.36600002 24178.12766074  1464.10658985
0.36700002 24304.98677392  1609.96240017
0.36800002 24437.51956302  2028.92515783
0.36900002 24573.29837806  1500.19993704
0.37000002 24712.38803829  1787.81779732
0.37100002 24855.80508526  1803.04018629
0.37200002 25003.66596606  1398.95517707
0.37300002 25154.18461616  1975.60975334
0.37400002 25309.21513377  2135.46512807
0.37500002 25466.25435172  2010.81553887
0.37600002 25627.57293610  2318.78290910
0.37700002 25790.38673022  2047.24099563
0.37800002 25956.87759157  2065.90798538
0.37900002 26125.71704972  2233.74891357
0.38000002 26296.97502306  2554.88272940
0.38100002 26470.01304214  1971.75136492
0.38200002 26645.46137860  2143.09456021
0.38300002 26822.50067110  2780.95700132
0.38400002 27002.09526928  1559.37107567
0.38500002 27182.19551773  1888.61903404
0.38600002 27364.84019507  1588.52904858
0.38700002 27547.81491955  2244.59606598
0.38800002 27732.09716845  1618.16794644
0.38900002 27917.62733546  1796.49940415
0.39000002 28104.73297784  1978.01120069
0.39100002 28291.72046216  1663.55324199
0.39200002 28480.04595370  1846.78866736
0.39300002 28668.45654049  2033.16703418
0.39400002 28858.21394628  2393.78896025
0.39500002 29047.21708298  2415.56668706
0.39600002 29236.50129010  1741.03373431
0.39700002 29425.58801709  1756.70768785
0.39800002 29615.87180839  1949.76101288
0.39900002 29804.86629918  1788.29206268
0.40000002 29993.52855875  1804.11082829
0.40100002 30181.98272876  2365.96573821
0.40200002 30370.84179937  2203.10096851
0.40300002 30558.10178086  2407.36737236
0.40400002 30744.77182604  2988.39196308
0.40500002 30930.85813936  2072.05828493
0.40600002 31116.17172568  2089.60661125
0.40700002 31300.50666466  2298.70931837
0.40800002 31483.75338655  2317.83403414
0.40900002 31665.40365664  2726.39138402
0.41000002 31846.50584291  2552.33833171
0.41100002 32026.01860592  1979.20804363
0.41200002 32203.37492808  2593.49892272
0.41300002 32379.94704933  2614.03324915
0.41400002 32554.67946632  2229.18178208
0.41500002 32728.37220948  2654.92567943
0.41600002 32899.09024763  3292.54110800
0.41700002 33068.78137367  2280.75395941
0.41800002 33237.53197790  2297.87688218
0.41900002 33402.35009543  2525.21778687
0.42000002 33566.05061741  2543.63543632
0.42100002 33728.09926323  2134.98878453
0.42200002 33887.87476449  2580.22290683
0.42300002 34045.00678611  3464.42005472
0.42400002 34199.93078241  3270.36853604
0.42500002 34352.94892852  2853.69960272
0.42600002 34502.25314402  2430.85636045
0.42700002 34650.46036889  2669.47159332
0.42800002 34795.69292606  2239.10294590
0.42900002 34938.98903315  2704.27787931
0.43000002 35079.64062624  2948.26853614
0.43100002 35216.31951097  2282.01761245
0.43200002 35351.19033395  3214.48388939
0.43300002 35483.02500841  2540.93954126
0.43400002 35612.53926772  2556.09012707
0.43500002 35738.71578491  3272.23697233
0.43600002 35862.99816440  2820.98356929
0.43700002 35983.58888187  2836.94628189
0.43800002 36100.33024635  3328.08960313
0.43900002 36215.39723858  3824.34612963
0.44000002 36326.68425940  2883.61233316
0.44100002 36435.63990324  2657.25134407
0.44200002 36541.26937223  3642.25119728
0.44300002 36644.01136223  3172.63865410
0.44400002 36743.04793412  3678.89784875
0.44500002 36838.36205457  2957.38384589
0.44600002 36931.25883311  3961.98563538
0.44700002 37021.25808758  2736.61152753
0.44800002 37106.76515535  3748.71112748
0.44900002 37190.56774753  3263.47247451
0.45000002 37270.75757095  3025.64024300
0.45100002 37346.51008602  3038.51220460
0.45200002 37419.88130035  2796.94916035
0.45300002 37489.30816507  3829.53301055
0.45400002 37556.04248935  3332.16002779
0.45500002 37619.32362274  3345.11041507
0.45600002 37679.01538918  3616.05527828
0.45700002 37735.28329747  2851.65549394
0.45800002 37787.60005240  3902.51458037
0.45900002 37836.91463331  2871.82195678
0.46000002 37883.45430062  2881.60508795
0.46100002 37925.32265712  3416.69248011
0.46200002 37964.75177994  3427.64777691
0.46300002 38000.39567674  3438.27596379
0.46400002 38032.08353110  3183.28554243
0.46500002 38061.35616114  3192.58670611
0.46600002 38086.28135109  3201.53296211
0.46700002 38107.84628665  2942.68802973
0.46800002 38126.70150608  3486.87765150
0.46900002 38141.36747276  2957.86318770
0.47000002 38152.28152697  3234.55058116
0.47100002 38160.36173316  3242.10448651
0.47200002 38164.70139681  3249.34283093
0.47300002 38166.44157936  4070.45118737
0.47400002 38163.05374077  2991.02947870
0.47500002 38157.63214259  3269.34607694
0.47600002 38149.01448138  3275.47453862
