# SAXS profile: number of points = 501, q_min = 0, q_max = 0.5, delta_q = 0.001
#    q    intensity    error
0.00000000 1682732.95097188 277.65093691
0.00100000 1682663.51715996 706.71869399
0.00200000 1682455.16989280 984.23630555
0.00300000 1682108.06839418 1009.26487699
0.00400000 1681622.09214948 1387.33827874
0.00500000 1680997.69255609 1815.47757982
0.00600000 1680234.60724405 2822.79425509
0.00700000 1679333.49318681 2015.20027558
0.00800000 1678293.78620648 2265.69670704
0.00900000 1677116.90847635 2767.24301728
0.01000000 1675801.93742449 2765.07331614
0.01100000 1674350.15763290 4520.74562244
0.01200000 1672761.05222872 5219.01471178
0.01300000 1671035.99000544 5965.59874743
0.01400000 1669174.27427060 4506.77074032
0.01500000 1667177.58805457 4401.34902845
0.01600000 1665044.91106148 5519.62412692
0.01700000 1662778.26150854 8081.10271344
0.01800000 1660377.30610226 7098.11330299
0.01900000 1657842.67027444 6465.58670581
0.02000000 1655175.13257402 7820.70285519
0.02100000 1652376.19676525 7633.97837517
0.02200000 1649444.15505292 7397.75737151
0.02300000 1646381.88491575 9483.16008877
0.02400000 1643189.28777791 6778.15612115
0.02500000 1639867.68373258 7674.58111037
0.02600000 1636417.30518837 7952.98846697
0.02700000 1632839.14287461 7543.71718559
0.02800000 1629133.16548152 7086.72959484
0.02900000 1625301.87391578 8045.24464527
0.03000000 1621345.66790039 9047.10924274
0.03100000 1617264.67543871 7762.87079930
0.03200000 1613060.00293061 13573.90054985
0.03300000 1608734.46449315 13947.72845015
0.03400000 1604286.15272009 10949.25349752
0.03500000 1599718.24845017 12957.71841081
0.03600000 1595030.59652511 15049.11437369
0.03700000 1590225.13053566 9064.28366325
0.03800000 1585302.91829641 12056.22925160
0.03900000 1580265.46635867 12326.07120842
0.04000000 1575111.58877993 14530.40507982
0.04100000 1569845.40475255 10879.02915936
0.04200000 1564467.09036960 11099.89452113
0.04300000 1558976.74350801 10289.24698476
0.04400000 1553378.09072284 13630.89337914
0.04500000 1547670.70841487 13882.60689954
0.04600000 1541855.05662871 14131.10225091
0.04700000 1535934.35562405 14376.34623726
0.04800000 1529908.68976521 12369.31233227
0.04900000 1523780.88477877 13714.02860136
0.05000000 1517550.64413606 16252.96815553
0.05100000 1511220.91401359 15323.78078194
0.05200000 1504790.37886270 14355.70088334
0.05300000 1498264.17459177 15776.72249393
0.05400000 1491641.02347041 13536.64291926
0.05500000 1484924.36707683 17462.71137145
0.05600000 1478113.11230423 17693.01477991
0.05700000 1471212.27906273 17919.36639543
0.05800000 1464220.29346355 18141.69028309
0.05900000 1457139.20286442 19671.38015744
0.06000000 1449972.10466249 14593.96991524
0.06100000 1442720.15504379 17442.48748959
0.06200000 1435384.12755541 14920.81870339
0.06300000 1427967.00184503 17821.02901625
0.06400000 1420466.99087692 19389.37533225
0.06500000 1412890.25968636 16785.13707025
0.06600000 1405234.80510210 24008.43776849
0.06700000 1397503.69238339 14254.53832941
0.06800000 1389699.72892919 21575.08930154
0.06900000 1381823.90630353 14509.15169549
0.07000000 1373875.65184672 17558.13165282
0.07100000 1365859.63798024 20651.79869355
0.07200000 1357775.11718304 14867.63822966
0.07300000 1349626.83811631 16478.94446553
0.07400000 1341413.89233402 15090.90699598
0.07500000 1333138.99848345 19757.12088359
0.07600000 1324802.16027737 18361.75880225
0.07700000 1316408.87567104 18482.38148103
0.07800000 1307957.33235277 27898.73120743
0.07900000 1299449.78077402 20271.41753088
0.08000000 1290890.21137194 20389.61184512
0.08100000 1282278.61536026 20503.63602160
0.08200000 1273615.89993963 26956.08178714
0.08300000 1264905.41053653 17531.58981283
0.08400000 1256147.53616821 22422.23457307
0.08500000 1247346.24380146 16090.76730042
0.08600000 1238500.80846262 21011.16720207
0.08700000 1229614.74502482 17854.00693614
0.08800000 1220686.99912097 16296.17220359
0.08900000 1211723.49213283 19629.92149456
0.09000000 1202722.57820999 19700.59675652
0.09100000 1193687.70476579 19767.46931962
0.09200000 1184619.39215220 18177.98542670
0.09300000 1175521.16032924 18232.33405348
0.09400000 1166391.34429767 18283.18518113
0.09500000 1157234.31744619 16664.17495449
0.09600000 1148051.18225158 18374.56003568
0.09700000 1138844.87991084 21763.32667825
0.09800000 1129616.46317109 23484.72737352
0.09900000 1120367.11521090 21847.15977392
0.10000000 1111097.36165125 16833.12582063
0.10100000 1101809.83006116 28658.07502773
0.10200000 1092506.68169786 28694.68934449
0.10300000 1083189.02073697 21967.07437389
0.10400000 1073859.19845884 18604.61148856
0.10500000 1064519.98121714 32159.15014564
0.10600001 1055168.04516047 20322.53750604
0.10700001 1045810.87288274 28801.63279453
0.10800001 1036445.65254954 18640.47593836
0.10900001 1027076.81119486 20336.12181879
0.11000001 1017704.44252251 16944.77976558
0.11100001 1008330.65541219 18633.95138918
0.11200001 998957.76995611 20318.80199746
0.11300001 989584.72611089 20306.27953583
0.11400001 980216.04451808 16908.72756407
0.11500001 970852.16661455 16892.82849454
0.11600001 961493.75748596 21936.48111006
0.11700001 952144.22908184 18538.24901328
0.11800001 942801.48012369 18511.90793411
0.11900001 933470.04622570 23523.44627288
0.12000001 924150.06335909 26837.31910412
0.12100001 914844.88003810 20089.99451204
0.12200001 905553.22515976 25061.18668696
0.12300001 896278.18354917 16670.77499945
0.12400001 887019.73849988 24947.43132077
0.12500001 877780.21975110 24885.07040254
0.12600001 868562.38839849 18200.72570657
0.12700001 859365.26095019 18149.79516660
0.12800001 850190.08306177 26321.88621212
0.12900001 841039.48265479 22960.37895865
0.13000001 831914.04104770 21251.24518024
0.13100001 822814.16103869 19550.06538782
0.13200001 813743.03257112 21104.42654460
0.13300001 804701.59616612 17791.95313000
0.13400001 795689.00185998 16112.70304731
0.13500001 786708.37370124 22468.39221225
0.13600001 777759.49421779 20777.84586772
0.13700001 768844.76139921 23872.63096712
0.13800001 759963.22267690 22183.32751601
0.13900001 751120.03535940 20505.57793232
0.14000001 742311.83093523 17269.88556117
0.14100001 733542.10474350 15624.44756793
0.14200001 724810.17729196 27984.92226516
0.14300001 716121.01087970 20108.67893398
0.14400001 707468.08962601 23081.14751278
0.14500001 698861.07111537 19896.57563322
0.14600001 690294.27516439 16743.08843396
0.14700001 681773.96590154 19675.99758416
0.14800001 673296.15863402 18057.80382651
0.14900001 664863.44898578 20943.19963117
0.15000001 656477.59747755 17843.06194133
0.15100001 648138.85130077 19210.83645902
0.15200001 639849.23024135 17621.44863235
0.15300001 631608.21552073 27721.28588735
0.15400001 623414.66823378 23191.02675270
0.15500001 615273.26862130 18716.61371475
0.15600001 607181.35961511 17158.94603254
0.15700001 599144.42857033 15619.69599003
0.15800001 591155.41234932 15508.96297499
0.15900001 583222.47696330 13997.34010780
0.16000001 575341.11779431 16673.38638070
0.16100001 567517.17154023 20686.00187911
0.16200001 559745.87689140 15054.36606965
0.16300001 552031.35177245 21727.95503149
0.16400001 544372.63259781 17515.19028072
0.16500001 536771.03530575 13365.59941012
0.16600001 529226.23071523 13257.11770533
0.16700001 521738.81552117 21036.51003505
0.16800001 514308.44640245 15645.26367828
0.16900001 506939.00811453 18097.72344423
0.17000001 499627.95063798 12815.45753901
0.17100001 492376.04161530 13973.63272090
0.17200001 485184.43965537 16367.69784470
0.17300001 478053.24153278 14972.62823188
0.17400001 470983.38243452 17308.64012189
0.17500001 463973.95945937 13473.80441904
0.17600001 457024.01503108 13347.38698937
0.17700001 450138.33906266 13220.56364269
0.17800001 443313.66019095 14283.56680600
0.17900001 436551.11511941 16501.63293094
0.18000001 429851.80765042 17505.71569345
0.18100001 423216.01803451 18486.07654096
0.18200001 416640.54232925 11436.78342719
0.18300001 410130.71375423 15847.45152809
0.18400001 403682.75341617 12322.41663015
0.18500001 397299.34167339 16626.97823452
0.18600001 390979.20390927 13160.36062533
0.18700001 384722.53151815 11934.09349152
0.18800001 378529.38866970 10731.30867580
0.18900001 372402.08882272 14858.84404607
0.19000001 366335.07939020 11545.05057247
0.19100001 360336.89772636 11415.47345935
0.19200001 354399.44301045 10259.86435994
0.19300001 348528.47575242 14199.05077310
0.19400001 342720.78054450 10024.58330463
0.19500001 336977.60502467 9907.14205589
0.19600001 331297.81756389 11747.82116597
0.19700001 325682.87390021 9672.78181195
0.19800001 320132.03619159 10511.53590511
0.19900001 314646.14504078 10383.32327706
0.20000001 309222.36333887 10255.36016481
0.20100001 303864.28749628 9207.08834629
0.20200001 298568.80340262 9091.42049330
0.20300001 293337.80063983 8976.13712383
0.20400001 288170.51824607 12405.74139686
0.20500001 283065.74352861 9621.40507731
0.20600001 278024.89127764 9495.94061044
0.20700001 273047.16559823 9370.97916629
0.20800001 268131.95241789 8405.93710565
0.20900001 263281.89178575 10781.39397828
0.21000001 258492.05656081 13908.16576073
0.21100001 253764.72924798 12104.57815735
0.21200001 249099.58408732 8754.60529662
0.21300001 244496.19756415 9417.99397541
0.21400001 239955.53601647 9286.27968286
0.21500001 235476.63469241 8392.38765721
0.21600001 231057.34485059 8273.00862351
0.21700001 226699.78056476 8154.39149245
0.21800001 222402.87089778 8036.52811986
0.21900001 218165.23883852 10799.17983311
0.22000001 213987.34151562 9221.78491864
0.22100001 209871.51298296 10483.08256918
0.22200001 205813.69370275 9638.25573184
0.22300001 201814.93223336 9493.37486116
0.22400001 197873.17471178 6678.21996231
0.22500001 193993.05079796 7234.00120633
0.22600001 190168.90530427 7770.30183818
0.22700001 186403.38060901 7649.99510196
0.22800001 182694.55737276 8158.22584528
0.22900001 179042.02165970 7412.34004725
0.23000001 175446.51341033 6687.14417488
0.23100001 171908.46705894 6580.65643023
0.23200001 168424.33986824 8829.64643518
0.23300001 164996.68136197 7528.79892662
0.23400001 161623.79165781 10824.75395824
0.23500001 158304.35181240 7285.16661497
0.23600001 155039.84354993 6062.83336877
0.23700001 151828.80001347 5420.28841685
0.23800001 148671.05286168 7461.80049606
0.23900001 145566.23346354 6812.50004832
0.24000001 142513.48388039 6697.42149175
0.24100001 139513.90834550 5064.35511249
0.24200001 136565.15104255 6968.91998734
0.24300001 133667.50123817 6359.90000975
0.24400001 130819.87198152 7211.44578411
0.24500001 128022.84250374 6613.66035660
0.24600001 125275.66042367 5105.60978209
0.24700001 122578.34386124 5015.90606808
0.24800001 119928.84742312 6271.07972842
0.24900001 117327.54780230 5279.73990087
0.25000001 114774.63469833 5185.51824099
0.25100001 112268.43762734 5516.87128600
0.25200001 109810.31618984 4167.30169656
0.25300001 107398.60892240 4910.26463224
0.25400001 105032.11022500 4017.47840618
0.25500001 102711.23861398 5127.34527419
0.25600001 100435.79273611 4258.97999248
0.25700001 98204.65008136  4180.57215176
0.25800001 96017.33245855  3730.27354251
0.25900001 93874.11579145  4759.41789582
0.26000001 91774.36078991  4311.55967391
0.26100001 89715.07850456  4583.54357767
0.26200001 87700.62487964  3805.76879673
0.26300001 85726.22669786  7128.99334952
0.26400001 83792.83362577  4329.99488250
0.26500001 81901.01091630  3594.63553921
0.26600001 80048.53215174  4167.72702370
0.26700001 78236.86547380  3459.63435496
0.26800001 76464.08670756  3085.32604465
0.26900001 74729.47201652  3329.19813588
0.27000001 73033.85193619  3562.59146604
0.27100001 71375.81511635  3494.56007347
0.27200001 69755.46686464  4284.72975493
0.27300001 68171.39299175  3082.02882301
0.27400001 66622.63654168  3023.00227614
0.27500001 65112.04604721  3234.76660071
0.27600001 63634.84927780  3437.23654641
0.27700001 62194.06170848  4408.93724317
0.27800001 60786.80797620  2798.32083762
0.27900001 59414.01284178  3244.00525469
0.28000001 58074.46404651  2692.62265295
0.28100001 56767.77934653  3601.91577001
0.28200001 55494.27916104  2355.73226188
0.28300001 54252.77147649  2311.16817429
0.28400001 53042.97744611  2721.10487178
0.28500001 51864.72126217  2447.49631221
0.28600001 50716.37330716  2838.34196648
0.28700001 49598.97602418  2785.47862536
0.28800001 48510.67130709  2944.11278098
0.28900001 47453.40794140  2683.49034611
0.29000001 46423.47898816  2026.38495375
0.29100001 45423.32698479  2586.40436094
0.29200001 44450.77740598  2344.33411136
0.29300001 43505.76884248  2686.04629548
0.29400001 42587.90004307  3015.22346578
0.29500001 41697.81640008  2406.79807654
0.29600001 40833.05631703  2364.84656855
0.29700001 39993.93988367  1966.50211717
0.29800001 39181.05251101  1932.99731714
0.29900001 38393.11850215  2591.53562158
0.30000001 37629.68440655  2548.47049708
0.30100001 36891.47780725  2339.65763330
0.30200001 36175.77991689  1808.60820257
0.30300001 35484.18749136  1779.88692883
0.30400001 34816.15986164  1752.12332799
0.30500001 34169.65055000  1568.38703450
0.30600001 33545.69897122  2008.21336399
0.30700001 32944.10359969  1522.01765836
0.30800001 32363.65838199  1800.06676443
0.30900001 31804.25602118  1626.78777250
0.31000001 31266.29582871  1896.14460030
0.31100001 30747.17168250  1582.86447316
0.31200001 30248.96034750  1420.18875555
0.31300001 29769.78719357  1542.37274752
0.31400001 29311.25526609  2215.93100303
0.31500001 28870.40449805  1915.84013320
0.31600002 28448.19386734  1487.98285068
0.31700002 28043.75202310  1337.68703484
0.31800002 27657.42733464  2117.45273700
0.31900002 27288.80348950  2226.76647018
0.32000002 26936.83672749  1426.70962483
0.32100002 26601.95126254  1798.82402955
0.32200002 26283.58404566  1910.15956097
0.32300002 25980.61821322  1388.92391545
0.32400002 25693.62273440  1252.56416761
0.32500002 25421.49884112  1367.42248741
0.32600002 25165.08995054  1974.95635284
0.32700002 24923.05929480  1594.07894798
0.32800002 24696.29510293  1706.26710946
0.32900002 24482.20269736  2060.17745454
0.33000002 24283.69593562  1446.82267236
0.33100002 24096.19852459  1319.98981768
0.33200002 23924.21883254  1434.01774473
0.33300002 23763.95735910  1190.57432007
0.33400002 23616.91933345  1186.75025271
0.33500002 23481.53308764  1656.85705313
0.33600002 23358.25312245  1298.83572638
0.33700002 23245.92473584  1414.28212790
0.33800002 23146.32521760  2118.58324750
0.33900002 23056.64519797  1175.88896078
0.34000002 22978.49030160  1292.88481805
0.34100002 22910.61864638  1292.84627144
0.34200002 22854.16094440  1175.84663628
0.34300002 22806.19156952  1294.47949479
0.34400002 22768.85859498  1296.11733690
0.34500002 22740.68899612  1298.26599627
0.34600002 22722.86572332  1300.99773860
0.34700002 22712.01849075  1185.56742137
0.34800002 22711.48235212  1307.84077319
0.34900002 22719.04280846  1431.29976472
0.35000002 22734.90704670  1316.69220397
0.35100002 22758.86723030  1562.16872068
0.35200002 22789.76272738  1448.06159228
0.35300002 22828.73870024  1697.08851536
0.35400002 22875.39948869  1461.73809656
0.35500002 22928.86638009  1714.16213176
0.35600002 22988.72074798  1969.67368698
0.35700002 23055.41539774  1238.07586550
0.35800002 23129.07977140  1743.70140656
0.35900002 23208.51856078  1879.89009247
0.36000002 23294.54563597  1387.53967653
0.36100002 23385.66280440  1269.84155043
0.36200002 23483.46938615  1278.67496864
0.36300002 23584.89432712  1931.60293689
0.36400002 23692.34570797  1686.30278564
0.36500002 23804.25129349  1960.28018687
0.36600002 23921.55715397  1580.25814045
0.36700002 24043.11231614  1592.61583526
0.36800002 24170.32746622  1471.61045749
0.36900002 24300.75447905  1483.56113122
0.37000002 24434.40966595  1631.72995479
0.37100002 24572.38088527  1782.48059385
0.37200002 24714.60708955  1382.78233216
0.37300002 24859.59150703  2231.39703937
0.37400002 25008.99902817  2250.81001916
0.37500002 25160.37535774  1560.94976114
0.37600002 25315.96216649  1574.77950117
0.37700002 25473.06573883  1733.18747497
0.37800002 25633.83991558  2040.19741553
0.37900002 25796.91404081  1617.46658698
0.38000002 25962.39852510  1780.50137520
0.38100002 26129.70342776  1646.95528507
0.38200002 26299.32171848  1813.07532516
0.38300002 26470.61819148  2287.06152009
0.38400002 26644.42888197  2308.07376124
0.38500002 26818.73329279  2173.92662370
0.38600002 26995.71559942  1723.81150127
0.38700002 27172.92394343  2055.90352296
0.38800002 27351.50427862  2234.34449037
0.38900002 27531.26060968  2415.86823295
0.39000002 27712.74347812  1625.35248199
0.39100002 27894.15351379  2296.24682604
0.39200002 28076.77647838  1986.15126218
0.39300002 28259.63062820  3173.27407358
0.39400002 28443.82636162  2696.47486683
0.39500002 28627.43512270  2040.56367222
0.39600002 28811.25841030  1887.28157158
0.39700002 28994.99007282  2596.50148404
0.39800002 29179.84056863  2444.97895709
0.39900002 29363.57367282  1937.99595423
0.40000002 29547.06835805  2310.43311972
0.40100002 29730.28483068  1972.00988625
0.40200002 29914.07339794  2350.79756936
0.40300002 30096.30585686  2735.75433201
0.40400002 30277.98911468  2207.26551104
0.40500002 30459.13097693  2225.95339726
0.40600002 30639.62046662  2618.76848536
0.40700002 30819.17009737  2640.58661906
0.40800002 30997.85564621  2472.23409420
0.40900002 31174.91034329  2300.70849235
0.41000002 31351.50436912  2512.66643672
0.41100002 31526.57878990  2338.01119384
0.41200002 31699.68990465  2552.93464744
0.41300002 31871.98090851  2375.10012984
0.41400002 32042.58552712  2991.97656536
0.41500002 32212.25122938  2211.04902915
0.41600002 32378.98704565  3037.95860351
0.41700002 32544.80964940  2244.61562788
0.41800002 32709.83711747  2878.13870434
0.41900002 32871.00768045  2899.22301479
0.42000002 33031.10275679  2711.68850931
0.42100002 33189.72336707  2311.00054756
0.42200002 33346.24702851  3596.89310617
0.42300002 33500.11378803  2343.66807167
0.42400002 33651.89756680  2574.37028585
0.42500002 33801.94508521  2807.92771128
0.42600002 33948.41291929  3479.03352083
0.42700002 34093.83095703  2845.47126651
0.42800002 34236.38174580  2864.04465066
0.42900002 34377.11958256  2660.78918178
0.43000002 34515.35484251  2231.41779631
0.43100002 34649.68265955  2469.82949701
0.43200002 34782.41218492  2710.94133416
0.43300002 34912.20988152  2272.78497099
0.43400002 35039.70141232  2972.24281315
0.43500002 35164.12268112  3679.57397172
0.43600002 35286.70456349  3006.95667187
0.43700002 35405.67448065  2326.15292361
0.43800002 35521.00193217  3040.77551450
0.43900002 35634.74049911  3527.83947659
0.44000002 35744.78700578  2837.42132698
0.44100002 35852.69365547  2852.44044241
0.44200002 35957.33802016  3822.98435948
0.44300002 36059.30433032  3842.47965154
0.44400002 36157.65144566  2654.87568321
0.44500002 36252.33745733  2910.33778900
0.44600002 36344.81431839  3411.68788175
0.44700002 36434.44953098  3427.75317432
0.44800002 36519.86510719  3443.45824415
0.44900002 36603.58417549  3706.11307341
0.45000002 36683.79558168  3226.15655533
0.45100002 36759.69720571  2741.53834753
0.45200002 36833.41445807  2753.11369415
0.45300002 36903.33297378  3769.67564193
0.45400002 36970.60390887  2775.56822000
0.45500002 37034.60604071  3293.11732521
0.45600002 37095.00939970  2797.14931635
0.45700002 37152.29144040  3062.83505151
0.45800002 37205.70412457  3073.93542046
0.45900002 37256.17451024  3856.01424456
0.46000002 37304.09134947  2837.53584298
0.46100002 37347.46344368  4399.90487683
0.46200002 37388.43336128  2856.28950201
0.46300002 37425.69079069  2865.31102274
0.46400002 37459.22315769  2874.05903299
0.46500002 37490.39685848  3668.81041046
0.46600002 37517.40755914  2890.90397649
0.46700002 37541.15334961  3689.54472607
0.46800002 37562.27979391  3171.00781050
0.46900002 37579.35102347  3179.21324727
0.47000002 37592.85315582  3452.71576174
0.47100002 37603.54262787  3194.79713309
0.47200002 37610.64987135  2935.32330833
0.47300002 37615.12966008  3476.76659927
0.47400002 37614.87276373  3752.08373602
0.47500002 37612.49406702  3222.63864441
0.47600002 37607.06048544  2690.78530527
0.47700002 37597.19945270  3234.86319424
