# SAXS profile: number of points = 501, q_min = 0, q_max = 0.5, delta_q = 0.001
#    q    intensity    error
0.00000000 1700912.83420644 357.19169518
0.00100000 1700842.84266439 561.27815141
0.00200000 1700632.82417425 994.87023364
0.00300000 1700282.93259756 1632.27167344
0.00400000 1699793.05703161 1529.81380946
0.00500000 1699163.65177855 1988.02155127
0.00600000 1698394.42991807 1783.31422402
0.00700000 1697486.10263761 2851.77677095
0.00800000 1696438.05903382 3664.30636222
0.00900000 1695251.71647447 3051.45322010
0.01000000 1693926.19019665 4192.46750177
0.01100000 1692462.72450549 3046.43303675
0.01200000 1690860.87682165 3297.17885436
0.01300000 1689121.94994269 4966.01875186
0.01400000 1687245.23747701 4175.93214788
0.01500000 1685232.50170082 4449.01400260
0.01600000 1683082.64184309 6866.97748570
0.01700000 1680797.79107932 4991.96966344
0.01800000 1678377.44165875 5740.05110876
0.01900000 1675822.36717705 5027.46732838
0.02000000 1673133.31879872 7378.51826967
0.02100000 1670311.82221087 9921.65267377
0.02200000 1667356.12505694 8628.56833919
0.02300000 1664269.07359619 8987.05340650
0.02400000 1661050.64014374 6851.83420302
0.02500000 1657702.23796656 8404.55073033
0.02600000 1654223.82990955 7369.56749932
0.02700000 1650616.75777399 9705.62698024
0.02800000 1646880.73117048 10745.89726369
0.02900000 1643018.26008797 8872.29901184
0.03000000 1639029.93207594 8383.63848792
0.03100000 1634915.74995955 8632.35555699
0.03200000 1630676.94689356 12914.96201424
0.03300000 1626316.16417285 9123.63410161
0.03400000 1621831.56682162 11920.46256615
0.03500000 1617226.40486235 10479.62758744
0.03600000 1612500.43117798 11634.19114861
0.03700000 1607655.71090611 9163.63797596
0.03800000 1602693.19520554 11250.90675103
0.03900000 1597614.48169606 9585.68733409
0.04000000 1592418.34888330 12731.38528928
0.04100000 1587108.89045479 15998.05835756
0.04200000 1581686.34824195 12242.25290335
0.04300000 1576150.83142256 14563.63435836
0.04400000 1570506.02115569 12721.09936215
0.04500000 1564751.54413704 11876.46477184
0.04600000 1558887.78369297 16485.23907890
0.04700000 1552918.11466295 12299.11204014
0.04800000 1546842.48137486 13643.15132052
0.04900000 1540663.96867343 13865.97636349
0.05000000 1534381.94705290 16433.23141817
0.05100000 1527999.58851800 13110.23708021
0.05200000 1521515.48350907 13305.65352335
0.05300000 1514934.76656034 19633.55548990
0.05400000 1508256.21287354 13687.42577012
0.05500000 1501483.36956411 26486.16787467
0.05600000 1494614.98580822 16612.64634247
0.05700000 1487656.28276706 14236.87129064
0.05800000 1480605.57131385 15724.03190155
0.05900000 1473464.66037112 15913.41907526
0.06000000 1466237.18455094 16099.28503851
0.06100000 1458924.04871106 16281.59314448
0.06200000 1451525.83081654 16460.30369087
0.06300000 1444045.77963981 18021.69217251
0.06400000 1436482.00694082 18207.41028948
0.06500000 1428840.74980474 18389.18131019
0.06600000 1421120.11457882 19995.16094767
0.06700000 1413322.89760202 14415.89423019
0.06800000 1405452.19909234 16001.07403566
0.06900000 1397508.70810590 16141.22633434
0.07000000 1389492.24056072 17757.71166593
0.07100000 1381407.14962884 19394.95728921
0.07200000 1373252.82039520 15037.11908777
0.07300000 1365034.22839476 21212.63290319
0.07400000 1356750.04820016 19842.47038483
0.07500000 1348403.38065039 18446.15911191
0.07600000 1339994.07433169 18572.31874092
0.07700000 1331527.54687690 18694.64763472
0.07800000 1323002.17136368 15677.57646588
0.07900000 1314420.22694393 15773.04346314
0.08000000 1305785.48671592 23797.94161178
0.08100000 1297098.26416605 20740.60221713
0.08200000 1288359.17163726 22456.10141539
0.08300000 1279571.70980044 16122.60430015
0.08400000 1270736.22222851 17822.07635330
0.08500000 1261856.86431436 16277.95431383
0.08600000 1252932.83302559 17985.85166255
0.08700000 1243967.32731797 16420.36949166
0.08800000 1234959.90145751 21432.73009636
0.08900000 1225916.03299367 21514.82738958
0.09000000 1216834.28419479 19931.74651141
0.09100000 1207718.01079863 16666.50933203
0.09200000 1198567.77966528 20064.02557434
0.09300000 1189387.28849880 25155.54233386
0.09400000 1180174.65563139 26907.98341300
0.09500000 1170934.25642740 20233.74490211
0.09600000 1161667.32031388 28733.84251868
0.09700000 1152376.83673172 18633.93432599
0.09800000 1143063.69838212 16974.49671908
0.09900000 1133729.45319247 17005.94259755
0.10000000 1124374.02461533 18737.69400140
0.10100000 1115000.64274904 20471.41276368
0.10200000 1105611.45407395 18789.86754579
0.10300000 1096206.99489899 23941.16189480
0.10400000 1086790.26323905 20540.33694154
0.10500000 1077363.73518572 20556.10103449
0.10600001 1067924.15251422 20568.22014523
0.10700001 1058478.75645438 20576.82799377
0.10800001 1049025.31396891 18866.72115963
0.10900001 1039567.80143921 22298.73039038
0.11000001 1030106.56764960 17151.27515867
0.11100001 1020643.57075843 18861.49407549
0.11200001 1011181.10618411 23995.32877938
0.11300001 1001718.30014906 20555.26048682
0.11400001 992259.60960966 29098.01442187
0.11500001 982805.65220576 29071.39256116
0.11600001 973356.91226955 20498.89753772
0.11700001 963916.57023067 17061.32409658
0.11800001 954483.16638027 20445.03038679
0.11900001 945060.78971312 20413.31401930
0.12000001 935649.51001707 23774.85516945
0.12100001 926253.10947279 18645.47597204
0.12200001 916869.62978711 18607.87001317
0.12300001 907503.09125295 27007.29326812
0.12400001 898152.94833800 16840.36857481
0.12500001 888821.54092013 16798.72791495
0.12600001 879511.65123737 20105.63729473
0.12700001 870222.54201482 18379.10095349
0.12800001 860955.06105630 21657.32558156
0.12900001 851712.10429990 16608.38681664
0.13000001 842494.65561457 24832.53114472
0.13100001 833302.15534253 21449.19848958
0.13200001 824138.74935670 16441.56882473
0.13300001 815005.00420662 16381.60135683
0.13400001 805899.87117761 22847.26242503
0.13500001 796826.87773443 19506.32288663
0.13600001 787785.42481887 21045.68861636
0.13700001 778778.38407849 17732.78464163
0.13800001 769804.40520411 24075.63390806
0.13900001 760868.86961256 15978.24701537
0.14000001 751968.31818447 22265.78295151
0.14100001 743106.63061261 17410.98917641
0.14200001 734282.46623925 17325.39560807
0.14300001 725501.25768861 15670.82790523
0.14400001 716756.46223621 24943.12606238
0.14500001 708057.30067201 15506.45561619
0.14600001 699399.01033406 18506.09868645
0.14700001 690787.12496808 15335.47489777
0.14800001 682217.76993025 18297.08145276
0.14900001 673693.55180053 15158.10563068
0.15000001 665216.74271149 18080.59191999
0.15100001 656786.92356175 16472.21682017
0.15200001 648406.33827214 17857.11139864
0.15300001 640074.76103826 25135.73705210
0.15400001 631790.71093474 20564.78861140
0.15500001 623559.14371530 18968.67004701
0.15600001 615377.28199756 17390.56281000
0.15700001 607250.50111267 23026.94008899
0.15800001 599171.68901428 18577.31909471
0.15900001 591149.55655008 15606.34902955
0.16000001 583179.08878257 15492.15322478
0.16100001 575266.44296672 23764.25788073
0.16200001 567406.66850151 16647.71243971
0.16300001 559603.91102518 16519.50823331
0.16400001 551857.06871007 16390.15571446
0.16500001 544167.91461224 14904.75988490
0.16600001 536535.59781699 17472.28256783
0.16700001 528961.19107305 17328.76943773
0.16800001 521444.11886545 13218.60903737
0.16900001 513988.32675377 13106.70295109
0.17000001 506591.03195031 15592.87269972
0.17100001 499253.68226295 18033.04385488
0.17200001 491976.62789395 16596.83232575
0.17300001 484760.34086133 13917.47004337
0.17400001 477606.01000066 13790.87419006
0.17500001 470512.30031833 12421.52531504
0.17600001 463478.66162082 12305.35904720
0.17700001 456509.46050628 15845.44412256
0.17800001 449601.87320041 12071.81086561
0.17900001 442756.59087368 13149.87137006
0.18000001 435975.00207220 13020.39405190
0.18100001 429257.56402099 17578.09807699
0.18200001 422600.57966065 13920.46375160
0.18300001 416010.02169362 13778.25256937
0.18400001 409481.51686492 13635.73515576
0.18500001 403018.28089342 16866.31585219
0.18600001 396618.49080319 18912.75362745
0.18700001 390282.78899616 11005.97516967
0.18800001 384010.66182702 10886.70277715
0.18900001 377805.50150986 11844.20303194
0.19000001 371660.79580607 11712.89053325
0.19100001 365585.40872313 15793.29040307
0.19200001 359571.44411972 14573.43131879
0.19300001 353624.27994170 11319.51373581
0.19400001 347740.77818964 10171.41824269
0.19500001 341922.56732524 14073.53353615
0.19600001 336168.21633404 10927.14838832
0.19700001 330478.99588763 16685.88529090
0.19800001 324854.69105242 13575.67818065
0.19900001 319295.73007842 9578.87235505
0.20000001 313799.36068601 9461.05117182
0.20100001 308369.36548283 13081.02910202
0.20200001 303002.41140954 11071.70863619
0.20300001 297700.59753923 11842.53032984
0.20400001 292462.87258842 8993.23375717
0.20500001 287288.48720049 9764.93614150
0.20600001 282178.49056139 11390.13530990
0.20700001 277132.12282498 12105.13169719
0.20800001 272148.74858293 11091.42277279
0.20900001 267231.21057281 10101.34023716
0.21000001 262374.46905099 9964.98280562
0.21100001 257580.91638771 8191.07352835
0.21200001 252849.98338028 8078.55735091
0.21300001 248181.48590165 8763.28868148
0.21400001 243576.26054599 9426.40172878
0.21500001 239033.42600579 9293.62004248
0.21600001 234550.59245215 8398.08435980
0.21700001 230130.49636119 9782.84786284
0.21800001 225771.24247504 8899.90279916
0.21900001 221471.97380170 8039.43302912
0.22000001 217233.12665157 11522.04558239
0.22100001 213057.02303273 8513.75904295
0.22200001 208939.52843634 8386.83306800
0.22300001 204881.73842318 6884.02673653
0.22400001 200881.43561395 6779.74877256
0.22500001 196943.16419496 6676.37358192
0.22600001 193061.89788832 8545.88531415
0.22700001 189239.83397129 7766.40315345
0.22800001 185474.88798592 6371.06270360
0.22900001 181766.93876866 8152.24758930
0.23000001 178116.59691832 6788.91441260
0.23100001 174524.41312664 7288.13983684
0.23200001 170986.60242134 10159.16946333
0.23300001 167506.11858429 6467.41154441
0.23400001 164081.02629308 6940.62774046
0.23500001 160709.85165644 10240.43223188
0.23600001 157394.22884671 6154.90161016
0.23700001 154132.80347815 6603.04961331
0.23800001 150925.37910325 5410.67509677
0.23900001 147771.38298340 8511.63206244
0.24000001 144670.17037384 7844.74035958
0.24100001 141622.58750634 5654.99018662
0.24200001 138626.51739912 5052.93679821
0.24300001 135682.29257308 6455.76378600
0.24400001 132788.65555404 6831.97665143
0.24500001 129946.23870306 5274.51807846
0.24600001 127154.04481644 6595.48061663
0.24700001 124412.74422349 6016.60059527
0.24800001 121719.72770118 5000.85524918
0.24900001 119075.47934406 5804.92989264
0.25000001 116480.27357148 4824.03075818
0.25100001 113932.51919368 6459.97414390
0.25200001 111433.31029568 5497.56262353
0.25300001 108981.11635180 4982.61687533
0.25400001 106574.84739155 4076.48810559
0.25500001 104214.74584635 4001.84642983
0.25600001 101900.75679227 4713.92923224
0.25700001 99631.63181624  3855.74433372
0.25800001 97406.99659454  4162.68819642
0.25900001 95226.91820470  4828.00498141
0.26000001 93090.91290635  4373.41129527
0.26100001 90996.08946995  4291.37578245
0.26200001 88946.73208214  4210.73849601
0.26300001 86938.00558988  4819.84325797
0.26400001 84970.83407469  4728.62714001
0.26500001 83045.89163179  3976.23747948
0.26600001 81160.72672443  4225.63343686
0.26700001 79317.03791862  4463.96310530
0.26800001 77512.89646636  3440.41007246
0.26900001 75747.48295178  3988.10516613
0.27000001 74021.53055419  4814.36057507
0.27100001 72333.81815344  3246.34191235
0.27200001 70684.39370708  4052.33648300
0.27300001 69071.74623166  3122.73379491
0.27400001 67495.00346674  3619.41973219
0.27500001 65957.04415405  3003.68393293
0.27600001 64452.93304024  3749.22729239
0.27700001 62985.83003652  2889.16016051
0.27800001 61552.88672369  2833.58727443
0.27900001 60154.81632003  2526.50240502
0.28000001 58790.64332762  2973.63088025
0.28100001 57459.88210931  3159.71906674
0.28200001 56162.74912394  3099.34145710
0.28300001 54898.11777533  3040.25790629
0.28400001 53665.84118471  2523.63630116
0.28500001 52465.59392116  3376.16112863
0.28600001 51295.79463851  2649.94087645
0.28700001 50157.32669693  2383.47627745
0.28800001 49048.56375032  2551.50640706
0.28900001 47971.47901206  2504.11132296
0.29000001 46922.07136614  2457.77821450
0.29100001 45902.98780612  2211.60605718
0.29200001 44912.01960552  2368.66002612
0.29300001 43949.11208492  2325.78712163
0.29400001 43013.70397869  2093.69214027
0.29500001 42106.54897854  1869.53086314
0.29600001 41225.26847503  2203.90295700
0.29700001 40370.19699958  2706.82183696
0.29800001 39541.67003367  1950.78838346
0.29900001 38738.60468142  1917.56102251
0.30000001 37960.53774435  2742.26937647
0.30100001 37208.17457187  2191.18950427
0.30200001 36478.74605125  2486.93862978
0.30300001 35773.72927221  2283.79498486
0.30400001 35092.92353013  1605.50132751
0.30500001 34433.92046913  2212.72383410
0.30600001 33797.89260023  1867.67163351
0.30700001 33184.77460117  1533.13665916
0.30800001 32593.13861265  2266.03806933
0.30900001 32023.05206501  1935.79358898
0.31000001 31474.69053227  2055.61213598
0.31100001 30945.56412033  1448.25246940
0.31200001 30437.78701158  1714.86500142
0.31300001 29949.54740992  2256.99799967
0.31400001 29482.22949239  1810.94603231
0.31500001 29032.93611705  1513.77736082
0.31600002 28602.79690680  1496.06936305
0.31700002 28190.67046877  1344.69504503
0.31800002 27797.06818807  1596.10773093
0.31900002 27421.38819519  1842.71737397
0.32000002 27062.97857846  1563.69897630
0.32100002 26721.90760408  1548.80183807
0.32200002 26397.61234798  1406.86081670
0.32300002 26089.07090830  1521.51468742
0.32400002 25796.91256209  1634.87941104
0.32500002 25520.00191327  1996.68504424
0.32600002 25258.96345504  1362.84743775
0.32700002 25012.71533578  1476.75078335
0.32800002 24782.02853965  1222.99316634
0.32900002 24564.34894663  1337.52886348
0.33000002 24362.50347530  1209.59835483
0.33100002 24171.95883646  1324.13996776
0.33200002 23997.38202834  1318.53621799
0.33300002 23834.50894334  2149.39611830
0.33400002 23685.30842438  1428.22416562
0.33500002 23548.11841331  1661.55531393
0.33600002 23423.17921990  1302.44594220
0.33700002 23309.48785659  1536.32841738
0.33800002 23208.78050570  1180.16654460
0.33900002 23118.29961617  1414.84000351
0.34000002 23039.46190522  1414.16223871
0.34100002 22971.34626177  1178.43011904
0.34200002 22914.74469061  1532.65277122
0.34300002 22866.80520995  1297.91992519
0.34400002 22829.91226617  1181.44801573
0.34500002 22802.19976290  1420.12106849
0.34600002 22785.17082444  2016.14593589
0.34700002 22775.23786062  1307.75421989
0.34800002 22776.00346909  1550.02098950
0.34900002 22784.86655347  1435.44666085
0.35000002 22802.30881274  2040.92074695
0.35100002 22828.07416138  1687.45132193
0.35200002 22860.87210250  1573.62820571
0.35300002 22902.03987915  1337.70821270
0.35400002 22951.00489522  1344.35517541
0.35500002 23006.85079805  1597.13565805
0.35600002 23069.33019840  1358.89895970
0.35700002 23138.88986800  1491.07013372
0.35800002 23215.48268538  1375.16918200
0.35900002 23298.04404084  1761.33221291
0.36000002 23387.25668238  1393.06201027
0.36100002 23481.71869475  1402.56312407
0.36200002 23583.01668719  1669.32391527
0.36300002 23688.11744222  1940.05691041
0.36400002 23799.27692991  1433.31152100
0.36500002 23915.08845680  1706.81994401
0.36600002 24036.39707997  1587.84446632
0.36700002 24162.00841904  1333.74292791
0.36800002 24293.49289390  1882.50285352
0.36900002 24428.22748699  1626.92002770
0.37000002 24566.21895553  1913.95420949
0.37100002 24708.64683376  2205.98809382
0.37200002 24855.45380488  1529.72897688
0.37300002 25005.11292058  1402.78690130
0.37400002 25159.24825552  2122.81167212
0.37500002 25315.43301374  2141.68573442
0.37600002 25475.93860762  1440.66439651
0.37700002 25637.97194628  1453.67307822
0.37800002 25803.70821189  1466.94088134
0.37900002 25971.80774781  2368.62897881
0.38000002 26142.43046580  1643.44396909
0.38100002 26314.87942761  1809.41119516
0.38200002 26489.73864041  2434.93689118
0.38300002 26666.27690874  1689.57538498
0.38400002 26845.25170645  1860.37603139
0.38500002 27024.92527810  2034.16622205
0.38600002 27207.16991153  1895.25154582
0.38700002 27389.77992425  2550.53642738
0.38800002 27573.72481934  2252.49768721
0.38900002 27758.91113840  1623.89637853
0.39000002 27945.72135576  1802.91829868
0.39100002 28132.44126390  2315.86267456
0.39200002 28320.55417190  1669.49674753
0.39300002 28508.78267547  2190.32987673
0.39400002 28698.41866911  1870.41952537
0.39500002 28887.34960009  2230.68124180
0.39600002 29076.63663845  1904.66517324
0.39700002 29265.67897640  2271.30945297
0.39800002 29455.94950072  2115.52639337
0.39900002 29645.10073653  2490.18857985
0.40000002 29833.77679814  2332.85228726
0.40100002 30022.32618989  1810.34635502
0.40200002 30211.40595135  2374.16344917
0.40300002 30398.79135340  2763.25026495
0.40400002 30585.80156995  2043.89628675
0.40500002 30772.03040593  2061.41841456
0.40600002 30957.71197121  2267.96208647
0.40700002 31142.25491675  2287.08730945
0.40800002 31325.91007267  2306.21360882
0.40900002 31507.91066801  2325.28391747
0.41000002 31689.52300089  2539.75694124
0.41100002 31869.44432512  3545.15715470
0.41200002 32047.32795386  2183.86526689
0.41300002 32224.48075996  2401.36842002
0.41400002 32399.66212047  3428.69440636
0.41500002 32573.94714993  3252.18303755
0.41600002 32745.26419533  2662.68128421
0.41700002 32915.58582942  2270.18806223
0.41800002 33085.03068928  3327.03084376
0.41900002 33250.55114929  2932.69875033
0.42000002 33414.90334125  3587.25711818
0.42100002 33577.77822344  2975.66284716
0.42200002 33738.38294716  2996.98069921
0.42300002 33896.27761329  2586.96403003
0.42400002 34052.01359258  3039.14235715
0.42500002 34205.92602813  2404.33465445
0.42600002 34356.10007234  3080.71163947
0.42700002 34505.18850579  3322.84981057
0.42800002 34651.39980870  3567.70829337
0.42900002 34795.60423958  3142.04321173
0.43000002 34937.23285333  2710.43065320
0.43100002 35074.90619632  2954.71023799
0.43200002 35210.85485082  2744.33415712
0.43300002 35343.72176372  2991.13931461
0.43400002 35474.31175052  2777.63874169
0.43500002 35601.56333689  3026.84505834
0.43600002 35727.02348086  3044.47845020
0.43700002 35848.67158700  2590.78361837
0.43800002 35966.62826990  3315.76361733
0.43900002 36082.88780893  2857.76484990
0.44000002 36195.33808906  2394.32172806
0.44100002 36305.49265206  2647.75970459
0.44200002 36412.35410990  3145.48135885
0.44300002 36516.37762829  3161.58812489
0.44400002 36616.70926901  2444.16545954
0.44500002 36713.22546853  3438.56086034
0.44600002 36807.47664680  2961.52971135
0.44700002 36898.76744089  2975.51674745
0.44800002 36985.57963302  2740.07679697
0.44900002 37070.77751253  3252.96088089
0.45000002 37152.37993748  3518.70207064
0.45100002 37229.42504573  3533.81719282
0.45200002 37304.18434325  2788.30139088
0.45300002 37374.99535150  3054.28476488
0.45400002 37443.17576590  3322.14592728
0.45500002 37507.87313419  3078.64637276
0.45600002 37569.00810383  3863.03344136
0.45700002 37626.72632183  4394.42557539
0.45800002 37680.46955717  3632.02063275
0.45900002 37731.20679377  2603.45339216
0.46000002 37779.22984529  3396.16402790
0.46100002 37822.62648283  3407.44058133
0.46200002 37863.53739339  4207.39647456
0.46300002 37900.69757975  3693.04414720
0.46400002 37933.90207958  3704.24571363
0.46500002 37964.71314131  3184.48028922
0.46600002 37991.12443120  4258.04542806
0.46700002 38014.20758537  4269.75599836
0.46800002 38034.64876429  3746.03273434
0.46900002 38050.86517130  2950.84473389
0.47000002 38063.29845667  3227.00659611
0.47100002 38072.88021680  2965.11605182
0.47200002 38078.77093567  3782.36449631
0.47300002 38082.07542790  2978.39926038
0.47400002 38080.25816194  3527.18407943
0.47500002 38076.34569868  3262.38145409
0.47600002 38069.32578000  2723.86038866
0.47700002 38057.69987544  3001.61093145
