# SAXS profile: number of points = 501, q_min = 0, q_max = 0.5, delta_q = 0.001
#    q    intensity    error
0.00000000 1682732.95097188 277.65093691
0.00100000 1682663.54008318 555.27898141
0.00200000 1682455.25941807 908.52586885
0.00300000 1682108.27145469 1312.04449847
0.00400000 1681622.45595141 1387.33857888
0.00500000 1680998.26627477 1966.76804939
0.00600000 1680235.41826917 2117.09671321
0.00700000 1679334.62009458 3224.32260459
0.00800000 1678295.26022469 2265.69869696
0.00900000 1677118.74775457 2767.24605209
0.01000000 1675804.21023419 4424.12330605
0.01100000 1674352.89176363 3917.98593731
0.01200000 1672764.33020360 4240.45776298
0.01300000 1671039.84832123 3860.10221987
0.01400000 1669178.71579426 4131.21750473
0.01500000 1667182.70672748 4401.36254175
0.01600000 1665050.71245990 5095.05540789
0.01700000 1662784.84412819 6734.27892081
0.01800000 1660384.65049935 6624.93505360
0.01900000 1657850.86258877 5968.26337462
0.02000000 1655184.16273331 6256.59641815
0.02100000 1652386.19873870 7634.02458429
0.02200000 1649455.11329031 6828.74447927
0.02300000 1646393.84098010 6519.71990705
0.02400000 1643202.31376191 6162.00895758
0.02500000 1639881.82578184 8314.20123643
0.02600000 1636432.50312143 7953.06232893
0.02700000 1632855.61882604 12344.38904371
0.02800000 1629150.82746163 9212.84835179
0.02900000 1625320.76338758 7313.94377106
0.03000000 1621365.86516889 9047.22194350
0.03100000 1617286.22471262 10091.86650657
0.03200000 1613082.97464429 8783.23720148
0.03300000 1608758.86956322 8204.67061301
0.03400000 1604311.99062185 8422.63833939
0.03500000 1599745.63248795 9502.48949579
0.03600000 1595059.48272504 10623.09664588
0.03700000 1590255.59845566 10877.34879649
0.03800000 1585335.04082096 12983.89458521
0.03900000 1580299.26631121 10429.97564067
0.04000000 1575147.13758329 10655.87087953
0.04100000 1569882.66579503 12857.33962901
0.04200000 1564506.10635466 11100.17133955
0.04300000 1559017.60802258 12347.42002868
0.04400000 1553420.89250009 11534.15066248
0.04500000 1547715.36484568 17086.77842183
0.04600000 1541901.56826602 11957.44721777
0.04700000 1535982.87325121 13270.89264209
0.04800000 1529959.18457464 12369.72058283
0.04900000 1523833.58993793 11428.75245651
0.05000000 1517605.28596043 13931.61717386
0.05100000 1511277.75795592 11787.96706119
0.05200000 1504849.34783005 14356.26344732
0.05300000 1498325.31039512 14563.72269597
0.05400000 1491704.23649262 12306.56052497
0.05500000 1484989.90121158 16216.09047770
0.05600000 1478180.87285428 21485.35998953
0.05700000 1471282.46878465 17920.22130629
0.05800000 1464292.85259602 12958.99235056
0.05900000 1457214.11667598 18360.89872768
0.06000000 1450049.31627126 13267.95186374
0.06100000 1442799.90783536 17443.45170089
0.06200000 1435466.29854488 17634.70430193
0.06300000 1428051.61678687 13709.29616214
0.06400000 1420553.96181843 20775.60266320
0.06500000 1412979.97478080 18185.05312609
0.06600000 1405327.06556499 16948.24520370
0.06700000 1397598.51914160 15681.05611863
0.06800000 1389797.23526549 21576.60308748
0.06900000 1381923.92221869 21765.30279397
0.07000000 1373978.37737582 16096.15744472
0.07100000 1365965.05858363 17702.90798841
0.07200000 1357883.30688495 19329.46977903
0.07300000 1349737.81315568 16480.29947083
0.07400000 1341527.56542809 16601.40440018
0.07500000 1333255.44058201 19758.84655557
0.07600000 1324921.44004579 15302.84334994
0.07700000 1316530.87433349 15403.41195194
0.07800000 1308082.23666749 15500.77523144
0.07900000 1299577.63798042 18713.91886467
0.08000000 1291020.94209985 18823.08621883
0.08100000 1282412.23151729 17351.03830651
0.08200000 1273752.57768334 19029.86440357
0.08300000 1265044.81881605 20721.43510471
0.08400000 1256289.92791860 22424.77626594
0.08500000 1247491.58923940 19311.17070799
0.08600000 1238649.22485357 17780.81045761
0.08700000 1229766.00161721 16232.91198361
0.08800000 1220841.30326253 19557.87859678
0.08900000 1211880.85296818 17996.43151186
0.09000000 1202883.09745209 18061.29055668
0.09100000 1193851.23499512 24712.72172543
0.09200000 1184785.86479006 19833.31630849
0.09300000 1175690.78612023 29839.03355393
0.09400000 1166564.03127264 24935.30734035
0.09500000 1157410.08401149 18333.37659246
0.09600000 1148230.05457865 21718.77250331
0.09700000 1139026.81854639 21766.80352574
0.09800000 1129801.35110337 18455.30593800
0.09900000 1120555.26795824 20169.99577169
0.10000000 1111288.41625327 18519.62232779
0.10100000 1102004.07981765 16860.66321420
0.10200000 1092704.25953867 27011.65056632
0.10300000 1083389.50371238 18590.96475824
0.10400000 1074062.85473507 16916.49075792
0.10500000 1064726.92578359 22007.90659140
0.10600001 1055377.95933697 16938.81704439
0.10700001 1046023.83923999 16945.58699311
0.10800001 1036661.80176014 18644.36338209
0.10900001 1027296.01020847 25425.57744933
0.11000001 1017926.82222249 20338.17886531
0.11100001 1008556.05386797 18638.11675284
0.11200001 999186.36133419 18629.83058411
0.11300001 989816.34657530 18618.44635565
0.11400001 980450.74016626 21986.60888346
0.11500001 971090.01226690 16896.96700909
0.11600001 961734.67922042 16878.44441515
0.11700001 952388.05609512 20228.72326413
0.11800001 943048.52785798 18516.75871660
0.11900001 933720.17035658 18487.66024386
0.12000001 924403.17963665 20133.50220087
0.12100001 915101.05902644 26794.16027052
0.12200001 905812.26600600 18383.46080466
0.12300001 896540.31681481 23345.91094979
0.12400001 887284.89107850 21627.57023907
0.12500001 878048.34275159 24892.67168996
0.12600001 868833.32335316 26482.04094373
0.12700001 859639.18356366 21456.59503292
0.12800001 850466.92940846 26330.45737542
0.12900001 841319.08240753 19686.86745622
0.13000001 832196.65735216 21258.46461408
0.13100001 823099.51289158 21186.58246051
0.13200001 814031.30491539 24359.88794793
0.13300001 804992.84479961 17798.39263759
0.13400001 795982.96920153 17730.52147488
0.13500001 787005.23481564 24082.36132080
0.13600001 778058.89089894 15989.11096187
0.13700001 769146.94966870 19105.61113066
0.13800001 760268.08142409 17436.74926970
0.13900001 751427.49527795 17357.97595949
0.14000001 742621.92646869 15706.45448554
0.14100001 733855.03485568 17194.22427760
0.14200001 725125.57549388 20220.12762634
0.14300001 716438.92540375 18570.09782237
0.14400001 707788.65005903 27709.92695688
0.14500001 699183.91146741 18374.55406013
0.14600001 690619.69943423 19796.61461817
0.14700001 682101.99786852 18171.19808047
0.14800001 673626.40814094 19572.21621193
0.14900001 665195.89208191 20953.67158919
0.15000001 656812.49535098 16364.48409379
0.15100001 648476.14502300 16263.78248458
0.15200001 640188.61688475 19100.02828603
0.15300001 631949.91343101 16057.84805804
0.15400001 623758.48199963 17402.86246905
0.15500001 615619.36475493 15846.04319661
0.15600001 607529.50808889 14307.32059073
0.15700001 599494.55754025 19891.23035799
0.15800001 591507.57237245 14107.45626694
0.15900001 583576.78796584 22409.34971562
0.16000001 575697.23264320 18074.01547197
0.16100001 567875.20187046 19319.11527958
0.16200001 560105.80073917 15064.04622199
0.16300001 552393.21081313 16306.64835301
0.16400001 544736.12075693 14830.44158775
0.16500001 537136.28329138 17387.10231101
0.16600001 529593.21320090 14592.94167873
0.16700001 522107.28184467 15788.52494843
0.16800001 514678.62727409 19570.65572615
0.16900001 507310.69752022 20698.27743616
0.17000001 500001.00314779 16672.53423723
0.17100001 492750.76858696 16526.86155883
0.17200001 485560.52532946 17640.41471825
0.17300001 478430.56359067 14984.44595929
0.17400001 471362.14982214 19797.21122747
0.17500001 464353.88756911 15936.62617402
0.17600001 457405.27022516 17001.75469725
0.17700001 450520.79695137 14434.68701608
0.17800001 443697.14790634 16678.57657756
0.17900001 436935.56623617 15336.43909928
0.18000001 430237.17028942 15185.22164264
0.18100001 423602.47137658 15033.65241929
0.18200001 417027.69033213 14881.63383248
0.18300001 410518.83318917 14729.41643063
0.18400001 404071.63464033 13455.58606917
0.18500001 397689.07272961 16643.28848000
0.18600001 391369.57800084 10977.91718156
0.18700001 385113.51529911 15204.28230233
0.18800001 378920.79639694 13965.12661101
0.18900001 372794.16053526 11687.09748497
0.19000001 366727.48223452 13658.76572118
0.19100001 360729.78449112 12466.82194107
0.19200001 354792.53044285 11298.36866582
0.19300001 348921.88214607 13199.71542531
0.19400001 343114.36764663 13046.92444628
0.19500001 337371.49373871 11902.46686155
0.19600001 331691.69464425 12741.93705190
0.19700001 326076.79107688 13558.27361371
0.19800001 320525.97322640 14351.55112945
0.19900001 315039.98478145 12286.55998714
0.20000001 309616.05270249 10268.41687318
0.20100001 304257.77583981 11062.81325239
0.20200001 298962.08397893 11834.41465364
0.20300001 293730.77353679 14381.05935208
0.20400001 288562.91958325 10647.97223591
0.20500001 283457.74191783 14890.03588675
0.20600001 278416.61175798 9509.31982408
0.20700001 273438.19679529 11943.78100059
0.20800001 268522.35764566 10101.81157214
0.20900001 263671.64741262 11627.92020056
0.21000001 258881.04511245 10651.66110468
0.21100001 254152.97502160 11314.89098286
0.21200001 249486.93658827 13550.88360140
0.21300001 244882.67363773 11791.10129309
0.21400001 240340.96360171 7750.99644260
0.21500001 235861.02085274 10698.65641169
0.21600001 231440.61088760 9793.40991273
0.21700001 227082.08719097 8910.70152267
0.21800001 222783.80137627 10245.82750972
0.21900001 218544.81758201 7933.17725332
0.22000001 214365.56663925 7816.84075710
0.22100001 210248.33804856 8401.52398567
0.22200001 206189.17698942 7586.73112606
0.22300001 202188.86635132 7472.90085370
0.22400001 198245.55436910 8028.94533161
0.22500001 194363.68669819 7247.82221971
0.22600001 190537.90057397 7785.37898561
0.22700001 186770.70023494 8303.82572513
0.22800001 183059.97605392 6916.92152230
0.22900001 179405.59969874 7427.39217878
0.23000001 175808.08833166 7919.27571342
0.23100001 172268.02001337 7793.40559398
0.23200001 168781.77442048 8258.49261297
0.23300001 165352.05097145 6384.24298995
0.23400001 161977.16000112 8564.54274012
0.23500001 158655.35571008 6178.03984355
0.23600001 155388.55835772 8838.50161742
0.23700001 152175.20338798 7062.45152328
0.23800001 149015.12527714 7479.06949141
0.23900001 145907.86575455 6828.48844030
0.24000001 142852.60740802 6196.94640248
0.24100001 139850.42952278 9137.82749725
0.24200001 136899.00369571 6985.95648904
0.24300001 133998.81068567 5885.22804370
0.24400001 131148.46488439 6265.61820624
0.24500001 128348.64355279 5683.27820536
0.24600001 125598.57189011 5118.77003953
0.24700001 122898.41577828 5029.00341155
0.24800001 120245.99798755 4491.18823730
0.24900001 117641.74176565 5293.87862989
0.25000001 115085.78333933 5632.87393202
0.25100001 112576.55269482 5106.47267182
0.25200001 110115.27462564 5014.64984369
0.25300001 107700.41717947 4513.72469754
0.25400001 105330.69400402 4834.67908352
0.25500001 103006.54709947 5537.63223406
0.25600001 100727.84556386 4659.67035625
0.25700001 98493.27792430  5336.36605042
0.25800001 96302.62659714  4115.49294235
0.25900001 94155.87899058  5508.11918156
0.26000001 92052.60657875  5045.40360531
0.26100001 89989.79110554  3890.25885356
0.26200001 87971.81490827  4511.63474105
0.26300001 85993.76256766  3745.88847469
0.26400001 84056.82771049  3675.38496555
0.26500001 82161.33788700  4589.53255154
0.26600001 80304.95204046  3537.83482955
0.26700001 78489.54274405  3786.33572114
0.26800001 76713.00523354  4333.51787071
0.26900001 74974.59590071  4858.35404427
0.27000001 73275.06095769  3276.49450577
0.27100001 71613.07193987  3213.99482076
0.27200001 69988.75434762  3152.64358878
0.27300001 68400.72617851  3373.52397477
0.27400001 66848.01334251  3308.97681705
0.27500001 65333.25293151  3245.75615924
0.27600001 63851.94048349  3448.96272844
0.27700001 62407.10723355  2602.37649480
0.27800001 60995.75001522  2552.67225895
0.27900001 59618.77590489  3004.78644782
0.28000001 58275.03761293  2701.92224680
0.28100001 56964.25716204  2409.58819200
0.28200001 55686.40358078  2600.27673827
0.28300001 54440.56957098  3014.91888554
0.28400001 53226.54476145  2730.52187550
0.28500001 52043.95837358  2679.22310388
0.28600001 50891.28984593  3943.56623682
0.28700001 49769.50258979  3010.05965910
0.28800001 48676.76743631  2321.15176507
0.28900001 47615.11200421  2278.38321725
0.29000001 46580.82820828  2033.25324753
0.29100001 45576.27955150  2195.86525273
0.29200001 44599.26343450  2352.16526488
0.29300001 43649.76240043  2502.44099687
0.29400001 42727.41416010  2646.96343252
0.29500001 41832.82505697  2600.32852863
0.29600001 40963.50138190  2007.41648025
0.29700001 40119.91287549  1793.36019043
0.29800001 39302.56838414  2291.53635812
0.29900001 38510.04044771  2252.83747284
0.30000001 37742.06148477  2385.67581939
0.30100001 36999.30818155  2346.49623596
0.30200001 36279.09730192  1648.88505043
0.30300001 35582.84862894  1947.09356915
0.30400001 34910.31174735  1916.57620566
0.30500001 34259.24276138  1729.74924891
0.30600001 33630.69395389  2013.30158886
0.30700001 33024.58199402  2441.17721657
0.30800001 32439.52591708  1804.28651693
0.30900001 31875.58128292  1630.43605981
0.31000001 31333.10861863  1607.85854489
0.31100001 30809.33264449  1441.87683603
0.31200001 30306.61805459  1422.89578503
0.31300001 29822.88839878  1545.12392110
0.31400001 29359.75483632  1803.42302621
0.31500001 28914.45572964  1370.54526648
0.31600002 28487.71155893  1354.59074876
0.31700002 28078.77953738  1473.29363208
0.31800002 27687.90543172  1457.35297140
0.31900002 27314.69796799  1704.43723391
0.32000002 26958.30077504  2076.86759005
0.32100002 26618.99385926  2314.25543570
0.32200002 26296.10042534  1783.66457631
0.32300002 25988.67485285  1641.96455495
0.32400002 25697.26132145  1252.74154874
0.32500002 25420.77083581  1864.61362910
0.32600002 25159.94208470  1604.32378300
0.32700002 24913.54701989  1593.47054285
0.32800002 24682.40868029  1461.69231126
0.32900002 24464.00223277  1453.16180144
0.33000002 24261.17163449  1565.93739730
0.33100002 24069.37544673  1318.52044941
0.33200002 23893.19775725  1551.50486984
0.33300002 23728.53047018  1545.43926271
0.33400002 23577.36548222  1421.71520590
0.33500002 23437.86565790  1417.52218212
0.33600002 23310.36117069  1531.84045687
0.33700002 23193.90473098  1293.52412810
0.33800002 23090.22098095  1643.79290948
0.33900002 22996.44368186  1407.38241998
0.34000002 22914.27745168  1523.68495131
0.34100002 22842.45789582  1288.99996011
0.34200002 22781.96394491  1289.34531052
0.34300002 22730.03003437  1524.73048692
0.34400002 22688.86696801  1643.80848968
0.34500002 22656.73244294  1528.64981032
0.34600002 22635.14522018  1885.05498321
0.34700002 22620.42335711  1653.10061723
0.34800002 22616.17778759  1539.14405223
0.34900002 22619.97734283  1662.56841344
0.35000002 22632.12485408  1668.21400200
0.35100002 22652.46052766  1315.65496976
0.35200002 22679.77871816  1561.16264201
0.35300002 22715.21874044  1568.03162392
0.35400002 22758.36727364  1333.07142619
0.35500002 22808.30584985  1583.35266709
0.35600002 22864.67633707  1469.28417101
0.35700002 22928.06293536  1969.97926071
0.35800002 22998.29296931  1362.30394856
0.35900002 23074.48792547  1619.82912909
0.36000002 23157.20651305  1504.75535049
0.36100002 23245.10675564  1514.65122794
0.36200002 23339.75046466  1525.01936760
0.36300002 23438.08024483  1535.66309038
0.36400002 23542.42056429  1675.63186303
0.36500002 23651.30944213  1687.99403484
0.36600002 23765.67946098  1308.30071630
0.36700002 23884.25503314  1318.41094028
0.36800002 24008.61898660  1594.65254863
0.36900002 24136.31841029  1607.47888227
0.37000002 24267.13810902  1755.60618966
0.37100002 24402.42529669  1497.82093566
0.37200002 24541.89537049  1647.74293323
0.37300002 24684.32363272  1523.26968353
0.37400002 24831.12052554  1955.45083402
0.37500002 24980.08241889  1549.76438668
0.37600002 25133.14369634  1563.40727769
0.37700002 25287.93281125  1433.82585832
0.37800002 25446.30586902  1735.94706862
0.37900002 25607.02796896  1751.52079605
0.38000002 25770.37823058  2061.88805991
0.38100002 25935.51905683  2080.54743730
0.38200002 26103.03396778  1649.58130974
0.38300002 26272.24926087  1815.93795494
0.38400002 26443.95501886  2443.42155950
0.38500002 26616.33760588  1695.19462243
0.38600002 26791.37577580  1710.76338121
0.38700002 26966.86143846  1726.41855108
0.38800002 27143.58110831  1742.21083597
0.38900002 27321.70557953  1917.98382255
0.39000002 27501.44396196  1935.55171774
0.39100002 27681.23746760  2278.71957629
0.39200002 27862.34187662  1970.98215773
0.39300002 28043.69683893  1988.85907404
0.39400002 28226.45624049  2508.62641723
0.39500002 28408.67346807  1687.47528395
0.39600002 28591.25863830  1702.60953258
0.39700002 28773.65824927  2061.34497464
0.39800002 28957.30688022  2253.02336856
0.39900002 29139.95616862  2098.07694355
0.40000002 29322.40183688  1940.11680946
0.40100002 29504.52326234  2134.94740442
0.40200002 29687.44434320  2153.52731469
0.40300002 29868.67906407  2353.05464816
0.40400002 30049.61955283  2373.16881663
0.40500002 30229.92707249  2209.20317513
0.40600002 30409.74345548  2227.81791110
0.40700002 30588.56959512  2059.22260271
0.40800002 30766.63282533  2453.79291725
0.40900002 30943.05653419  2283.59768042
0.41000002 31119.19780512  2302.19836271
0.41100002 31293.82702129  2900.93790233
0.41200002 31466.59954606  2144.29152767
0.41300002 31638.61905892  2554.18583765
0.41400002 31808.93832527  2772.14910640
0.41500002 31978.37146468  2394.54056874
0.41600002 32144.96687691  2010.66777342
0.41700002 32310.73252842  2633.64793318
0.41800002 32475.70575404  2857.53748470
0.41900002 32636.88065357  2672.96065218
0.42000002 32797.01266036  2071.13144764
0.42100002 32955.87703110  2086.10711492
0.42200002 33112.49906202  2731.28461455
0.42300002 33266.66475037  2327.33597622
0.42400002 33418.74238305  2343.48942066
0.42500002 33569.16916754  2145.07001145
0.42600002 33715.97908732  2807.36113174
0.42700002 33861.85884363  2391.32458485
0.42800002 34004.96913554  2844.68582783
0.42900002 34146.21481980  2642.91715229
0.43000002 34285.07493973  2438.18321988
0.43100002 34420.05416324  2453.46157702
0.43200002 34553.57266517  2693.10558114
0.43300002 34684.06356909  2709.51917442
0.43400002 34812.40924177  2952.96275387
0.43500002 34937.68563356  2284.92474871
0.43600002 35061.24997769  2528.09154944
0.43700002 35181.10698475  3004.81848996
0.43800002 35297.49938451  2324.34044462
0.43900002 35412.35845305  3038.38049926
0.44000002 35523.47969519  2584.86612252
0.44100002 35632.48915566  2834.92097157
0.44200002 35738.41737776  2849.78153675
0.44300002 35841.62755496  3103.16826077
0.44400002 35941.33964921  2638.99298881
0.44500002 36037.34054879  2651.98801667
0.44600002 36131.20632992  2907.11699908
0.44700002 36222.26434927  2677.54990759
0.44800002 36309.11437615  2445.41896913
0.44900002 36394.40466493  2456.62243131
0.45000002 36476.20905078  2467.61565923
0.45100002 36553.68014091  2726.17359411
0.45200002 36629.03648962  4231.20335063
0.45300002 36700.60654964  2749.24256693
0.45400002 36769.66358176  2509.52965839
0.45500002 36835.39210419  4031.26550294
0.45600002 36897.64336271  2782.26692963
0.45700002 36956.74742079  2538.92866814
0.45800002 37011.97072268  3822.41145754
0.45900002 37064.32094830  2813.18209330
0.46000002 37114.19841075  4106.31510678
0.46100002 37159.56505189  3090.18957617
0.46200002 37202.59191476  3100.46415712
0.46300002 37241.90259794  2851.24019803
0.46400002 37277.50897564  3380.13828657
0.46500002 37310.82306001  2868.82932105
0.46600002 37339.93219397  3400.36108641
0.46700002 37365.86160404  2885.39196982
0.46800002 37389.27422776  2630.33556659
0.46900002 37408.55067148  2637.30294734
0.47000002 37424.29006622  3966.03932774
0.47100002 37437.25328543  2915.61342406
0.47200002 37446.65719065  3188.20854432
0.47300002 37453.51903852  3994.41799478
0.47400002 37455.57563962  2668.70989081
0.47500002 37455.60031372  3209.19598699
0.47600002 37452.58959611  2947.70620388
0.47700002 37445.19815072  3221.78500159
