# SAXS profile: number of points = 501, q_min = 0, q_max = 0.5, delta_q = 0.001
#    q    intensity    error
0.00000000 1664650.74656091 274.66737318
0.00100000 1664582.05408351 599.24955370
0.00200000 1664375.92882272 823.86611085
0.00300000 1664032.53932713 1497.62933874
0.00400000 1663551.75222926 1497.19663390
0.00500000 1662934.02576192 1646.30475067
0.00600000 1662179.08020188 1919.81691579
0.00700000 1661287.60073814 2990.31780561
0.00800000 1660259.01952461 2689.61972519
0.00900000 1659094.69518232 2986.37057899
0.01000000 1657793.76379665 3008.89581121
0.01100000 1656357.50651751 4174.02109816
0.01200000 1654785.40049009 4194.88117416
0.01300000 1653078.77285022 4860.05180653
0.01400000 1651236.94515486 4086.81162043
0.01500000 1649261.57606712 4354.05075470
0.01600000 1647151.68175409 5460.30806911
0.01700000 1644909.27949034 5329.50630462
0.01800000 1642533.94466518 5149.34414823
0.01900000 1640026.43072040 5412.08746558
0.02000000 1637387.34001940 6189.32442525
0.02100000 1634618.37022568 7012.51312620
0.02200000 1631717.63112974 5629.42608316
0.02300000 1628688.10912619 5863.27745974
0.02400000 1625529.63376079 6705.31004501
0.02500000 1622243.52894060 8857.45007254
0.02600000 1618830.02890141 9178.76668369
0.02700000 1615290.07738647 9497.90609005
0.02800000 1611623.74076551 7711.61995321
0.02900000 1607833.35765553 10129.35061831
0.03000000 1603919.44686259 8204.04834780
0.03100000 1599882.12491398 9983.26491882
0.03200000 1595722.41162795 8688.70893150
0.03300000 1591443.14604920 10551.26854472
0.03400000 1587042.30464281 12497.95872572
0.03500000 1582523.25238635 13673.00153201
0.03600000 1577885.77945258 9632.99312873
0.03700000 1573131.65616273 10760.22102579
0.03800000 1568262.12575648 12844.06740436
0.03900000 1563278.53464134 11255.60597066
0.04000000 1558179.82538304 18207.33210331
0.04100000 1552969.89784257 13697.19513406
0.04200000 1547649.09436077 12977.03825826
0.04300000 1542217.47881399 14250.09016570
0.04400000 1536678.83447031 15558.87392160
0.04500000 1531032.44548605 11620.53680119
0.04600000 1525278.90496003 11828.53845784
0.04700000 1519421.61698163 16409.75422659
0.04800000 1513460.40414002 15573.50828321
0.04900000 1507398.31819327 18088.78066031
0.05000000 1501234.56901592 12632.88948653
0.05100000 1494972.64365559 11660.78716372
0.05200000 1488610.91649230 16568.24027266
0.05300000 1482154.61931112 13205.99827370
0.05400000 1475602.19464836 17043.20614298
0.05500000 1468957.62515726 20976.71586579
0.05600000 1462219.22047357 15002.36990213
0.05700000 1455392.24948104 16460.48710998
0.05800000 1448475.22759424 14100.90699904
0.05900000 1441469.91561721 19459.84476972
0.06000000 1434379.47536226 13124.57281273
0.06100000 1427205.33242765 14600.31123303
0.06200000 1419947.68893628 14760.35691644
0.06300000 1412610.04337849 14917.16275553
0.06400000 1405190.27959455 16440.72704014
0.06500000 1397694.74309904 17988.33218514
0.06600000 1390121.34086306 16764.86415521
0.06700000 1382472.99377035 21151.83779457
0.06800000 1374752.56915633 18497.29668384
0.06900000 1366961.11169964 15788.40157933
0.07000000 1359097.94088605 14474.39374825
0.07100000 1351167.89259975 18970.39810063
0.07200000 1343169.94523955 19120.02506620
0.07300000 1335108.99951376 17783.65270679
0.07400000 1326983.98196060 14928.57049667
0.07500000 1318797.75654749 19544.58366814
0.07600000 1310550.30717184 19677.91378470
0.07700000 1302246.93821716 22854.43483732
0.07800000 1293886.00906604 16865.80491912
0.07900000 1285469.62466868 16968.19984150
0.08000000 1277001.67844252 20170.24245721
0.08100000 1268482.30947417 20283.03308014
0.08200000 1259912.57164224 17254.50347831
0.08300000 1251295.18079889 18919.58402161
0.08400000 1242631.27369201 25349.67917320
0.08500000 1233924.18518336 20692.90955696
0.08600000 1225173.60403536 17587.36791168
0.08700000 1216382.87607745 17661.88019001
0.08800000 1207550.63836639 17732.88195721
0.08900000 1198683.27943896 17800.44753575
0.09000000 1189778.80256349 21112.62584327
0.09100000 1180840.81846752 22813.84568461
0.09200000 1171869.55427586 16347.58105027
0.09300000 1162868.83729681 18036.09651403
0.09400000 1153836.82123599 23019.04566549
0.09500000 1144777.87688988 16484.80220204
0.09600000 1135693.27439645 19829.20550309
0.09700000 1126585.46137101 19872.96847287
0.09800000 1117455.86968758 16594.22044508
0.09900000 1108305.82698758 18287.04700520
0.10000000 1099135.32272231 19982.28110680
0.10100000 1089947.02025180 18343.80921358
0.10200000 1080743.70379626 21706.73831175
0.10300000 1071525.52113021 18387.37880755
0.10400000 1062295.87533887 20077.39298845
0.10500000 1053056.70346501 25115.40355930
0.10600001 1043804.65671509 18428.37208143
0.10700001 1034547.66525812 21787.57485561
0.10800001 1025282.93857040 21792.38988490
0.10900001 1016014.36387943 21793.50913094
0.11000001 1006742.11462126 18438.48269718
0.11100001 997468.51162102 18433.21896247
0.11200001 988195.94213057 16749.92200765
0.11300001 978923.21733882 18413.54658507
0.11400001 969654.71328696 21744.50796929
0.11500001 960391.07393749 23395.12766275
0.11600001 951132.82117571 31715.52541564
0.11700001 941883.16480520 20005.59936262
0.11800001 932640.19333995 23306.67952927
0.11900001 923408.64547575 23269.89896204
0.12000001 914188.06594521 21570.26843204
0.12100001 904982.32295417 23185.64820632
0.12200001 895789.68253294 18180.05246349
0.12300001 886613.81973351 18140.11960641
0.12400001 877454.10615906 18097.49179224
0.12500001 868313.33325276 19693.34732613
0.12600001 859193.64277373 18004.40363275
0.12700001 850094.79076330 16321.82075184
0.12800001 841017.20757017 17901.05210679
0.12900001 831964.32198845 19467.96605210
0.13000001 822936.15549808 16170.69621774
0.13100001 813933.16588085 20950.64067734
0.13200001 804958.53880387 20876.60068801
0.13300001 796013.48110610 23999.80758677
0.13400001 787096.80396896 17532.58213499
0.13500001 778211.87634699 25400.83684157
0.13600001 769357.99959449 17391.33840085
0.13700001 760537.98838737 20466.07823255
0.13800001 751750.76886503 18808.80512395
0.13900001 743001.70685553 15603.03657978
0.14000001 734286.95766564 18636.20386445
0.14100001 725610.36675034 20092.15200292
0.14200001 716971.01299174 18454.83474484
0.14300001 708373.84813339 16830.96342553
0.14400001 699812.84189816 18265.11603511
0.14500001 691296.80314496 18167.28084364
0.14600001 682820.88996164 16561.82146731
0.14700001 674390.83292677 16468.62491700
0.14800001 666002.59151378 14885.15862260
0.14900001 657658.82793058 22195.98648988
0.15000001 649361.62702301 19120.45400985
0.15100001 641111.19146289 21926.00378261
0.15200001 632908.82818833 17430.30995079
0.15300001 624754.74426996 15875.01880103
0.15400001 616647.73736344 15770.76662731
0.15500001 608592.05585857 17089.26573500
0.15600001 600584.98727334 21215.66567670
0.15700001 592632.90673178 18259.02071817
0.15800001 584727.68838537 20918.63403932
0.15900001 576878.27955818 13845.07936289
0.16000001 569079.50285182 13743.27064259
0.16100001 561337.86686029 16368.61297031
0.16200001 553647.87669960 16244.02946918
0.16300001 546014.24213830 14775.14608976
0.16400001 538435.65322477 17324.16796037
0.16500001 530913.49283654 13219.74659575
0.16600001 523447.54562768 18357.30629187
0.16700001 516038.24501977 14304.58082733
0.16800001 508685.36380886 20632.27933027
0.16900001 501392.91407675 16621.17588646
0.17000001 494157.80549026 12675.14830934
0.17100001 486981.45496655 20102.59541029
0.17200001 479864.69955540 19923.98326641
0.17300001 472807.34116123 17276.38106190
0.17400001 465810.86306286 14673.04287943
0.17500001 458874.17312596 21805.70173678
0.17600001 451996.05744408 15600.64465949
0.17700001 445181.70460512 14263.62248923
0.17800001 438427.39854027 12948.95382749
0.17900001 431734.64097468 13988.20302829
0.18000001 425104.25421948 12695.73915195
0.18100001 418537.05006534 12568.66820716
0.18200001 412029.22703418 11310.20281636
0.18300001 405586.28999200 13433.01855910
0.18400001 399204.52611150 13293.51134751
0.18500001 392886.39989319 15346.14350481
0.18600001 386630.97469677 15182.99909364
0.18700001 380438.19588304 19311.04373537
0.18800001 374308.28291664 12733.96838645
0.18900001 368243.78650020 11544.44325223
0.19000001 362238.35621511 14529.38115428
0.19100001 356301.18532804 12313.76954676
0.19200001 350423.90862754 14202.68168777
0.19300001 344612.60560281 17047.98640473
0.19400001 338863.49324227 9911.75764571
0.19500001 333178.70581004 10774.99985507
0.19600001 327556.15628305 10647.21336313
0.19700001 321997.81489781 13388.66977617
0.19800001 316502.90563244 12281.89583349
0.19900001 311072.12213205 10265.38051550
0.20000001 305702.82398440 11060.32869448
0.20100001 300398.42225671 11832.69441193
0.20200001 295155.91598225 12582.49729302
0.20300001 289977.20868976 12422.62420742
0.20400001 284861.39488100 8759.48830661
0.20500001 279807.38018111 12104.46783878
0.20600001 274816.72480071 14506.20150428
0.20700001 269888.22993542 10104.61580642
0.20800001 265021.73473043 9139.27495419
0.20900001 260219.69040831 9836.30476241
0.21000001 255477.04854445 8894.43386554
0.21100001 250796.39744139 12760.52130505
0.21200001 246177.02235608 8651.89185972
0.21300001 241618.99141834 10858.35798767
0.21400001 237122.64951057 9941.36755072
0.21500001 232687.66934487 7539.08084320
0.21600001 228311.32007593 8917.84058379
0.21700001 223996.44465278 7324.68408645
0.21800001 219741.15980856 7940.34718511
0.21900001 215544.60613791 9958.16127441
0.22000001 211407.16154224 7008.14773649
0.22100001 207331.01019043 11046.59674527
0.22200001 203312.68423129 8841.05249184
0.22300001 199352.27042962 9377.53124443
0.22400001 195448.38103516 6596.38317186
0.22500001 191605.39506267 7794.50783973
0.22600001 187817.69585546 7674.23141555
0.22700001 184088.24412408 8814.14554547
0.22800001 180414.65157223 8676.14100440
0.22900001 176796.99838006 6709.44640582
0.23000001 173235.42125115 6602.86839325
0.23100001 169731.00640870 6497.30323260
0.23200001 166279.52824342 5811.46978695
0.23300001 162884.21276569 8004.13059386
0.23400001 159543.07426815 7311.06172412
0.23500001 156254.77160764 9956.55451775
0.23600001 153020.72188953 7615.84168865
0.23700001 149839.81166402 6954.06598824
0.23800001 146711.32521902 5785.56138366
0.23900001 143635.52994125 6205.05518696
0.24000001 140610.97302970 6099.70429855
0.24100001 137639.22322979 6495.19525144
0.24200001 134717.59786370 8347.77634649
0.24300001 131846.69926195 7720.94307400
0.24400001 129025.27948503 5690.01509445
0.24500001 126253.86920728 6988.15199119
0.24600001 123531.82875898 4576.85447203
0.24700001 120859.15653570 5844.74908656
0.24800001 118233.64644018 6182.43766483
0.24900001 115656.12420877 5204.52583561
0.25000001 113126.40475441 4685.13027455
0.25100001 110642.89182709 4600.53165982
0.25200001 108206.89552570 4517.09706742
0.25300001 105817.05776407 8466.42319225
0.25400001 103471.75970601 4749.35399520
0.25500001 101171.79320140 4661.99645129
0.25600001 98916.55860017  4575.88021734
0.25700001 96705.31587275  4490.99508161
0.25800001 94537.60241639  4040.06463042
0.25900001 92413.44638441  4324.94949542
0.26000001 90332.34262694  5658.41820988
0.26100001 88291.36565976  4857.79116845
0.26200001 86294.78842033  5446.92730282
0.26300001 84337.77445419  4007.73123170
0.26400001 82421.60247235  4259.13650929
0.26500001 80546.59674514  3535.19029843
0.26600001 78710.21344018  5358.98513566
0.26700001 76914.53038246  5256.33925507
0.26800001 75157.26647576  3942.37459954
0.26900001 73437.92091241  4163.93031278
0.27000001 71757.20581451  3208.62360983
0.27100001 70113.61519055  4290.95345272
0.27200001 68507.49984463  3085.92047654
0.27300001 66937.29489162  3026.23524526
0.27400001 65402.07800861  2967.61943008
0.27500001 63904.74283197  2910.22212630
0.27600001 62440.28573654  4410.46979173
0.27700001 61012.33936939  3053.05760653
0.27800001 59617.10289584  2993.97104913
0.27900001 58256.57735507  3180.80927413
0.28000001 56928.61336458  2639.49528357
0.28100001 55633.57493163  2588.63036409
0.28200001 54371.17176555  3000.47325589
0.28300001 53140.44275627  2490.16126542
0.28400001 51941.48443251  2664.59827751
0.28500001 50773.51379660  2396.00222947
0.28600001 49635.33029417  2777.84139139
0.28700001 48527.75181599  3144.59846652
0.28800001 47449.08503630  2673.99331379
0.28900001 46401.09527777  2422.13728815
0.29000001 45380.53844401  2377.03271621
0.29100001 44389.39876559  2527.53248535
0.29200001 43425.44904039  2290.25829080
0.29300001 42489.14608463  2810.65714654
0.29400001 41579.49017397  2943.82804367
0.29500001 40697.71676094  1987.67658069
0.29600001 39840.71899289  2484.86576121
0.29700001 39009.52305133  1918.09833923
0.29800001 38204.01844242  2056.14036991
0.29900001 37423.61991679  3368.12595196
0.30000001 36667.40866688  1986.64029562
0.30100001 35936.19930862  2279.07386804
0.30200001 35227.29593757  1761.18874377
0.30300001 34542.37415674  2205.18527056
0.30400001 33880.98117806  1860.06595473
0.30500001 33240.90249803  1525.75749689
0.30600001 32623.30428480  1802.76388013
0.30700001 32027.80180161  1923.58986727
0.30800001 31453.28653143  1749.43187970
0.30900001 30899.83819929  1580.52679872
0.31000001 30367.67416535  1416.65206688
0.31100001 29853.97679647  1536.88279825
0.31200001 29361.41322089  1516.37025759
0.31300001 28887.48839078  1360.60076763
0.31400001 28434.11047109  1477.86296171
0.31500001 27998.66701638  1459.85056735
0.31600002 27581.31109802  2098.38624769
0.31700002 27181.91478953  1426.23513654
0.31800002 26800.40993387  1923.59951408
0.31900002 26436.41300126  1522.73746097
0.32000002 26089.14592689  1633.05016662
0.32100002 25758.83887604  1492.98237195
0.32200002 25445.00438186  1972.49683308
0.32300002 25146.41028029  1833.17339624
0.32400002 24863.72666450  1575.73875198
0.32500002 24595.94820351  1924.38707857
0.32600002 24343.74882511  1671.68531098
0.32700002 24105.79078900  1304.60545928
0.32800002 23883.08835280  1296.49351262
0.32900002 23673.09341988  1640.54545168
0.33000002 23478.40970865  1398.84371668
0.33100002 23294.84079267  1276.09143905
0.33200002 23126.75135524  1386.21754188
0.33300002 22970.13729560  1380.96471961
0.33400002 22826.82566613  1376.45765285
0.33500002 22695.21433085  1372.60662773
0.33600002 22575.57185883  1255.31473266
0.33700002 22466.85366284  1594.69734851
0.33800002 22370.84104526  1251.31305313
0.33900002 22284.58768626  1363.81683099
0.34000002 22209.96960945  1249.64399926
0.34100002 22145.73149505  1363.29129540
0.34200002 22092.55244959  1477.66044057
0.34300002 22048.02561005  1820.28508057
0.34400002 22014.05464017  1367.07285790
0.34500002 21989.13797238  1369.48357778
0.34600002 21974.75958607  1258.16491969
0.34700002 21967.08285102  1605.35449078
0.34800002 21969.98172480  1495.16717709
0.34900002 21980.72603854  1153.98817168
0.35000002 21999.84124533  1389.95003571
0.35100002 22027.05616000  1860.84579253
0.35200002 22061.28483610  1284.95959614
0.35300002 22103.41340241  1408.42956871
0.35400002 22153.29233259  1179.66287258
0.35500002 22209.91068411  1186.00928671
0.35600002 22272.91551698  1311.98615067
0.35700002 22342.85380830  1199.81130633
0.35800002 22419.61229426  1207.29617923
0.35900002 22502.23163220  1215.12056569
0.36000002 22591.48748525  1223.32910527
0.36100002 22685.71740558  1970.93522155
0.36200002 22786.62026146  2357.38991081
0.36300002 22891.20949233  1624.81812673
0.36400002 23001.75675835  1763.08473904
0.36500002 23116.90907846  1649.85387908
0.36600002 23237.36407812  1407.13864840
0.36700002 23361.98561444  1418.53983370
0.36800002 23492.39481180  1430.33452587
0.36900002 23626.08948151  1573.49763400
0.37000002 23762.82006167  1851.36139870
0.37100002 23904.08422238  1467.23275907
0.37200002 24049.35664244  2287.45466540
0.37300002 24197.54707625  1357.48245528
0.37400002 24350.10867763  1780.60178140
0.37500002 24504.85883631  1796.69633499
0.37600002 24663.58307845  1952.61596482
0.37700002 24823.97976936  1689.02366352
0.37800002 24987.97284328  1420.56632344
0.37900002 25154.20260930  1863.92650165
0.38000002 25323.02667858  2315.53766918
0.38100002 25493.57908534  1460.78215079
0.38200002 25666.50623091  1916.90310867
0.38300002 25841.07373497  1934.97969294
0.38400002 26018.08329079  1652.79881935
0.38500002 26195.59493979  1820.07002264
0.38600002 26375.91653699  1990.45863576
0.38700002 26556.58174857  1700.15244409
0.38800002 26738.44103245  1716.20691897
0.38900002 26921.57376970  1574.91214014
0.39000002 27106.41532545  2384.68700123
0.39100002 27291.12478061  2086.13367706
0.39200002 27477.07385709  2105.70565480
0.39300002 27663.37643999  2288.86787508
0.39400002 27850.99351180  1980.20573251
0.39500002 28037.96803637  1998.54645632
0.39600002 28225.36494778  2689.31289964
0.39700002 28412.45044532  1696.22337195
0.39800002 28600.71387487  2054.10336781
0.39900002 28787.94839687  1727.27698565
0.40000002 28974.99897446  2091.41552507
0.40100002 29161.58800552  2110.13260806
0.40200002 29349.00153265  1774.14722671
0.40300002 29534.74672064  2326.74745689
0.40400002 29719.97326193  1986.03730733
0.40500002 29904.61992494  2731.78715958
0.40600002 30088.71856546  3122.75780427
0.40700002 30271.78970035  2223.16034093
0.40800002 30454.21077713  2055.20251167
0.40900002 30634.63298303  2260.83602127
0.41000002 30814.95871682  2089.71652440
0.41100002 30993.60888084  1915.40511959
0.41200002 31170.39775090  2703.40872503
0.41300002 31346.35662723  2335.93060654
0.41400002 31520.61183989  1962.15818001
0.41500002 31693.96538878  2175.47388737
0.41600002 31864.41425298  2790.36688835
0.41700002 32033.92560855  2611.08540008
0.41800002 32202.67271345  2833.51330632
0.41900002 32367.55156477  2243.07142972
0.42000002 32531.35118697  3081.53238720
0.42100002 32693.81285032  2483.42214179
0.42200002 32854.04147054  2501.50683610
0.42300002 33011.64673526  2729.40308141
0.42400002 33167.28105502  2537.29712094
0.42500002 33321.07753816  2342.13865114
0.42600002 33471.39746472  3430.14897473
0.42700002 33620.64376928  2374.28997550
0.42800002 33767.02774194  2172.90833816
0.42900002 33911.64992930  3062.22213373
0.43000002 34053.70593836  2421.72941257
0.43100002 34191.87402476  3766.57702106
0.43200002 34328.50405792  2675.56373306
0.43300002 34462.22211899  2916.53799614
0.43400002 34593.64200452  3385.85287164
0.43500002 34722.04197295  2270.82165264
0.43600002 34848.53475871  2969.61803019
0.43700002 34971.34155132  2527.37897368
0.43800002 35090.73817401  2541.79774009
0.43900002 35208.41578362  3020.88221739
0.44000002 35322.45506856  3271.21271892
0.44100002 35434.32950512  2819.15538903
0.44200002 35543.00698253  3306.56609628
0.44300002 35648.92852263  2849.06250255
0.44400002 35751.45644243  2625.05081369
0.44500002 35850.11925590  2638.21040107
0.44600002 35946.66305023  2892.26864609
0.44700002 36040.22097251  2906.28355696
0.44800002 36129.78181228  3163.34319649
0.44900002 36217.62519009  2444.68981619
0.45000002 36301.98197571  2455.82919704
0.45100002 36381.94588924  2713.36565301
0.45200002 36459.72693056  2725.18241858
0.45300002 36533.71892731  3731.91956529
0.45400002 36605.23053396  2997.96852281
0.45500002 36673.37893958  2759.30516219
0.45600002 36737.99633380  2518.38976804
0.45700002 36799.40674895  3033.74323616
0.45800002 36857.01046498  2791.36581986
0.45900002 36911.63034401  3565.66366022
0.46000002 36963.71874574  3322.85365413
0.46100002 37011.41067093  3334.35814537
0.46200002 37056.59875306  3860.37135806
0.46300002 37098.10688686  3356.63687021
0.46400002 37135.88483793  2590.22809021
0.46500002 37171.32528711  2598.27576072
0.46600002 37202.64107216  3127.25415674
0.46700002 37230.64121856  2613.59113742
0.46800002 37256.12235562  3669.35566472
0.46900002 37277.43560863  3153.67120196
0.47000002 37295.32606945  3425.38938520
0.47100002 37310.30822134  2905.72694200
0.47200002 37321.78499043  2647.98077058
0.47300002 37330.55621005  2654.20267234
0.47400002 37334.63105812  2926.10184787
0.47500002 37336.56187483  2932.41370864
0.47600002 37335.58008519  3472.76914623
0.47700002 37330.15418562  2944.22940017
