# SAXS profile: number of points = 501, q_min = 0, q_max = 0.5, delta_q = 0.001
#    q    intensity    error
0.00000000 1664650.74656091 374.54641798
0.00100000 1664581.97909220 499.37460559
0.00200000 1664375.62901928 1048.55667948
0.00300000 1664031.85836219 1497.62872588
0.00400000 1663550.54255645 1621.96184062
0.00500000 1662932.13479282 2394.62236888
0.00600000 1662176.35915862 1745.28524817
0.00700000 1661283.90043876 2392.24891605
0.00800000 1660254.15611910 2465.47752593
0.00900000 1659088.56252074 2737.49624518
0.01000000 1657786.22580682 3555.95160790
0.01100000 1656348.36192600 4472.14077191
0.01200000 1654774.51559569 3872.17253626
0.01300000 1653066.02399278 5901.44596594
0.01400000 1651222.16199827 3715.25002920
0.01500000 1649244.63421719 4354.00602821
0.01600000 1647132.46046653 5880.26314673
0.01700000 1644887.55615192 4885.31626092
0.01800000 1642509.64584569 5149.26797143
0.01900000 1639999.37327738 6395.99784439
0.02000000 1637357.42243878 6704.97894819
0.02100000 1634585.42615916 7551.78501124
0.02200000 1631681.54565848 6192.23174710
0.02300000 1628648.71121823 6449.44918999
0.02400000 1625486.86356351 6705.13361794
0.02500000 1622197.14003064 8224.53987558
0.02600000 1618779.96455516 10489.69465010
0.02700000 1615236.18393231 8140.79073988
0.02800000 1611565.89003634 9113.40552609
0.02900000 1607771.47739184 12299.45236677
0.03000000 1603853.35691655 8949.50214296
0.03100000 1599811.65624217 11518.64445495
0.03200000 1595647.49179473 7898.45544817
0.03300000 1591363.65178965 12173.93249741
0.03400000 1586958.18182810 9164.68392292
0.03500000 1582434.28012184 9399.66005798
0.03600000 1577791.87308843 12259.44342045
0.03700000 1573032.68970024 9862.91542056
0.03800000 1568158.00206761 14677.95957864
0.03900000 1563169.22504333 12192.72051998
0.04000000 1558065.10570118 10540.31092850
0.04100000 1552849.77276179 9782.95402200
0.04200000 1547523.37831590 9981.52625321
0.04300000 1542086.03355759 13231.09878208
0.04400000 1536541.67814274 14520.31953280
0.04500000 1530889.46981769 11619.45161581
0.04600000 1525130.03149857 11827.38394409
0.04700000 1519266.68864166 14220.33686704
0.04800000 1513299.36519655 13347.30102206
0.04900000 1507230.99969498 14695.50293106
0.05000000 1501060.95123602 11483.11681168
0.05100000 1494792.69457816 16323.13698519
0.05200000 1488424.42524967 15382.86715182
0.05300000 1481961.71779724 14404.66856850
0.05400000 1475402.76994153 17040.90278751
0.05500000 1468751.38190347 18506.26827529
0.05600000 1462006.36112648 16250.20146222
0.05700000 1455172.56718277 12660.00192544
0.05800000 1448248.57614107 15380.40059677
0.05900000 1441236.52097921 16862.46808303
0.06000000 1434139.10515833 13122.37342526
0.06100000 1426957.86411884 18578.99225905
0.06200000 1419693.36160098 13416.10289425
0.06300000 1412348.51520822 20337.81956990
0.06400000 1404921.56072569 13697.98585769
0.06500000 1397419.01972471 16601.33873090
0.06600000 1389838.19653507 18158.23688733
0.06700000 1382182.70898326 15508.09072055
0.06800000 1374454.94749557 17070.73124696
0.06900000 1366656.15883140 18654.85744145
0.07000000 1358785.70486147 14471.06843443
0.07100000 1350848.32924888 17506.99516705
0.07200000 1342843.03486121 17644.95830469
0.07300000 1334774.71958669 17779.20009795
0.07400000 1326642.28931578 16417.19909966
0.07500000 1318448.57242788 16533.34587320
0.07600000 1310193.78523677 16646.01282181
0.07700000 1301883.02409891 15232.03209616
0.07800000 1293514.56901201 16860.96319779
0.07900000 1285090.78770995 18505.30821099
0.08000000 1276615.48351728 21715.23039331
0.08100000 1268088.53624570 21836.48561868
0.08200000 1259511.59325718 17249.01207907
0.08300000 1250886.83301491 15761.17483569
0.08400000 1242215.54454395 19005.89872363
0.08500000 1233501.19658272 27050.68251096
0.08600000 1224743.33150206 17581.19134918
0.08700000 1215945.25874199 16050.47816909
0.08800000 1207105.76928475 19337.83533212
0.08900000 1198231.15899333 17793.73354682
0.09000000 1189319.64238176 17857.63526923
0.09100000 1180374.36008271 22804.83370820
0.09200000 1171396.11547372 17975.07423653
0.09300000 1162388.34421536 18028.64406599
0.09400000 1153349.27573040 19722.27354189
0.09500000 1144283.46419255 21420.98745653
0.09600000 1135191.95261475 18168.74805567
0.09700000 1126077.42817299 21519.34066407
0.09800000 1116940.93016864 28197.17510787
0.09900000 1107784.16848925 18278.43963957
0.10000000 1098607.25097771 23301.46088904
0.10100000 1089412.38628960 26668.81647065
0.10200000 1080202.37725541 18358.04026495
0.10300000 1070977.90757128 26731.60983045
0.10400000 1061741.80997488 20066.92115258
0.10500000 1052496.41644893 18408.16318978
0.10600001 1043238.24533180 18418.37208798
0.10700001 1033975.21743340 25125.59896598
0.10800001 1024704.33275378 20104.69995479
0.10900001 1015429.80748004 20105.51113438
0.11000001 1006151.77411944 21778.15617590
0.11100001 996872.56338426 20096.95182386
0.11200001 987594.35210653 30131.50510127
0.11300001 978316.24047424 18402.12934971
0.11400001 969042.19993925 18387.57660962
0.11500001 959773.17597933 25050.08107262
0.11600001 950509.71737139 25022.16948813
0.11700001 941255.09779416 18326.23761713
0.11800001 932007.06099172 23290.85755114
0.11900001 922770.57941081 19931.84545410
0.12000001 913545.40699331 18238.93490976
0.12100001 904334.81197277 19859.19340645
0.12200001 895137.87792150 24772.94193856
0.12300001 885957.44369116 19774.57107485
0.12400001 876793.48085050 21371.84210272
0.12500001 867648.48495677 22957.97999375
0.12600001 858524.79358613 17990.38789737
0.12700001 849421.91277775 17939.79164330
0.12800001 840340.80005397 26016.95239583
0.12900001 831284.19003745 22694.05945764
0.13000001 822252.35510251 19388.71144720
0.13100001 813246.09886927 16102.27351663
0.13200001 804268.50572764 19254.18893477
0.13300001 795320.35199704 20781.72177740
0.13400001 786400.52720404 19109.53371199
0.13500001 777512.85298401 19033.51553844
0.13600001 768656.39369655 17375.47859878
0.13700001 759833.76054328 18874.27150188
0.13800001 751044.27403473 23488.91077807
0.13900001 742292.80738217 18705.77962816
0.14000001 733576.13773354 23272.70406715
0.14100001 724897.58793068 18528.38322136
0.14200001 716256.45667269 18436.44206432
0.14300001 707657.68907058 16813.94748539
0.14400001 699095.05115698 19766.91350387
0.14500001 690577.90582932 18148.38822129
0.14600001 682100.53094866 16544.34915863
0.14700001 673669.49345567 16451.00980629
0.14800001 665280.49157091 17842.82362573
0.14900001 656936.08851490 14781.06268897
0.15000001 648638.32649059 14691.65878821
0.15100001 640387.22402952 18981.07821586
0.15200001 632184.78596242 17410.36982695
0.15300001 624030.65328257 17298.13052527
0.15400001 615923.52955158 21480.33410679
0.15500001 607868.13950576 14224.11513571
0.15600001 599861.52568103 19777.43543510
0.15700001 591909.85409832 14028.26420422
0.15800001 584005.45250082 16714.23683946
0.15900001 576156.77501564 13827.76325305
0.16000001 568359.12868671 13725.87360568
0.16100001 560618.49328847 19072.24204196
0.16200001 552929.99257311 17574.88064358
0.16300001 545297.60856045 20121.48270577
0.16400001 537720.81373133 13308.59076814
0.16500001 530200.43326730 14522.19055280
0.16600001 522736.60147639 13094.55248522
0.16700001 515329.29009591 20778.07795770
0.16800001 507978.60768845 14164.98414421
0.16900001 500688.36986647 16597.82024479
0.17000001 493455.87980821 15188.57269770
0.17100001 486282.20213698 16309.90582985
0.17200001 479168.27350100 13677.85901299
0.17300001 472114.16174582 12322.18020347
0.17400001 465120.74769571 15872.24626470
0.17500001 458187.26885973 14515.37336300
0.17600001 451312.68043293 13180.58745455
0.17700001 444502.00683883 14241.84497177
0.17800001 437751.32792802 14104.34845202
0.17900001 431062.53166311 17458.03335696
0.18000001 424436.26855190 13828.13428259
0.18100001 417873.06526280 11407.93522055
0.18200001 411369.52526460 12421.30340212
0.18300001 404931.01971357 15646.53534086
0.18400001 398553.73643262 15483.81339187
0.18500001 392240.43497105 20792.66644010
0.18600001 385989.99777175 19488.63590821
0.18700001 379802.08570778 16065.62898446
0.18800001 373677.47282204 12712.50822602
0.18900001 367617.90441222 12572.53292492
0.19000001 361617.94956233 12432.42569337
0.19100001 355686.50562609 11268.14903066
0.19200001 349814.80478651 14177.99470793
0.19300001 344009.11773669 12012.79895900
0.19400001 338266.02807703 9894.28178880
0.19500001 332587.17802335 11733.67619514
0.19600001 326970.80291899 11594.38521942
0.19700001 321418.67788330 9546.13518426
0.19800001 315930.09484714 11316.61653223
0.19900001 310505.82759282 11178.21032162
0.20000001 305142.94224447 9200.06014348
0.20100001 299845.28665069 10902.37513789
0.20200001 294609.62343968 10765.03614928
0.20300001 289437.84444349 9742.47830444
0.20400001 284328.90061485 11366.04833930
0.20500001 279282.13122565 9492.80008905
0.20600001 274298.52491202 10220.36352132
0.20700001 269377.40074177 12606.86295063
0.20800001 264518.42678647 9121.91837893
0.20900001 259723.73731891 10635.68754597
0.21000001 254988.71314049 12105.58972860
0.21100001 250315.55046016 9552.04185712
0.21200001 245703.95897785 13345.41116278
0.21300001 241153.61705680 10063.34091553
0.21400001 236665.31781781 9158.94823255
0.21500001 232238.21407969 7524.51849192
0.21600001 227869.96839288 8158.88460405
0.21700001 223563.08949789 7310.51337222
0.21800001 219316.09533928 10086.34770154
0.21900001 215127.73464051 8519.05869456
0.22000001 210998.58141716 6994.60330470
0.22100001 206930.84619633 8958.03675541
0.22200001 202920.76756648 7466.46999566
0.22300001 198968.79981252 9359.49278575
0.22400001 195073.54587992 8558.85223020
0.22500001 191239.18092776 7131.30939402
0.22600001 187460.17884443 10212.83102639
0.22700001 183739.37770700 6912.27571621
0.22800001 180074.47398073 9278.33771063
0.22900001 176465.55784884 6696.86823706
0.23000001 172912.65327787 8387.99320719
0.23100001 169417.15655302 7074.86079224
0.23200001 165974.62725890 7541.05754615
0.23300001 162588.19132555 5706.84578543
0.23400001 159255.92076753 8982.03435610
0.23500001 155976.49218614 6073.72489299
0.23600001 152751.46246806 5973.34622234
0.23700001 149579.51019486 6941.98539648
0.23800001 146460.06716021 6300.71238725
0.23900001 143393.28070312 6710.80585432
0.24000001 140377.72612982 6597.05155151
0.24100001 137415.07181092 6983.43427976
0.24200001 134502.46191014 5883.13796223
0.24300001 131640.64404813 5781.65736008
0.24400001 128828.18865887 6628.21062004
0.24500001 126065.83335295 6977.74420616
0.24600001 123352.90966705 5941.29317517
0.24700001 120689.22717073 4938.60340945
0.24800001 118072.78401675 5733.02429914
0.24900001 115504.30094076 6497.11723528
0.25000001 112983.59049523 5104.59886006
0.25100001 110508.98627403 4177.23987878
0.25200001 108081.95433726 5332.22346949
0.25300001 105701.07147401 4832.65321643
0.25400001 103364.64029017 3953.69767815
0.25500001 101073.54398951 3881.22427283
0.25600001 98827.31666007  5333.71053250
0.25700001 96624.92982054  5235.13894537
0.25800001 94465.90940706  5138.00105575
0.25900001 92350.52592390  4322.00481773
0.26000001 90278.15820149  3534.39006082
0.26100001 88245.86665888  3468.06272379
0.26200001 86257.88707371  3402.87380607
0.26300001 84309.50283191  3338.65647012
0.26400001 82401.76254716  4585.65830273
0.26500001 80535.30398907  4498.70229370
0.26600001 78707.43739458  4728.34952522
0.26700001 76920.06410853  3092.18672349
0.26800001 75171.14585078  3336.47146647
0.26900001 73460.10654784  3867.67479277
0.27000001 71787.58775294  3501.79869630
0.27100001 70152.12326142  2862.20676451
0.27200001 68554.10367463  3088.01974616
0.27300001 66991.90626114  3304.04097316
0.27400001 65464.71906015  2970.46176793
0.27500001 63975.18821588  2913.43020923
0.27600001 62518.61241395  3117.17816248
0.27700001 61098.28462426  2802.57844835
0.27800001 59710.85298940  2998.67917905
0.27900001 58357.80263856  3921.64452291
0.28000001 57037.31224334  3125.35967229
0.28100001 55749.67860563  4716.42303326
0.28200001 54494.60176763  3469.94393178
0.28300001 53271.26038340  2269.35579974
0.28400001 52079.29776801  2671.66810195
0.28500001 50918.45932502  2839.72261096
0.28600001 49787.27172195  2572.01057889
0.28700001 48686.65284295  2734.24255308
0.28800001 47614.79335542  2476.92166759
0.28900001 46573.51258411  3646.70620795
0.29000001 45559.51136022  2784.14187101
0.29100001 44575.00259239  2538.10076775
0.29200001 43617.46841310  2300.38539300
0.29300001 42687.40357708  2259.01750423
0.29400001 41784.03484438  2218.73235526
0.29500001 40908.38810894  1997.96576982
0.29600001 40057.44055000  1963.01496708
0.29700001 39232.06451336  1753.67336676
0.29800001 38432.47189268  2240.80537978
0.29900001 37657.80857597  2033.52175937
0.30000001 36907.18361273  1832.99536090
0.30100001 36181.41183320  1966.82164036
0.30200001 35477.93211963  2418.70813676
0.30300001 34798.39204142  1904.16810265
0.30400001 34142.11509591  1874.40220750
0.30500001 33507.12728946  1691.77493694
0.30600001 32894.41861717  1969.22446375
0.30700001 32303.84757058  1790.92539410
0.30800001 31733.99847582  1617.95798889
0.30900001 31185.12982406  1595.11946602
0.31000001 30657.52256788  1430.17349550
0.31100001 30148.28016139  2257.50332537
0.31200001 29659.87710114  2088.79694374
0.31300001 29190.21553866  1787.31698205
0.31400001 28740.89337792  1629.60873168
0.31500001 28309.34369182  1341.86295453
0.31600002 27895.87268655  1724.38345176
0.31700002 27500.06338585  2098.80493698
0.31800002 27122.20910986  1297.79776736
0.31900002 26761.76754449  1284.56490296
0.32000002 26417.74554137  1653.61886046
0.32100002 26090.69286443  2016.28884003
0.32200002 25780.01507966  1873.56268463
0.32300002 25484.46594066  1238.54510336
0.32400002 25204.63125798  1597.34358161
0.32500002 24939.57534770  1707.36340915
0.32600002 24690.06897582  1453.25752873
0.32700002 24454.73423180  1323.49027930
0.32800002 24234.46045765  1315.56774824
0.32900002 24026.71546272  1783.98370758
0.33000002 23834.28243144  1301.70939663
0.33100002 23652.80776254  1884.65581177
0.33200002 23486.60467532  1290.47155500
0.33300002 23331.92279462  1402.71526484
0.33400002 23190.31323294  1631.43861319
0.33500002 23060.37699185  1394.69166651
0.33600002 22942.19879726  1623.61948577
0.33700002 22834.85859713  1620.81833998
0.33800002 22740.15341437  1734.50528382
0.33900002 22655.13511761  1733.11791857
0.34000002 22581.53294280  1270.55001120
0.34100002 22518.19882015  1732.77548127
0.34200002 22465.95680319  1387.04823872
0.34300002 22422.16423914  1504.07884839
0.34400002 22388.77725668  1390.34313349
0.34500002 22364.46101443  1741.07337243
0.34600002 22350.40987127  1279.67277779
0.34700002 22343.14600600  1166.31227675
0.34800002 22346.16933245  1871.71523193
0.34900002 22357.10386365  1291.12280928
0.35000002 22376.15357329  1178.10454143
0.35100002 22403.31319858  1419.47399149
0.35200002 22437.27547247  1306.85917179
0.35300002 22479.07902014  1432.36698300
0.35400002 22528.57487484  1679.50533647
0.35500002 22584.74373962  1567.83298466
0.35600002 22647.16062480  1455.30661068
0.35700002 22716.40406186  2073.78062503
0.35800002 22792.39734611  1350.10772074
0.35900002 22874.05515215  1358.71894039
0.36000002 22962.32433708  1989.45587480
0.36100002 23055.53357794  1627.49019235
0.36200002 23155.27123709  1386.88503644
0.36300002 23258.62718065  1396.91321464
0.36400002 23367.86272674  1535.26865387
0.36500002 23481.57474233  1418.05236586
0.36600002 23600.50959704  1299.20811486
0.36700002 23723.57393594  1440.49547762
0.36800002 23852.25487360  1980.33355469
0.36900002 23984.24103096  1464.23798430
0.37000002 24119.13278660  2416.01364568
0.37100002 24258.44379045  1759.70759592
0.37200002 24401.76182720  2047.91795836
0.37300002 24547.87596385  1652.56308817
0.37400002 24698.34576425  1389.28201505
0.37500002 24850.79305873  1681.90175389
0.37600002 25007.21961541  1838.40583712
0.37700002 25165.29002272  1854.93361545
0.37800002 25326.80415356  1727.79466121
0.37900002 25490.57055588  1888.85136767
0.38000002 25656.79195998  2052.80002196
0.38100002 25824.80252057  2071.66575634
0.38200002 25994.89775162  2837.47319850
0.38300002 26166.85866092  1657.93224330
0.38400002 26341.03031582  2281.79185921
0.38500002 26515.67647030  1535.25774036
0.38600002 26692.98211919  2634.19706523
0.38700002 26870.67338451  2502.19722411
0.38800002 27049.55036264  2367.51200765
0.38900002 27229.46560264  2070.80095719
0.39000002 27411.20662569  1929.20081371
0.39100002 27592.75519192  1784.69949037
0.39200002 27775.45673989  2292.30855335
0.39300002 27958.38123573  2313.27657304
0.39400002 28142.68424968  1834.19953287
0.39500002 28326.37976174  1682.58703756
0.39600002 28510.21455689  2716.45337168
0.39700002 28693.86779659  1884.32638748
0.39800002 28878.58377929  1728.38332108
0.39900002 29062.32093823  2092.48720669
0.40000002 29245.81242945  2462.78998137
0.40100002 29428.72122297  2129.46236859
0.40200002 29612.47994795  1969.08194743
0.40300002 29794.54254715  2527.76910947
0.40400002 29976.02156857  2731.56509486
0.40500002 30156.88895206  2020.21008662
0.40600002 30337.22923725  2963.34069230
0.40700002 30516.50255015  2241.13205347
0.40800002 30695.06496297  2071.45655717
0.40900002 30871.64373777  2088.46679781
0.41000002 31048.06898428  2296.93625229
0.41100002 31222.87036767  2122.53082816
0.41200002 31395.69391061  2917.44499488
0.41300002 31567.70944478  2744.49678917
0.41400002 31738.01209091  2370.82961553
0.41500002 31907.35900686  2190.12122601
0.41600002 32073.78488961  2206.83687390
0.41700002 32239.33067591  2627.82796791
0.41800002 32404.03005581  2851.23073971
0.41900002 32564.90054645  2667.06548113
0.42000002 32724.67062939  2273.21935299
0.42100002 32883.03607871  2289.64591066
0.42200002 33039.31477050  2934.88247013
0.42300002 33192.74828765  2744.37655847
0.42400002 33344.36422336  2975.98464795
0.42500002 33494.11659008  2568.32898183
0.42600002 33640.38577560  3016.53353544
0.42700002 33785.53733277  3470.45055928
0.42800002 33927.83975608  2838.23356929
0.42900002 34068.39711193  3296.11757677
0.43000002 34206.38815659  2432.58740903
0.43100002 34340.52067788  2892.84559899
0.43200002 34473.10889785  2462.93138192
0.43300002 34602.79445173  3153.69883578
0.43400002 34730.17218572  2719.37261101
0.43500002 34854.49112951  4103.07089020
0.43600002 34976.98865604  2522.01588656
0.43700002 35095.75893601  2766.94976564
0.43800002 35211.18634343  2550.52240365
0.43900002 35324.83817244  4662.87885973
0.44000002 35434.83502614  2812.81733767
0.44100002 35542.86871100  2827.79076866
0.44200002 35647.58935724  3316.29539506
0.44300002 35749.55792460  2619.01273767
0.44400002 35848.20052140  3110.72774766
0.44500002 35942.90927758  3606.87111694
0.44600002 36035.56301720  2899.42153777
0.44700002 36125.34828172  3641.43527937
0.44800002 36211.06637600  3170.46006680
0.44900002 36295.06659711  2449.91711141
0.45000002 36375.61528600  3199.05363794
0.45100002 36451.85138346  2718.57920502
0.45200002 36525.92292125  2730.13023814
0.45300002 36596.18933111  2990.64073387
0.45400002 36663.93970132  3002.77680385
0.45500002 36728.45251785  2763.44889841
0.45600002 36789.42994548  3278.49020497
0.45700002 36847.24338176  2531.40574030
0.45800002 36901.24921347  3556.91158026
0.45900002 36952.35040545  2549.71229882
0.46000002 37000.95786261  4093.78617194
0.46100002 37045.17768058  3080.67712192
0.46200002 37086.83781593  3348.38531091
0.46300002 37124.91460034  3875.84126797
0.46400002 37159.29253398  3369.41901021
0.46500002 37191.37166697  2859.64470301
0.46600002 37219.33260190  3650.10012127
0.46700002 37244.01153083  5751.96541344
0.46800002 37266.25591489  2621.68122787
0.46900002 37284.32431731  2891.39948785
0.47000002 37298.99240995  3162.20872639
0.47100002 37310.85525729  2641.60867742
0.47200002 37319.22500919  3971.69870985
0.47300002 37324.91464176  3449.94202386
0.47400002 37325.89944830  3457.31160027
0.47500002 37324.83055656  3197.99163366
0.47600002 37320.84774306  2937.33746084
0.47700002 37312.46991385  3210.36506355
