# SAXS profile: number of points = 501, q_min = 0, q_max = 0.5, delta_q = 0.001
#    q    intensity    error
0.00000000 1682732.95097189 328.13292544
0.00100000 1682663.64353469 555.27901555
0.00200000 1682455.67043227 832.81558324
0.00300000 1682109.20625566 1110.19211568
0.00400000 1681624.10460428 1513.46175165
0.00500000 1681000.84125357 1815.48098041
0.00600000 1680239.11927981 2469.95160590
0.00700000 1679339.66075265 2619.76997965
0.00800000 1678301.85534653 2492.27836041
0.00900000 1677127.09445127 3018.82889906
0.01000000 1675814.48429048 2765.09401847
0.01100000 1674365.33638369 3013.85773671
0.01200000 1672779.12922908 4892.87916752
0.01300000 1671057.18342639 3509.22023997
0.01400000 1669198.81057937 4506.83698836
0.01500000 1667205.69989434 5201.68201530
0.01600000 1665076.85599673 6368.91925890
0.01700000 1662814.35035517 7183.35831577
0.01800000 1660417.61927037 6151.84755621
0.01900000 1657887.54353406 6465.76171153
0.02000000 1655224.73384360 7820.93722120
0.02100000 1652430.86116288 6543.62650688
0.02200000 1649504.04131409 5690.78920108
0.02300000 1646447.20300735 7705.37326081
0.02400000 1643260.25850908 7394.67150047
0.02500000 1639944.59843991 7035.36264862
0.02600000 1636500.25139416 8616.17421768
0.02700000 1632928.45467119 8229.95978848
0.02800000 1629228.98358264 7795.86104396
0.02900000 1625404.37172621 12434.34401462
0.03000000 1621455.12162312 9801.69666075
0.03100000 1617381.23189475 9316.11632438
0.03200000 1613183.97870109 11977.89159353
0.03300000 1608865.94354239 8205.21669033
0.03400000 1604425.27496670 9265.55639045
0.03500000 1599865.28291882 15550.69126807
0.03600000 1595185.73291188 8853.28122680
0.03700000 1590388.51284280 9065.21494245
0.03800000 1585474.74599383 14840.04430929
0.03900000 1580445.90300959 10430.94344292
0.04000000 1575300.82108937 10656.91054850
0.04100000 1570043.49300165 10880.40191099
0.04200000 1564674.24226066 11101.36426386
0.04300000 1559193.12782013 14406.94516980
0.04400000 1553603.97396950 16778.92369812
0.04500000 1547906.02398983 11748.60726798
0.04600000 1542099.96886860 14133.34687170
0.04700000 1536189.14376690 18802.95599419
0.04800000 1530173.37651560 15745.48477695
0.04900000 1524055.77909438 14859.54453784
0.05000000 1517835.54557210 12772.58671076
0.05100000 1511516.23617427 14147.79262965
0.05200000 1505096.11092874 15555.16903134
0.05300000 1498580.41715436 14566.20233379
0.05400000 1491967.73947654 14770.48130962
0.05500000 1485261.93362502 13723.82090690
0.05600000 1478461.48709902 20225.35408731
0.05700000 1471571.50072521 12802.67265392
0.05800000 1464590.54741722 14257.78964484
0.05900000 1457520.40839957 14429.45271710
0.06000000 1450364.41303640 18579.16899899
0.06100000 1443123.84098788 14763.15758321
0.06200000 1435798.85945258 24422.93974090
0.06300000 1428393.01928812 16455.08835156
0.06400000 1420904.29525722 18009.96278465
0.06500000 1413339.03322907 19588.87991688
0.06600000 1405695.02972363 16952.68285166
0.06700000 1397975.28093296 18537.15309269
0.06800000 1390182.82125140 25899.10717223
0.06900000 1382318.47113121 15965.77908907
0.07000000 1374381.68320336 19028.31529502
0.07100000 1366377.21388534 22135.31190171
0.07200000 1358304.18762563 14873.43155127
0.07300000 1350167.57597207 19482.91903416
0.07400000 1341966.02440751 15097.11848210
0.07500000 1333702.74523722 16724.63320920
0.07600000 1325377.41650717 15308.10987831
0.07700000 1316995.61295409 16949.73433347
0.07800000 1308555.43704482 17057.02092179
0.07900000 1300059.37650963 18720.85589982
0.08000000 1291511.05463342 18830.23205990
0.08100000 1282910.86411666 26825.66742729
0.08200000 1274259.56775028 17450.98559923
0.08300000 1265560.19390710 22324.48286825
0.08400000 1256813.45630561 20831.68401608
0.08500000 1248023.21417367 16099.50021863
0.08600000 1239188.98630809 19405.70043671
0.08700000 1230313.83382489 19488.17204291
0.08800000 1221396.78346740 22827.90695509
0.08900000 1212444.22320163 24551.99667303
0.09000000 1203453.97885096 26283.43613278
0.09100000 1194429.77619070 18131.44485441
0.09200000 1185371.85180941 21496.71954262
0.09300000 1176284.04958434 26536.96940565
0.09400000 1167164.61631515 23284.93518982
0.09500000 1158017.66813866 18343.00072549
0.09600000 1148844.76021244 21730.39966092
0.09700000 1139648.12620410 28479.80801276
0.09800000 1130429.63123987 25180.32121979
0.09900000 1121190.12750050 21863.20851432
0.10000000 1111929.80791447 21899.45859675
0.10100000 1102651.42877811 23618.79471526
0.10200000 1093357.73104250 16892.37773916
0.10300000 1084048.84638233 25366.74419862
0.10400000 1074728.30875794 16926.97165927
0.10500000 1065397.87982100 20327.79250339
0.10600001 1056054.32245018 20339.60720744
0.10700001 1046705.38659914 27130.60489735
0.10800001 1037348.84614848 22048.85076254
0.10900001 1027988.13833457 18657.98558892
0.11000001 1018623.47967179 25440.12260226
0.11100001 1009257.36854888 23737.73442568
0.11200001 999891.98992302 20337.80403248
0.11300001 990526.22196877 16937.99919312
0.11400001 981164.69138604 18617.60089565
0.11500001 971807.93575868 27055.13420549
0.11600001 962456.34683966 20269.33161896
0.11700001 953113.34426152 16870.10698793
0.11800001 943776.87078518 20215.70152434
0.11900001 934451.71492192 26912.21065736
0.12000001 925137.44514509 25186.86813050
0.12100001 915838.11314837 25139.75739021
0.12200001 906551.63766575 20071.05420349
0.12300001 897282.12485311 26703.11729373
0.12400001 888028.71214915 18315.59305106
0.12500001 878794.05171355 19931.05003202
0.12600001 869580.57281963 23191.71496997
0.12700001 860387.93721264 21475.28392488
0.12800001 851216.72353868 16471.04437674
0.12900001 842070.03581020 16420.36647222
0.13000001 832948.37722130 22914.41093743
0.13100001 823851.75371493 19574.71859097
0.13200001 814783.90344054 19505.92756788
0.13300001 805745.39300680 17815.03147923
0.13400001 796735.51678373 19360.67397062
0.13500001 787757.57251221 22498.35733171
0.13600001 778810.64241842 24006.83918449
0.13700001 769897.82363869 20717.95141104
0.13800001 761017.92558922 19040.66939612
0.13900001 752176.35690890 17375.27466398
0.14000001 743369.17769276 17294.48473464
0.14100001 734600.68664379 18776.39443617
0.14200001 725869.33324146 21797.85710534
0.14300001 717180.60426806 24785.76285259
0.14400001 708528.04380818 18492.58281569
0.14500001 699920.73397612 16861.09127686
0.14600001 691353.86638832 22866.53020951
0.14700001 682833.01734479 16674.78307022
0.14800001 674354.41937063 18086.18638080
0.14900001 665920.31558087 26969.77405348
0.15000001 657533.28538865 14893.12961675
0.15100001 649193.16566419 20722.24682578
0.15200001 640901.62629689 14708.69301757
0.15300001 632658.59743075 24844.50429349
0.15400001 624462.78256028 17422.51245562
0.15500001 616318.75213432 14421.85948055
0.15600001 608223.94784461 14323.67464775
0.15700001 600184.10010783 17069.23661268
0.15800001 592191.55831168 15536.14626559
0.15900001 584255.30818615 15424.34086415
0.16000001 576370.10217009 20879.00793665
0.16100001 568542.32274752 20723.36864238
0.16200001 560766.70755313 16452.89597629
0.16300001 553047.68263641 17686.46572565
0.16400001 545384.19099273 16197.91123718
0.16500001 537777.51104154 13390.66065713
0.16600001 530227.47460597 17266.85852576
0.16700001 522734.68545206 22393.95498209
0.16800001 515298.65566012 16981.66799909
0.16900001 507923.49310814 18132.86956016
0.17000001 500606.22045718 12840.55016105
0.17100001 493348.13457596 14001.22072042
0.17200001 486149.80404948 22708.05841949
0.17300001 479011.78830038 13752.42909156
0.17400001 471935.06067671 12388.29592781
0.17500001 464918.46922312 22092.92670088
0.17600001 457961.09562289 19454.18826086
0.17700001 451067.78549622 14452.21252989
0.17800001 444235.32233869 14313.26276180
0.17900001 437464.72847454 11811.54822671
0.18000001 430757.11158822 11695.05613204
0.18100001 424113.07178954 13893.94488813
0.18200001 417528.97353789 16045.63921102
0.18300001 411010.49703606 13612.66830489
0.18400001 404553.48743616 16839.53971004
0.18500001 398160.97280201 11108.69166597
0.18600001 391831.45885216 14288.13482206
0.18700001 385565.34267033 17396.70908319
0.18800001 379362.26675906 10754.92077075
0.18900001 373225.44755038 10636.92575775
0.19000001 367148.40937121 11570.68266803
0.19100001 361139.94337870 12480.99703290
0.19200001 355192.18272362 13367.65842844
0.19300001 349310.91458295 15247.42214203
0.19400001 343492.37429273 12056.58290740
0.19500001 337738.76896042 13901.32838732
0.19600001 332047.95638478 13736.82460479
0.19700001 326421.91008199 9694.73118758
0.19800001 320859.96756220 12450.97162967
0.19900001 315362.83613734 12299.15119061
0.20000001 309927.57260503 9344.31675566
0.20100001 304558.00267783 11073.72950074
0.20200001 299250.83871481 13668.28270431
0.20300001 294008.11204465 13494.97298068
0.20400001 288828.89673204 9769.63789373
0.20500001 283712.15764472 11396.71791128
0.20600001 278659.26815198 11248.08189063
0.20700001 273669.32480278 13661.57333992
0.20800001 268741.75564694 10952.57076912
0.20900001 263879.39614047 10805.86178276
0.21000001 259077.27396660 12299.69416300
0.21100001 254337.48367440 8896.72559951
0.21200001 249659.72683674 8774.29151448
0.21300001 245043.78953090 8652.49661739
0.21400001 240490.43622784 10858.14370902
0.21500001 235998.81547290 9940.27057767
0.21600001 231566.42901407 9044.98514492
0.21700001 227196.35926184 9658.11768885
0.21800001 222886.32214810 8053.99763162
0.21900001 218635.71430572 7936.47680455
0.22000001 214444.77784586 7819.72919389
0.22100001 210315.95372498 11905.98670333
0.22200001 206245.36282137 10348.36156888
0.22300001 202233.50357505 7474.55064557
0.22400001 198278.60364043 7361.09350823
0.22500001 194385.29271986 9225.52642873
0.22600001 190548.01248908 7136.97614527
0.22700001 186769.49227060 10220.02710034
0.22800001 183047.41002035 6287.67883154
0.22900001 179381.88698862 6807.54293315
0.23000001 175773.13095096 6699.59320303
0.23100001 172222.08591704 6592.66176069
0.23200001 168724.65374993 7666.00500568
0.23300001 165284.02389884 7541.91036719
0.23400001 161898.13935858 7418.98258699
0.23500001 158565.66287205 6735.86967739
0.23600001 155288.04364161 7728.68629759
0.23700001 152064.17141922 6514.42941172
0.23800001 148893.47958194 6405.39779458
0.23900001 145775.91319628 6297.51974795
0.24000001 142710.26418129 5158.97629417
0.24100001 139697.90845935 6085.24118033
0.24200001 136736.31108389 5482.44265224
0.24300001 133826.10385752 4898.03563288
0.24400001 130965.86841138 6256.89465933
0.24500001 128156.24964324 8512.13850397
0.24600001 125396.49206156 5110.53427572
0.24700001 122686.90567058 4563.95310685
0.24800001 120024.92934023 5379.51758752
0.24900001 117411.53426327 5283.51929180
0.25000001 114846.45305359 5621.15991063
0.25100001 112328.22760232 4670.60792467
0.25200001 109857.98229684 5002.93275049
0.25300001 107434.46136407 4911.90380595
0.25400001 105056.15496688 4420.23792936
0.25500001 102723.58265820 5127.96148891
0.25600001 100436.46803016 4259.00862832
0.25700001 98193.83880641  4940.13226408
0.25800001 95995.18575233  5221.17840010
0.25900001 93840.57067622  4757.71715839
0.26000001 91729.58710074  4309.45620590
0.26100001 89659.29028235  3875.97130230
0.26200001 87633.91205254  3802.87379346
0.26300001 85648.72243299  3730.85852572
0.26400001 83704.68203963  4658.16577592
0.26500001 81802.42948780  3916.70050921
0.26600001 79939.33527784  4162.04168819
0.26700001 78117.42892590  4396.44910799
0.26800001 76334.37790799  4004.11998264
0.26900001 74589.81686612  3322.97649863
0.27000001 72884.28071133  3259.02076623
0.27100001 71216.44029522  3777.32017201
0.27200001 69586.51165809  2849.56778725
0.27300001 67992.95991304  3073.96186314
0.27400001 66434.88365188  4110.65862050
0.27500001 64915.14806433  4568.72833698
0.27600001 63428.74131050  2899.01075879
0.27700001 61979.22380171  4135.25400776
0.27800001 60563.14107032  3801.85136062
0.27900001 59181.86880065  3479.89405017
0.28000001 57833.80548454  3412.77302316
0.28100001 56519.00493468  2868.90482627
0.28200001 55237.33183800  2813.78981700
0.28300001 53987.75834958  2299.87861455
0.28400001 52770.25352707  2255.92844506
0.28500001 51584.34448808  2434.26533161
0.28600001 50428.56597490  2170.94986797
0.28700001 49303.79810076  2768.90143240
0.28800001 48208.30304720  2925.76205042
0.28900001 47144.02799506  2460.91837783
0.29000001 46107.36582823  2817.62125913
0.29100001 45100.58168935  2765.56780010
0.29200001 44121.45475866  3102.62084549
0.29300001 43170.24327648  2094.18860047
0.29400001 42246.15479296  2617.14941331
0.29500001 41350.15762141  2937.51533648
0.29600001 40479.38862153  1983.69253330
0.29700001 39634.73581327  2303.17460714
0.29800001 38816.23613433  2437.27158225
0.29900001 38023.05316587  2053.24496816
0.30000001 37254.52277872  1850.24596140
0.30100001 36511.31845943  2315.54792632
0.30200001 35790.68920584  1952.02428170
0.30300001 35094.43720585  2240.42897729
0.30400001 34421.98272467  2204.72809789
0.30500001 33771.16548738  2015.12554003
0.30600001 33143.01177280  1831.48291727
0.30700001 32537.48442946  1954.20140735
0.30800001 31953.17509114  1481.02973559
0.30900001 31390.14875861  1605.60618502
0.31000001 30848.69955805  1726.91028302
0.31100001 30326.16722218  1986.97057047
0.31200001 29824.82053825  1540.30292962
0.31300001 29342.62534652  1658.44526311
0.31400001 28881.19083818  2046.95449757
0.31500001 28437.73242560  1617.53829695
0.31600002 28012.94455312  1465.21713423
0.31700002 27606.17174806  1843.54023662
0.31800002 27217.62785827  1302.36355468
0.31900002 26846.81965759  1675.24162595
0.32000002 26493.00121126  1530.76568247
0.32100002 26156.37556820  2274.03539958
0.32200002 25836.43987638  1376.95312841
0.32300002 25531.97128263  1861.28079464
0.32400002 25243.63742914  2215.12928930
0.32500002 24970.45874739  1343.16103962
0.32600002 24713.02145376  1454.60851165
0.32700002 24470.11509943  1685.50160786
0.32800002 24242.57117937  1555.28222766
0.32900002 24028.04118447  1546.20452344
0.33000002 23829.02068778  1183.11093317
0.33100002 23641.24578063  1177.33409563
0.33200002 23469.19291284  1289.51486566
0.33300002 23308.71268571  1401.31987302
0.33400002 23161.78471120  1163.87973685
0.33500002 23026.75560355  1276.60339112
0.33600002 22903.75651596  1273.56344138
0.33700002 22791.97363291  1617.77436508
0.33800002 22693.04516654  1384.72968164
0.33900002 22604.09051792  1498.65127231
0.34000002 22526.79782825  1267.47033983
0.34100002 22460.03424415  1382.63977355
0.34200002 22404.60043601  1613.80344583
0.34300002 22357.87103360  1153.66619997
0.34400002 22321.89447928  1270.67390341
0.34500002 22295.11219646  1272.82801558
0.34600002 22278.93665626  1391.54244945
0.34700002 22269.68266420  2441.20272927
0.34800002 22271.06929786  1865.42485274
0.34900002 22280.41434583  1871.55489369
0.35000002 22298.29134908  1643.60713319
0.35100002 22324.41300138  1178.72906230
0.35200002 22357.52936111  1183.83123574
0.35300002 22398.81877038  1308.31506634
0.35400002 22447.84206016  1553.95194022
0.35500002 22503.70877003  2523.56602100
0.35600002 22566.12685959  2054.30745596
0.35700002 22635.54427961  1823.29317808
0.35800002 22711.91883362  1345.34057583
0.35900002 22794.19526245  1477.06392297
0.36000002 22883.14678340  1734.77143982
0.36100002 22977.24423196  1247.66442089
0.36200002 23078.06759502  1633.58109209
0.36300002 23182.67459527  1645.50632071
0.36400002 23293.33369140  1530.37209601
0.36500002 23408.55278435  1413.64256961
0.36600002 23529.22189017  1683.86884433
0.36700002 23654.12407330  1566.84925283
0.36800002 23784.85645262  2106.38698722
0.36900002 23918.91390394  1460.24976301
0.37000002 24056.13537496  1472.59639673
0.37100002 24197.80044140  1485.26106145
0.37200002 24343.67750383  2179.24611337
0.37300002 24492.48900996  1786.23730811
0.37400002 24645.67261833  1524.95106550
0.37500002 24801.07792933  2238.04937836
0.37600002 24960.52555015  2258.42845876
0.37700002 25121.69755599  1424.40031890
0.37800002 25286.41076374  1725.03902402
0.37900002 25453.51916819  1741.02079358
0.38000002 25623.20433924  1610.80281709
0.38100002 25794.63224442  1773.63899715
0.38200002 25968.49048142  1790.26781860
0.38300002 26144.04397497  1656.48670473
0.38400002 26321.98787505  1824.11384616
0.38500002 26500.53996978  1994.69573802
0.38600002 26681.77138686  2013.53997310
0.38700002 26863.46527727  2657.87138045
0.38800002 27046.36666047  2051.60224023
0.38900002 27230.50315943  2389.47676544
0.39000002 27416.43662683  2411.96112651
0.39100002 27602.15658734  2109.90894950
0.39200002 27789.23661454  2457.26336406
0.39300002 27976.58163549  1984.09926359
0.39400002 28165.29078758  2169.43162569
0.39500002 28353.30916319  2021.02397290
0.39600002 28541.77212035  2379.52765441
0.39700002 28729.89949678  1715.17508122
0.39800002 28919.25952474  2769.30842329
0.39900002 29107.60619787  1746.45645462
0.40000002 29295.57670245  1938.34192435
0.40100002 29483.30426484  2133.41199768
0.40200002 29671.71539742  1793.65528076
0.40300002 29858.42306646  2533.18873298
0.40400002 30044.74563183  2190.26206034
0.40500002 30230.35490174  2761.54305112
0.40600002 30415.44075254  2042.54902051
0.40700002 30599.46383950  3370.83709627
0.40800002 30782.74553095  2832.78229171
0.40900002 30964.13277573  2285.15310712
0.41000002 31145.36573506  2304.13426625
0.41100002 31324.88803413  2710.22944113
0.41200002 31502.48997790  2146.73728126
0.41300002 31679.30265311  2754.19870316
0.41400002 31854.32594868  3569.27739167
0.41500002 32028.40978589  2198.43015187
0.41600002 32199.62694845  2416.90411327
0.41700002 32369.86859644  2232.54994288
0.41800002 32539.32656262  2658.62580278
0.41900002 32704.86328906  2266.44713333
0.42000002 32869.27454078  2490.83374273
0.42100002 33032.32667882  2300.04101563
0.42200002 33193.11639835  2316.71366880
0.42300002 33351.26696939  2333.25474774
0.42400002 33507.39389741  2990.53504705
0.42500002 33661.65113685  2581.17553148
0.42600002 33812.36534039  3031.95494375
0.42700002 33961.98029275  2180.35923811
0.42800002 34108.70151474  2414.38455113
0.42900002 34253.58815307  3093.09915680
0.43000002 34395.97721389  2223.70003225
0.43100002 34534.37189332  2461.61014521
0.43200002 34671.17108738  3603.02827014
0.43300002 34804.99927665  2945.54722837
0.43400002 34936.55336904  2279.61021536
0.43500002 35064.95623165  2522.57307085
0.43600002 35191.51108731  2537.48402720
0.43700002 35314.30931436  3016.19530147
0.43800002 35433.64589543  2566.63626207
0.43900002 35551.15759328  2581.01416358
0.44000002 35665.07040434  3067.01787477
0.44100002 35776.72010241  2609.19632072
0.44200002 35885.17254102  2384.56982836
0.44300002 35990.80374787  3355.78270048
0.44400002 36092.98908711  3372.88999003
0.44500002 36191.24809584  2905.43353483
0.44600002 36287.42123429  2433.07170907
0.44700002 36380.54575908  2689.25006996
0.44800002 36469.48252718  3929.95162338
0.44900002 36556.81296066  2714.34349097
0.45000002 36640.58258765  2478.73552953
0.45100002 36719.85009536  3485.44833624
0.45200002 36796.96544256  2750.38931235
0.45300002 36870.17878728  3013.03115329
0.45400002 36940.91358777  2773.33921904
0.45500002 37008.21291336  3543.90663654
0.45600002 37071.97710444  3049.54098114
0.45700002 37132.43718142  3061.19826632
0.45800002 37189.03464415  3328.60470358
0.45900002 37242.63051996  3340.66411597
0.46000002 37293.65949834  2578.85667653
0.46100002 37340.15520474  3105.20745400
0.46200002 37384.18754521  4413.76431172
0.46300002 37424.53830823  3646.64718559
0.46400002 37461.02604179  3658.06936636
0.46500002 37495.20990929  4193.46447501
0.46600002 37525.17487078  2891.50248671
0.46700002 37551.74845721  3426.97272663
0.46800002 37575.79024471  2643.45696901
0.46900002 37595.61815060  3710.68768734
0.47000002 37611.91942839  2923.01045692
0.47100002 37625.31285167  2663.87227616
0.47200002 37635.18158267  3471.28113781
0.47300002 37642.35674678  2676.37169155
0.47400002 37644.64346184  3218.61716854
0.47500002 37644.83089734  3494.19336951
0.47600002 37642.06566133  3231.94791087
0.47700002 37634.76421840  4587.30162801
