# SAXS profile: number of points = 501, q_min = 0, q_max = 0.5, delta_q = 0.001
#    q    intensity    error
0.00000000 1682732.95097189 353.37391970
0.00100000 1682663.63420762 656.23883293
0.00200000 1682455.63733379 1059.94708508
0.00300000 1682109.12387118 1110.19206130
0.00400000 1681623.96474016 1387.33982363
0.00500000 1681000.62451069 1966.77080852
0.00600000 1680238.80897159 2469.95114975
0.00700000 1679339.24190395 2216.72789144
0.00800000 1678301.30019697 2265.70685092
0.00900000 1677126.39258590 2767.25866606
0.01000000 1675813.63801424 3041.60188433
0.01100000 1674364.28643985 4822.16935490
0.01200000 1672777.88442078 3914.30042116
0.01300000 1671055.73110069 5965.66922314
0.01400000 1669197.09896220 4131.26300307
0.01500000 1667203.75819345 6001.93379676
0.01600000 1665074.66035639 5095.12868846
0.01700000 1662811.85119615 5836.46985951
0.01800000 1660414.82540835 5678.61895842
0.01900000 1657884.44173960 6963.11496950
0.02000000 1655221.31294196 7299.52632027
0.02100000 1652427.08648265 7634.21348567
0.02200000 1649499.89310032 6828.92986769
0.02300000 1646442.65299071 8298.07134879
0.02400000 1643255.32527738 8010.87007600
0.02500000 1639939.23970676 7674.91599235
0.02600000 1636494.46635331 7290.58318106
0.02700000 1632922.21260495 10973.23777129
0.02800000 1629222.30630922 7087.11735746
0.02900000 1625397.17576225 7314.28762676
0.03000000 1621447.43797662 7539.73093316
0.03100000 1617372.99870162 11645.08612648
0.03200000 1613175.24942455 11977.82677865
0.03300000 1608856.68518523 8205.16947271
0.03400000 1604415.48942097 11792.45439135
0.03500000 1599854.85364156 12094.90325205
0.03600000 1595174.73446630 10623.86422251
0.03700000 1590376.91584075 13597.72325930
0.03800000 1585462.51941465 12057.44301816
0.03900000 1580433.01202488 10430.85836242
0.04000000 1575287.27148431 11625.62060227
0.04100000 1570029.26316704 12858.54026154
0.04200000 1564659.33532896 11101.25849918
0.04300000 1559177.49070097 11319.62910792
0.04400000 1553587.58718984 14681.40338078
0.04500000 1547889.01130785 10680.43467429
0.04600000 1542082.17484190 14133.18378943
0.04700000 1536170.58683384 15484.60023544
0.04800000 1530154.05171421 14620.62264440
0.04900000 1524035.63423694 13716.32134659
0.05000000 1517814.68622935 19739.18091359
0.05100000 1511494.49015869 14147.58908694
0.05200000 1505073.46140660 14358.40149094
0.05300000 1498557.02756843 12138.31248917
0.05400000 1491943.45680186 13539.38750187
0.05500000 1485236.68778082 13723.58763529
0.05600000 1478435.39339266 12640.62320337
0.05700000 1471544.51812558 14082.68169582
0.05800000 1464562.65969353 12961.38014349
0.05900000 1457491.60971369 15740.91012010
0.06000000 1450334.69658174 14597.61940308
0.06100000 1443093.13335457 17446.99679758
0.06200000 1435767.27766619 14924.80154898
0.06300000 1428360.45493788 19197.16541193
0.06400000 1420870.71169875 16624.18810433
0.06500000 1413304.38554407 19588.39969994
0.06600000 1405659.43610426 26841.06818826
0.06700000 1397938.72882032 18536.66841165
0.06800000 1390145.12020021 23020.80426810
0.06900000 1382279.70399112 18868.11884286
0.07000000 1374341.90903508 20491.43882330
0.07100000 1366336.35163024 20659.00660427
0.07200000 1358262.25274431 19334.86407359
0.07300000 1350124.58158891 16485.02191362
0.07400000 1341921.89583832 19625.60864637
0.07500000 1333657.48966418 22805.54414221
0.07600000 1325331.05964498 18369.08934783
0.07700000 1316948.12224548 20030.78187857
0.07800000 1308506.83497249 17056.38739375
0.07900000 1300009.63831170 18720.13966973
0.08000000 1291460.21506671 23536.86352373
0.08100000 1282858.71336994 25246.66066365
0.08200000 1274206.25894683 17450.25553513
0.08300000 1265505.71275124 19134.44727482
0.08400000 1256757.74244349 17626.02816511
0.08500000 1247966.34971078 22538.27333384
0.08600000 1239131.02038811 29107.18903554
0.08700000 1230254.53313667 17863.29665996
0.08800000 1221336.36994534 22826.77782631
0.08900000 1212382.38023782 24550.74435296
0.09000000 1203391.02594870 18068.91710342
0.09100000 1194365.51187078 18130.46932199
0.09200000 1185306.45309145 29763.04643559
0.09300000 1176217.38183182 18243.13244950
0.09400000 1167096.64509251 36588.48154322
0.09500000 1157948.44674815 20009.35010030
0.09600000 1148774.13275862 21729.06374256
0.09700000 1139576.38894577 20102.12844606
0.09800000 1130356.43385968 20142.95259845
0.09900000 1121115.73865680 23543.43161886
0.10000000 1111854.20316527 21897.96956114
0.10100000 1102574.60806761 25304.08844525
0.10200000 1093279.56181145 16891.17002449
0.10300000 1083969.46295091 21982.90174274
0.10400000 1074647.44971382 20310.83775512
0.10500000 1065315.66936759 20326.22392787
0.10600001 1055970.85044106 20337.99953647
0.10700001 1046620.72801473 25432.88488757
0.10800001 1037262.67083116 22047.01910609
0.10900001 1027900.66478229 20352.43412059
0.11000001 1018534.75147587 18654.46485134
0.11100001 1009167.35548588 16954.01237025
0.11200001 999800.62220321 23725.26988180
0.11300001 990433.60250216 20323.69848020
0.11400001 981070.75385993 22000.51269119
0.11500001 971712.53312380 27052.47819601
0.11600001 962359.68320939 23645.17852994
0.11700001 953015.41393341 20242.04834524
0.11800001 943677.60900238 20213.57533686
0.11900001 934351.12913850 21863.81745166
0.12000001 925035.75274393 23505.15958443
0.12100001 915734.95946859 21785.33571202
0.12200001 906447.17368053 21741.13648498
0.12300001 897176.22071104 18356.22634059
0.12400001 887921.60818606 23307.94331310
0.12500001 878685.63178972 16607.15922336
0.12600001 869470.89718315 16563.42137186
0.12700001 860276.99362069 19820.78286710
0.12800001 851104.51658065 18115.76048920
0.12900001 841956.51149847 18059.96802285
0.13000001 832833.64251905 21274.73640093
0.13100001 823735.73666678 22833.95569674
0.13200001 814666.48043114 19503.11646090
0.13300001 805626.87503554 21051.03123709
0.13400001 796615.58294617 22584.05284126
0.13500001 787636.37528450 20888.11765738
0.13600001 778688.28989266 19202.45413416
0.13700001 769774.25782166 20714.62625474
0.13800001 760893.12769799 15864.62246061
0.13900001 752050.28678236 15793.05676720
0.14000001 743242.11950511 22007.40019643
0.14100001 734472.30615983 21901.96520265
0.14200001 725739.68126340 21793.96365626
0.14300001 717049.85308034 18585.93306850
0.14400001 708396.11757463 24652.18605444
0.14500001 699787.64313530 24520.56017215
0.14600001 691219.52656637 18289.66953575
0.14700001 682697.63527190 18187.06586165
0.14800001 674217.81351468 22603.15326447
0.14900001 665782.68826179 23968.17790826
0.15000001 657394.62578131 19356.98566945
0.15100001 649053.28701576 22197.62346333
0.15200001 640760.65562672 19117.09506270
0.15300001 632516.60549381 14611.13427639
0.15400001 624319.74333846 17418.52166114
0.15500001 616174.75169814 20185.88581826
0.15600001 608078.88832205 15752.28434541
0.15700001 600038.07152753 17065.08355966
0.15800001 592044.59932730 15532.29079646
0.15900001 584107.26807111 18224.14762401
0.16000001 576221.04253135 16698.88660079
0.16100001 568392.43298354 19336.71148288
0.16200001 560615.86076843 15077.76428713
0.16300001 552895.88837637 17681.61134499
0.16400001 545231.45193557 17542.82279422
0.16500001 537624.02586430 13386.83887603
0.16600001 530073.03929012 21245.32841780
0.16700001 522579.45006080 19753.50414495
0.16800001 515142.64561735 18282.41335619
0.16900001 507766.50112580 20716.87422414
0.17000001 500448.50484437 16687.45618201
0.17100001 493189.60118585 20358.86769832
0.17200001 485990.59125547 13872.60208249
0.17300001 478851.87910954 19996.85541596
0.17400001 471774.40527566 13622.48659567
0.17500001 464757.06186703 13496.54571403
0.17600001 457799.10918545 20662.76376897
0.17700001 450905.14254058 13243.08466190
0.17800001 444072.06228752 14308.00252270
0.17900001 437300.81951294 17710.68402681
0.18000001 430592.66843665 15197.76895034
0.18100001 423948.08564214 11573.78328474
0.18200001 417363.38811967 13747.95065409
0.18300001 410844.37897064 17008.95809288
0.18400001 404386.80011539 13466.08107999
0.18500001 397993.90422519 11104.03045246
0.18600001 391663.89531139 12084.79006076
0.18700001 385397.29264574 14128.66541590
0.18800001 379193.93422795 11825.16339759
0.18900001 373056.66427015 19137.80778127
0.19000001 366979.25408792 12616.74735167
0.19100001 360970.53670336 11435.54714309
0.19200001 355022.57725848 14389.06573619
0.19300001 349140.83560662 12191.99855549
0.19400001 343322.16018402 12050.60839190
0.19500001 337568.24548802 10916.95757496
0.19600001 331877.31661684 10787.67268642
0.19700001 326251.03102062 10658.62168714
0.19800001 320689.04192119 14358.85253060
0.19900001 315191.70697490 9455.75165613
0.20000001 309756.35174741 12140.90078053
0.20100001 304386.75884834 10145.21115190
0.20200001 299079.56460872 9106.97317276
0.20300001 293836.89757530 11688.83233801
0.20400001 288657.58529975 12426.70963451
0.20500001 283540.86044630 12265.97820268
0.20600001 278488.09123419 9511.76120571
0.20700001 273498.24033593 8533.14550184
0.20800001 268570.92573672 14313.48816374
0.20900001 263708.70559617 9137.50708085
0.21000001 258906.69628704 11472.15625479
0.21100001 254167.07851569 8890.76482678
0.21200001 249489.57480325 8768.31152098
0.21300001 244873.94812431 8646.49951704
0.21400001 240320.90836056 10850.48952545
0.21500001 235829.62008096 8404.96805705
0.21600001 231397.62255501 9791.59086135
0.21700001 227027.78483737 7423.80891518
0.21800001 222718.35844608 10242.81778922
0.21900001 218468.16023459 7930.39459148
0.22000001 214277.70092888 7813.63673382
0.22100001 210149.43623684 7697.77421333
0.22200001 206079.26640957 9650.69250229
0.22300001 202067.91510363 8147.37872223
0.22400001 198113.72955548 11366.77577074
0.22500001 194221.01150273 7242.50186141
0.22600001 190384.39341347 7779.10668273
0.22700001 186606.56717123 7658.33387886
0.22800001 182885.26641886 7538.53103828
0.22900001 179220.42915093 8656.34713736
0.23000001 175612.42276126 6693.46781009
0.23100001 172062.33638515 7185.32350726
0.23200001 168565.68886942 6480.50821507
0.23300001 165125.97628851 5795.92204184
0.23400001 161740.87494311 6271.50272253
0.23500001 158409.30121425 7289.99638667
0.23600001 155132.76748502 6066.46715943
0.23700001 151909.83797161 7050.13591372
0.23800001 148740.20917192 6932.03777633
0.23900001 145623.61159369 6815.18534494
0.24000001 142559.06408701 5153.51041051
0.24100001 139547.76202608 5572.14240127
0.24200001 136587.31128077 4978.60773168
0.24300001 133678.29232748 6360.41344981
0.24400001 130819.27161087 6249.89099685
0.24500001 128010.95675686 5195.96498055
0.24600001 125252.51885500 6032.78785603
0.24700001 122544.08146564 5014.50405079
0.24800001 119883.48934129 4925.41339259
0.24900001 117271.39274412 4837.44517954
0.25000001 114707.65545657 7773.73817805
0.25100001 112190.80210436 4240.81252017
0.25200001 109721.99731780 4996.73999425
0.25300001 107299.94646013 5723.37941496
0.25400001 104923.14283005 4815.97248375
0.25500001 102592.10957182 5909.30579092
0.25600001 100306.53775023 5413.54409851
0.25700001 98065.43762712  4933.67240045
0.25800001 95868.44764341  4096.93830388
0.25900001 93715.45978937  4020.39341519
0.26000001 91606.03423569  4303.65169202
0.26100001 89537.44543258  3870.70394920
0.26200001 87513.81949774  4488.14644531
0.26300001 85530.37579460  4741.80425842
0.26400001 83587.99299115  3654.88516648
0.26500001 81687.51789224  3585.26532994
0.26600001 79826.31046217  3516.74827382
0.26700001 78006.15716745  4390.18673313
0.26800001 76225.02008175  3383.24767643
0.26900001 74482.27887469  3016.53243717
0.27000001 72778.59080595  2958.44985626
0.27100001 71112.75068378  3481.68043824
0.27200001 69484.74459192  2845.40042569
0.27300001 67893.15445040  3348.49053596
0.27400001 66337.03282448  3830.96382691
0.27500001 64819.32125525  2951.87202966
0.27600001 63335.05257756  2631.57155914
0.27700001 61887.56362511  2838.78267783
0.27800001 60473.44356252  2530.81373287
0.27900001 59094.31049359  3226.54950566
0.28000001 57748.34607264  2677.50219238
0.28100001 56435.62758655  2625.94987589
0.28200001 55156.17743674  2575.51782731
0.28300001 53908.79040249  2755.81749581
0.28400001 52693.50293401  3378.97103557
0.28500001 51509.75020912  2872.69890513
0.28600001 50356.22655247  3468.53704911
0.28700001 49233.61527502  2339.58150861
0.28800001 48140.47074391  2504.26740663
0.28900001 47078.51143555  2457.49841326
0.29000001 46044.09885616  2411.79001225
0.29100001 45039.59080457  2170.00758768
0.29200001 44062.82329873  2130.21729321
0.29300001 43113.93479810  2281.58953752
0.29400001 42192.18671164  2987.20696059
0.29500001 41298.50929180  2017.01928929
0.29600001 40430.23791325  2341.51733959
0.29700001 39587.95060294  3362.20480387
0.29800001 38771.77807837  2434.48006079
0.29900001 37981.07078240  2050.97791934
0.30000001 37214.92726639  2520.38106843
0.30100001 36474.19380015  1817.50916310
0.30200001 35756.01171261  1950.13297113
0.30300001 35062.15006325  1758.71753043
0.30400001 34392.21536602  2360.16589123
0.30500001 33743.80366781  1703.72472785
0.30600001 33118.17320945  1830.11033820
0.30700001 32515.09642930  1802.63703138
0.30800001 31933.29199749  1480.10815416
0.30900001 31372.77434858  2188.25111441
0.31000001 30833.74862689  1869.91277401
0.31100001 30313.78632911  1418.68526737
0.31200001 29814.94361736  1539.79283602
0.31300001 29335.28062163  1796.19931751
0.31400001 28876.37172318  1910.17207993
0.31500001 28435.38040258  1347.83709490
0.31600002 28013.15790438  2131.24115427
0.31700002 27608.81076604  1316.94033589
0.31800002 27222.83647446  1302.61278698
0.31900002 26854.61892308  1417.92394628
0.32000002 26503.25751808  1276.13190992
0.32100002 26169.19568359  1516.76665364
0.32200002 25851.74963874  1377.76906223
0.32300002 25549.80809938  1614.23695215
0.32400002 25264.00076810  1724.26813407
0.32500002 24993.24802970  1588.82085248
0.32600002 24738.38232083  1820.12656544
0.32700002 24497.93805022  1325.82847006
0.32800002 24272.93942202  1677.01746408
0.32900002 24060.80215317  1310.11073928
0.33000002 23864.34088074  1777.29687126
0.33100002 23679.01081145  1179.21479425
0.33200002 23509.42603865  1644.01424073
0.33300002 23351.49477138  1403.89193214
0.33400002 23206.96298428  1282.76493970
0.33500002 23074.33303201  1511.83037185
0.33600002 22953.85454241  1508.41262269
0.33700002 22844.42916688  1274.03387497
0.33800002 22747.85746482  1388.07432824
0.33900002 22661.39004771  1618.02332603
0.34000002 22586.37698399  1617.41053242
0.34100002 22522.02733678  1270.91806280
0.34200002 22469.00840565  2080.85496699
0.34300002 22424.54293047  1619.94905802
0.34400002 22390.90191393  1390.47507471
0.34500002 22366.49174396  1392.98517179
0.34600002 22352.53351149  1628.82919412
0.34700002 22345.62515491  1516.37419483
0.34800002 22349.16742166  1520.97266092
0.34900002 22360.83666580  1643.52157278
0.35000002 22380.93798873  1296.19208501
0.35100002 22409.23464897  1419.84917461
0.35200002 22444.55201924  1663.81471999
0.35300002 22487.94766823  1791.16511661
0.35400002 22539.16584625  1800.31595724
0.35500002 22597.13896556  1327.35600571
0.35600002 22661.70667900  1577.59478518
0.35700002 22733.20268257  1342.85034606
0.35800002 22811.64485550  1596.92927375
0.35900002 22895.93560852  1854.57087213
0.36000002 22986.86204266  1369.21250242
0.36100002 23082.93712956  1504.08425460
0.36200002 23185.74686179  1262.46397642
0.36300002 23292.26956150  1780.46116962
0.36400002 23404.83781093  1537.69791701
0.36500002 23521.94324620  1678.76116900
0.36600002 23644.44664910  1301.62684969
0.36700002 23771.23865254  1443.38967935
0.36800002 23903.70866708  1455.37737113
0.36900002 24039.55219876  1601.03425228
0.37000002 24178.47389438  1614.63856315
0.37100002 24321.82720168  1900.02123100
0.37200002 24469.49644469  1369.06839093
0.37300002 24619.90033964  1519.29412193
0.37400002 24774.76464755  1951.01280842
0.37500002 24931.62295829  2109.21540219
0.37600002 25092.70443991  1844.69025429
0.37700002 25255.32367824  1431.97692039
0.37800002 25421.58902187  2312.34784697
0.37900002 25590.17101200  1604.50379846
0.38000002 25761.24217642  1619.48056614
0.38100002 25934.04833317  1783.22524787
0.38200002 26109.23625795  2099.96597171
0.38300002 26286.14814192  1816.89864564
0.38400002 26465.41236966  1681.21540043
0.38500002 26645.21292552  1697.03369162
0.38600002 26827.68287783  1713.08177132
0.38700002 27010.49182920  1729.21176883
0.38800002 27194.57389950  2380.20519332
0.38900002 27379.85299405  2082.23791884
0.39000002 27566.80952841  2263.51083761
0.39100002 27753.57091125  1958.29205627
0.39200002 27941.63461394  1976.59132623
0.39300002 28129.92473771  2493.71794614
0.39400002 28319.51997532  2349.10429325
0.39500002 28508.48394844  2201.42523480
0.39600002 28697.70777396  2905.21258414
0.39700002 28886.69763428  1896.98952352
0.39800002 29076.84170108  1740.24905826
0.39900002 29265.86700453  2282.73773451
0.40000002 29454.47450320  2126.02407037
0.40100002 29642.89207096  1787.46647657
0.40200002 29831.89111782  1803.33790351
0.40300002 30019.21318082  2728.74660742
0.40400002 30206.00790251  1835.01506702
0.40500002 30392.13380359  2035.96913997
0.40600002 30577.61498367  2240.11617984
0.40700002 30762.08508525  2259.16763570
0.40800002 30945.68439811  1898.51782778
0.40900002 31127.47010668  2488.64135295
0.41000002 31308.91752563  2509.25331398
0.41100002 31488.73564928  2724.40553746
0.41200002 31666.50947970  2354.08842626
0.41300002 31843.44308244  2966.21686368
0.41400002 32018.63693084  2790.42434074
0.41500002 32192.77502745  2209.71218259
0.41600002 32363.96407655  2429.23925869
0.41700002 32534.23128301  2243.88603791
0.41800002 32703.57529943  2055.41980496
0.41900002 32869.02990382  2277.82388027
0.42000002 33033.39120008  2086.05875313
0.42100002 33196.17432452  3572.24048833
0.42200002 33356.78321672  2328.13679493
0.42300002 33514.66240922  2984.14568232
0.42400002 33670.48328467  2361.14275222
0.42500002 33824.42037146  2809.79473340
0.42600002 33974.69545513  2176.07934702
0.42700002 34123.90098342  2847.98091103
0.42800002 34270.14762299  2425.81251444
0.42900002 34414.53861492  2885.65919960
0.43000002 34556.35712072  3127.69603121
0.43100002 34694.20295183  2697.82134938
0.43200002 34830.35611087  3167.12443124
0.43300002 34963.51265526  2503.73725989
0.43400002 35094.37669176  3205.87146271
0.43500002 35221.98632605  2303.51801488
0.43600002 35347.76325303  3475.56898656
0.43700002 35469.76476827  2330.36365571
0.43800002 35588.14779723  2812.17557220
0.43900002 35704.78782638  2592.16771904
0.44000002 35817.72270055  2369.34246892
0.44100002 35928.46891192  3334.88064244
0.44200002 36035.84127505  2873.49811945
0.44300002 36140.43187130  3851.12460271
0.44400002 36241.39725287  3386.75873378
0.44500002 36338.58905485  2431.05172298
0.44600002 36433.53474004  2687.15548210
0.44700002 36525.51254191  2699.96601505
0.44800002 36613.21482766  3205.67017616
0.44900002 36699.19322804  3220.35435838
0.45000002 36781.61599310  2488.27643986
0.45100002 36859.58729315  2748.98815060
0.45200002 36935.30780397  3513.65599791
0.45300002 37007.14562031  2772.20540980
0.45400002 37076.32427346  2783.50517675
0.45500002 37142.12533146  2540.52149308
0.45600002 37204.35299024  3060.43022202
0.45700002 37263.25487723  3071.98287767
0.45800002 37318.24969266  2569.36161311
0.45900002 37370.26672713  3609.96793693
0.46000002 37419.60670638  3622.59229693
0.46100002 37464.37488537  2596.28130261
0.46200002 37506.70205787  3386.29275579
0.46300002 37545.27727710  4442.35741797
0.46400002 37579.99054889  3407.56580452
0.46500002 37612.34145956  2892.01307189
0.46600002 37640.40621026  2900.38163800
0.46700002 37665.10850476  2908.49981659
0.46800002 37687.26610609  3976.94894434
0.46900002 37705.16248812  3189.85689768
0.47000002 37719.47713786  3197.85742332
0.47100002 37730.93117595  3739.89007542
0.47200002 37738.74049013  3480.83289409
0.47300002 37743.92924061  3220.31219544
0.47400002 37744.14105002  2689.27017728
0.47500002 37742.27035644  3503.23770053
0.47600002 37737.33070638  2970.11675402
0.47700002 37727.90046986  2705.09059191
