# SAXS profile: number of points = 501, q_min = 0, q_max = 0.5, delta_q = 0.001
#    q    intensity    error
0.00000000 1646666.22097351 271.69992646
0.00100000 1646598.08427892 493.97943702
0.00200000 1646393.62518339 740.87715479
0.00300000 1646053.01119601 1481.44776285
0.00400000 1645576.10755837 1727.85497859
0.00500000 1644963.36493083 1480.46708704
0.00600000 1644214.53251547 2071.71039531
0.00700000 1643330.26370857 2957.99459761
0.00800000 1642309.96399022 3547.38967199
0.00900000 1641155.05407539 2954.07922362
0.01000000 1639864.66784926 2976.35450066
0.01100000 1638440.01242266 3539.03058092
0.01200000 1636880.61771650 4468.68428229
0.01300000 1635187.83445962 4120.67352458
0.01400000 1633360.89140223 3675.06216857
0.01500000 1631401.51993334 5873.04573328
0.01600000 1629308.73689092 5816.63245072
0.01700000 1627084.51216070 5271.75405588
0.01800000 1624728.48032414 6482.66692820
0.01900000 1622241.29980003 6813.41376660
0.02000000 1619623.66317053 5611.99624675
0.02100000 1616877.21792513 6402.83407328
0.02200000 1614000.02334462 6125.13036687
0.02300000 1610995.14873966 6959.49935934
0.02400000 1607862.43460582 6632.43284517
0.02500000 1604603.04336171 7509.54258590
0.02600000 1601217.38287532 6484.93069725
0.02700000 1597706.34155935 8723.47702446
0.02800000 1594069.90971878 9707.88619539
0.02900000 1590310.53330238 9303.31704697
0.03000000 1586428.65980768 14016.09785365
0.03100000 1582424.37091921 9874.32852888
0.03200000 1578298.77308476 9375.09514392
0.03300000 1574054.60376316 11238.75038898
0.03400000 1569689.87940668 10713.13392126
0.03500000 1565207.97665662 10987.76050352
0.03600000 1560608.65431930 10393.65411810
0.03700000 1555893.69134966 9755.45389593
0.03800000 1551064.33065599 9073.72675427
0.03900000 1546121.83690839 12059.75088637
0.04000000 1541065.28570515 11373.06233552
0.04100000 1535898.45972747 11611.39289392
0.04200000 1530621.68101871 9872.51030058
0.04300000 1525235.14463246 14093.17339058
0.04400000 1519742.52541260 12309.91502754
0.04500000 1514143.15361139 12537.10589444
0.04600000 1508437.49684226 14888.27878594
0.04700000 1502629.08178564 11900.82288122
0.04800000 1496717.58273610 16501.31211744
0.04900000 1490706.11959980 13416.35570090
0.05000000 1484594.00160307 15900.00249757
0.05100000 1478384.64156188 12684.54081550
0.05200000 1472076.15428777 15213.90776355
0.05300000 1465674.32484470 13059.15884316
0.05400000 1459177.03360912 16853.49552413
0.05500000 1452588.44621386 18302.61527610
0.05600000 1445907.04257801 13598.75637002
0.05700000 1439137.79668759 16276.64924031
0.05800000 1432279.41166901 12675.67338513
0.05900000 1425333.76734139 19242.00675782
0.06000000 1418303.59823932 14275.22638320
0.06100000 1411190.49210348 18373.70106582
0.06200000 1403994.92335968 17248.07843971
0.06300000 1396719.91504454 14749.36299248
0.06400000 1389363.70037113 13546.29671213
0.06500000 1381932.68672545 17785.47451012
0.06600000 1374424.27808417 15194.26110514
0.06700000 1366841.90236434 15335.96686224
0.06800000 1359188.06104846 15474.35679938
0.06900000 1351463.88650855 18447.48291453
0.07000000 1343668.95855633 17172.09009449
0.07100000 1335807.67905870 20197.41305337
0.07200000 1327879.42195891 17448.33642194
0.07300000 1319888.75775461 19045.99566681
0.07400000 1311834.79190682 17709.77052070
0.07500000 1303720.19147459 16348.65196739
0.07600000 1295545.19726884 14963.54772996
0.07700000 1287314.86010745 16567.74302642
0.07800000 1279027.56456674 18187.77282108
0.07900000 1270685.56903578 19822.69580672
0.08000000 1262292.53532951 24538.96803795
0.08100000 1253848.61784431 16964.57259538
0.08200000 1245355.29978321 15504.67420986
0.08300000 1236814.67357428 17142.25218026
0.08400000 1228228.19581679 17225.90125489
0.08500000 1219599.16276929 17306.11293213
0.08600000 1210927.05965983 20543.37853167
0.08700000 1202215.56835587 17456.17087223
0.08800000 1193462.90468200 22305.82273607
0.08900000 1184675.75148275 19191.74807545
0.09000000 1175852.11695608 17655.42036547
0.09100000 1166995.33766449 17714.99005802
0.09200000 1158105.92959943 19386.69417241
0.09300000 1149187.43829468 21064.60673381
0.09400000 1140238.11366079 22747.75143662
0.09500000 1131262.47240925 17919.19840521
0.09600000 1122261.63196282 17961.79826391
0.09700000 1113237.88078264 29456.27571033
0.09800000 1104192.64081852 18036.98763583
0.09900000 1095127.71892095 22997.68317875
0.10000000 1086042.84344759 19744.25982239
0.10100000 1076940.31911739 24715.78148617
0.10200000 1067822.99887703 21447.22594124
0.10300000 1058691.51357243 26424.94142182
0.10400000 1049548.65848004 19836.47057848
0.10500000 1040396.79667540 18196.54082999
0.10600001 1031232.36603408 19861.53630437
0.10700001 1022063.58601897 18213.17395993
0.10800001 1012886.99395608 23184.98438278
0.10900001 1003707.03581898 18217.28355752
0.11000001 994523.57217641 19870.58190738
0.11100001 985339.18811507 21519.80888144
0.11200001 976156.10449315 24818.77012513
0.11300001 966973.28358921 18188.76832065
0.11400001 957794.67991874 18174.15490718
0.11500001 948621.08829342 18156.60848489
0.11600001 939453.15147706 23082.36501877
0.11700001 930294.21971718 18112.82931092
0.11800001 921142.15807205 16442.38829599
0.11900001 912001.46523611 22982.43800646
0.12000001 902872.38853723 21303.27501102
0.12100001 893757.65553549 22898.07221350
0.12200001 884656.67702299 21218.49139803
0.12300001 875572.27084743 16285.64500505
0.12400001 866504.45034122 19496.35105130
0.12500001 857455.62432598 17826.50326973
0.12600001 848427.98525040 19395.06465679
0.12700001 839421.19762234 19340.26530466
0.12800001 830435.92848985 19282.72316831
0.12900001 821475.34296082 17620.64693701
0.13000001 812539.19582111 19159.67514055
0.13100001 803628.74494117 17503.03488987
0.13200001 794746.64689031 15855.19635288
0.13300001 785894.16456741 23694.71017875
0.13400001 777069.64500501 25177.05768515
0.13500001 768277.44917825 17240.14677240
0.13600001 759516.00631876 17168.86013236
0.13700001 750788.41563701 23311.98140477
0.13800001 742093.68954585 24756.24665065
0.13900001 733436.84768476 15402.17452772
0.14000001 724814.51187968 22994.74147383
0.14100001 716230.25064339 25934.69859895
0.14200001 707683.11048967 19733.74446675
0.14300001 699177.97080182 16612.46936982
0.14400001 690708.90999690 18027.50340127
0.14500001 682284.94440335 20918.85738219
0.14600001 673900.51678879 20803.30993465
0.14700001 665562.32628224 17730.58120863
0.14800001 657265.67580994 16158.87740214
0.14900001 649013.42508539 14602.80275339
0.15000001 640807.38656945 17417.14558875
0.15100001 632648.02511722 14424.37565329
0.15200001 624536.46129595 14333.11246308
0.15300001 616473.15868672 14240.53063766
0.15400001 608456.57268800 29707.89356344
0.15500001 600491.29169549 18266.94595545
0.15600001 592574.22481186 19537.17311410
0.15700001 584712.05221217 19400.74680805
0.15800001 576896.56146527 17886.67873246
0.15900001 569136.64013891 13659.28000806
0.16000001 561426.97075672 14914.30818214
0.16100001 553773.91002943 17493.71864361
0.16200001 546172.73730907 16024.70886911
0.16300001 538627.18260926 15900.27518124
0.16400001 531136.75233774 14460.19876505
0.16500001 523702.19721177 16952.24092408
0.16600001 516323.96008392 21987.65687828
0.16700001 509001.64342593 15392.21042394
0.16800001 501735.49986799 19078.49328330
0.16900001 494529.37533938 15132.59959992
0.17000001 487380.23331011 12501.30357471
0.17100001 480289.62033394 18587.20918464
0.17200001 473258.23763051 18421.57776969
0.17300001 466286.16113658 18255.10407058
0.17400001 459374.15163041 15676.14366471
0.17500001 452521.56237017 14335.88377294
0.17600001 445727.35390060 14200.87416597
0.17700001 438996.59993815 15237.57270353
0.17800001 432325.12721453 24376.65344935
0.17900001 425714.98831350 14942.59679560
0.18000001 419166.85233962 14794.49475215
0.18100001 412681.34305336 11266.20119753
0.18200001 406254.82743913 13382.03464798
0.18300001 399892.70283171 13244.44694344
0.18400001 393591.42179850 13106.59496505
0.18500001 387353.24462309 11887.87163909
0.18600001 381177.44140150 12830.43328373
0.18700001 375063.51010668 14807.50807859
0.18800001 369012.39771148 11507.65216632
0.18900001 363025.68794204 17588.59541181
0.19000001 357097.92555188 14323.19847064
0.19100001 351238.09046778 12138.78898013
0.19200001 345437.06331870 10000.40345561
0.19300001 339701.77677644 12850.91882269
0.19400001 334028.42868748 10747.36520087
0.19500001 328418.64640261 10621.05952656
0.19600001 322870.56717417 11448.99085303
0.19700001 317386.32950961 11311.64931828
0.19800001 311964.71642830 10243.36194801
0.19900001 306606.83864339 12877.48783161
0.20000001 301309.77695943 10901.38824560
0.20100001 296077.24870236 12559.59748355
0.20200001 290906.10222686 10629.70947777
0.20300001 285798.09919931 10494.50669862
0.20400001 280752.23977363 11223.07131542
0.20500001 275767.87727125 11929.71893463
0.20600001 270846.10270570 11773.68064114
0.20700001 265986.04805600 14107.90065576
0.20800001 261187.63524025 10644.70257739
0.20900001 256452.63957279 14540.86535114
0.21000001 251776.69623119 8765.60609366
0.21100001 247161.99027850 11003.65232738
0.21200001 242608.00586629 8526.45876925
0.21300001 238114.79155051 9936.53072116
0.21400001 233682.82605360 9043.52579582
0.21500001 229311.42957184 8915.62880326
0.21600001 224998.26878024 8056.06339456
0.21700001 220745.70520445 7940.22339161
0.21800001 216552.40704875 7113.74690789
0.21900001 212416.99139891 7710.73715236
0.22000001 208340.14218606 8287.77124803
0.22100001 204323.96700827 6803.98842309
0.22200001 200364.82604426 11393.74637175
0.22300001 196462.96751707 9901.73403107
0.22400001 192617.29290414 9101.16752008
0.22500001 188831.95477524 7681.68428350
0.22600001 185100.97065837 9454.03252344
0.22700001 181427.71525868 6825.31097079
0.22800001 177809.77054359 7329.31908841
0.22900001 174246.99889881 6612.67392093
0.23000001 170739.62942582 6507.74128333
0.23100001 167288.96182724 10478.98106444
0.23200001 163890.68528561 6873.57566595
0.23300001 160547.59705202 6762.26510765
0.23400001 157258.14982149 7206.35505640
0.23500001 154021.03305550 7633.28275926
0.23600001 150837.42568790 5362.27073682
0.23700001 147706.37736507 5800.42971347
0.23800001 144627.09071117 5703.36959196
0.23900001 141599.77400844 7136.62894758
0.24000001 138623.07047872 6013.46908181
0.24100001 135698.71076018 6896.20880703
0.24200001 132823.73190814 5809.71030847
0.24300001 129998.83035979 5233.75315786
0.24400001 127222.69357180 6078.06447291
0.24500001 124496.03166604 7350.24605726
0.24600001 121818.24412397 6318.71262162
0.24700001 119188.90546658 5763.97574103
0.24800001 116606.27474900 5661.81793828
0.24900001 114070.91297670 4705.42538289
0.25000001 111582.75836272 4621.20015621
0.25100001 109140.04506601 4950.59267840
0.25200001 106744.34429973 4456.04286361
0.25300001 104394.21788564 4772.90386754
0.25400001 102087.84269427 3904.86016780
0.25500001 99826.32885409  6516.66305591
0.25600001 97608.93334781  4139.10701445
0.25700001 95434.87753905  5170.66190971
0.25800001 93303.57166181  3987.32832362
0.25900001 91215.37201463  4268.87961227
0.26000001 89169.63204894  5934.68514182
0.26100001 87163.41749837  4795.73145768
0.26200001 85200.74423631  4369.52037491
0.26300001 83277.20693716  3957.33306091
0.26400001 81393.92839112  5176.65409063
0.26500001 79551.23168796  4126.32258291
0.26600001 77746.55015874  4047.87432556
0.26700001 75981.93850665  5192.60592326
0.26800001 74255.14419206  3595.43425192
0.26900001 72565.67530910  3526.69198691
0.27000001 70914.28369379  3747.46549914
0.27100001 69299.30441289  3110.15292923
0.27200001 67721.41182054  3050.51113982
0.27300001 66178.73488731  2719.94613259
0.27400001 64670.55377762  3467.95861045
0.27500001 63199.52597764  3139.75259916
0.27600001 61760.97615500  2822.78554876
0.27700001 60358.32326787  2768.63641933
0.27800001 58987.88717275  2962.37183402
0.27900001 57651.48519981  3389.90749019
0.28000001 56347.05998277  2850.03442882
0.28100001 55074.95386299  2562.63772453
0.28200001 53835.15326688  2285.30236434
0.28300001 52626.52428893  3362.83506123
0.28400001 51448.92969760  2859.27440328
0.28500001 50301.87004138  2805.33542499
0.28600001 49184.11519875  2964.32676334
0.28700001 48096.42596679  2493.31884013
0.28800001 47037.12243040  2446.87122465
0.28900001 46007.85349841  2401.61006629
0.29000001 45005.61598045  2357.39427664
0.29100001 44032.39603358  2507.20474883
0.29200001 43085.68668170  2461.70082508
0.29300001 42166.12272794  2231.43132039
0.29400001 41272.90085111  2008.95854402
0.29500001 40407.07000536  1794.07399316
0.29600001 39565.35720358  2115.16409623
0.29700001 38748.99995999  2078.49645625
0.29800001 37957.97207342  2213.13966651
0.29900001 37191.60758993  1840.98466285
0.30000001 36448.78495153  2962.19289324
0.30100001 35730.51682980  2104.17023572
0.30200001 35034.25035530  2866.15215725
0.30300001 34361.59405060  1723.57763917
0.30400001 33711.77687635  2005.00802464
0.30500001 33082.96713648  1822.20991614
0.30600001 32476.18646860  2093.73984075
0.30700001 31891.15181481  1620.70841196
0.30800001 31326.61971196  1451.98889239
0.30900001 30782.65211350  1717.67206926
0.31000001 30259.75178031  1693.94098486
0.31100001 29754.78691715  1671.02891238
0.31200001 29270.61437385  1511.68095091
0.31300001 28804.63728929  1763.70802473
0.31400001 28358.78507396  1875.93372146
0.31500001 27930.63147609  1456.30319412
0.31600002 27520.08555141  1832.01218190
0.31700002 27127.03498567  1682.14751911
0.31800002 26751.69743283  1664.08941760
0.31900002 26393.51388231  1520.26647160
0.32000002 26051.42440218  1379.81375879
0.32100002 25726.15501781  1739.60268467
0.32200002 25417.12319482  1847.18951565
0.32300002 25122.88446270  1343.06946697
0.32400002 24844.25289759  1211.15738611
0.32500002 24580.12566586  1802.95230296
0.32600002 24331.33231681  1312.79709732
0.32700002 24096.45972171  1896.87339912
0.32800002 23876.49258613  1296.13546141
0.32900002 23668.93480632  1405.93479407
0.33000002 23476.36322736  1165.60148943
0.33100002 23294.78266774  1276.08825497
0.33200002 23128.08961609  1386.29775724
0.33300002 22972.93337756  1496.22722173
0.33400002 22830.57429362  1606.13097762
0.33500002 22699.76483387  1258.47502199
0.33600002 22580.63142036  1483.88626406
0.33700002 22472.06423154  1481.13382364
0.33800002 22376.05105617  1251.60447510
0.33900002 22289.56310302  1364.12132651
0.34000002 22214.48527723  1477.15226846
0.34100002 22149.43899917  1590.77278426
0.34200002 22095.32094734  1705.20647487
0.34300002 22049.60813762  1137.75983378
0.34400002 22014.13030215  1367.07755651
0.34500002 21987.63427051  1369.38992722
0.34600002 21971.34515111  1486.69114006
0.34700002 21961.75703494  1375.68452582
0.34800002 21962.30162027  1494.64450756
0.34900002 21970.77000160  1153.46547971
0.35000002 21987.19368831  1273.38838277
0.35100002 22011.63126442  1278.43560439
0.35200002 22042.92523092  1400.60753551
0.35300002 22081.82803027  1524.30866113
0.35400002 22128.45281334  1296.17418493
0.35500002 22181.62673038  1421.39870821
0.35600002 22241.08073316  1191.00992967
0.35700002 22307.15542805  1557.26259419
0.35800002 22380.06978175  1325.68349631
0.35900002 22458.61161382  1212.76508459
0.36000002 22543.70954292  1831.11289436
0.36100002 22633.59458942  1843.50636663
0.36200002 22730.12098464  1485.18617548
0.36300002 22830.11262938  1371.17662947
0.36400002 22935.97329081  1381.31905687
0.36500002 23046.38573337  1518.29596403
0.36600002 23161.95323242  1785.09182018
0.36700002 23281.57144615  1413.65708517
0.36800002 23406.84419148  1295.56888737
0.36900002 23535.45594689  1567.46144031
0.37000002 23666.93961051  1317.06525171
0.37100002 23802.88562661  1593.84129706
0.37200002 23942.79462990  2009.39913450
0.37300002 24085.47530962  1486.31475176
0.37400002 24232.51228601  1772.00254486
0.37500002 24381.62360660  1650.14836386
0.37600002 24534.64869536  1526.17789439
0.37700002 24689.35829073  1539.87534954
0.37800002 24847.64718110  1695.10657100
0.37900002 25008.04196829  1995.64184361
0.38000002 25171.01983627  2157.78577768
0.38100002 25335.72827370  1887.25848851
0.38200002 25502.59805364  2197.68649138
0.38300002 25671.37232996  1626.53822788
0.38400002 25842.40552561  1492.39898981
0.38500002 26013.82793701  1958.06092158
0.38600002 26188.19344531  2128.31458213
0.38700002 26362.84543191  2148.04474756
0.38800002 26538.71538604  1703.38752775
0.38900002 26715.72077979  1562.86973966
0.39000002 26894.60093745  2050.57894562
0.39100002 27073.27957617  1751.09980595
0.39200002 27253.22197588  1767.23526275
0.39300002 27433.53477102  2107.71857631
0.39400002 27615.11175691  1799.81499403
0.39500002 27796.21206661  1981.31408998
0.39600002 27977.56963057  1832.67078548
0.39700002 28158.77909485  1849.18711077
0.39800002 28341.01330117  1696.20972644
0.39900002 28522.44000610  2567.01972217
0.40000002 28703.72377735  2244.48778711
0.40100002 28884.43751351  1915.90483105
0.40200002 29066.04826057  2108.45124072
0.40300002 29246.15283350  1949.54864025
0.40400002 29425.59688347  2502.64713352
0.40500002 29604.66299353  1983.21646790
0.40600002 29783.11896426  2363.73734859
0.40700002 29960.71281196  2567.03399536
0.40800002 30137.68266738  2218.73630310
0.40900002 30312.67559439  1864.22963739
0.41000002 30487.62422319  2443.43075914
0.41100002 30661.01068123  2084.33560487
0.41200002 30832.61604479  2483.10485082
0.41300002 31003.37998884  2117.84098739
0.41400002 31172.58254189  2134.54269070
0.41500002 31340.89591330  2346.80639719
0.41600002 31506.36358412  2759.01238979
0.41700002 31671.07628228  3177.24252319
0.41800002 31835.01908046  2200.91414842
0.41900002 31995.20354334  2418.83750249
0.42000002 32154.35360164  3248.87604186
0.42100002 32312.28814841  2249.90473039
0.42200002 32468.15911671  2060.10479357
0.42300002 32621.35513799  3112.07742763
0.42400002 32772.76088743  3133.89540836
0.42500002 32922.42371114  3365.98875973
0.42600002 33068.68592434  2753.46426397
0.42700002 33213.93783053  2558.80189172
0.42800002 33356.39802873  3434.37490378
0.42900002 33497.27919518  2808.74699361
0.43000002 33635.68154115  2174.54691468
0.43100002 33770.24308521  2844.80541231
0.43200002 33903.43066896  2422.23071893
0.43300002 34033.79223812  2880.27997360
0.43400002 34161.94110033  2229.06676243
0.43500002 34287.25362454  2690.86379197
0.43600002 34410.67711286  2932.30598913
0.43700002 34530.51930276  2949.25179341
0.43800002 34647.13270465  2281.51379672
0.43900002 34762.06327169  2523.72591312
0.44000002 34873.42886678  2537.56517175
0.44100002 34982.93298462  2783.24228015
0.44200002 35089.21460435  2798.01410515
0.44300002 35192.87412059  2578.23008026
0.44400002 35293.24436684  3062.57142507
0.44500002 35389.88023938  3314.61634030
0.44600002 35484.42753422  2617.15407682
0.44700002 35576.22902201  2868.86724429
0.44800002 35664.18883835  3602.97484815
0.44900002 35750.37988866  2654.46583253
0.45000002 35833.24294754  2424.11900029
0.45100002 35911.89739141  2921.79211024
0.45200002 35988.42633509  3912.66189658
0.45300002 36061.44584337  3683.67686748
0.45400002 36131.89562265  2959.20239174
0.45500002 36199.19344942  3218.83243407
0.45600002 36262.99654855  2982.99423746
0.45700002 36323.80586524  2994.53469745
0.45800002 36380.91106393  2755.30843001
0.45900002 36435.13648692  3268.23189777
0.46000002 36487.02045552  2523.07758408
0.46100002 36534.61054568  3291.40322006
0.46200002 36579.71834225  3556.64618298
0.46300002 36621.20689925  3568.37056939
0.46400002 36659.19162543  2812.67661077
0.46500002 36694.92804091  3077.97070995
0.46600002 36726.69362616  3344.51651358
0.46700002 36755.20960352  3096.25900375
0.46800002 36781.33739476  2846.32392920
0.46900002 36803.38877334  3113.56683780
0.47000002 36822.21457125  3121.78749931
0.47100002 36838.20492161  3129.77403848
0.47200002 36850.78517262  3137.47599830
0.47300002 36860.69902807  2882.87540763
0.47400002 36866.15496015  3152.05639849
0.47500002 36869.51937645  5791.46437816
0.47600002 36870.03087878  3693.27116818
0.47700002 36866.30377853  2643.31410621
