# SAXS profile: number of points = 501, q_min = 0, q_max = 0.5, delta_q = 0.001
#    q    intensity    error
0.00000000 1646666.22097351 271.69992646
0.00100000 1646598.07866758 543.37737886
0.00200000 1646393.60289854 740.87714476
0.00300000 1646052.95971336 1283.92135431
0.00400000 1645576.01753910 1357.60026606
0.00500000 1644963.22954402 1480.46696519
0.00600000 1644214.32562538 1899.06762341
0.00700000 1643329.99026000 2366.39528432
0.00800000 1642309.60511772 3103.96528472
0.00900000 1641154.59606437 3938.77119893
0.01000000 1639864.11217960 3788.08626270
0.01100000 1638439.32662397 3244.11000796
0.01200000 1636879.81329311 4787.87366380
0.01300000 1635186.89281578 5150.83893955
0.01400000 1633359.78914876 4042.56565735
0.01500000 1631400.26696983 6264.57730412
0.01600000 1629307.32452387 4570.20724959
0.01700000 1627082.89878716 4832.43642617
0.01800000 1624726.65892223 6019.61254217
0.01900000 1622239.29877912 5353.38992753
0.02000000 1619621.42006805 6122.16924480
0.02100000 1616874.76398395 6402.82435567
0.02200000 1613997.33419609 6681.94926715
0.02300000 1610992.21746744 6379.52947156
0.02400000 1607859.26702529 6029.47252627
0.02500000 1604599.60247725 8135.32035610
0.02600000 1601213.63477677 9078.88172444
0.02700000 1597702.33688954 8723.45515896
0.02800000 1594065.60458105 6934.18569793
0.02900000 1590305.91768616 7156.37695817
0.03000000 1586423.73897149 7376.87072530
0.03100000 1582419.12973801 7595.61217224
0.03200000 1578293.20474645 8593.80689566
0.03300000 1574048.68906761 8830.41355276
0.03400000 1569683.60899452 10713.09112569
0.03500000 1565201.33657399 9297.29636858
0.03600000 1560601.62924274 12992.00916386
0.03700000 1555886.27154481 12415.97302114
0.03800000 1551056.52108841 11795.78538878
0.03900000 1546113.64805370 14842.69170868
0.04000000 1541056.67449614 9477.49898733
0.04100000 1535889.46941938 15481.76656958
0.04200000 1530612.25637125 10859.69446277
0.04300000 1525225.29977192 14093.08242406
0.04400000 1519732.26530214 15387.28990080
0.04500000 1514132.39531119 15671.27101963
0.04600000 1508426.28445500 15951.60869965
0.04700000 1502617.39567372 14064.49947762
0.04800000 1496705.44373987 13200.94262800
0.04900000 1490693.54893141 14534.26277861
0.05000000 1484580.85650351 15899.86171355
0.05100000 1478371.03354920 17296.94189829
0.05200000 1472062.08295845 11702.89410489
0.05300000 1465659.73497688 13059.02884743
0.05400000 1459161.91033586 18057.12948248
0.05500000 1452572.78936330 14641.93439982
0.05600000 1445890.89495310 16071.07804735
0.05700000 1439121.14369365 15024.42544148
0.05800000 1432262.19284182 13943.07309835
0.05900000 1425316.05351433 19241.76762115
0.06000000 1418285.22200718 23359.15869777
0.06100000 1411171.62399402 14436.28638809
0.06200000 1403975.49037605 14594.32590465
0.06300000 1396699.90003946 17430.81556748
0.06400000 1389343.05485418 13546.09541833
0.06500000 1381911.59290549 17785.20303265
0.06600000 1374402.49619129 19337.84402620
0.06700000 1366819.62626939 13941.56084040
0.06800000 1359165.19760969 19694.30463524
0.06900000 1351440.42954635 18447.16272698
0.07000000 1343644.90401413 17171.78267743
0.07100000 1335783.09555881 14426.45810774
0.07200000 1327854.21681251 24718.00740392
0.07300000 1319862.96002923 16115.52749706
0.07400000 1311808.32086210 19185.19759171
0.07500000 1303693.09826696 14862.10201687
0.07600000 1295517.48831278 26933.80984470
0.07700000 1287286.54113095 18073.50388492
0.07800000 1278998.60516858 22734.20127302
0.07900000 1270656.04648018 16772.66060024
0.08000000 1262262.42807086 19937.43598667
0.08100000 1253817.80153181 20048.54758714
0.08200000 1245323.94739719 17054.71225990
0.08300000 1236782.67302581 17141.80865264
0.08400000 1228195.61668594 20357.34330212
0.08500000 1219565.88882380 15732.40070439
0.08600000 1210893.21183243 28443.88288143
0.08700000 1202181.03250875 20629.42748656
0.08800000 1193427.78344257 19118.71398864
0.08900000 1184639.95930950 22389.69628259
0.09000000 1175815.80624875 22469.84111295
0.09100000 1166958.33411157 22545.63607426
0.09200000 1158068.32716148 19386.06470757
0.09300000 1149149.22554433 17823.30532575
0.09400000 1140199.24738591 25996.54406217
0.09500000 1131223.00399692 17918.57322553
0.09600000 1122221.57524504 24492.48703106
0.09700000 1113197.24896584 21273.20042785
0.09800000 1104151.21871226 21315.64027945
0.09900000 1095085.75806460 18068.91585771
0.10000000 1086000.30157624 18098.19587688
0.10100000 1076897.17973458 26362.44419978
0.10200000 1067779.25759555 16497.19030582
0.10300000 1058647.11231347 18166.38530186
0.10400000 1049503.70796289 19835.62101367
0.10500000 1040351.29258122 26466.53812850
0.10600001 1031186.24156752 23170.75593829
0.10700001 1022016.89482833 21523.67681794
0.10800001 1012839.71514587 18215.92313417
0.10900001 1003659.12043614 16560.37626662
0.11000001 994475.14639673 16558.01196688
0.11100001 985290.19358592 19863.45123773
0.11200001 976106.52866968 21508.50837180
0.11300001 966923.20233938 19841.26504615
0.11400001 957743.98342777 24781.62673802
0.11500001 948569.87652054 21456.65161725
0.11600001 939401.39660360 24729.74293015
0.11700001 930241.97634843 31284.03913792
0.11800001 921089.33077213 23018.02346011
0.11900001 911948.18026625 19698.08162156
0.12000001 902818.57565311 27856.46846395
0.12100001 893703.25569199 22896.67848945
0.12200001 884601.84718737 24481.35727426
0.12300001 875516.98380298 22798.46333237
0.12400001 866448.57480636 21119.68500601
0.12500001 857399.30811581 19445.81722436
0.12600001 848371.12953764 17777.61785720
0.12700001 839363.87556819 19338.94460447
0.12800001 830378.15954646 16067.81814449
0.12900001 821417.15795825 19221.16240216
0.13000001 812480.46544856 20754.81446816
0.13100001 803569.62842599 19092.81527139
0.13200001 794687.17755027 17439.41093344
0.13300001 785834.33057705 30011.01449955
0.13400001 777009.33151049 15734.43970490
0.13500001 768216.77078056 17238.78514909
0.13600001 759454.89981976 18728.15871260
0.13700001 750726.89645579 21756.06648516
0.13800001 742031.83565323 20112.77385381
0.13900001 733374.54745016 16940.95284500
0.14000001 724751.96214783 26058.45802796
0.14100001 716167.35072363 18305.23834783
0.14200001 707619.82420627 19731.97972866
0.14300001 699114.40356083 16610.95901210
0.14400001 690645.02604277 15021.53002499
0.14500001 682220.77560080 17928.76282853
0.14600001 673836.02081969 19315.51044799
0.14700001 665497.61484721 14774.04774660
0.14800001 657200.66732782 16157.27916853
0.14900001 648948.02692955 16061.46442430
0.15000001 640741.84576568 20317.92488789
0.15100001 632582.17828564 14422.87434546
0.15200001 624470.43889688 15764.75697384
0.15300001 616406.86880474 18510.69914371
0.15400001 608390.04687483 19803.09696030
0.15500001 600424.60263679 16859.92363771
0.15600001 592507.37525111 15348.90428027
0.15700001 584644.97987772 16627.30401248
0.15800001 576829.41022986 17884.59670831
0.15900001 569069.32397254 13657.66441999
0.16000001 561359.50970636 16268.19935919
0.16100001 553706.32147701 20182.59637054
0.16200001 546105.09521310 14687.49722909
0.16300001 538559.38114251 19872.84210231
0.16400001 531068.89420063 14458.35132718
0.16500001 523634.32143427 16950.04378506
0.16600001 516256.04509398 14225.43599419
0.16700001 508933.59241178 16672.66527461
0.16800001 501667.40584335 12717.26933859
0.16900001 494461.15794141 15130.51214744
0.17000001 487312.13526666 13749.51254580
0.17100001 480221.52161982 17345.60217999
0.17200001 473190.10354202 17190.99727349
0.17300001 466218.08017230 14601.95096057
0.17400001 459306.12749860 13262.46505786
0.17500001 452453.62563182 15528.20916504
0.17600001 445659.47793226 11832.25969793
0.17700001 438928.85595424 11719.40100749
0.17800001 432257.40024681 15087.94526825
0.17900001 425647.37195747 19537.21529566
0.18000001 419099.36507260 17067.82244878
0.18100001 412613.96853464 14643.67043501
0.18200001 406187.50742726 13379.81712669
0.18300001 399825.64022174 11035.18819141
0.18400001 393524.43969933 17472.48594806
0.18500001 387286.52061171 16207.94165330
0.18600001 381110.95686389 11759.17912958
0.18700001 374997.18482258 14804.88955625
0.18800001 368946.34176981 13597.51806836
0.18900001 362959.82197638 11378.79095658
0.19000001 357032.28641409 10228.97548907
0.19100001 351172.74955155 11125.15323146
0.19200001 345371.98784282 13997.92732869
0.19300001 339636.89514612 11860.12093892
0.19400001 333963.92035697 11722.13415845
0.19500001 328354.50244697 12549.70967656
0.19600001 322806.72797536 10492.83318869
0.19700001 317322.75977236 18848.97282123
0.19800001 311901.49911322 15827.44232049
0.19900001 306544.04525391 10115.95397146
0.20000001 301247.33589177 10899.12912767
0.20100001 296015.22646052 11660.04032136
0.20200001 290844.46920583 14169.94320943
0.20300001 285736.89357007 10492.25922781
0.20400001 280691.38743640 11220.63874312
0.20500001 275707.48132715 9371.29773326
0.20600001 270786.16128998 10089.49284657
0.20700001 265926.57321093 9956.29137164
0.20800001 261128.59247060 9823.65811311
0.20900001 256394.11279563 10499.33941530
0.21000001 251718.66152483 7966.89601387
0.21100001 247104.43688766 10215.29790385
0.21200001 242551.01407141 8524.45579253
0.21300001 238058.32213970 7641.67250195
0.21400001 233626.89625137 10548.25486443
0.21500001 229256.07881996 13370.21514889
0.21600001 224943.43795769 10982.86387754
0.21700001 220691.50902343 10103.25776077
0.21800001 216498.77551307 8534.38213424
0.21900001 212363.88416323 7008.00850874
0.22000001 208287.67763595 7595.21052412
0.22100001 204272.11208880 8842.94015045
0.22200001 200313.62960600 9380.68771801
0.22300001 196412.40808062 7259.40294592
0.22400001 192567.43735167 9098.81184512
0.22500001 188782.71194545 6399.73423758
0.22600001 185052.42010335 6931.13872273
0.22700001 181379.83021824 6823.50953549
0.22800001 177762.53198584 7937.98624122
0.22900001 174200.52776689 7812.89403982
0.23000001 170693.77943586 5914.53973716
0.23100001 167243.86276508 11058.16472900
0.23200001 163846.31181727 6299.07175572
0.23300001 160503.98449168 6760.42814652
0.23400001 157215.27354289 5541.83865449
0.23500001 153978.90459703 6541.02417665
0.23600001 150796.02997856 5896.87903122
0.23700001 147665.78742813 7380.33640473
0.23800001 144587.29209107 5183.45466664
0.23900001 141560.78850201 5605.80748983
0.24000001 138584.82001750 6512.79392478
0.24100001 135661.29097387 9356.55968104
0.24200001 132787.12656411 7260.13648831
0.24300001 129963.06768172 6183.64305280
0.24400001 127187.71322875 7011.22302339
0.24500001 124461.88945831 5970.43711974
0.24600001 121784.94990874 6316.98565059
0.24700001 119156.48802810 4432.62156433
0.24800001 116574.69263864 5224.87797124
0.24900001 114040.18836532 5559.45944581
0.25000001 111552.87964589 4199.96611736
0.25100001 109111.03271174 6186.59584744
0.25200001 106716.21928469 5264.84492749
0.25300001 104366.99815636 5566.93594503
0.25400001 102061.47027073 4684.62170706
0.25500001 99800.85134077  5365.29402192
0.25600001 97584.37989913  5642.81703464
0.25700001 95411.18142108  5169.37805397
0.25800001 93280.82453851  5435.94030718
0.25900001 91193.52817883  4267.85732070
0.26000001 89148.68072847  3490.17101566
0.26100001 87143.38116320  4794.62905846
0.26200001 85181.66927061  4368.54211525
0.26300001 83259.07626828  4286.17744910
0.26400001 81376.68469999  3234.72336989
0.26500001 79534.94148699  4442.82204169
0.26600001 77731.17632184  5292.32739030
0.26700001 75967.50301235  3970.06189529
0.26800001 74241.65714509  4193.91141059
0.26900001 72553.16999033  3232.24387602
0.27000001 70902.69350466  3170.41409009
0.27100001 69288.67110382  2826.97791482
0.27200001 67711.68299900  3327.35226003
0.27300001 66169.97716576  3807.42066630
0.27400001 64662.76809117  2934.07324099
0.27500001 63192.68648723  2616.17734438
0.27600001 61755.08662138  2822.51636761
0.27700001 60353.38352705  4026.77793950
0.27800001 58983.87254449  2962.17021938
0.27900001 57648.46408971  2663.35916700
0.28000001 56344.96739268  2849.92858560
0.28100001 55073.86867106  2562.58723055
0.28200001 53834.97622751  2285.29484902
0.28300001 52627.30449644  3138.69258872
0.28400001 51450.68737250  2859.37208606
0.28500001 50304.57007499  2158.06615836
0.28600001 49187.76635974  2541.04013042
0.28700001 48101.02947220  2493.55748587
0.28800001 47042.63832872  2447.15816169
0.28900001 46014.31875498  2602.10984876
0.29000001 45013.04815042  2161.30160925
0.29100001 44040.77427556  2507.68180595
0.29200001 43094.98953090  2462.23234340
0.29300001 42176.33194129  2045.97395932
0.29400001 41284.05179601  2557.54712983
0.29500001 40419.19152438  1794.61218863
0.29600001 39578.35777353  2468.50229119
0.29700001 38762.94133143  2425.78498335
0.29800001 37972.86552108  1873.39140917
0.29900001 37207.41238269  2009.20036378
0.30000001 36465.51472501  1811.05987455
0.30100001 35748.13168868  2267.14661902
0.30200001 35052.75793181  1911.77750811
0.30300001 34380.99946649  1881.32837987
0.30400001 33732.06826623  2006.21485511
0.30500001 33104.21083971  1519.48334948
0.30600001 32498.25825997  1646.19935009
0.30700001 31914.11678611  2506.53485105
0.30800001 31350.37979705  1453.09017239
0.30900001 30807.33906508  1432.54133435
0.31000001 30285.28625175  2260.49387285
0.31100001 29781.18759415  1951.26350355
0.31200001 29297.84218893  1650.64050708
0.31300001 28832.71867630  1901.22955953
0.31400001 28387.65169181  1743.71158773
0.31500001 27960.34483100  1590.38448929
0.31600002 27550.62585466  1441.03555356
0.31700002 27158.37466057  2202.27270550
0.31800002 26783.83291998  1537.92775908
0.31900002 26426.44116991  1395.31615984
0.32000002 26085.13134174  1632.79887365
0.32100002 25760.70058580  1368.66608693
0.32200002 25452.39413288  1479.80226495
0.32300002 25158.92739464  1834.08589391
0.32400002 24880.99771450  1334.24356562
0.32500002 24617.63015844  1685.32304045
0.32600002 24369.58108493  1553.92641146
0.32700002 24135.44207276  1306.21018683
0.32800002 23916.21074438  1534.34457296
0.32900002 23709.35514223  1525.69707565
0.33000002 23517.48678618  1167.64327423
0.33100002 23336.58060866  1278.37794628
0.33200002 23170.55646523  1736.05402537
0.33300002 23016.02157926  1614.34383002
0.33400002 22874.35199562  1379.32349065
0.33500002 22744.20542670  1604.83121091
0.33600002 22625.68792091  1258.10143642
0.33700002 22517.76736271  1484.14611716
0.33800002 22422.32218495  1368.21016452
0.33900002 22336.45709807  1480.90717573
0.34000002 22261.96524451  1480.30944904
0.34100002 22197.48257194  1480.35018283
0.34200002 22143.96121522  1595.02960187
0.34300002 22098.82696213  1482.38938282
0.34400002 22063.86815229  1255.98575405
0.34500002 22037.89792489  1372.52034776
0.34600002 22022.12375090  1490.12707418
0.34700002 22013.05316312  1723.62214430
0.34800002 22014.12212344  1382.92721729
0.34900002 22023.05156325  1618.69436656
0.35000002 22039.94766921  1276.44362972
0.35100002 22064.87458329  1281.52797649
0.35200002 22096.60847090  1638.02166353
0.35300002 22135.94863133  1998.21217759
0.35400002 22182.99028884  1417.49314659
0.35500002 22236.59411262  1424.92101823
0.35600002 22296.43344928  1193.97406776
0.35700002 22362.89391910  1320.97620637
0.35800002 22436.16112631  2416.37466776
0.35900002 22515.05414367  1337.39427948
0.36000002 22600.46876001  1713.34161785
0.36100002 22690.73347538  1355.31757468
0.36200002 22787.57515422  1737.09693629
0.36300002 22887.87073169  1249.67780114
0.36400002 22994.04366221  1762.49353019
0.36500002 23104.73759947  1268.45015429
0.36600002 23220.53728469  1661.77782949
0.36700002 23340.41958533  1546.06946657
0.36800002 23465.90318175  1688.48914342
0.36900002 23594.77960215  1571.41239594
0.37000002 23726.46055060  1584.45311062
0.37100002 23862.61248307  1597.84060756
0.37200002 24002.70017498  1477.24625225
0.37300002 24145.54850654  1625.47840246
0.37400002 24292.75404789  1366.46747992
0.37500002 24442.00751394  1516.38221800
0.37600002 24595.10528153  1947.19457738
0.37700002 24750.00490411  1403.32534454
0.37800002 24908.34901078  1557.64367918
0.37900002 25068.80168545  2000.49046927
0.38000002 25231.89304425  1442.00275579
0.38100002 25396.68617157  1600.75320523
0.38200002 25563.56499581  2056.07763002
0.38300002 25732.41784092  1926.84353921
0.38400002 25903.43422242  1795.10807666
0.38500002 26074.87020739  1660.70856218
0.38600002 26249.16663056  2285.64629264
0.38700002 26423.86998080  1691.65623631
0.38800002 26599.69099077  2017.71965570
0.38900002 26776.64292962  2036.36379127
0.39000002 26955.44346627  1580.93683420
0.39100002 27134.04576051  1914.57835957
0.39200002 27313.88197725  1932.18410261
0.39300002 27494.08715953  2599.84100498
0.39400002 27675.54828766  1967.73157648
0.39500002 27856.52230066  1985.61300366
0.39600002 28037.74021716  1836.61225994
0.39700002 28218.73139430  1684.65834406
0.39800002 28400.78335197  2209.72305339
0.39900002 28582.06912353  2229.40149726
0.40000002 28763.13993849  2768.16471883
0.40100002 28943.62425954  1919.83068810
0.40200002 29125.02511851  2464.85099256
0.40300002 29304.89297656  1953.46425837
0.40400002 29484.09701966  2686.73846822
0.40500002 29662.88049754  1987.11645868
0.40600002 29841.06659799  2003.97692234
0.40700002 30018.35772360  2939.39772757
0.40800002 30195.03624102  2778.69834174
0.40900002 30369.66530408  2428.05485611
0.41000002 30544.26691989  1883.05414483
0.41100002 30717.31984681  2847.49568472
0.41200002 30888.60543282  2296.25903668
0.41300002 31058.98545409  2507.39201452
0.41400002 31227.78631056  2527.10872692
0.41500002 31395.71240837  2350.91105653
0.41600002 31560.75764416  2763.77567786
0.41700002 31725.09057743  3182.66123753
0.41800002 31888.60627412  3006.29849894
0.41900002 32048.30444589  3230.46924122
0.42000002 32207.00921410  2644.03454672
0.42100002 32364.48384555  2663.27350185
0.42200002 32519.89084812  2476.06460650
0.42300002 32672.58081542  2909.16673366
0.42400002 32823.52381134  2092.49974213
0.42500002 32972.65826118  2739.03885155
0.42600002 33118.39665574  2969.72676884
0.42700002 33263.10806809  2349.04080308
0.42800002 33405.02524370  3009.45886681
0.42900002 33545.36125475  2812.77867450
0.43000002 33683.21979310  3919.71647307
0.43100002 33817.18237216  2629.62422587
0.43200002 33949.81725311  3307.56110262
0.43300002 34079.55411506  2440.43698583
0.43400002 34207.11711923  3348.02174670
0.43500002 34331.78764000  2694.35882167
0.43600002 34454.61155674  2936.04986294
0.43700002 34573.81701752  2498.64987426
0.43800002 34689.78997686  3654.91644517
0.43900002 34804.08210970  3445.60429215
0.44000002 34914.76807308  3233.45682448
0.44100002 35023.60107833  3250.89080615
0.44200002 35129.21745981  2801.20393300
0.44300002 35232.15571034  2346.46168151
0.44400002 35331.85361370  2358.40134048
0.44500002 35427.78766867  3318.16675030
0.44600002 35521.63666807  2381.72585147
0.44700002 35612.72601024  3350.44542183
0.44800002 35699.94167079  3125.70854112
0.44900002 35785.40858592  3381.72127164
0.45000002 35867.55381614  2426.44013066
0.45100002 35945.43896947  2924.52105316
0.45200002 36021.22367492  3426.69917060
0.45300002 36093.45731733  2949.55747176
0.45400002 36163.14995057  2961.76212132
0.45500002 36229.69695170  2478.11138894
0.45600002 36292.73704472  2985.44069079
0.45700002 36352.76179751  3246.66531001
0.45800002 36409.04504176  3509.46801790
0.45900002 36462.50442190  2767.50421679
0.46000002 36513.59423143  3787.37274116
0.46100002 36560.39244516  3040.36237984
0.46200002 36604.68509221  3050.63460017
0.46300002 36645.32669275  2805.56634457
0.46400002 36682.51070275  3582.04733990
0.46500002 36717.42297072  3336.51238349
0.46600002 36748.37159839  3089.06826297
0.46700002 36776.04072822  2839.84599963
0.46800002 36801.36228412  2588.97595940
0.46900002 36822.56332882  2855.58992149
0.47000002 36840.53060831  3904.17541626
0.47100002 36855.70091032  3392.19887256
0.47200002 36867.43312718  2615.74450435
0.47300002 36876.50774095  2621.91982465
0.47400002 36881.08124006  3416.11031178
0.47500002 36883.60070722  3423.53597991
0.47600002 36883.24437600  2902.89588620
0.47700002 36878.68256495  3437.46216481
