# SAXS profile: number of points = 501, q_min = 0, q_max = 0.5, delta_q = 0.001
#    q    intensity    error
0.00000000 1664650.74656091 324.60689558
0.00100000 1664582.02866043 848.93685478
0.00200000 1664375.82782603 973.65989011
0.00300000 1664032.30399398 1098.26135976
0.00400000 1663551.33636553 1247.66354968
0.00500000 1662933.37897767 1646.30411035
0.00600000 1662178.14861725 2094.34455252
0.00700000 1661286.34855927 2591.60681146
0.00800000 1660257.35714091 3137.88653748
0.00900000 1659092.58909818 3235.23068704
0.01000000 1657791.20117860 3555.96228007
0.01100000 1656354.36976689 4472.15699309
0.01200000 1654781.67993163 3872.18930081
0.01300000 1653074.42827236 3818.60209773
0.01400000 1651231.86394845 4829.85341616
0.01500000 1649255.75594864 5937.32098580
0.01600000 1647145.09701034 5040.26422217
0.01700000 1644901.84400543 5773.60573146
0.01800000 1642525.60723801 5149.31801040
0.01900000 1640017.16212112 6396.06722088
0.02000000 1637377.08255244 5157.73804335
0.02100000 1634607.09778677 6473.04440071
0.02200000 1631705.25733632 7318.19841164
0.02300000 1628674.55990573 8208.52015556
0.02400000 1625514.93039176 10362.65815376
0.02500000 1622227.59115030 6326.68789443
0.02600000 1618812.75820717 7211.81116767
0.02700000 1615271.54530042 7462.55488108
0.02800000 1611603.84066640 9814.66783976
0.02900000 1607812.00349944 10129.21608712
0.03000000 1603896.67261154 7458.11987046
0.03100000 1599857.77982904 10751.04477514
0.03200000 1595696.59009704 12637.91757565
0.03300000 1591415.70484942 10551.08660956
0.03400000 1587013.23608917 8331.81987390
0.03500000 1582492.47330072 10254.55170052
0.03600000 1577853.26892613 9632.79465196
0.03700000 1573097.40320038 9863.32117422
0.03800000 1568226.03406119 9174.12272383
0.03900000 1563240.57085674 10317.38824545
0.04000000 1558139.97955597 12457.32971381
0.04100000 1552928.12684851 10761.79241805
0.04200000 1547605.35314690 13974.87698725
0.04300000 1542171.70029106 11196.16706382
0.04400000 1536631.00721914 11409.48575848
0.04500000 1530982.59810566 15845.67062666
0.04600000 1525226.91730345 11828.13529354
0.04700000 1519367.46523395 16409.16938768
0.04800000 1513404.05225767 11123.52030165
0.04900000 1507339.67545526 13566.05771056
0.05000000 1501173.70860251 11483.97940557
0.05100000 1494909.51720784 16324.41268837
0.05200000 1488545.37058401 13017.32987238
0.05300000 1482086.78306419 12004.90350246
0.05400000 1475531.93261852 13390.45291296
0.05500000 1468884.85542101 16040.22336946
0.05600000 1462144.04225074 12501.33214461
0.05700000 1455314.52760382 13927.36067928
0.05800000 1448394.98669335 16663.78509998
0.05900000 1441387.23730169 14269.73431577
0.06000000 1434294.19870240 19685.68879688
0.06100000 1427117.43137235 18581.06982479
0.06200000 1419857.28834406 16101.18240245
0.06300000 1412516.86207196 14916.17876089
0.06400000 1405094.39550782 21919.47359502
0.06500000 1397596.26797074 16603.44444016
0.06600000 1390020.04506799 26542.43400245
0.06700000 1382369.05362748 15510.18150756
0.06800000 1374645.82685101 19918.61896344
0.06900000 1366851.45161237 20092.71727942
0.07000000 1358985.63763643 18815.15703416
0.07100000 1351052.65858397 18968.78021497
0.07200000 1343051.86009054 16177.06041263
0.07300000 1334988.07524146 17782.04199540
0.07400000 1326860.17332370 14927.17764944
0.07500000 1318671.02458727 19542.70550040
0.07600000 1310420.73732504 19675.96829336
0.07700000 1302114.48847887 19805.16229840
0.07800000 1293750.51338689 21463.32202364
0.07900000 1285331.28735314 23135.96425752
0.08000000 1276860.33917067 23270.78077304
0.08100000 1268337.86379028 18720.66774788
0.08200000 1259765.29212861 17252.48648528
0.08300000 1251144.96435000 18917.31274880
0.08400000 1242478.00058667 20594.07382638
0.08500000 1233767.91307023 15915.60682577
0.08600000 1225014.39636741 20782.37021014
0.08700000 1216220.56855741 28897.40206588
0.08800000 1207385.42163204 20954.17497651
0.08900000 1198514.84987106 19415.94147987
0.09000000 1189607.48017996 19485.77144070
0.09100000 1180666.38587058 26069.11502478
0.09200000 1171692.27090899 17979.61874190
0.09300000 1162688.47045498 18033.29902418
0.09400000 1153653.48057583 23015.38801915
0.09500000 1144591.53262091 21426.75449778
0.09600000 1135503.88344820 18173.74050890
0.09700000 1126393.08908435 23181.17086317
0.09800000 1117260.23272879 18250.44675972
0.09900000 1108107.34370931 16621.61093723
0.10000000 1098934.07682268 23308.39286554
0.10100000 1089742.81057903 18340.37236463
0.10200000 1080536.35891419 16694.28753046
0.10300000 1071315.29839901 21726.27527355
0.10400000 1062082.60258747 20073.36213326
0.10500000 1052840.39480388 18414.17937150
0.10600001 1043585.53662291 21774.41324620
0.10700001 1034325.73722334 21782.90105098
0.10800001 1025057.98981780 16759.69892226
0.10900001 1015786.60411793 18436.52773247
0.11000001 1006511.43107675 18434.25772786
0.11100001 997235.08037294 21779.61518058
0.11200001 987959.63155843 20095.09985192
0.11300001 978684.25972213 21756.15211792
0.11400001 969412.82082426 16722.37194658
0.11500001 960146.34831312 18377.20197206
0.11600001 950885.36945624 23363.25462775
0.11700001 941633.04552853 18333.59625986
0.11800001 932387.46325596 19971.74040358
0.11900001 923153.19439841 21601.78576640
0.12000001 913930.18458664 24881.75044742
0.12100001 904721.58249534 26490.24918337
0.12200001 895526.32921513 24783.69232862
0.12300001 886347.75600644 19783.28284614
0.12400001 877185.65032209 21381.40123404
0.12500001 868042.39275591 16406.00199615
0.12600001 858920.20981748 22907.40307531
0.12700001 849818.86181539 24474.78437369
0.12800001 840738.88153336 22775.61737414
0.12900001 831683.59946773 21083.18024020
0.13000001 822652.97697608 17781.64493547
0.13100001 813647.70312361 19332.27033749
0.13200001 804670.93222739 19263.82302563
0.13300001 795723.75026316 17593.45294773
0.13400001 786804.53368457 23899.18883741
0.13500001 777917.57937468 20630.37517770
0.13600001 769061.61435469 20545.48199622
0.13700001 760239.42259261 23605.43518457
0.13800001 751450.20712235 17234.51131306
0.13900001 742698.97357438 23395.01877086
0.14000001 733982.30924203 18628.47188709
0.14100001 725303.88019122 18538.76805203
0.14200001 716662.62045263 15372.41393375
0.14300001 708063.65469569 21411.84592794
0.14400001 699500.71637012 19778.38368831
0.14500001 690982.94692575 22698.79087726
0.14600001 682505.14055764 16554.16296516
0.14700001 674073.53184856 19453.76304691
0.14800001 665683.68651573 17853.63731466
0.14900001 657338.37082253 25143.19387024
0.15000001 649039.67677252 20581.04912153
0.15100001 640787.59240408 18992.94513504
0.15200001 632583.84447287 20324.91988199
0.15300001 624428.38195331 18751.58519493
0.15400001 616319.94950134 17195.32740255
0.15500001 608263.06574792 15656.69205124
0.15600001 600254.82831381 21204.00281091
0.15700001 592301.45033699 21056.31755327
0.15800001 584395.14322649 18119.17227094
0.15900001 576544.67159515 19371.90187996
0.16000001 568744.91491545 13735.19034354
0.16100001 561002.20752154 14995.58971491
0.16200001 553311.48352147 20292.69961609
0.16300001 545676.68165806 17450.74110324
0.16400001 538097.39783719 18645.07571529
0.16500001 530574.48006515 19816.95776602
0.16600001 523107.88498088 15724.62376493
0.16700001 515697.92441310 14295.14713967
0.16800001 508344.41987203 15463.83798265
0.16900001 501051.24542298 16609.84957006
0.17000001 493815.73267226 15199.64896937
0.17100001 486638.94255368 15066.34237291
0.17200001 479521.84654315 18665.38875813
0.17300001 472464.36448950 14797.58459462
0.17400001 465467.53749273 13440.37577984
0.17500001 458530.54193719 16947.28963038
0.17600001 451652.41273700 17987.05818676
0.17700001 444838.00503384 19003.48047259
0.17800001 438083.69964196 14115.05746915
0.17900001 431390.86471842 13977.06467706
0.18000001 424760.72910493 14991.93064190
0.18100001 418193.57996595 12558.35379959
0.18200001 411685.88177665 13560.93358631
0.18300001 405243.28175824 14540.12963635
0.18400001 398861.69785202 15495.77769358
0.18500001 392544.12180393 14237.57597044
0.18600001 386289.26617576 11918.95587095
0.18700001 380096.90956955 12862.48002752
0.18800001 373967.57263303 12722.37742206
0.18900001 367903.56843119 15727.87829354
0.19000001 361898.88474924 16589.44566074
0.19100001 355962.64719508 14352.41461306
0.19200001 350086.24155882 11148.49688922
0.19300001 344275.58843862 10018.42009696
0.19400001 338527.60088198 10892.12607307
0.19500001 332843.80410299 14678.41245457
0.19600001 327222.42479549 10636.36542061
0.19700001 321665.10893252 10508.79960545
0.19800001 316171.36529255 11325.25884000
0.19900001 310741.86257103 12118.93321301
0.20000001 305373.76252310 9207.01937521
0.20100001 300070.73887676 9092.14381768
0.20200001 294829.78052765 11670.83741379
0.20300001 289652.62912256 9749.70795708
0.20400001 284538.18486444 11374.41447758
0.20500001 279485.82136400 10363.33474602
0.20600001 274496.80104664 11080.06389798
0.20700001 269570.10573928 12615.88154494
0.20800001 264705.54211229 9958.22296499
0.20900001 259905.24381138 9824.41868048
0.21000001 255164.58406510 8075.95946743
0.21100001 250485.67759407 7965.44492405
0.21200001 245868.42259837 9426.59576806
0.21300001 241312.41401702 10069.96751299
0.21400001 236818.38493776 12219.82924050
0.21500001 232385.52857812 10541.00807466
0.21600001 228011.37910697 8163.94781490
0.21700001 223698.79600685 8046.44607280
0.21800001 219445.99615869 8650.56157758
0.21900001 215251.74870555 7103.30804314
0.22000001 211116.82572822 8398.22772456
0.22100001 207043.29334290 7583.99619375
0.22200001 203027.38638475 10186.89959354
0.22300001 199069.53815183 8026.48415782
0.22400001 195168.45029867 7245.62905996
0.22500001 191328.23998457 9080.43869906
0.22600001 187543.38861593 7663.02322122
0.22700001 183816.78901569 9429.80172243
0.22800001 180146.14962330 8044.42669185
0.22900001 176531.42791384 6699.36800615
0.23000001 172972.69388672 7192.20495194
0.23100001 169471.51330352 8846.41341281
0.23200001 166023.20046291 9284.01780896
0.23300001 162631.01719980 6850.01876842
0.23400001 159292.97618339 7299.60097884
0.23500001 156007.94864152 7179.48613605
0.23600001 152777.19779180 5431.22963838
0.23700001 149599.67504173 6942.92124707
0.23800001 146474.70091250 6301.34193130
0.23900001 143402.25590269 5162.48145668
0.24000001 140381.17213810 5582.25757411
0.24100001 137412.92006323 6484.51600451
0.24200001 134494.92431336 5392.57424542
0.24300001 131627.70426100 6262.84646499
0.24400001 128809.90652026 5207.14071740
0.24500001 126042.25366851 5116.05531842
0.24600001 123323.97997692 5026.06904172
0.24700001 120655.07598030 4937.20594267
0.24800001 118033.41585471 6171.96760702
0.24900001 115459.76342867 5195.68960009
0.25000001 112933.93201721 4677.15901576
0.25100001 110454.35422244 6680.27965941
0.25200001 108022.32881022 4919.33708675
0.25300001 105636.53670862 6037.12835852
0.25400001 103295.30255741 4346.15006072
0.25500001 100999.37570121 5429.72669459
0.25600001 98748.40079216  4948.77633984
0.25700001 96541.36134227  4856.99611893
0.25800001 94377.74571219  4033.23315384
0.25900001 92257.83076008  5397.08335483
0.26000001 90180.92692600  3883.64180182
0.26100001 88144.27319661  4503.29113069
0.26200001 86151.98299572  3398.69589000
0.26300001 84199.38116189  4668.01391249
0.26400001 82287.44515018  3598.01870944
0.26500001 80416.92145627  3529.49884973
0.26600001 78585.02900146  3776.79667253
0.26700001 76793.74360187  3704.53036665
0.26800001 75040.92762092  3633.48188734
0.26900001 73326.11781687  3860.62028575
0.27000001 71649.91518905  3786.33994734
0.27100001 70010.84041602  3142.08666656
0.27200001 68409.25939581  4202.03895724
0.27300001 66843.65917352  2747.27452204
0.27400001 65313.07601587  4310.66322105
0.27500001 63820.29150681  2906.37621277
0.27600001 62360.54104336  3886.62090447
0.27700001 60937.16487789  2795.18788524
0.27800001 59546.66798765  2990.43380787
0.27900001 58190.83432547  2932.81818881
0.28000001 56867.49121265  3355.75081528
0.28100001 55577.08675144  2350.91088085
0.28200001 54319.42378072  2536.44561349
0.28300001 53093.53189324  2261.78456570
0.28400001 51899.15861266  2884.29587641
0.28500001 50735.95439674  2611.88705597
0.28600001 49602.56614533  2776.00774572
0.28700001 48499.72061962  2514.22563593
0.28800001 47425.87784859  2261.50309225
0.28900001 46382.64856668  2421.17436978
0.29000001 45366.80723599  1980.26122959
0.29100001 44380.47236292  2138.25125966
0.29200001 43421.30014262  2480.87610108
0.29300001 42489.68745420  2248.55436651
0.29400001 41584.86822853  2208.15660746
0.29500001 40707.87376240  3434.11639316
0.29600001 39855.61468196  2663.35157720
0.29700001 39029.10420110  1919.06114441
0.29800001 38228.42858045  2228.90863390
0.29900001 37452.83979786  2359.52901896
0.30000001 36701.35394273  1657.06620896
0.30100001 35974.84989408  2444.49116603
0.30200001 35270.65798099  1603.05148113
0.30300001 34590.50734288  2208.25809331
0.30400001 33933.81919555  2328.70845254
0.30500001 33298.45717344  1681.23918228
0.30600001 32685.44497009  1655.68129334
0.30700001 32094.71523727  1927.60868841
0.30800001 31524.81241554  1607.29263710
0.30900001 30975.98927302  1584.42192633
0.31000001 30448.43930402  1846.54568902
0.31100001 29939.40472099  1681.39704874
0.31200001 29451.36037318  1659.28972199
0.31300001 28982.10382022  2184.09144730
0.31400001 28533.24210191  1483.01532846
0.31500001 28102.28518218  1864.86773299
0.31600002 27689.54486027  1579.96550453
0.31700002 27294.47264448  1432.14104746
0.31800002 26917.53336573  1416.80443579
0.31900002 26558.08400028  2039.66094780
0.32000002 26215.03890377  1388.47960128
0.32100002 25889.21320261  1250.44905689
0.32200002 25579.75410834  1239.33914523
0.32300002 25285.52431344  1474.65184779
0.32400002 25007.13049170  1706.73673687
0.32500002 24743.56385050  1693.94446142
0.32600002 24495.65892938  1561.96576559
0.32700002 24261.97078301  1551.79572476
0.32800002 24043.43987466  1542.50695820
0.32900002 23837.54844549  1297.95457432
0.33000002 23647.00206378  1174.07370806
0.33100002 23467.55749814  1519.28974437
0.33200002 23303.42887310  1280.40696007
0.33300002 23150.88228233  1623.80296018
0.33400002 23011.46204421  1271.95862473
0.33500002 22883.86202690  1384.01604093
0.33600002 22768.08786384  2071.66841284
0.33700002 22663.17803312  1263.92549876
0.33800002 22570.98672074  1147.73472910
0.33900002 22488.61175532  1490.99502999
0.34000002 22417.62095044  1490.65977569
0.34100002 22357.04642755  1490.99149686
0.34200002 22307.58784765  1262.49799403
0.34300002 22266.61441819  1608.54030175
0.34400002 22236.14999225  1380.86497992
0.34500002 22214.82298910  1152.94936774
0.34600002 22203.77765630  1271.27734992
0.34700002 22199.64947297  1390.58610885
0.34800002 22205.81656216  1976.20673855
0.34900002 22219.96872462  1283.20325462
0.35000002 22242.28177161  1288.16180981
0.35100002 22272.79937591  1646.40540785
0.35200002 22310.14823863  1535.71912674
0.35300002 22355.37276422  1305.77738500
0.35400002 22408.31897553  1431.89165036
0.35500002 22467.94704617  1199.78842909
0.35600002 22533.95192567  2051.37841072
0.35700002 22606.78168086  1820.97635064
0.35800002 22686.41019819  1465.99589644
0.35900002 22771.75774625  1967.47996247
0.36000002 22863.72852556  1361.87805413
0.36100002 22960.69036101  1371.44210022
0.36200002 23064.24227478  1255.84805135
0.36300002 23171.41062413  1771.22271201
0.36400002 23284.49708319  1402.30890326
0.36500002 23402.06051926  1413.25050170
0.36600002 23524.88080008  1295.04474939
0.36700002 23651.86616408  1566.69968892
0.36800002 23784.51793672  1711.41506920
0.36900002 23920.47398392  1725.86227969
0.37000002 24059.38134766  1740.57602605
0.37100002 24202.67605447  1755.66220416
0.37200002 24350.07110269  1907.34115982
0.37300002 24500.21730608  1511.90848158
0.37400002 24654.73213984  1941.56024799
0.37500002 24811.24476238  1959.09597924
0.37600002 24971.76344872  1835.79927690
0.37700002 25133.90510520  1567.60173567
0.37800002 25299.52651469  1582.10596554
0.37900002 25467.39382022  1741.96981982
0.38000002 25637.72604396  1465.19611282
0.38100002 25809.78386218  2366.24109658
0.38200002 25984.02818133  1940.61723666
0.38300002 26160.13004315  1958.87063043
0.38400002 26338.36327295  1825.24866128
0.38500002 26517.08216518  1688.87304311
0.38600002 26698.49068403  1704.83220339
0.38700002 26880.26808472  2190.20434730
0.38800002 27063.21357114  2210.79402136
0.38900002 27247.21716515  2072.15096358
0.39000002 27432.96887347  1769.83807072
0.39100002 27618.48757453  1948.76057558
0.39200002 27805.18228572  1966.93868808
0.39300002 27992.16610124  1819.77080446
0.39400002 28180.41365189  2170.59646437
0.39500002 28368.03551323  1853.56752825
0.39600002 28555.84008323  2040.60042903
0.39700002 28743.35879601  1887.57646156
0.39800002 28931.96084166  1731.57793841
0.39900002 29119.61501609  2446.04777724
0.40000002 29306.82990691  2115.36708291
0.40100002 29493.57479929  2312.00143806
0.40200002 29681.09908631  1973.64477725
0.40300002 29866.89271294  2714.90067624
0.40400002 30052.08136357  2373.36323814
0.40500002 30236.60301444  2393.83197407
0.40600002 30420.54504920  2042.89179957
0.40700002 30603.42245997  2434.80840628
0.40800002 30785.49859759  2077.55947130
0.40900002 30965.59478415  2285.26100335
0.41000002 31145.48465887  2496.15498626
0.41100002 31323.68741624  2129.38437145
0.41200002 31499.91900957  2536.84609764
0.41300002 31675.24185127  2557.14239582
0.41400002 31848.81564241  2775.62441475
0.41500002 32021.34809020  2997.19832326
0.41600002 32190.95747405  2214.89893395
0.41700002 32359.66649624  2840.53165964
0.41800002 32527.46923420  2862.09215354
0.41900002 32691.33097655  2265.50934402
0.42000002 32854.09651819  2697.15718146
0.42100002 33015.37139393  2716.83504074
0.42200002 33174.52587279  2946.89327292
0.42300002 33330.79079497  3179.75759251
0.42400002 33485.17302469  2561.61585777
0.42500002 33637.62174908  2149.44413162
0.42600002 33786.48578425  2380.42696873
0.42700002 33934.21360340  2396.43427823
0.42800002 34079.00264879  2412.28231680
0.42900002 34222.03620493  2869.51787176
0.43000002 34362.47604592  2443.68759981
0.43100002 34498.90539946  3129.74084615
0.43200002 34633.75446105  2699.35495061
0.43300002 34765.65061038  2489.56835819
0.43400002 34895.19351976  2959.98493058
0.43500002 35021.63040113  2519.45621045
0.43600002 35146.12034068  3225.35961651
0.43700002 35266.85666131  3012.14237018
0.43800002 35384.15778337  2563.05159050
0.43900002 35499.61425326  2577.27211692
0.44000002 35611.37428613  3533.53878099
0.44100002 35721.10967450  3078.80258875
0.44200002 35827.41536124  2856.87823629
0.44300002 35930.95627989  3350.20252230
0.44400002 36031.03529520  2405.07171993
0.44500002 36127.19879103  2416.90971366
0.44600002 36221.19082465  2671.49405588
0.44700002 36312.25540886  3172.23878285
0.44800002 36399.16462564  2941.78062446
0.44900002 36484.29114872  2708.95874617
0.45000002 36565.93635629  3957.89713878
0.45100002 36643.14809147  4223.48944918
0.45200002 36718.11657597  2494.99613958
0.45300002 36789.29478618  3507.49153114
0.45400002 36857.84085548  3270.21208489
0.45500002 36923.05080701  3030.64415387
0.45600002 36984.71930098  2788.83289106
0.45700002 37043.09288388  3308.31878225
0.45800002 37097.61546991  2809.58804077
0.45900002 37149.16698119  2563.29264319
0.46000002 37198.13699340  3086.70155400
0.46100002 37242.63123179  3613.28025336
0.46200002 37284.54469376  3107.29410205
0.46300002 37322.78824226  2597.66618478
0.46400002 37357.28800709  3126.80515439
0.46500002 37389.41884264  3920.28075145
0.46600002 37417.36691160  3407.41267930
0.46700002 37441.89314796  4468.31574006
0.46800002 37464.02184944  3953.39109304
0.46900002 37481.81206200  2642.46787561
0.47000002 37496.21112075  2914.01818536
0.47100002 37507.71978255  3717.76536106
0.47200002 37515.63242801  3992.60137039
0.47300002 37520.85905466  2934.50652575
0.47400002 37521.29024394  2673.39205659
0.47500002 37519.58447520  3214.67815020
0.47600002 37514.91753061  2952.61172419
0.47700002 37505.82876571  3764.83526995
