# SAXS profile: number of points = 501, q_min = 0, q_max = 0.5, delta_q = 0.001
#    q    intensity    error
0.00000000 1646666.22097351 321.09991309
0.00100000 1646598.28470065 493.97949714
0.00200000 1646394.41826835 1333.57952103
0.00300000 1646054.79660146 1382.68607840
0.00400000 1645579.29087342 1851.27677258
0.00500000 1644968.32500275 1628.51870621
0.00600000 1644221.69772342 1899.07613819
0.00700000 1643339.94705287 2563.61042395
0.00800000 1642322.67141975 3769.13069004
0.00900000 1641171.09085831 3200.28376398
0.01000000 1639884.46167280 2976.39042646
0.01100000 1638463.97011562 3244.15880208
0.01200000 1636909.04287994 3511.17005092
0.01300000 1635221.11420162 4464.15383866
0.01400000 1633399.51484550 5512.72360699
0.01500000 1631445.83461057 4698.56421290
0.01600000 1629359.02159279 4985.83882896
0.01700000 1627141.18572557 4832.60953839
0.01800000 1624791.93992145 5093.72296086
0.01900000 1622311.96012728 5353.62970999
0.02000000 1619701.76885119 5612.26688294
0.02100000 1616963.05916076 6403.17400459
0.02200000 1614094.12091556 8352.93745523
0.02300000 1611097.83365824 7539.93820473
0.02400000 1607973.94699294 6029.90257617
0.02500000 1604723.78611646 8761.79227235
0.02600000 1601347.74917304 9079.64215310
0.02700000 1597846.53055109 10066.43360353
0.02800000 1594220.20783387 8321.82986653
0.02900000 1590471.54565791 8588.54674089
0.03000000 1586600.35998544 8115.46121435
0.03100000 1582607.22890396 9875.46956276
0.03200000 1578492.99786544 10938.95697904
0.03300000 1574260.58570580 8831.60229295
0.03400000 1569907.86890621 9066.21836125
0.03500000 1565438.28045830 9298.70381532
0.03600000 1560851.51557359 14726.63473001
0.03700000 1556149.24259847 11531.06642094
0.03800000 1551333.20541261 10890.35960600
0.03900000 1546403.88497561 13917.63560931
0.04000000 1541360.91266497 10427.30705737
0.04100000 1536207.88318223 9678.11011279
0.04200000 1530945.21122334 10862.05677755
0.04300000 1525572.84335098 14096.29372688
0.04400000 1520094.56564644 10260.63879464
0.04500000 1514510.02095363 16720.19140823
0.04600000 1508819.38019589 14892.04797482
0.04700000 1503025.76957725 12986.14325311
0.04800000 1497129.69242468 14305.07487671
0.04900000 1491133.55589558 11183.50218978
0.05000000 1485036.95631552 13632.63989380
0.05100000 1478843.43945081 14995.47317458
0.05200000 1472550.82947812 14048.13556788
0.05300000 1466165.02785693 11875.93727927
0.05400000 1459683.76571686 22880.54409462
0.05500000 1453111.56565941 18309.20658142
0.05600000 1446446.63644300 13603.83125056
0.05700000 1439693.85161634 20040.53934996
0.05800000 1432852.00970873 19021.11131702
0.05900000 1425923.14696454 17966.63249090
0.06000000 1418909.82270271 16877.93312957
0.06100000 1411813.32399517 23633.75614812
0.06200000 1404634.56890294 18583.31621524
0.06300000 1397376.52026563 17439.25978829
0.06400000 1390037.26330864 17618.72313641
0.06500000 1382623.26100849 16425.56510913
0.06600000 1375131.94608602 24876.13806861
0.06700000 1367566.64684311 15344.09849567
0.06800000 1359929.95731370 15482.80328875
0.06900000 1352222.90208395 15618.17525030
0.07000000 1344444.84275090 20045.67354412
0.07100000 1336600.81346975 21652.93419238
0.07200000 1328689.52353102 23278.64154279
0.07300000 1320715.46931589 14659.94239631
0.07400000 1312678.77912667 14767.63695725
0.07500000 1304580.77508793 25282.77660627
0.07600000 1296422.37654420 23957.88664170
0.07700000 1288208.75132875 24115.26895560
0.07800000 1279938.36689536 16683.99739490
0.07900000 1271612.64915850 22889.02875843
0.08000000 1263236.38114080 16883.15502595
0.08100000 1254808.95133768 23151.22623839
0.08200000 1246331.31912099 18620.19078142
0.08300000 1237806.71747727 15596.36537218
0.08400000 1229236.10804914 20374.58944727
0.08500000 1220623.11202034 20469.85054954
0.08600000 1211966.68403395 20561.01576001
0.08700000 1203270.65525321 15883.17339518
0.08800000 1194533.35203574 23920.53149791
0.08900000 1185760.89419535 19209.32738822
0.09000000 1176952.64248836 17671.94475711
0.09100000 1168110.37945233 24179.88599066
0.09200000 1159235.41916221 19405.60182858
0.09300000 1150331.33345283 21085.57433305
0.09400000 1141395.92587681 24397.33906223
0.09500000 1132434.40154287 16307.05614869
0.09600000 1123446.80833941 26153.84292758
0.09700000 1114436.73940173 19658.66500725
0.09800000 1105404.60140538 24622.88865402
0.09900000 1096352.59320743 16445.28967141
0.10000000 1087280.01353673 24708.43946959
0.10100000 1078190.24217420 18145.94262923
0.10200000 1069085.06916483 24776.04764327
0.10300000 1059965.20218194 19842.54951825
0.10400000 1050833.81590974 18205.69671712
0.10500000 1041693.23445068 18219.21552774
0.10600001 1032539.89163344 16572.26604050
0.10700001 1023381.61234556 18236.66119017
0.10800001 1014215.18671843 21557.14480822
0.10900001 1005045.18271955 16583.24629537
0.11000001 995871.56835558 16581.26239359
0.11100001 986696.40971447 26522.40074162
0.11200001 977522.64270668 18225.91053129
0.11300001 968348.03554140 18214.62740609
0.11400001 959178.28756118 19854.99148738
0.11500001 950012.16862845 19836.25501501
0.11600001 940852.09703602 18163.15058861
0.11700001 931700.17433453 16491.09386237
0.11800001 922555.15237986 19761.13229469
0.11900001 913420.90302786 19729.89243471
0.12000001 904297.98517612 22978.21288571
0.12100001 895189.14864108 21296.55084941
0.12200001 886093.80302927 27792.33344135
0.12300001 877014.54071169 19574.96547095
0.12400001 867951.56950557 17901.50196453
0.12500001 858906.68274732 27596.67301704
0.12600001 849883.16241630 22666.38500976
0.12700001 840880.14418827 22602.85934097
0.12800001 831898.31149900 20926.40301200
0.12900001 822940.17412623 20861.53439735
0.13000001 814006.37470018 19194.27122015
0.13100001 805097.75804523 23911.40454107
0.13200001 796217.37754729 20649.89866013
0.13300001 787366.12074531 17408.66575038
0.13400001 778542.63075836 17342.03791774
0.13500001 769750.55876942 15702.91213926
0.13600001 760988.92566214 17202.15547569
0.13700001 752261.28384869 20243.35210291
0.13800001 743565.99842551 18604.02215789
0.13900001 734907.59212201 16976.36617859
0.14000001 726284.08176165 24577.45448590
0.14100001 717697.51971203 21401.74104718
0.14200001 709148.04270852 16732.34885689
0.14300001 700639.92518988 19673.97002731
0.14400001 692168.06782025 16560.12180374
0.14500001 683740.62148531 14973.92031688
0.14600001 675352.34557020 14891.51992232
0.14700001 667009.70681810 25172.94752289
0.14800001 658708.12828797 22083.19104271
0.14900001 650450.74980218 16098.65681715
0.15000001 642239.28239568 16001.39247588
0.15100001 634074.13909712 18793.95836963
0.15200001 625956.34795854 15802.26874988
0.15300001 617886.15904505 17127.80513697
0.15400001 609862.67465426 18433.10021130
0.15500001 601890.23960548 18309.50195288
0.15600001 593965.23056110 19583.03457582
0.15700001 586094.80666234 13890.44757348
0.15800001 578270.94183493 13791.76261372
0.15900001 570502.01042510 13692.04889648
0.16000001 562783.07734332 14950.33315532
0.16100001 555120.56715802 16187.31650244
0.16200001 547509.32947342 22757.22635384
0.16300001 539953.91306671 14611.15357735
0.16400001 532452.84828652 15813.85034068
0.16500001 525007.14146457 18301.74981550
0.16600001 517617.48247718 18152.84596753
0.16700001 510283.27801460 18002.79489835
0.16800001 503005.69716657 14026.31452776
0.16900001 495787.14338220 20228.11640513
0.17000001 488625.39749459 18799.86305633
0.17100001 481521.93539454 13665.59317180
0.17200001 474477.15278195 17237.75577458
0.17300001 467491.00699483 12201.51585878
0.17400001 460565.55570162 15716.80033056
0.17500001 453698.80179768 14373.17871976
0.17600001 446890.57302647 17797.41791134
0.17700001 440144.98852403 15277.43327323
0.17800001 433458.71066984 16293.71370367
0.17900001 426833.15762346 11524.49580018
0.18000001 420269.71059480 17115.48477242
0.18100001 413768.39073774 15814.22864100
0.18200001 407325.69706674 12299.20000392
0.18300001 400947.32520238 12172.76136818
0.18400001 394629.55799891 16426.45612770
0.18500001 388374.73960691 15169.91804570
0.18600001 382182.00927402 13936.26762657
0.18700001 376050.95370780 16967.41983292
0.18800001 369982.35006796 14684.60016799
0.18900001 363978.05764609 10373.37513303
0.19000001 358032.29627338 17437.96381392
0.19100001 352154.45768362 14198.86840470
0.19200001 346335.14713014 11029.04328150
0.19300001 340581.62846409 11893.11102795
0.19400001 334889.78651931 12734.18473414
0.19500001 329261.35819484 12584.36970488
0.19600001 323694.26876442 11478.19931280
0.19700001 318190.95341431 16065.46199710
0.19800001 312750.10744758 12136.26849305
0.19900001 307372.97646424 9221.18972972
0.20000001 302056.49064276 16392.60652192
0.20100001 296804.54545540 10791.81378280
0.20200001 291613.18268472 12431.47056540
0.20300001 286485.35382942 9643.09746568
0.20400001 281419.51849735 11249.74578366
0.20500001 276415.13325998 9395.35082360
0.20600001 271473.63966839 15172.66243825
0.20700001 266592.95416329 12476.55084460
0.20800001 261774.24170235 8206.62286530
0.20900001 257019.03348941 8905.70993139
0.21000001 252322.32427109 11180.40271698
0.21100001 247686.98724008 10239.38053656
0.21200001 243112.72469124 10874.43268952
0.21300001 238598.73022474 9190.82352276
0.21400001 234145.67524114 12837.03725199
0.21500001 229753.54614754 11166.02287067
0.21600001 225420.08051950 7337.42396781
0.21700001 221146.40581203 9400.93415554
0.21800001 216932.43653328 8551.47705246
0.21900001 212776.23662036 9830.26259665
0.22000001 208678.43486159 8301.22853130
0.22100001 204641.39718500 8177.47061817
0.22200001 200661.31333762 10068.18187278
0.22300001 196738.75324889 7932.50690609
0.22400001 192872.36945614 8462.27561004
0.22500001 189066.07388429 7050.27422853
0.22600001 185314.30531022 7571.94287304
0.22700001 181620.45946711 6832.56200826
0.22800001 177981.64883495 7947.77090458
0.22900001 174398.34558917 6618.41752810
0.23000001 170870.52683336 8880.99605216
0.23100001 167399.14085434 6990.58845268
0.23200001 163980.38686132 7450.44922940
0.23300001 160616.95095318 7328.95181861
0.23400001 157307.33617169 6654.10063477
0.23500001 154049.55159096 5998.68982267
0.23600001 150846.15388976 6435.09722930
0.23700001 147695.03785453 6854.52703103
0.23800001 144595.62656608 5702.12880334
0.23900001 141548.38950105 6114.89071568
0.24000001 138552.10669972 6511.25656234
0.24100001 135607.95217755 8860.62401440
0.24200001 132713.51924213 5804.88960623
0.24300001 129869.22199508 5703.85649983
0.24400001 127073.79069404 6537.94684048
0.24500001 124327.87753111 5964.00856729
0.24600001 121630.91416387 6308.99581613
0.24700001 118982.73892560 6639.23714612
0.24800001 116381.30893944 6954.94735124
0.24900001 113827.19638543 4268.52006639
0.25000001 111320.51592172 8382.43524546
0.25100001 108859.56856873 4526.38107523
0.25200001 106445.87113114 4847.54520065
0.25300001 104077.65079366 4361.89455113
0.25400001 101753.42030846 4670.48221312
0.25500001 99474.15714825  5729.71172282
0.25600001 97239.22854181  4873.14416893
0.25700001 95047.81357227  4414.02067114
0.25800001 92899.50179164  3970.06039691
0.25900001 90794.13955725  4957.36025438
0.26000001 88731.74571172  5558.15681437
0.26100001 86708.85192723  4089.18965037
0.26200001 84729.38212943  5348.11885307
0.26300001 82789.76806455  3606.32246753
0.26400001 80890.38014653  4501.54986816
0.26500001 79031.61169267  3784.03374690
0.26600001 77211.34980720  4638.47205916
0.26700001 75431.16204605  3335.56614352
0.26800001 73689.21602790  3865.36800966
0.26900001 71984.69370153  3498.45627945
0.27000001 70318.44222056  4001.82273615
0.27100001 68688.84475243  3643.25649808
0.27200001 67096.30441879  3571.87193477
0.27300001 65539.37034548  4579.23602275
0.27400001 64017.17915863  3168.85051832
0.27500001 62532.23657700  2847.71818849
0.27600001 61079.85102833  2537.86793033
0.27700001 59663.75645313  3234.37239040
0.27800001 58280.30294196  2682.93387291
0.27900001 56930.88255799  2630.20689866
0.28000001 55613.76515673  3047.35640599
0.28100001 54329.22278657  2527.93885590
0.28200001 53076.94172149  3154.36279580
0.28300001 51856.25027689  3313.61454953
0.28400001 50666.79816183  3249.00858591
0.28500001 49508.00574395  2548.67225633
0.28600001 48378.80294789  2707.51983513
0.28700001 47279.86041136  2450.98807974
0.28800001 46209.49396438  2403.81798981
0.28900001 45169.35682326  2161.35382630
0.29000001 44156.46455137  2505.65869957
0.29100001 43173.23334215  1890.98770990
0.29200001 42216.20078700  2597.56295738
0.29300001 41286.68442190  1820.74286919
0.29400001 40383.74563759  2323.07507777
0.29500001 39508.48893861  2455.84778868
0.29600001 38657.51213172  1894.41147169
0.29700001 37832.13924542  2198.42571562
0.29800001 37032.40859100  1993.08432472
0.29900001 36257.28214497  2121.05110589
0.30000001 35506.25776204  1603.10761385
0.30100001 34779.69434272  2048.17629680
0.30200001 34075.67170919  1703.61328775
0.30300001 33395.15570552  2284.22875840
0.30400001 32737.92980416  1797.31243134
0.30500001 32102.00045350  1620.83007963
0.30600001 31488.13914635  2030.04042687
0.30700001 30896.19407353  1570.14465715
0.30800001 30325.02330400  1405.56489669
0.30900001 29774.63287328  2076.78074123
0.31000001 29245.59923095  1500.73799559
0.31100001 28734.66142397  1479.26044014
0.31200001 28244.65784668  1723.91277329
0.31300001 27773.01429443  1438.91993872
0.31400001 27321.92512016  1549.15322766
0.31500001 26888.62750876  1401.97310469
0.31600002 26473.16009327  1384.67870424
0.31700002 26075.32238787  1616.93081783
0.31800002 25695.38681593  1844.28647604
0.31900002 25332.88684820  1580.77221418
0.32000002 24986.73861355  1684.35612969
0.32100002 24657.66437823  1786.44786879
0.32200002 24344.79155634  1297.45572743
0.32300002 24047.02530562  1519.29113075
0.32400002 23764.92859803  1158.54032401
0.32500002 23497.78162880  1263.94573366
0.32600002 23245.97076086  1824.34387170
0.32700002 23008.48923629  1245.21949643
0.32800002 22785.74957015  1461.81983289
0.32900002 22575.90130729  1341.00860115
0.33000002 22381.01068387  1333.46067969
0.33100002 22197.34474781  1215.97060287
0.33200002 22028.99203018  1100.34820401
0.33300002 21872.04506710  1205.36846073
0.33400002 21728.40816978  1091.85256224
0.33500002 21596.24006165  1197.29560572
0.33600002 21475.99668573  1194.17285226
0.33700002 21366.48855497  1299.93722525
0.33800002 21269.75677805  1189.72390172
0.33900002 21182.69840187  1296.38120359
0.34000002 21107.23320211  1187.59853236
0.34100002 21041.86227576  1079.44758587
0.34200002 20987.56522774  1403.75336674
0.34300002 20941.90943562  1188.66283586
0.34400002 20906.80500472  1514.69809433
0.34500002 20880.72595155  1300.45167385
0.34600002 20865.03232638  1411.83247923
0.34700002 20856.14437388  1197.55986667
0.34800002 20857.49934907  1201.07915690
0.34900002 20866.93653988  1205.06564225
0.35000002 20884.55726481  1319.48639048
0.35100002 20910.38866388  1214.47543112
0.35200002 20943.27995491  1330.73607136
0.35300002 20983.81933937  1448.51311760
0.35400002 21032.24730817  1231.96394443
0.35500002 21087.45710564  1238.67728905
0.35600002 21148.88498830  1698.78426715
0.35700002 21217.24590666  1253.30277507
0.35800002 21292.51026597  1261.26190534
0.35900002 21373.48089865  1269.58482551
0.36000002 21461.38458109  1626.98764216
0.36100002 21554.00142292  1287.42056597
0.36200002 21653.51377224  1296.93726882
0.36300002 21756.54044815  1187.90716474
0.36400002 21865.70877011  1316.86237306
0.36500002 21979.36934748  1448.00092120
0.36600002 22098.44099064  1946.43077465
0.36700002 22221.66267616  1349.29942161
0.36800002 22350.76580885  1608.24942996
0.36900002 22483.24805167  1996.51252156
0.37000002 22618.74556819  2139.84652584
0.37100002 22758.67959441  2539.86876305
0.37200002 22902.78523016  1409.55198376
0.37300002 23049.94962146  1681.03290552
0.37400002 23201.45840852  1566.09851676
0.37500002 23355.14820405  1448.95346322
0.37600002 23512.92593064  1462.62162680
0.37700002 23672.33114217  1342.22123934
0.37800002 23835.63231239  1355.05576115
0.37900002 24001.20300988  1504.87550001
0.38000002 24169.26039870  1519.40062694
0.38100002 24339.28664155  1673.56942875
0.38200002 24511.55276363  1830.64540488
0.38300002 24685.74753790  1421.89912554
0.38400002 24862.49773601  1866.55210596
0.38500002 25039.65410875  1884.73485405
0.38600002 25219.84558437  1756.81452664
0.38700002 25400.51067154  2217.46468668
0.38800002 25582.40497031  1791.28008088
0.38900002 25765.51465823  1959.46748259
0.39000002 25950.63620955  1826.40586296
0.39100002 26135.64960417  1690.45389649
0.39200002 26322.00969425  2172.35556299
0.39300002 26508.89378173  1880.01083607
0.39400002 26697.06276476  1581.80104375
0.39500002 26884.91818636  1916.35705912
0.39600002 27073.06983614  1612.20138512
0.39700002 27261.14885646  1952.98879661
0.39800002 27450.42881463  1807.19906663
0.39900002 27638.99404786  1990.00766573
0.40000002 27827.48827183  1841.20584874
0.40100002 28015.36529599  2027.19192886
0.40200002 28204.48460115  2386.94564489
0.40300002 28392.02180667  3097.00188541
0.40400002 28579.03288186  2430.64686177
0.40500002 28765.69066578  2277.37983791
0.40600002 28951.93909394  2297.77075506
0.40700002 29137.13876508  1961.51227460
0.40800002 29322.10035099  2158.69313012
0.40900002 29505.03607406  2177.47176544
0.41000002 29687.93748382  2013.28757586
0.41100002 29869.48093089  2584.30761259
0.41200002 30049.28515418  2047.70863386
0.41300002 30228.30525343  2440.33119874
0.41400002 30405.79507626  2271.31299982
0.41500002 30582.48698779  2099.18200631
0.41600002 30756.40744128  2885.72006491
0.41700002 30929.82355683  1939.30002890
0.41800002 31102.30995886  2736.69238296
0.41900002 31271.18232019  2167.09303748
0.42000002 31439.06248962  2382.45226835
0.42100002 31605.85417949  2600.84586367
0.42200002 31770.48452055  2822.17227369
0.42300002 31932.80119978  2234.01887780
0.42400002 32093.15052274  2659.71997560
0.42500002 32251.79076119  2679.15638549
0.42600002 32407.16695094  2490.81496988
0.42700002 32561.72639228  2508.55552013
0.42800002 32713.41029957  2526.12966304
0.42900002 32863.61187217  2543.64367944
0.43000002 33011.35257549  2347.60244965
0.43100002 33155.27283609  3007.84649422
0.43200002 33297.96214384  2811.51356685
0.43300002 33437.79317225  3265.20065800
0.43400002 33575.50666633  2190.80191380
0.43500002 33710.26619566  3086.51211914
0.43600002 33843.46789689  2883.97125350
0.43700002 33972.92544774  2678.42556923
0.43800002 34099.31130694  3143.61565836
0.43900002 34224.04053360  2710.54413871
0.44000002 34345.26450300  2499.13328999
0.44100002 34464.56275375  2742.00074263
0.44200002 34580.61549780  2987.24661134
0.44300002 34694.34469620  2772.77215952
0.44400002 34804.67139167  3252.49669569
0.44500002 34911.22187508  3269.78519578
0.44600002 35015.82147285  2582.59203512
0.44700002 35117.76553125  3067.88814220
0.44800002 35215.74230376  2608.95839222
0.44900002 35311.99910514  2383.56005256
0.45000002 35405.08036551  3353.21532033
0.45100002 35493.79184889  2887.77504168
0.45200002 35580.52686495  2659.46660656
0.45300002 35663.71807577  2671.56924767
0.45400002 35744.39869327  2927.46639172
0.45500002 35821.88932223  3675.32601865
0.45600002 35895.90165517  4183.12909764
0.45700002 35966.98946238  2965.11875181
0.45800002 36034.38318254  2480.96739970
0.45900002 36098.87877405  3487.15185484
0.46000002 36161.10305854  4000.86463202
0.46100002 36218.89139509  3513.95700969
0.46200002 36274.35103885  2771.17917895
0.46300002 36326.07063062  2781.12409929
0.46400002 36374.41319113  2790.82698436
0.46500002 36420.37371190  3818.67636468
0.46600002 36462.45789602  2809.61482634
0.46700002 36501.34763809  2562.39472564
0.46800002 36537.62685605  2570.42217115
0.46900002 36570.11787770  2836.01277583
0.47000002 36599.04807990  3878.58430410
0.47100002 36625.29824559  2852.37836256
0.47200002 36648.15164999  3380.24242765
0.47300002 36668.22321203  3910.66619092
0.47400002 36683.90227017  3659.21942489
0.47500002 36697.47719841  2882.21999577
0.47600002 36708.07772098  3677.04831959
0.47700002 36714.51247738  3422.15987022
