# SAXS profile: number of points = 501, q_min = 0, q_max = 0.5, delta_q = 0.001
#    q    intensity    error
0.00000000 1664650.74656091 274.66737318
0.00100000 1664582.22694376 649.18708393
0.00200000 1664376.61833541 748.96950197
0.00300000 1664034.07395658 1297.94662392
0.00400000 1663554.49432802 1746.73228542
0.00500000 1662938.30053277 1646.30898269
0.00600000 1662185.26295956 2268.88297631
0.00700000 1661295.94674944 2192.91074085
0.00800000 1660269.94569024 3362.04678197
0.00900000 1659108.49145549 2488.66284357
0.01000000 1657810.81922556 3829.54315777
0.01100000 1656378.12739424 3577.77691095
0.01200000 1654809.85985758 3549.56730502
0.01300000 1653107.43852469 4860.13608362
0.01400000 1651270.17493176 4829.96547579
0.01500000 1649299.71864686 4354.15145111
0.01600000 1647194.95033128 5040.41677334
0.01700000 1644958.04486525 5773.80299648
0.01800000 1642588.55511814 5617.65311128
0.01900000 1640087.20326046 4920.26183180
0.02000000 1637454.54905368 6705.37668170
0.02100000 1634692.21276405 6473.38145604
0.02200000 1631798.57281335 7318.61693157
0.02300000 1628776.41518122 7622.67397002
0.02400000 1625625.52438652 7315.31519330
0.02500000 1622347.30000666 6959.87023489
0.02600000 1618942.02163032 7868.05858499
0.02700000 1615410.54507577 9498.61444009
0.02800000 1611752.88343728 7011.12536448
0.02900000 1607971.62720367 15195.33257476
0.03000000 1604066.87394949 7458.91130672
0.03100000 1600039.09367752 9984.24440395
0.03200000 1595889.13344571 10269.54704672
0.03300000 1591619.91945750 8928.98815979
0.03400000 1587229.37100007 9999.54549868
0.03500000 1582720.80704960 10256.03130329
0.03600000 1578094.01573995 13137.63328817
0.03700000 1573350.75762885 9864.90970656
0.03800000 1568492.52772707 10093.24988303
0.03900000 1563520.17200594 15009.79434636
0.04000000 1558433.08028275 13418.10944302
0.04100000 1553234.90270207 13699.53247703
0.04200000 1547925.95753347 9984.12288928
0.04300000 1542506.48144799 17306.92352520
0.04400000 1536980.04144263 11412.07733771
0.04500000 1531346.21348373 15849.43404600
0.04600000 1525605.44047460 13982.17451194
0.04700000 1519760.66860077 12036.50505511
0.04800000 1513812.53618245 12239.17492450
0.04900000 1507763.34116018 14700.69326059
0.05000000 1501612.76663355 12636.07201963
0.05100000 1495364.25066518 15162.99420810
0.05200000 1489015.79012315 14205.21129976
0.05300000 1482573.05287167 18013.26343213
0.05400000 1476034.11142818 19483.65117945
0.05500000 1469403.29618932 12342.98826378
0.05600000 1462678.70840535 16257.67460258
0.05700000 1455865.51939343 15199.23673195
0.05800000 1448962.40246188 15387.98143265
0.05900000 1441971.22426234 15573.28994940
0.06000000 1434894.82794029 15755.14594685
0.06100000 1427734.54731064 18589.10467468
0.06200000 1420491.00083145 14766.00464386
0.06300000 1413167.35645416 14923.04798189
0.06400000 1405761.74462997 17818.03094648
0.06500000 1398280.46204349 19380.16811048
0.06600000 1390721.09024249 18169.77189416
0.06700000 1383086.93223007 14107.48736896
0.06800000 1375380.76705875 15658.71076593
0.06900000 1367603.24922784 15795.81826812
0.07000000 1359754.07536240 20273.93421305
0.07100000 1351838.20274835 17519.82392821
0.07200000 1343854.18863224 16186.72446037
0.07300000 1335806.79865515 20758.43862375
0.07400000 1327696.03139048 16430.23915845
0.07500000 1319523.32843692 18051.07997912
0.07600000 1311289.45860253 16659.93335257
0.07700000 1302999.63337656 21343.13499546
0.07800000 1294652.43103229 15341.63202720
0.07900000 1286249.12321155 20065.48726325
0.08000000 1277794.76142623 21735.28991149
0.08100000 1269288.58699055 18734.70042298
0.08200000 1260731.56310815 26683.38478531
0.08300000 1252127.01179382 17354.48119794
0.08400000 1243475.82347569 22196.04449089
0.08500000 1234781.53829820 19114.41911019
0.08600000 1226043.26609796 22399.81152331
0.08700000 1217264.71486006 24101.84248600
0.08800000 1208444.69829238 19359.28497583
0.08900000 1199588.78197967 25911.11890780
0.09000000 1190696.46970916 26004.81212004
0.09100000 1181769.68556746 16308.42242702
0.09200000 1172809.83510483 22904.97715583
0.09300000 1163820.11073595 18050.85076576
0.09400000 1154798.93214822 16455.88555650
0.09500000 1145750.80523735 21448.45608218
0.09600000 1136676.28914832 21500.23301992
0.09700000 1127578.90864600 19890.49288362
0.09800000 1118458.97129780 23252.76310657
0.09900000 1109318.68668618 16639.78108274
0.10000000 1100157.51210342 18334.12580141
0.10100000 1090978.74246476 18361.17309924
0.10200000 1081784.26781300 20056.28126863
0.10300000 1072574.60088452 21751.81392916
0.10400000 1063353.08902552 21772.15552207
0.10500000 1054122.12713255 18436.59687098
0.10600001 1044878.13767259 21801.38336837
0.10700001 1035628.52008418 23488.05594080
0.10800001 1026370.65679459 20137.39323401
0.10900001 1017108.92391351 25173.44705166
0.11000001 1007843.45324820 20136.71314373
0.11100001 998576.15652735 20131.29626324
0.11200001 989309.71674269 20122.56058586
0.11300001 980042.33600316 25138.08710200
0.11400001 970779.57177888 25118.92260249
0.11500001 961520.34636660 26768.72770333
0.11600001 952267.00651573 20054.74410163
0.11700001 943021.47738070 16691.48093572
0.11800001 933782.73934162 18334.82495051
0.11900001 924554.69873896 18306.18389728
0.12000001 915337.62165548 16613.37861562
0.12100001 906134.76721964 19898.72042553
0.12200001 896944.88625618 18203.49732416
0.12300001 887771.26958294 23117.56494911
0.12400001 878613.62244867 21416.20805626
0.12500001 869474.22615258 24649.59547293
0.12600001 860355.91577064 16389.78096777
0.12700001 851258.05382466 17978.57094404
0.12800001 842181.31688138 17925.83017465
0.12900001 833128.26904601 19495.20241453
0.13000001 824099.68386520 29148.40719222
0.13100001 815096.10768598 16138.90369293
0.13200001 806120.79895754 22514.95497625
0.13300001 797174.66320248 22432.49608005
0.13400001 788256.29465764 19154.62886324
0.13500001 779369.30514944 22258.78840453
0.13600001 770512.91920698 19000.84948355
0.13700001 761690.53966983 15766.99491463
0.13800001 752900.45512404 20407.36779846
0.13900001 744147.46624917 18752.51703381
0.14000001 735429.39983532 15554.33254007
0.14100001 726748.47475727 18575.69189088
0.14200001 718104.73340569 20024.35143547
0.14300001 709502.52606092 22987.88292866
0.14400001 700936.47078116 21343.51654206
0.14500001 692415.16974301 18196.67151922
0.14600001 683933.25602729 21113.02060956
0.14700001 675496.96710295 17995.24005258
0.14800001 667102.00741712 22364.59585379
0.14900001 658751.44112648 17786.28974959
0.15000001 650447.12381492 19152.41646440
0.15100001 642189.11855350 16106.10385329
0.15200001 633978.90866953 16004.79830458
0.15300001 625816.39513769 15901.99535085
0.15400001 617700.71628136 15797.69656441
0.15500001 609636.54420994 21398.24371162
0.15600001 601620.25048422 15584.97332433
0.15700001 593658.40043266 25325.46855774
0.15800001 585743.55939492 18160.97991621
0.15900001 577884.00234985 16643.06005324
0.16000001 570074.72865509 19274.22748562
0.16100001 562322.21215767 15030.87344050
0.16200001 554621.26601208 21696.78495061
0.16300001 546976.61776729 22874.56323489
0.16400001 539386.43746429 16019.77794898
0.16500001 531852.16703235 15891.74350120
0.16600001 524374.16355965 17076.24544254
0.16700001 516952.13856246 14329.91395753
0.16800001 509586.91188281 14209.83170879
0.16900001 502281.32553847 16650.62672781
0.17000001 495032.83706078 17776.63001826
0.17100001 487843.10368940 15103.62320344
0.17200001 480712.47017691 13721.93810919
0.17300001 473640.80348327 17306.83577658
0.17400001 466630.40095600 12249.04860357
0.17500001 459679.07261074 12135.52809006
0.17600001 452786.76841000 14425.78712286
0.17700001 445957.45574530 15479.18402001
0.17800001 439188.10450221 15329.86151171
0.17900001 432479.82789870 14012.34708577
0.18000001 425834.03505283 23122.78919557
0.18100001 419251.03120999 16023.77516975
0.18200001 412727.04831983 12462.29381271
0.18300001 406268.05317183 15698.19831613
0.18400001 399869.99141417 14425.31062173
0.18500001 393535.58872686 12077.60778860
0.18600001 387263.62632346 14121.56880104
0.18700001 381054.09170305 17193.16142993
0.18800001 374907.17353042 13817.20453327
0.18900001 368825.36013004 21023.04652070
0.19000001 362802.73385110 10394.29881595
0.19100001 356848.37777184 15415.85064814
0.19200001 350953.40710213 11176.11177725
0.19300001 345124.57546292 11047.43818259
0.19400001 339357.94406417 11911.46439952
0.19500001 333655.29413595 12752.30594449
0.19600001 328014.77154107 14539.25543563
0.19700001 322438.44413365 15322.27558932
0.19800001 316925.37838050 12298.28988926
0.19900001 311476.49131317 10278.72469911
0.20000001 306088.82133596 14765.72543909
0.20100001 300766.27883302 11847.18428316
0.20200001 295505.08872289 11697.56948996
0.20300001 290308.06682472 8883.42726471
0.20400001 285173.57534289 10522.90542753
0.20500001 280101.24245243 10386.15456106
0.20600001 275092.26805698 11104.09992499
0.20700001 270144.96476901 10957.08028896
0.20800001 265259.99862185 13305.44215982
0.20900001 260439.32906657 8203.83925340
0.21000001 255677.88733231 8901.42606827
0.21100001 250978.53365571 11173.56484656
0.21200001 246340.64764986 9444.70087739
0.21300001 241763.86601086 10088.80660559
0.21400001 237248.74932679 9181.52703302
0.21500001 232795.14972133 11313.84481135
0.21600001 228400.67599936 9664.77506185
0.21700001 224066.91678379 12455.88049292
0.21800001 219793.39702896 7220.21343378
0.21900001 215578.29563637 8536.90091084
0.22000001 211422.46793390 8410.38617207
0.22100001 207327.95614786 9665.62977264
0.22200001 203291.12440254 7480.09727608
0.22300001 199312.52205195 8036.28126913
0.22400001 195390.63634181 11869.98171905
0.22500001 191529.49477202 7142.13519778
0.22600001 187723.87850957 7031.19820207
0.22700001 183976.54889667 6921.19809679
0.22800001 180285.12800738 8669.91221588
0.22900001 176649.82377275 6094.41920837
0.23000001 173070.72751402 5996.90099197
0.23100001 169548.67818524 5900.29427989
0.23200001 166080.04394581 8706.74671563
0.23300001 162667.32471019 5709.62336736
0.23400001 159309.30634942 6177.21864585
0.23500001 156003.67143974 7731.54232223
0.23600001 152753.03593517 5430.37068434
0.23700001 149555.34497132 5873.03867481
0.23800001 146410.35693335 8398.09847092
0.23900001 143317.89592500 7223.22229627
0.24000001 140277.26437992 6085.22801663
0.24100001 137289.37109649 5481.96484719
0.24200001 134351.90174949 6855.97787058
0.24300001 131465.17455170 4811.62561620
0.24400001 128628.12854394 5199.79234236
0.24500001 125841.39335405 7429.67621508
0.24600001 123103.97048640 5929.30301896
0.24700001 120416.22962835 5375.38074490
0.24800001 117775.97759289 4398.93297119
0.24900001 115183.50595392 6479.07251642
0.25000001 112639.14256178 5937.20948531
0.25100001 110141.37769027 5828.68198312
0.25200001 107691.43345441 4495.57910224
0.25300001 105287.54835091 4011.45578195
0.25400001 102928.50679281 3937.01557109
0.25500001 100614.89261959 4636.33447126
0.25600001 98346.42484932  3791.25485732
0.25700001 96122.06421264  4091.91646713
0.25800001 93941.50347458  5109.47861573
0.25900001 91804.48925260  4654.48782533
0.26000001 89711.03275868  4917.06193816
0.26100001 87657.81985104  3789.44773146
0.26200001 85648.75734058  5068.26545544
0.26300001 83680.05760315  4970.59565682
0.26400001 81752.16991254  3574.61379857
0.26500001 79865.63171518  3823.96662747
0.26600001 78018.25352202  3437.09432155
0.26700001 76211.44536916  3982.81032346
0.26800001 74443.65526216  4205.32228476
0.26900001 72713.81953429  3239.40081355
0.27000001 71022.75773815  3175.78276255
0.27100001 69369.18684895  4245.39443606
0.27200001 67753.09394050  3051.93826098
0.27300001 66173.28180843  3807.61081545
0.27400001 64628.75972948  3199.12375801
0.27500001 63122.19785167  3658.56276063
0.27600001 61648.76571717  3842.25950516
0.27700001 60212.05914977  3264.09588099
0.27800001 58808.59745475  3937.82387194
0.27900001 57439.79068651  3377.45985221
0.28000001 56103.99783186  2837.74034464
0.28100001 54801.10483129  2781.70421289
0.28200001 53531.08413841  3408.59194384
0.28300001 52293.28894221  2896.00247869
0.28400001 51087.18709750  2620.77282215
0.28500001 49912.35713790  2783.61228933
0.28600001 48767.62681772  2099.44643387
0.28700001 47653.66776781  2058.63854501
0.28800001 46568.84624445  2422.51149630
0.28900001 45514.86067108  2573.86549278
0.29000001 44488.53033671  2136.11688523
0.29100001 43492.24600504  2095.45651171
0.29200001 42522.94220142  2055.77173804
0.29300001 41581.46745349  2017.11708165
0.29400001 40667.11082814  3599.03947866
0.29500001 39780.76856999  2119.51944974
0.29600001 38919.46568416  2080.63473397
0.29700001 38084.01967770  2383.29806425
0.29800001 37274.84627009  2006.13232122
0.29900001 36490.61101101  1806.28533055
0.30000001 35730.93067287  2097.22707513
0.30100001 34996.26624684  1585.33093603
0.30200001 34284.57188842  2181.52741254
0.30300001 33596.77413797  1685.21427054
0.30400001 32932.76282654  1657.34136771
0.30500001 32290.31702850  1926.76330831
0.30600001 31670.47924188  2041.79589339
0.30700001 31072.89847611  1579.12477532
0.30800001 30496.62354609  1554.87042511
0.30900001 29941.48636134  1392.27918172
0.31000001 29407.97440827  1783.44669243
0.31100001 28893.09737323  1757.85612741
0.31200001 28399.43428960  1866.69490424
0.31300001 27924.59170274  1578.29799777
0.31400001 27470.72180673  1687.38916687
0.31500001 27034.78079912  1665.88327172
0.31600002 26617.24629763  1265.65012138
0.31700002 26217.58802149  1375.63690862
0.31800002 25836.15799075  1483.51226207
0.31900002 25472.52925655  1589.48590087
0.32000002 25125.67094157  1572.74144706
0.32100002 24796.16702677  1676.71689374
0.32200002 24483.05586990  1304.82452437
0.32300002 24185.36328338  1645.57219572
0.32400002 23903.81551206  1398.37327367
0.32500002 23637.34619784  1387.03954057
0.32600002 23386.57224655  1491.24484992
0.32700002 23150.43634856  1139.00152228
0.32800002 22929.34955081  1357.87614470
0.32900002 22721.30651555  1574.58661609
0.33000002 22528.65140427  1454.11187375
0.33100002 22347.29032131  1335.47413284
0.33200002 22181.60680287  1551.15983718
0.33300002 22027.54096243  1213.93783993
0.33400002 21887.01746658  1319.78721573
0.33500002 21758.20290476  1206.27482616
0.33600002 21641.50157533  1312.77354773
0.33700002 21535.80316009  1201.05179912
0.33800002 21443.06817527  1744.60810936
0.33900002 21360.31366736  1307.25125835
0.34000002 21289.15130999  1524.51619751
0.34100002 21228.43429291  1742.42996928
0.34200002 21178.99308477  1634.48886873
0.34300002 21138.26083554  1090.73431077
0.34400002 21108.38536040  1310.83079296
0.34500002 21087.58549639  1203.89031301
0.34600002 21077.38011777  1535.90876192
0.34700002 21074.11349962  1320.08253214
0.34800002 21081.26179654  1213.96451805
0.34900002 21096.61020060  1439.84371438
0.35000002 21120.36299505  1445.58331366
0.35100002 21152.29482536  1116.84121968
0.35200002 21191.47923250  1346.50665421
0.35300002 21238.53181185  1127.76609262
0.35400002 21293.48236131  1474.04138628
0.35500002 21355.34558391  1482.48816065
0.35600002 21423.58962927  1261.95660688
0.35700002 21498.77645746  1500.82965558
0.35800002 21581.02548074  1510.77976034
0.35900002 21669.05623970  1170.12909237
0.36000002 21764.01407074  1885.63426840
0.36100002 21863.79296718  1543.36521866
0.36200002 21970.61244370  1794.44985634
0.36300002 22080.94017102  1567.30520758
0.36400002 22197.49875991  1215.31311467
0.36500002 22318.55582891  1592.87540496
0.36600002 22445.14091105  1976.96810509
0.36700002 22575.89002917  1620.04594523
0.36800002 22712.53752065  1508.56681358
0.36900002 22852.48757678  1648.80705677
0.37000002 22995.67921989  1279.70960921
0.37100002 23143.17598557  1678.80606552
0.37200002 23294.95918039  1303.35302788
0.37300002 23449.74897042  1447.08407751
0.37400002 23608.93613383  1328.00272044
0.37500002 23770.20053574  1876.89512321
0.37600002 23935.66313859  1624.27417753
0.37700002 24102.68262777  1366.62216973
0.37800002 24273.56639544  1517.94754645
0.37900002 24446.76215407  1950.85171231
0.38000002 24622.40395021  1970.03863338
0.38100002 24799.92445432  1705.24288626
0.38200002 24979.72902827  2296.13680105
0.38300002 25161.41280382  1449.29744616
0.38400002 25345.61110642  1756.45093288
0.38500002 25530.25980582  1478.20211279
0.38600002 25717.75255481  1492.91560653
0.38700002 25905.65183300  1658.47990892
0.38800002 26094.74457791  2436.20546921
0.38900002 26285.14287226  1691.44902396
0.39000002 26477.26886334  2018.75946013
0.39100002 26669.34511972  1881.78908080
0.39200002 26862.74452384  1741.91475117
0.39300002 27056.43091496  1918.84217140
0.39400002 27251.44886655  1776.11326402
0.39500002 27445.98885494  1956.35017827
0.39600002 27640.83161471  1975.21392077
0.39700002 27835.42129268  2326.48462187
0.39800002 28031.25974864  2516.50646316
0.39900002 28226.12751392  1693.56773107
0.40000002 28420.78229334  1880.46114953
0.40100002 28614.94265882  1898.02923649
0.40200002 28810.05980574  1915.72501755
0.40300002 29003.53481204  2460.66001004
0.40400002 29196.40247576  2660.52230166
0.40500002 29388.77402454  2147.73170747
0.40600002 29580.64394640  1805.89839849
0.40700002 29771.35866393  2186.40868387
0.40800002 29961.55196053  2205.76955985
0.40900002 30149.80506477  3152.16226888
0.41000002 30337.83938404  2244.39346397
0.41100002 30524.34448260  2640.96640977
0.41200002 30708.96621942  2282.90465692
0.41300002 30892.67735945  2877.65303238
0.41400002 31074.77645864  2127.84541883
0.41500002 31255.83540809  1950.36422188
0.41600002 31434.12236693  2162.82489194
0.41700002 31611.66798863  2378.46201217
0.41800002 31788.16640802  2197.67498875
0.41900002 31960.87542473  3020.30287075
0.42000002 32132.56311277  2232.08860240
0.42100002 32302.84708220  2862.67844407
0.42200002 32470.92237493  2060.28012232
0.42300002 32636.50847199  2283.25024089
0.42400002 32799.96957799  2300.09797565
0.42500002 32961.60265145  4001.86836754
0.42600002 33119.71240175  3818.37182374
0.42700002 33276.90941752  2990.92876018
0.42800002 33431.16326730  2581.55454983
0.42900002 33583.57782075  2382.75495929
0.43000002 33733.51533170  3489.39499126
0.43100002 33879.51873648  3512.62866905
0.43200002 34023.98815520  3093.80138956
0.43300002 34165.48860459  2224.17341356
0.43400002 34304.74746800  2462.22336620
0.43500002 34440.77217745  2928.15458929
0.43600002 34575.21340504  3399.60801915
0.43700002 34705.74482544  2508.18429740
0.43800002 34832.91817578  2523.12254763
0.43900002 34958.36069683  3230.15268146
0.44000002 35080.15802198  2552.60781944
0.44100002 35199.75319294  3733.98999566
0.44200002 35316.02860255  2816.10025422
0.44300002 35429.77784093  2831.54797924
0.44400002 35539.88861865  3083.97398103
0.44500002 35646.17853199  3100.14829385
0.44600002 35750.35701426  3355.88617197
0.44700002 35851.66368542  2650.15510522
0.44800002 35948.73067270  2663.26183810
0.44900002 36044.08898433  3162.86895827
0.45000002 36136.02572578  2689.06248182
0.45100002 36223.50212087  2455.95356019
0.45200002 36308.73949727  4194.20424180
0.45300002 36390.26322076  2478.17704278
0.45400002 36469.19609428  2737.92502654
0.45500002 36544.68077644  3499.51879701
0.45600002 36616.66618366  4016.11613736
0.45700002 36685.44937100  2772.31954036
0.45800002 36750.36409513  2783.28895666
0.45900002 36812.29938606  2794.05365582
0.46000002 36871.71788005  2549.67941225
0.46100002 36926.54409001  3326.71251474
0.46200002 36978.96740343  3081.82728946
0.46300002 37027.50066848  3092.53700240
0.46400002 37072.49177302  3361.54835084
0.46500002 37114.92948286  2853.76706319
0.46600002 37153.27447090  3903.88050006
0.46700002 37188.31882165  3393.80613652
0.46800002 37220.67663338  2880.32219779
0.46900002 37249.02872514  2626.05664959
0.47000002 37273.62401094  2633.38166119
0.47100002 37295.47544690  3960.77968019
0.47200002 37313.72214717  2912.14958300
0.47300002 37329.21052074  2654.10699382
0.47400002 37340.00576837  2926.52309081
0.47500002 37348.62316914  2666.69182067
0.47600002 37354.10171187  3474.49193541
0.47700002 37355.19574823  2678.36766210
