# SAXS profile: number of points = 501, q_min = 0, q_max = 0.5, delta_q = 0.001
#    q    intensity    error
0.00000000 1664650.74656091 349.57665678
0.00100000 1664582.23563246 549.31215080
0.00200000 1664376.65357724 748.96951783
0.00300000 1664034.16085161 1098.26258529
0.00400000 1663554.63981343 1372.43263000
0.00500000 1662938.52442805 1795.97367747
0.00600000 1662185.58859677 2443.41291471
0.00700000 1661296.38865037 2192.91132416
0.00800000 1660270.52923510 2913.77490183
0.00900000 1659109.22455173 2986.39673185
0.01000000 1657811.72243028 3008.92840613
0.01100000 1656379.21349998 3577.77925693
0.01200000 1654811.16208734 3226.88190755
0.01300000 1653108.97105436 4512.98769002
0.01400000 1651271.94506491 3715.36204110
0.01500000 1649301.74990808 5541.65412645
0.01600000 1647197.26886070 4620.38854570
0.01700000 1644960.65006845 5329.67274530
0.01800000 1642591.49071407 7022.07893878
0.01900000 1640090.46982449 7872.43461038
0.02000000 1637458.13480462 6705.39136535
0.02100000 1634696.18591967 7012.84695555
0.02200000 1631802.90704641 6192.69231359
0.02300000 1628781.14397392 5863.61238521
0.02400000 1625630.66811190 9753.78445342
0.02500000 1622352.91847130 8225.32967231
0.02600000 1618948.07431298 10490.78400138
0.02700000 1615417.08456017 11534.07851203
0.02800000 1611759.86355491 9815.61801919
0.02900000 1607979.17736009 10130.26928249
0.03000000 1604074.92985242 10442.52827333
0.03100000 1600047.70982843 12288.36697691
0.03200000 1595898.25892119 10269.60576916
0.03300000 1591629.63662929 9740.77382523
0.03400000 1587239.65625334 9999.61029578
0.03500000 1582731.72071829 8546.75168655
0.03600000 1578105.51745277 9634.33462929
0.03700000 1573362.91121074 10761.80281039
0.03800000 1568505.33473049 11010.90795939
0.03900000 1563533.64111987 12195.56296551
0.04000000 1558447.28479308 10542.89637017
0.04100000 1553249.75270100 9785.47389574
0.04200000 1547941.55893469 13977.91292566
0.04300000 1542522.81057354 11198.71612459
0.04400000 1536997.07781121 10374.73075705
0.04500000 1531364.05962214 10566.41250236
0.04600000 1525624.08317602 12906.78034366
0.04700000 1519780.04731648 13130.90021951
0.04800000 1513832.76058489 14464.67270040
0.04900000 1507784.33537249 11308.38304167
0.05000000 1501634.60194110 19528.75890762
0.05100000 1495386.95882896 15163.22446889
0.05200000 1489039.31488792 14205.43572602
0.05300000 1482597.47218960 13209.94409303
0.05400000 1476059.51918241 14612.98992137
0.05500000 1469429.52627115 14811.85031578
0.05600000 1462705.93793569 12506.13635294
0.05700000 1455893.67430868 15199.53066927
0.05800000 1448991.46704283 17953.00511493
0.05900000 1442001.30114251 20764.81970629
0.06000000 1434925.88702456 21007.31596748
0.06100000 1427766.60065513 17261.69900858
0.06200000 1420524.04381331 18793.53397813
0.06300000 1413201.39544370 20350.10104586
0.06400000 1405796.74890868 16447.82273144
0.06500000 1398316.53082682 22149.33488439
0.06600000 1390758.17692595 18170.25643170
0.06700000 1383125.11486742 18340.23988145
0.06800000 1375420.01595784 14235.59783152
0.06900000 1367643.61081764 15796.28444451
0.07000000 1359795.56393324 18826.37046427
0.07100000 1351880.71983483 20440.43744129
0.07200000 1343897.84098643 16187.25025300
0.07300000 1335851.60694539 17793.54423824
0.07400000 1327741.99043963 14937.09809246
0.07500000 1319570.41497757 16547.41377944
0.07600000 1311337.72521554 15145.95143629
0.07700000 1303049.04512369 19819.37690563
0.07800000 1294702.97428522 16876.45406125
0.07900000 1286300.93243953 18522.73429591
0.08000000 1277847.66467467 17078.43483954
0.08100000 1269342.80034853 21858.08404754
0.08200000 1260786.97715506 21975.51804302
0.08300000 1252183.66137792 23666.27231075
0.08400000 1243533.66248927 19026.06592914
0.08500000 1234840.64721256 22301.22313559
0.08600000 1226103.62227038 20800.84892845
0.08700000 1217326.42383075 25709.93527859
0.08800000 1208507.59645965 17746.93488747
0.08900000 1199652.84959847 19434.37707632
0.09000000 1190761.91684630 19504.68111418
0.09100000 1181836.38343820 17940.27714345
0.09200000 1172877.72711400 17997.80956822
0.09300000 1163889.36835504 21334.09312448
0.09400000 1154869.43551499 19748.26827543
0.09500000 1145822.63703316 18149.83142370
0.09600000 1136749.33138546 19847.64425898
0.09700000 1127653.38685865 24864.75834919
0.09800000 1118534.71751339 18271.26546965
0.09900000 1109395.77080859 19969.12481355
0.10000000 1100235.84761540 26669.71820040
0.10100000 1091058.43510196 18362.51432639
0.10200000 1081865.30723464 20057.78373957
0.10300000 1072657.01770348 23426.83036866
0.10400000 1063436.87420649 16749.13155672
0.10500000 1054207.14618089 20114.27329550
0.10600001 1044964.55858867 23480.35473632
0.10700001 1035716.24643988 30201.48716740
0.10800001 1026459.70262917 20139.14031337
0.10900001 1017199.35009381 18462.16907314
0.11000001 1007935.27097415 18460.33535681
0.11100001 998669.19305020 26844.22917284
0.11200001 989404.18766285 23478.56247854
0.11300001 980138.13689242 21788.47180894
0.11400001 970876.64281497 16747.62287711
0.11500001 961618.81191273 18405.38492668
0.11600001 952366.63577846 18385.43876950
0.11700001 943122.50838385 20031.92302147
0.11800001 933885.16227562 20003.82111809
0.11900001 924658.41575506 36616.47498860
0.12000001 915442.68577161 19938.34263530
0.12100001 906241.05649420 19901.05453811
0.12200001 897052.51439052 26480.99147236
0.12300001 887880.35099357 23120.40542918
0.12400001 878724.00662689 19771.29108068
0.12500001 869585.83151217 19722.20758802
0.12600001 860468.90065153 18031.12666284
0.12700001 851372.30997784 22884.88877069
0.12800001 842297.00031688 19558.13726912
0.12900001 833245.15299245 17873.10937408
0.13000001 824217.92325968 17815.47125099
0.13100001 815215.52467611 19369.52177934
0.13200001 806241.44271857 22518.32455665
0.13300001 797296.57455605 19230.79428489
0.13400001 788379.47787864 17561.15369768
0.13500001 779493.70235448 15901.67227777
0.13600001 770638.52327427 17420.28463999
0.13700001 761817.36970626 17346.58232616
0.13800001 753028.60389722 18840.77655796
0.13900001 744276.82594515 20318.75830650
0.14000001 735559.90009210 23335.63893094
0.14100001 726880.15713562 17030.80288491
0.14200001 718237.60813295 21568.67638953
0.14300001 709636.67632817 16860.96822485
0.14400001 701071.73238211 18297.97307829
0.14500001 692551.55963006 25783.69578130
0.14600001 684070.72831109 19608.88835207
0.14700001 675635.61867250 19498.84487478
0.14800001 667241.79090548 19386.71114940
0.14900001 658892.27419794 17790.09224270
0.15000001 650589.13596464 23577.35139981
0.15100001 642332.11443164 21967.75935011
0.15200001 634122.88329033 17463.74502988
0.15300001 625961.46016242 18797.62353572
0.15400001 617846.87104072 18674.42255847
0.15500001 609783.67080472 21403.40785534
0.15600001 601768.31925173 19840.30242209
0.15700001 593807.52270710 19702.53453332
0.15800001 585893.68897328 16768.27816986
0.15900001 578035.01267494 16647.40915081
0.16000001 570226.72142678 16525.17116698
0.16100001 562475.02904977 13668.14385110
0.16200001 554775.05233936 14920.67573701
0.16300001 547131.13343092 17497.25447313
0.16400001 539541.89439558 16024.39502005
0.16500001 532008.57238033 17221.11830098
0.16600001 524531.30092353 15767.41165019
0.16700001 517110.08775522 14334.29230936
0.16800001 509745.63638042 18090.87348933
0.16900001 502440.77869071 14093.46450774
0.17000001 495193.09446325 15242.04416730
0.17100001 488004.10638031 13849.55719307
0.17200001 480874.10422709 16222.28867216
0.17300001 473803.11183635 16076.14034379
0.17400001 466793.36138942 13478.65894666
0.17500001 459842.73066443 14567.81839545
0.17600001 452950.95418419 20443.94228265
0.17700001 446122.24134568 13102.61084717
0.17800001 439353.44933814 16515.29694067
0.17900001 432645.74133760 11681.43556787
0.18000001 426000.50268209 13879.09703296
0.18100001 419417.95048937 14885.14376599
0.18200001 412894.42878817 14734.13838732
0.18300001 406435.90625675 11217.63154260
0.18400001 400038.27691687 14431.38152152
0.18500001 393704.29996677 12082.78553680
0.18600001 387432.75115746 13040.98702006
0.18700001 381223.43585114 11825.55153880
0.18800001 375076.89760733 12760.11665947
0.18900001 368995.35927795 14722.91553081
0.19000001 362972.96141511 16638.68133743
0.19100001 357018.87131926 16451.43036772
0.19200001 351124.13028189 11181.54845717
0.19300001 345295.45222285 13062.52757483
0.19400001 339529.01635574 11917.46903723
0.19500001 333826.54654731 12758.85121196
0.19600001 328186.11889331 10667.69029874
0.19700001 322609.81571696 10539.66317755
0.19800001 317096.76447429 14198.00830032
0.19900001 311647.94695333 13089.21439064
0.20000001 306260.27259854 10157.12242077
0.20100001 300937.74948529 10030.25566440
0.20200001 295676.45840881 9903.68344249
0.20300001 290479.35480575 13333.00301576
0.20400001 285344.69477410 9651.78475693
0.20500001 280272.23631614 9526.45376267
0.20600001 275263.04825949 8546.91805245
0.20700001 270315.61408268 12650.77133706
0.20800001 265430.38188073 9153.36715184
0.20900001 260609.44082544 9851.03732887
0.21000001 255847.69812706 8907.33803136
0.21100001 251147.97354228 9583.80712343
0.21200001 246509.81743834 10238.78575133
0.21300001 241932.60657099 9319.24444569
0.21400001 237417.03203647 8422.36960967
0.21500001 232962.96784170 9057.60061791
0.21600001 228567.99966935 8183.87761508
0.21700001 224233.70992743 10265.41972582
0.21800001 219959.70157310 7948.24419214
0.21900001 215744.04293119 9967.37525469
0.22000001 211587.54322024 8416.95286728
0.22100001 207492.45513012 8291.39889905
0.22200001 203454.87182342 10208.34867644
0.22300001 199475.61445878 8713.09525156
0.22400001 195553.02639133 9899.87242919
0.22500001 191691.09466869 7797.99409987
0.22600001 187884.69579663 7037.22161384
0.22700001 184136.56736939 7556.96508220
0.22800001 180444.25171476 8057.73844137
0.22900001 176808.07776367 6099.87897132
0.23000001 173228.04587654 6002.35207348
0.23100001 169705.05062330 8268.03045738
0.23200001 166235.38292316 6971.91228952
0.23300001 162821.71837814 5715.04258536
0.23400001 159462.58499552 7869.47894172
0.23500001 156155.91643175 10503.04743595
0.23600001 152904.14426723 6522.89110295
0.23700001 149705.31430531 5878.92797083
0.23800001 146559.17669017 7355.80542600
0.23900001 143465.52017824 5681.23486778
0.24000001 140423.65233009 6599.20985340
0.24100001 137434.49620960 7483.30867258
0.24200001 134495.75003207 4902.37032056
0.24300001 131607.68149763 5780.20964480
0.24400001 128769.31040517 6151.95409562
0.24500001 125981.10582800 6043.31393244
0.24600001 123242.24448692 5935.96298651
0.24700001 120553.11303026 5381.49122025
0.24800001 117911.32153790 7486.77971522
0.24900001 115317.39711719 5189.28311577
0.25000001 112771.50116744 4670.43194180
0.25100001 110272.17818975 5418.77509260
0.25200001 107820.63325135 4910.15187056
0.25300001 105415.11126964 4417.94752233
0.25400001 103054.40276113 4336.01420132
0.25500001 100739.10234218 6189.41074074
0.25600001 98468.94437915  5693.96697812
0.25700001 96242.81076064  4841.97603846
0.25800001 94060.48852182  4385.10018236
0.25900001 91921.66742673  4301.93423912
0.26000001 89826.43842434  4220.04627685
0.26100001 87771.34465557  3449.41400818
0.26200001 85760.40786379  4059.89790037
0.26300001 83789.81247656  3981.69207729
0.26400001 81860.00542388  3579.32890653
0.26500001 79971.50059465  3829.03562966
0.26600001 78122.13107218  3441.67064724
0.26700001 76313.31531362  4601.69313116
0.26800001 74543.49421475  4210.96218746
0.26900001 72811.58818750  3538.64335337
0.27000001 71118.51341344  3180.06447777
0.27100001 69462.80233463  3400.89896324
0.27200001 67844.57610020  4167.35328417
0.27300001 66262.63248520  2995.73375643
0.27400001 64715.89363087  3737.34303405
0.27500001 63207.18931327  2878.45553755
0.27600001 61731.54361735  3334.42948630
0.27700001 60292.58787076  2765.62113652
0.27800001 58886.88343092  2464.41618822
0.27900001 57515.77011085  2415.66245898
0.28000001 56177.61595409  2604.67528699
0.28100001 54872.44028759  2785.32520083
0.28200001 53600.08473327  3185.45318646
0.28300001 52359.90804795  3345.79828262
0.28400001 51151.44299992  2186.72429175
0.28500001 49974.19579343  2358.28241111
0.28600001 48827.05106728  2102.00464794
0.28700001 47710.70976952  2267.21303556
0.28800001 46623.40512915  3233.79953282
0.28900001 45566.95154991  2576.81123212
0.29000001 44538.09403880  2721.72305554
0.29100001 43539.34189710  2669.83257151
0.29200001 42567.47680206  2057.92476341
0.29300001 41623.51690979  1835.59718261
0.29400001 40706.58294103  2341.64629453
0.29500001 39817.72344424  1944.69770507
0.29600001 38953.82229628  1908.93215199
0.29700001 38115.81850063  1874.15488439
0.29800001 37304.04175509  2175.01225749
0.29900001 36517.16776733  2629.23620371
0.30000001 35754.91374801  2582.93509143
0.30100001 35017.65558099  1744.92986021
0.30200001 34303.29635704  1870.90187188
0.30300001 33612.86551627  1686.02141411
0.30400001 32946.14926570  1658.01504029
0.30500001 32301.09678685  1482.62041271
0.30600001 31678.55370786  1458.79746731
0.30700001 31078.29555039  1579.39905464
0.30800001 30499.31230972  1413.64319248
0.30900001 29941.52537575  1949.19339424
0.31000001 29405.31965947  1646.10987247
0.31100001 28887.71815374  1757.52885568
0.31200001 28391.33971419  1466.27080896
0.31300001 27913.82834958  1840.63792852
0.31400001 27457.20377540  2205.49999768
0.31500001 27018.59394003  1408.74955473
0.31600002 26598.34423376  1644.17672666
0.31700002 26195.94466695  1374.50128176
0.31800002 25811.83270920  1235.09625362
0.31900002 25445.46926474  1343.52084079
0.32000002 25095.90001884  1450.04117175
0.32100002 24763.64032985  1315.69227302
0.32200002 24447.85868034  1539.84845189
0.32300002 24147.46592935  1290.92358971
0.32400002 23863.20422484  1279.66438715
0.32500002 23594.03904739  1153.74856405
0.32600002 23340.55292261  1259.33959257
0.32700002 23101.73592763  1250.26600761
0.32800002 22877.95830248  1241.93002526
0.32900002 22667.23888807  1122.02837809
0.33000002 22471.90062107  1338.87590240
0.33100002 22287.89360981  1664.90573149
0.33200002 22119.53996938  1325.84528855
0.33300002 21962.80933510  1650.50519969
0.33400002 21819.64961480  1535.01242309
0.33500002 21688.23712961  1311.70464372
0.33600002 21568.91173341  1090.30853976
0.33700002 21460.61482266  1305.66386764
0.33800002 21365.25140151  1738.27693635
0.33900002 21279.89928516  1193.80240643
0.34000002 21206.17972142  1301.63537294
0.34100002 21142.90256216  1626.94642921
0.34200002 21090.91617372  1193.64045738
0.34300002 21047.67591955  1411.87816755
0.34400002 21015.27515805  1522.55675731
0.34500002 20991.99208839  1198.43288508
0.34600002 20979.27016564  1310.36527661
0.34700002 20973.51890087  1313.78128617
0.34800002 20978.29531074  1317.85657384
0.34900002 20991.19390521  1432.64905188
0.35000002 21012.50534134  1106.30845862
0.35100002 21042.10262435  1555.43229966
0.35200002 21078.87163881  1227.73893675
0.35300002 21123.57072924  1682.49248827
0.35400002 21176.22861510  1240.39764988
0.35500002 21235.78458208  1360.78914047
0.35600002 21301.76836377  1368.85169989
0.35700002 21374.67594251  1262.60216773
0.35800002 21454.70018495  1386.40279162
0.35900002 21540.48562466  1279.50490671
0.36000002 21633.25972389  1640.01749735
0.36100002 21730.96137718  1533.98863627
0.36200002 21835.56644079  1545.63064372
0.36300002 21943.82438138  1557.57272837
0.36400002 22058.26963219  1690.76644739
0.36500002 22177.30241477  1582.79414832
0.36600002 22301.81746523  1350.48662058
0.36700002 22430.56931506  1857.25122726
0.36800002 22565.26851022  1373.88643832
0.36900002 22703.31454529  1386.03741865
0.37000002 22844.56668124  1398.43021564
0.37100002 22990.18238852  1539.42268566
0.37200002 23140.14090021  2071.50551151
0.37300002 23293.08217024  1306.74197165
0.37400002 23450.49758763  1450.99960697
0.37500002 23610.02675692  1331.60557217
0.37600002 23773.74971849  1478.84617129
0.37700002 23939.08873016  2171.75423248
0.37800002 24108.28634322  1507.61175789
0.37900002 24279.88878911  1799.13984450
0.38000002 24453.93561271  1537.29673512
0.38100002 24629.92736763  1975.81286703
0.38200002 24808.20489212  1852.80087014
0.38300002 24988.38325828  1871.13022702
0.38400002 25171.10270447  1744.35750006
0.38500002 25354.38660861  1614.82095960
0.38600002 25540.48626071  1779.15035721
0.38700002 25727.08067148  2395.70586562
0.38800002 25914.90157631  1814.56149434
0.38900002 26103.98658222  1679.79161615
0.39000002 26294.94019979  1850.63797894
0.39100002 26485.77923740  1868.83667153
0.39200002 26678.02996155  2201.73791704
0.39300002 26870.63539608  2223.27647800
0.39400002 27064.54212258  2405.36129510
0.39500002 27258.08759876  1942.95657609
0.39600002 27451.89465470  1798.23644455
0.39700002 27645.54859174  2145.57112786
0.39800002 27840.47219575  2332.75327580
0.39900002 28034.49716323  1850.27690044
0.40000002 28228.30521846  2377.10569507
0.40100002 28421.66573729  1713.82652516
0.40200002 28616.05887474  2075.80900912
0.40300002 28808.84362925  2618.72400997
0.40400002 29001.02698932  2290.35621500
0.40500002 29192.75917365  1777.83911791
0.40600002 29384.04925420  2152.67555036
0.40700002 29574.16038372  2533.91418174
0.40800002 29763.92379897  2921.62689854
0.40900002 29951.67612239  2210.43380257
0.41000002 30139.30437974  2229.70584366
0.41100002 30325.42206301  2248.93340675
0.41200002 30509.66521646  2079.08123469
0.41300002 30693.16708999  2287.25491992
0.41400002 30874.95934941  2498.55620374
0.41500002 31055.87876716  2131.67561958
0.41600002 31233.98620890  2735.16030192
0.41700002 31411.36197678  2166.44173819
0.41800002 31587.82294946  1985.29476644
0.41900002 31760.49607883  2801.27588689
0.42000002 31932.16674826  2419.81971085
0.42100002 32102.51600120  2438.50723100
0.42200002 32270.70999849  2047.57664643
0.42300002 32436.38496586  2888.13585422
0.42400002 32600.03687214  2078.25244908
0.42500002 32761.83070446  3140.22162183
0.42600002 32920.24038470  2530.24979587
0.42700002 33077.72946171  2760.66743169
0.42800002 33232.32381157  2993.90019406
0.42900002 33385.16205020  2799.34597056
0.43000002 33535.49868708  2384.87710214
0.43100002 33681.94476808  3055.62617416
0.43200002 33826.94034013  2636.47185505
0.43300002 33969.02019917  2653.65998371
0.43400002 34108.86891971  2448.16418273
0.43500002 34245.51432173  2687.58809133
0.43600002 34380.61601022  2479.01443489
0.43700002 34511.88115539  3401.14604904
0.43800002 34639.82004778  2509.13548407
0.43900002 34766.05014588  2753.47130204
0.44000002 34888.67186500  2769.46290389
0.44100002 35009.14819618  3481.65995311
0.44200002 35126.31898211  2567.55840767
0.44300002 35240.97273693  3051.16356416
0.44400002 35352.14969833  2831.70732503
0.44500002 35459.43545336  3321.13088195
0.44600002 35564.65386183  2623.07116989
0.44700002 35667.10585984  3115.87851558
0.44800002 35765.32167068  2649.67398154
0.44900002 35861.84529622  2420.67467222
0.45000002 35955.02277691  2918.82888736
0.45100002 36043.69144219  3665.64359339
0.45200002 36130.27683665  3191.56815562
0.45300002 36213.08963400  2959.33382514
0.45400002 36293.35203555  3715.53209073
0.45500002 36370.29152021  2487.72805788
0.45600002 36443.71365346  3747.32503402
0.45700002 36513.91681876  3261.05806564
0.45800002 36580.36577460  3525.98162412
0.45900002 36643.84403374  3286.95296561
0.46000002 36704.81223883  3553.39304125
0.46100002 36761.22823231  3821.32985586
0.46200002 36815.29656188  2812.50471414
0.46300002 36865.49621649  3079.00638993
0.46400002 36912.16180995  3861.93511240
0.46500002 36956.33597609  2841.57280788
0.46600002 36996.43506190  3369.08051859
0.46700002 37033.27906233  3639.63083875
0.46800002 37067.43373864  2868.46349582
0.46900002 37097.65098410  2876.92297017
0.47000002 37124.10898047  3147.38210854
0.47100002 37147.81599633  3156.07859664
0.47200002 37168.01815988  4219.31362149
0.47300002 37185.45807176  3172.66343306
0.47400002 37198.19669842  3180.44596846
0.47500002 37208.81616197  2922.38055988
0.47600002 37216.39920475  3727.96688504
0.47700002 37219.52383717  2935.50398418
