# SAXS profile: number of points = 501, q_min = 0, q_max = 0.5, delta_q = 0.001
#    q    intensity    error
0.00000000 1664650.74656090 274.66737318
0.00100000 1664582.16175979 499.37466039
0.00200000 1664376.34959181 898.76325724
0.00300000 1664033.48327260 1198.10415064
0.00400000 1663553.42935666 1247.66511943
0.00500000 1662936.63286732 1646.30733170
0.00600000 1662182.85391410 1919.82127443
0.00700000 1661292.70098590 2192.90645644
0.00800000 1660265.67794488 2689.63051183
0.00900000 1659103.10861961 2986.38572318
0.01000000 1657804.15944922 3008.91467932
0.01100000 1656370.08099769 3875.90615829
0.01200000 1654800.30685741 4517.60503579
0.01300000 1653096.23724707 4860.10315186
0.01400000 1651257.15784138 5201.46027779
0.01500000 1649284.80546086 4749.94045124
0.01600000 1647178.02936214 5880.42582770
0.01700000 1644938.96851890 5773.73603850
0.01800000 1642567.19651186 5149.44839278
0.01900000 1640063.40629883 6396.24757318
0.02000000 1637428.21831094 5673.68903310
0.02100000 1634663.27142819 6473.26684834
0.02200000 1631766.82249495 6192.55537271
0.02300000 1628741.76237597 7036.16473374
0.02400000 1625587.86537096 7924.74120503
0.02500000 1622306.52006501 10123.19314754
0.02600000 1618898.01306259 6556.53725279
0.02700000 1615363.21946424 7462.97841574
0.02800000 1611702.04031215 8413.08503625
0.02900000 1607917.18190774 11577.00424128
0.03000000 1604008.77373736 8204.50525479
0.03100000 1599977.16875695 9983.85799243
0.03200000 1595823.32364893 11059.05614225
0.03300000 1591550.13834526 9740.28729570
0.03400000 1587155.42554596 10832.33627916
0.03500000 1582642.72875579 13674.03380789
0.03600000 1578011.64478754 11385.35454330
0.03700000 1573263.92740863 11657.88624125
0.03800000 1568401.19342689 11010.17688740
0.03900000 1563424.26871094 12194.70986068
0.04000000 1558332.48911501 11500.49430259
0.04100000 1553129.50550334 13698.60287370
0.04200000 1547815.66261231 11980.09378441
0.04300000 1542391.27155325 14251.69601069
0.04400000 1536859.80551547 14523.32583661
0.04500000 1531220.95959421 13735.05264576
0.04600000 1525474.96545841 12905.51880772
0.04700000 1519624.99824304 13129.56059545
0.04800000 1513671.53164950 12238.03490280
0.04900000 1507616.94276973 13568.55311651
0.05000000 1501460.90116738 12634.79407168
0.05100000 1495206.85648985 16327.65963348
0.05200000 1488852.81024074 15387.29451091
0.05300000 1482404.44639038 13208.22423308
0.05400000 1475859.83247301 13393.42860428
0.05500000 1469223.22962544 12341.47570457
0.05600000 1462492.79246574 13754.74535499
0.05700000 1455673.79799182 17730.10768716
0.05800000 1448764.71558598 15385.88199793
0.05900000 1441767.64848689 12975.90944243
0.06000000 1434685.27432783 15752.84504807
0.06100000 1427518.99743016 14603.52002615
0.06200000 1420269.39372235 16105.85567766
0.06300000 1412939.65480427 21702.75411251
0.06400000 1405527.81228773 20555.84521604
0.06500000 1398040.36101528 13840.60022148
0.06600000 1390474.89198232 15371.70065008
0.06700000 1382834.45354212 15515.40329485
0.06800000 1375122.08343370 17079.01707570
0.06900000 1367338.37094755 17228.46428056
0.07000000 1359482.85555988 17374.19170766
0.07100000 1351560.74248064 16056.54237272
0.07200000 1343570.39789646 17654.51585542
0.07300000 1335516.91432351 19271.50997667
0.07400000 1327399.78075703 29866.49646670
0.07500000 1319220.80453396 16543.02966427
0.07600000 1310980.65513027 21198.55818726
0.07700000 1302684.62570376 24386.25733661
0.07800000 1294331.08574006 19939.17131090
0.07900000 1285921.56020851 20060.37728016
0.08000000 1277460.94822781 20177.49662381
0.08100000 1268948.44225110 21851.29320079
0.08200000 1260385.29399030 17260.97741117
0.08300000 1251774.68922211 17349.59800687
0.08400000 1243117.31945632 17434.72122374
0.08500000 1234416.90185376 19108.77453776
0.08600000 1225672.64943879 20793.53747402
0.08700000 1216887.96657755 16062.92191310
0.08800000 1208061.86490615 17740.38931930
0.08900000 1199200.05635628 17808.12167333
0.09000000 1190301.76132504 21121.90574692
0.09100000 1181369.15969569 24454.34275459
0.09200000 1172403.46853563 17990.53207000
0.09300000 1163407.99645350 24606.08028128
0.09400000 1154381.05103708 29609.87535069
0.09500000 1145327.18904197 18141.98352715
0.09600000 1136247.06544551 21492.11425320
0.09700000 1127144.09722038 21539.72471052
0.09800000 1118018.79569076 18262.83788628
0.09900000 1108873.01490071 23286.33440790
0.10000000 1099706.53226406 28322.94307041
0.10100000 1090522.43866767 23358.99173488
0.10200000 1081322.70262294 20047.72384960
0.10300000 1072108.02351582 23414.84033504
0.10400000 1062881.45743514 18414.42211637
0.10500000 1053645.60314068 21778.85564160
0.10600001 1044396.54674152 25143.84804591
0.10700001 1035142.16355683 31861.67729362
0.10800001 1025879.66769900 16773.13335625
0.10900001 1016613.35126229 25161.18162797
0.11000001 1007343.31063743 20126.72029389
0.11100001 998071.56293638 20121.12365597
0.11200001 988800.70255926 20112.20723688
0.11300001 979529.21731363 25124.92560700
0.11400001 970262.14424802 21758.12960923
0.11500001 960999.09128037 18393.52347322
0.11600001 951741.59311083 16703.06574567
0.11700001 942492.33156125 18350.32655970
0.11800001 933249.88519274 18324.36235881
0.11900001 924018.24555874 18295.56212381
0.12000001 914797.72744304 23245.01134928
0.12100001 905591.56479499 19886.79169973
0.12200001 896398.33970058 16538.55014663
0.12300001 887221.53418795 16502.32131339
0.12400001 878060.84794139 18110.00584209
0.12500001 868918.51719189 24633.84112315
0.12600001 859797.32842362 18017.05386614
0.12700001 850696.90174428 24500.07192483
0.12800001 841617.55175113 19542.36047268
0.12900001 832562.04918766 19481.95286922
0.13000001 823531.37470226 19418.87073079
0.13100001 814525.47194364 25804.16816752
0.13200001 805548.29147377 17677.75808973
0.13300001 796600.13687767 16011.66350608
0.13400001 787680.02016123 22330.72962437
0.13500001 778791.48499111 17476.08174717
0.13600001 769933.58749797 20568.77675984
0.13700001 761109.85501243 18905.96968999
0.13800001 752318.46177965 23528.76100167
0.13900001 743564.50770468 20299.31201762
0.14000001 734845.39506987 18650.37700644
0.14100001 726163.63985804 20107.47213600
0.14200001 717519.21792068 18468.94554037
0.14300001 708916.49993371 21437.63596916
0.14400001 700350.07333605 19802.39925765
0.14500001 691828.44537595 22726.56550266
0.14600001 683346.28795940 25615.23681254
0.14700001 674910.14928811 14983.00602104
0.14800001 666515.27961707 14896.61720224
0.14900001 658165.08474850 16289.58661608
0.15000001 649861.11562726 16191.29045981
0.15100001 641603.64042107 20479.98916859
0.15200001 633394.11120186 18897.31419942
0.15300001 625232.62921710 20220.02418304
0.15400001 617117.85062085 17217.58884484
0.15500001 609054.84656802 17102.26089874
0.15600001 601039.73157863 18400.83225071
0.15700001 593079.30997515 15461.57834079
0.15800001 585166.07664566 18143.07506273
0.15900001 577308.18093530 19397.55579500
0.16000001 569500.72091255 15128.78736516
0.16100001 561750.14083785 16380.63488007
0.16200001 554051.37526057 14901.21244106
0.16300001 546408.85287778 16129.99009841
0.16400001 538821.10898265 13335.82307690
0.16500001 531289.38579846 15874.92759713
0.16600001 523813.91515934 13121.53919425
0.16700001 516394.73585913 13013.14795806
0.16800001 509032.36023808 12903.97094131
0.16900001 501729.86344676 16632.34575861
0.17000001 494484.55791032 16488.58836211
0.17100001 487298.21825336 15086.75354954
0.17200001 480170.99613975 16198.56931972
0.17300001 473103.01750447 17287.18507599
0.17400001 466096.19598801 12235.02572250
0.17500001 459148.75124832 18182.29140814
0.17600001 452260.19036182 19212.01379394
0.17700001 445435.01386387 16650.36160464
0.17800001 438669.78831344 11778.28437253
0.17900001 431965.98600115 11663.08217292
0.18000001 425324.48984441 15011.82857814
0.18100001 418745.98376530 16004.47225550
0.18200001 412226.72951822 16973.43638970
0.18300001 405772.64695049 15679.05581883
0.18400001 399379.32634745 12191.05451267
0.18500001 393049.87407199 14255.91960607
0.18600001 386782.96668616 11934.18900091
0.18700001 380578.76607441 11805.55388138
0.18800001 374437.14534887 12738.35228661
0.18900001 368360.83179127 13647.76946269
0.19000001 362343.59161108 10381.14439015
0.19100001 356394.82246240 11290.58850909
0.19200001 350505.60657695 15220.70668480
0.19300001 344682.70554525 11033.29392586
0.19400001 338921.97680974 11896.16194816
0.19500001 333225.25220119 14695.23431650
0.19600001 327590.79879578 13552.43198662
0.19700001 322020.67052259 15302.42298639
0.19800001 316513.88155457 17006.29165962
0.19900001 311071.37432715 13064.99833919
0.20000001 305690.09521770 15668.14657088
0.20100001 300374.02072671 9101.33325817
0.20200001 295119.59385406 11682.30967486
0.20300001 289929.08433729 10646.19648005
0.20400001 284801.41100436 9633.40818255
0.20500001 279735.84899435 10372.60577099
0.20600001 274733.69567661 14501.81881176
0.20700001 269793.36021643 12626.32985496
0.20800001 264915.38459420 10796.62700950
0.20900001 260101.79953256 9831.84848709
0.21000001 255347.49506169 10506.27318097
0.21100001 250655.31720452 8767.92341030
0.21200001 246024.65360217 10218.63447045
0.21300001 241455.12543770 9300.85187156
0.21400001 236947.29475101 10698.17086378
0.21500001 232501.07316136 8286.33863923
0.21600001 228113.96874917 11137.66505075
0.21700001 223787.81244641 7317.86181298
0.21800001 219521.62809841 9374.67157118
0.21900001 215314.15484379 8526.44093496
0.22000001 211165.77559278 7700.16037107
0.22100001 207078.95709137 8274.87551664
0.22200001 203049.75711537 7471.21616633
0.22300001 199078.88014487 8026.86082699
0.22400001 195164.58176156 8562.84642969
0.22500001 191311.14437347 8431.08253122
0.22600001 187513.19398878 7023.30701297
0.22700001 183773.64193836 10056.09416241
0.22800001 180089.89224770 7423.30570950
0.22900001 176462.34063408 7305.54124774
0.23000001 172890.99426872 7188.80788167
0.23100001 169376.72259866 6483.74124771
0.23200001 165915.66549111 8698.12917474
0.23300001 162510.78191561 5704.12871501
0.23400001 159160.55794359 7854.57390600
0.23500001 155862.59824299 7172.79711039
0.23600001 152619.74010939 6510.75842101
0.23700001 149429.79874626 6935.03728783
0.23800001 146292.43935006 6817.95945839
0.23900001 143207.80831016 8248.77014883
0.24000001 140174.80267527 5067.31935640
0.24100001 137194.55368803 6474.21129478
0.24200001 134264.62972419 5383.34058343
0.24300001 131385.58703897 5289.58398440
0.24400001 128556.08260131 4724.43625908
0.24500001 125776.86118837 5569.39967688
0.24600001 123046.97220557 5014.77958946
0.24700001 120366.73160971 5373.17115324
0.24800001 117733.73090182 5276.82606865
0.24900001 115148.80697406 6477.12069871
0.25000001 112611.87336244 5087.80467921
0.25100001 110121.34910866 5411.36335121
0.25200001 107678.63000317 5720.96588273
0.25300001 105281.95302826 6417.98816024
0.25400001 102930.05927191 5118.19743944
0.25500001 100623.57781826 5023.12924234
0.25600001 98362.19495376  5687.79419231
0.25700001 96144.80493365  4837.04536507
0.25800001 93971.10259535  4015.85525942
0.25900001 91841.00493104  4656.33917032
0.26000001 89754.27210730  4216.65590311
0.26100001 87707.72449450  5170.37060359
0.26200001 85705.47562015  4057.29740784
0.26300001 83743.34872132  5305.97882605
0.26400001 81822.00707273  3577.66742854
0.26500001 79941.94939787  4784.52589786
0.26600001 78100.81671003  3127.93785725
0.26700001 76300.39087392  3987.45861576
0.26800001 74538.70933663  3909.92818327
0.26900001 72815.00873518  4128.61119066
0.27000001 71130.06283590  2891.43719111
0.27100001 69482.46989079  3968.83886798
0.27200001 67872.30203741  3335.24507995
0.27300001 66298.29643288  3542.31814605
0.27400001 64759.45663181  3472.72602623
0.27500001 63258.45536586  3142.68021130
0.27600001 61790.55652689  2824.13751972
0.27700001 60359.28466931  3523.77520576
0.27800001 58961.23558694  2714.28060870
0.27900001 57597.58420045  2661.00851600
0.28000001 56266.84735979  2608.81250131
0.28100001 54969.12813633  2557.71365324
0.28200001 53704.03272126  3191.63081568
0.28300001 52470.96577970  2682.31589761
0.28400001 51269.64926931  3287.66641500
0.28500001 50099.43372358  2579.11897016
0.28600001 48959.22622742  2318.46426774
0.28700001 47849.72471299  2687.24066708
0.28800001 46769.17467195  2432.93258159
0.28900001 45719.47336254  2187.67690395
0.29000001 44697.23344747  2341.24119880
0.29100001 43704.91276416  3445.69548543
0.29200001 42739.51440622  2629.76244590
0.29300001 41801.80635814  2212.15169719
0.29400001 40891.09537455  1990.37416157
0.29500001 40008.27743258  2664.55140314
0.29600001 39150.36703734  1918.56382748
0.29700001 38318.31497002  2911.80889241
0.29800001 37512.30353812  2187.15496133
0.29900001 36731.12607405  1818.19082674
0.30000001 35974.47543626  2273.94669997
0.30100001 35242.77550298  1596.49780586
0.30200001 34533.71875669  1883.46911015
0.30300001 33848.54817629  2006.54203088
0.30400001 33187.09620703  1973.80264036
0.30500001 32547.02179063  1942.08088219
0.30600001 31929.45355929  1764.42168722
0.30700001 31334.13674864  2460.98321675
0.30800001 30759.87755305  1996.00854892
0.30900001 30206.66104897  1545.07078581
0.31000001 29674.97472617  1661.20516382
0.31100001 29161.81589663  1364.77304858
0.31200001 28669.76695453  1615.25474669
0.31300001 28196.40806016  1859.27123552
0.31400001 27743.86512056  1310.89768901
0.31500001 27309.23795741  1423.90373452
0.31600002 26892.79967355  1406.62795353
0.31700002 26494.18708565  1390.15006220
0.31800002 26113.76001506  1374.49782347
0.31900002 25750.87815660  1977.66753607
0.32000002 25404.70645664  1467.88400857
0.32100002 25075.69037811  1332.27149287
0.32200002 24763.04460669  1319.74652480
0.32300002 24465.69553800  1189.03285945
0.32400002 24184.36614448  1296.88669591
0.32500002 23918.05202974  1169.59279964
0.32600002 23667.33743539  1393.05954741
0.32700002 23431.04422767  1383.36891671
0.32800002 23209.81001237  1718.10626752
0.32900002 23001.42258699  1138.57047197
0.33000002 22808.37366121  1132.43580590
0.33100002 22626.49517759  1915.55917245
0.33200002 22460.27797469  1234.08003176
0.33300002 22305.39568342  1676.25056499
0.33400002 22164.08237314  1113.74519199
0.33500002 22034.36277780  1221.58513025
0.33600002 21916.60799402  1661.82687984
0.33700002 21809.80954284  1216.33313581
0.33800002 21715.90196985  1214.67903421
0.33900002 21631.76095721  1213.54184717
0.34000002 21559.20578573  1213.02877098
0.34100002 21497.00769016  1213.07620141
0.34200002 21445.89757960  1324.06977927
0.34300002 21403.56948426  1546.19393277
0.34400002 21371.91030036  1548.39497459
0.34500002 21349.23486530  1551.23547878
0.34600002 21337.07715518  1332.71390223
0.34700002 21331.75117496  1558.92444970
0.34800002 21336.80759868  1340.37831683
0.34900002 21349.91477885  1681.30586846
0.35000002 21371.33215249  1462.76089846
0.35100002 21400.95548616  1355.96460383
0.35200002 21437.62574463  1248.63457063
0.35300002 21482.22338034  1711.05917329
0.35400002 21534.56646904  1261.38729067
0.35500002 21593.71341187  1383.72522097
0.35600002 21659.14046182  1275.83172933
0.35700002 21731.58615200  1750.47934745
0.35800002 21810.95116343  1409.42373094
0.35900002 21896.01400857  1300.62329371
0.36000002 21987.89538145  1309.70905043
0.36100002 22084.66165329  1918.71549532
0.36200002 22188.23032206  1449.77903791
0.36300002 22295.39483172  1704.26006166
0.36400002 22408.68667572  1226.87565361
0.36500002 22526.45027730  1484.04261456
0.36600002 22649.58577010  1496.23170685
0.36700002 22776.92504083  1257.28632181
0.36800002 22910.09323900  1775.30320918
0.36900002 23046.51853272  2046.53094265
0.37000002 23186.05708614  1677.39537935
0.37100002 23330.00930876  1952.72187164
0.37200002 23478.01949958  1576.31430387
0.37300002 23629.09290695  1458.15139236
0.37400002 23784.51491823  1471.66693028
0.37500002 23941.97699629  1350.32756656
0.37600002 24103.60220249  1908.28227677
0.37700002 24266.76759128  1788.70352389
0.37800002 24433.68303480  1527.96044096
0.37900002 24602.91558443  1823.07613117
0.38000002 24774.60518670  1699.04250419
0.38100002 24948.07146749  2144.28684421
0.38200002 25123.93176256  1732.04393776
0.38300002 25301.47154666  1457.36483013
0.38400002 25481.51142127  1471.55735429
0.38500002 25662.13516807  1634.42146628
0.38600002 25845.45704947  1800.39462336
0.38700002 26029.17763957  1514.89821039
0.38800002 26214.11533214  2447.34992335
0.38900002 26400.32296124  2007.74465632
0.39000002 26588.26785315  2806.92357024
0.39100002 26776.11300864  1731.87907145
0.39200002 26965.29646742  2225.44602289
0.39300002 27154.76961809  1925.81635255
0.39400002 27345.55390009  1620.22414534
0.39500002 27535.85535552  2289.88183985
0.39600002 27726.42175702  2641.77359017
0.39700002 27916.80642753  2166.62344949
0.39800002 28108.38775118  1682.28708661
0.39900002 28298.95696499  1867.73124818
0.40000002 28489.44805266  1713.64038156
0.40100002 28679.33428786  2248.17312134
0.40200002 28870.22879134  2443.28757837
0.40300002 29059.41407361  1761.00057630
0.40400002 29248.14449438  3020.60226577
0.40500002 29436.27923071  1971.93643910
0.40600002 29623.98326506  2893.67082244
0.40700002 29810.52111042  2554.16556976
0.40800002 29996.56191129  2208.34699254
0.40900002 30180.58943892  2041.71697228
0.41000002 30364.57790995  1871.97631685
0.41100002 30546.96269013  2076.58262207
0.41200002 30727.47044525  2855.35032642
0.41300002 30907.12623441  2111.26589311
0.41400002 31085.23580537  2128.56162263
0.41500002 31262.31578234  2340.92231670
0.41600002 31436.63773498  3736.08738864
0.41700002 31610.19052833  2180.15494404
0.41800002 31782.75483725  2596.81010702
0.41900002 31951.56777187  2012.94886501
0.42000002 32119.39024179  2839.67542583
0.42100002 32285.85935631  2248.06449350
0.42200002 32450.15123854  3294.33950984
0.42300002 32611.92048415  2903.76553751
0.42400002 32771.68040102  2507.03366948
0.42500002 32929.65128883  2525.04578048
0.42600002 33084.12022257  3178.55700100
0.42700002 33237.71551724  2347.24758105
0.42800002 33388.40698478  2578.25290954
0.42900002 33537.31187893  3244.73507805
0.43000002 33683.71519758  3484.24366515
0.43100002 33826.32517974  3068.72436572
0.43200002 33967.40447080  2868.03793240
0.43300002 34105.54714135  3774.46108100
0.43400002 34241.50389031  2457.68405819
0.43500002 34374.33908865  2697.69825952
0.43600002 34505.53471918  2940.38928044
0.43700002 34632.92283294  2730.45976554
0.43800002 34757.00714056  2288.74902867
0.43900002 34879.40650254  2992.65321974
0.44000002 34998.18357059  2778.15594349
0.44100002 35114.84395314  2793.73711731
0.44200002 35228.27530249  2575.01090527
0.44300002 35339.14747377  3295.02226661
0.44400002 35446.49400516  3075.86966307
0.44500002 35550.04913062  2853.95807946
0.44600002 35651.52521842  2868.52185502
0.44700002 35750.16706839  2642.65247493
0.44800002 35844.73903052  3138.38627455
0.44900002 35937.59768128  2425.78795845
0.45000002 36027.10654919  4143.29758505
0.45100002 36112.11344145  3672.60211105
0.45200002 36195.12374994  3935.13404059
0.45300002 36274.29955710  2964.33590029
0.45400002 36351.05726062  2977.15173074
0.45500002 36424.39557091  4235.42891772
0.45600002 36494.24767159  3752.52119468
0.45700002 36560.98388682  3014.08765448
0.45800002 36623.93731834  3025.86984465
0.45900002 36683.88698106  3037.42598599
0.46000002 36741.50748756  3556.94550845
0.46100002 36794.54961824  2804.84865033
0.46200002 36845.22820360  4350.13207403
0.46300002 36892.12491052  3081.23041856
0.46400002 36935.43988007  2833.87175911
0.46500002 36976.33168729  2584.64570744
0.46600002 37013.19325208  4148.43889631
0.46700002 37046.81717729  3380.89269584
0.46800002 37077.81885115  4434.32195567
0.46900002 37104.81725258  3400.65666238
0.47000002 37128.19248211  3410.03900014
0.47100002 37148.81777494  3156.16370775
0.47200002 37165.95411736  3955.38685441
0.47300002 37180.32281478  2907.87318517
0.47400002 37190.11083740  2914.77507503
0.47500002 37197.77668290  2921.51351915
0.47600002 37202.37618570  2661.83014225
0.47700002 37202.64509832  3200.91573598
