# SAXS profile: number of points = 501, q_min = 0, q_max = 0.5, delta_q = 0.001
#    q    intensity    error
0.00000000 1664650.74656091 274.66737318
0.00100000 1664582.16795466 649.18706092
0.00200000 1664376.37277482 823.86633061
0.00300000 1664033.53545822 1297.94620389
0.00400000 1663553.51750052 1996.26429685
0.00500000 1662936.77879018 1646.30747617
0.00600000 1662183.06223374 2792.46765824
0.00700000 1661292.97504980 2790.97231408
0.00800000 1660266.04952633 2913.76703994
0.00900000 1659103.58477418 2986.38658025
0.01000000 1657804.74019192 3555.99132126
0.01100000 1656370.79335477 2981.46755785
0.01200000 1654801.13298688 4194.92105604
0.01300000 1653097.19844387 4860.10597778
0.01400000 1651258.29035118 3715.33131799
0.01500000 1649286.10946537 4749.94420677
0.01600000 1647179.49368157 4620.33868632
0.01700000 1644940.61957382 5773.74183371
0.01800000 1642569.03814412 4681.32196936
0.01900000 1640065.47611378 5904.23598042
0.02000000 1637430.51284358 5673.69698366
0.02100000 1634665.77492970 6473.27676221
0.02200000 1631769.60519130 6192.56593304
0.02300000 1628744.78486287 7622.52594012
0.02400000 1625591.13196432 9753.54723652
0.02500000 1622310.08705527 9490.51444271
0.02600000 1618901.89034346 11146.14002482
0.02700000 1615367.34570737 7462.99747898
0.02800000 1611706.49553838 9114.20065024
0.02900000 1607921.97426141 7959.21413803
0.03000000 1604013.87052487 9696.26429301
0.03100000 1599982.57742483 14591.84177753
0.03200000 1595829.12874943 11849.03182671
0.03300000 1591556.25192040 8116.93725899
0.03400000 1587161.92983884 9165.86056774
0.03500000 1582649.57368193 9400.93890179
0.03600000 1578018.88859240 10509.60628371
0.03700000 1573271.59391989 10761.17820009
0.03800000 1568409.27922556 11010.23364971
0.03900000 1563432.73088932 12194.77586568
0.04000000 1558341.33930955 12458.93958511
0.04100000 1553138.80552542 10763.25242135
0.04200000 1547825.48310240 12978.51727792
0.04300000 1542401.51743940 13233.80563392
0.04400000 1536870.46580654 13486.03896377
0.04500000 1531232.06682915 12678.60210246
0.04600000 1525486.57287097 13981.08509030
0.04700000 1519637.04727052 10941.38724921
0.04800000 1513684.06972083 12238.13627311
0.04900000 1507629.97533467 20353.00561440
0.05000000 1501474.45406199 12634.90811929
0.05100000 1495220.90798547 11662.72362558
0.05200000 1488867.37051769 14203.79537665
0.05300000 1482419.55715141 13208.35886996
0.05400000 1475875.43315897 13393.57018051
0.05500000 1469239.36729366 12341.61126099
0.05600000 1462509.55785193 13754.90303346
0.05700000 1455691.05175710 15197.41528974
0.05800000 1448782.52344387 16668.24371050
0.05900000 1441786.03528356 18166.50489305
0.06000000 1434704.18311645 15753.05266658
0.06100000 1427538.45420856 15931.32989346
0.06200000 1420289.47230702 14763.90975475
0.06300000 1412960.26946858 21703.07075377
0.06400000 1405549.07020390 15074.51448292
0.06500000 1398062.19711579 13840.81639889
0.06600000 1390497.32181041 16769.39848565
0.06700000 1382857.52650555 15515.66217351
0.06800000 1375145.70299516 17079.31043067
0.06900000 1367362.66816715 20100.23216313
0.07000000 1359507.77839167 17374.51022147
0.07100000 1351586.17532989 14597.13137726
0.07200000 1343596.53158932 23539.81233621
0.07300000 1335543.59720405 17789.44154829
0.07400000 1327427.13135790 20906.97829867
0.07500000 1319248.76500165 16543.38028855
0.07600000 1311009.18885406 19684.80389348
0.07700000 1302713.83467502 15241.75258036
0.07800000 1294360.90665980 18405.81295587
0.07900000 1285952.00643156 16974.56728107
0.08000000 1277492.07854517 15521.52948246
0.08100000 1268980.25791860 23412.68685708
0.08200000 1260417.70795702 21969.08168059
0.08300000 1251807.74018119 17350.05609318
0.08400000 1243150.97771410 19020.21085181
0.08500000 1234451.23778707 17516.86388653
0.08600000 1225707.55443090 19194.58120360
0.08700000 1216923.63898216 25701.42846218
0.08800000 1208098.09259495 17740.92132294
0.08900000 1199236.95609825 17808.66963453
0.09000000 1190339.30926437 25997.01173556
0.09100000 1181407.37636779 16303.42255983
0.09200000 1172442.25046682 17991.12717876
0.09300000 1163447.44505407 27887.83656846
0.09400000 1154421.13031594 16450.50188013
0.09500000 1145367.94843348 18142.62915594
0.09600000 1136288.50086353 23146.19785064
0.09700000 1127186.10263121 21540.52743396
0.09800000 1118061.49318664 21584.17814081
0.09900000 1108916.30830084 18297.11994734
0.10000000 1099750.46653979 18327.34238677
0.10100000 1090566.98116327 18354.24315621
0.10200000 1081367.81255950 20048.56018786
0.10300000 1072153.74668315 21743.27900555
0.10400000 1062927.89866660 23437.56126822
0.10500000 1053692.52699772 20104.45436102
0.10600001 1044444.07633075 21792.32667805
0.10700001 1035190.31675360 21801.10909674
0.10800001 1025928.43149278 16773.93064432
0.10900001 1016662.73085786 25162.40377302
0.11000001 1007393.31686120 20127.71941829
0.11100001 998122.17015134 23475.83454705
0.11200001 988851.84311462 26817.66324777
0.11300001 979580.90308440 21776.08450080
0.11400001 970314.51633559 18411.71881437
0.11500001 961051.87757589 21738.99449441
0.11600001 951794.98974341 18374.40314227
0.11700001 942546.26220198 21687.99051466
0.11800001 933304.27061543 19991.37841814
0.11900001 924073.15115224 19959.98100504
0.12000001 914853.14948407 19925.50253435
0.12100001 905647.53765219 21545.35593571
0.12200001 896454.91616777 26463.35037200
0.12300001 887278.58619986 23104.73547321
0.12400001 878118.44440439 18111.19376919
0.12500001 868976.57173947 21350.75537370
0.12600001 859855.94807539 19656.30789928
0.12700001 850755.91564415 16334.51435015
0.12800001 841677.16062363 19543.74459076
0.12900001 832622.12177941 17859.74535394
0.13000001 823591.79788765 19420.29550956
0.13100001 814586.45289884 24193.21879151
0.13200001 805609.67243040 19286.29646715
0.13300001 796661.84279981 16012.90379517
0.13400001 787742.15291325 17546.95728340
0.13500001 778854.02799739 17477.48521229
0.13600001 769996.50944544 17405.77191671
0.13700001 761173.21689907 18907.54359933
0.13800001 752382.20860954 21962.03770495
0.13900001 743628.53516566 18739.43996989
0.14000001 734909.85074576 15543.34407631
0.14100001 726228.47916647 18562.40080295
0.14200001 717584.33171643 16931.40310542
0.14300001 708981.97215820 16845.41245304
0.14400001 700415.87472057 18280.85519251
0.14500001 691894.56396574 18182.98999875
0.14600001 683412.78283486 16576.17782963
0.14700001 674976.77448572 17981.38212060
0.14800001 666582.24469090 22347.17080757
0.14900001 658232.29956516 14810.22743897
0.15000001 649928.60208674 19137.14859139
0.15100001 641671.35221348 20482.15052910
0.15200001 633462.18148775 23260.73240183
0.15300001 625300.77769051 18777.78324015
0.15400001 617186.29456621 15784.54022842
0.15500001 609123.38949785 17104.18558430
0.15600001 601108.52887950 15571.71717553
0.15700001 593148.27156883 16869.13763959
0.15800001 585235.23729518 19541.00549560
0.15900001 577377.44073034 20785.58884738
0.16000001 569570.13542334 16506.14330370
0.16100001 561819.70218683 13652.21940758
0.16200001 554121.01499631 18967.56323871
0.16300001 546478.61152242 16132.04937370
0.16400001 538890.95398556 13337.55174080
0.16500001 531359.25651927 19846.26916796
0.16600001 523883.80866886 14435.61902942
0.16700001 516464.76637050 20823.86036325
0.16800001 509102.49766719 18068.04849532
0.16900001 501799.93539989 20473.43833103
0.17000001 494554.72871530 16490.92820771
0.17100001 487368.32204798 12574.10330260
0.17200001 480241.02034027 14954.70607960
0.17300001 473173.05783534 14819.78087126
0.17400001 466166.18336691 14684.23546954
0.17500001 459218.68070690 13335.71111754
0.17600001 452330.08489823 14411.23718549
0.17700001 445504.81857392 17842.46882660
0.17800001 438739.52699706 12958.17254190
0.17900001 432035.56248572 12831.45681190
0.18000001 425394.00709242 13859.33740572
0.18100001 418815.35342102 13720.39162618
0.18200001 412295.96212609 13581.02963397
0.18300001 405841.59535754 12321.35141711
0.18400001 399448.28086104 11084.69031754
0.18500001 393118.58617671 12064.80997973
0.18600001 386851.56563983 10851.18692884
0.18700001 380647.09419482 18248.22255783
0.18800001 374505.30303419 11678.94842691
0.18900001 368428.64770367 10500.21695566
0.19000001 362411.20977641 12459.69798082
0.19100001 356462.16725831 10266.11090211
0.19200001 350572.70838113 14208.71254207
0.19300001 344749.44767245 12038.65128158
0.19400001 338988.51574782 10906.95600958
0.19500001 333291.41473473 14698.15208436
0.19600001 327656.67541324 10650.48073761
0.19700001 322086.19388544 10522.55645151
0.19800001 316579.02900921 10394.87290877
0.19900001 311136.18779754 13067.72050508
0.20000001 305754.51658125 11984.04884378
0.20100001 300438.13689341 9103.27597811
0.20200001 295183.18072487 10785.99393347
0.20300001 289992.31925737 12423.27154417
0.20400001 284864.24475087 12263.40631616
0.20500001 279798.23100099 8645.76574659
0.20600001 274795.59217478 10238.88424840
0.20700001 269854.79509007 8419.47000479
0.20800001 264976.34591624 10799.11148829
0.20900001 260162.23793823 12292.66632367
0.21000001 255407.52212116 12933.83753163
0.21100001 250714.76141816 11959.09468499
0.21200001 246083.64884439 11007.32213317
0.21300001 241513.51497324 9303.10103658
0.21400001 237005.25260762 10700.78766113
0.21500001 232558.47452443 13562.81087548
0.21600001 228170.80721638 8169.65613863
0.21700001 223843.92857220 9515.60585350
0.21800001 219577.27203115 7934.42509999
0.21900001 215369.23499009 9239.34061793
0.22000001 211220.20921445 7702.14529318
0.22100001 207132.79344837 8277.02681756
0.22200001 203102.90849999 8831.93039373
0.22300001 199131.30928440 10705.29969333
0.22400001 195216.44987220 6588.55549474
0.22500001 191362.34634168 8433.33900207
0.22600001 187563.74493716 6386.54581712
0.22700001 183823.49995565 6915.44039536
0.22800001 180139.04986569 7425.33198661
0.22900001 176510.78383122 9743.39572826
0.23000001 172938.80785376 6591.56297307
0.23100001 169423.76075871 8254.32601453
0.23200001 165962.10032448 7540.48838486
0.23300001 162556.46715072 6276.30549352
0.23400001 159205.40866880 9540.38456569
0.23500001 155906.75054140 9934.37861436
0.23600001 152663.16054071 8140.76342087
0.23700001 149472.37620918 7470.62971628
0.23800001 146334.27465788 6295.30079354
0.23900001 143248.80480573 5672.65293862
0.24000001 140215.01869857 9123.79169827
0.24100001 137233.98699422 5479.75335988
0.24200001 134303.31210053 6853.49834067
0.24300001 131423.37939738 5291.10550482
0.24400001 128593.05345353 6143.53341935
0.24500001 125813.00190798 7427.99998402
0.24600001 123082.38239944 6840.30372543
0.24700001 120401.21897670 6718.38833672
0.24800001 117767.45605530 4838.47616092
0.24900001 115181.67079231 4319.31285905
0.25000001 112643.77061946 5089.24579735
0.25100001 110152.43438714 4580.13843850
0.25200001 107708.82222428 6131.32499519
0.25300001 105311.30278387 5617.30515625
0.25400001 102958.55363892 6694.88026711
0.25500001 100651.20943057 4638.00794999
0.25600001 98388.86463727  3792.89091122
0.25700001 96170.63424163  4093.98409337
0.25800001 93996.04483899  4382.09581773
0.25900001 91865.05762823  4299.28490042
0.26000001 89777.44760641  4569.22341212
0.26100001 87730.02403464  4137.34812924
0.26200001 85726.77619902  6763.84296215
0.26300001 83763.79200396  4312.16021640
0.26400001 81841.48790378  3578.51922792
0.26500001 79960.46691639  3190.42278093
0.26600001 78118.54380635  3754.37739299
0.26700001 76317.15401613  3374.74471029
0.26800001 74554.54577017  3609.93127702
0.26900001 72829.90718545  2949.61138059
0.27000001 71144.01448245  3181.20475812
0.27100001 69495.48648610  4536.66557250
0.27200001 67884.44361512  3335.84171711
0.27300001 66309.42955627  3270.38122048
0.27400001 64769.64811263  3206.09773330
0.27500001 63267.74458599  3928.92712473
0.27600001 61798.91531774  3081.29406357
0.27700001 60366.71717400  3272.47989288
0.27800001 58967.71144605  3701.69826122
0.27900001 57603.11228604  3870.92932882
0.28000001 56271.52285601  2609.02928070
0.28100001 54972.72874266  3022.95049663
0.28200001 53706.74983543  2279.85163842
0.28300001 52472.83723082  2458.87726902
0.28400001 51270.51157423  2410.99592089
0.28500001 50099.40401162  2794.04389397
0.28600001 48958.27609172  2318.41927406
0.28700001 47847.81353289  2893.83589944
0.28800001 46766.38516299  2230.05518205
0.28900001 45715.70713057  1988.63335431
0.29000001 44692.59082120  2340.99801802
0.29100001 43699.30639313  1914.02971062
0.29200001 42733.00888171  3004.98532680
0.29300001 41794.39610730  2580.38613781
0.29400001 40882.80435210  2894.50268514
0.29500001 39999.11397526  2308.74896794
0.29600001 39140.32297295  1918.07161809
0.29700001 38307.31402996  2397.27182548
0.29800001 37500.47429011  2186.46525699
0.29900001 36718.40014263  2808.95774388
0.30000001 35960.81669841  1785.99404587
0.30100001 35228.18855407  2393.75552557
0.30200001 34518.34773482  2039.51667246
0.30300001 33832.35268213  2314.13303301
0.30400001 33169.96146578  1517.52580890
0.30500001 32529.05010221  1941.00851149
0.30600001 31910.64251482  1763.38218885
0.30700001 31314.42628704  1591.39921925
0.30800001 30739.40636145  3134.49741508
0.30900001 30185.31440625  1403.61718634
0.31000001 29652.81810695  1521.63443320
0.31100001 29138.87229881  1363.69928815
0.31200001 28645.99470399  1882.90132104
0.31300001 28171.80218607  1459.58114037
0.31400001 27718.53677314  1571.64110945
0.31500001 27282.99648071  1681.17832274
0.31600002 26865.84385220  1532.96512279
0.31700002 26466.43314817  1514.93870513
0.31800002 26085.21129803  1248.17741971
0.31900002 25721.63616712  1728.49403227
0.32000002 25374.68278514  1588.32834414
0.32100002 25044.94708412  1330.63810158
0.32200002 24731.58055713  1797.36770210
0.32300002 24433.50957831  1543.70920825
0.32400002 24151.51718237  1530.60247391
0.32500002 23884.46378097  1751.92550129
0.32600002 23632.99908619  1622.87812410
0.32700002 23396.09646482  1266.19680063
0.32800002 23174.10789019  1372.37073424
0.32900002 22965.10277299  1477.80443342
0.33000002 22771.40198193  1582.84022672
0.33100002 22588.89761526  1237.41986996
0.33200002 22421.93596205  1231.97332977
0.33300002 22266.53992537  1338.66444371
0.33400002 22124.58630738  1222.93656605
0.33500002 21994.20289274  1219.35866612
0.33600002 21875.90464956  1216.40973564
0.33700002 21768.52677498  1545.13010366
0.33800002 21674.03429235  1102.12469596
0.33900002 21589.33706136  1321.26749073
0.34000002 21516.27110900  1430.72451515
0.34100002 21453.44040611  1320.67385395
0.34200002 21401.88633499  1211.23981449
0.34300002 21358.97632140  1432.76019949
0.34400002 21326.80164882  1214.02824136
0.34500002 21303.65010335  1547.92328982
0.34600002 21291.01859047  1329.83708414
0.34700002 21285.27474323  1444.41881248
0.34800002 21289.81528965  1114.52188320
0.34900002 21302.51932056  1342.05878076
0.35000002 21323.55883506  1347.22251101
0.35100002 21352.67512916  1465.64769028
0.35200002 21388.96689313  1812.07336101
0.35300002 21433.16556721  1138.10114552
0.35400002 21485.09868748  1716.12233894
0.35500002 21543.89434066  1495.57721597
0.35600002 21609.03868115  1388.59689142
0.35700002 21681.01688550  1164.27066190
0.35800002 21760.11088361  1288.96022924
0.35900002 21844.85838167  1297.58464933
0.36000002 21936.47827019  1187.86035459
0.36100002 22032.92423806  1674.94297991
0.36200002 22136.26478359  1205.31967456
0.36300002 22243.12485841  1214.47467480
0.36400002 22356.21426599  1346.40306794
0.36500002 22473.67934349  1727.32707616
0.36600002 22596.64351631  1617.12886984
0.36700002 22723.75788263  1505.22179345
0.36800002 22856.68448826  1265.11754635
0.36900002 22992.89044729  1403.71602830
0.37000002 23132.32908531  1802.23984441
0.37100002 23276.07400572  1818.32698746
0.37200002 23424.02595540  1441.63174572
0.37300002 23574.93278195  2116.08606675
0.37400002 23730.24356102  1868.75676895
0.37500002 23887.57156779  1347.25910024
0.37600002 24049.10853572  1631.97258254
0.37700002 24212.16116225  2196.52736469
0.37800002 24379.05691348  1663.13934142
0.37900002 24548.26965707  1539.17658041
0.38000002 24719.87759644  1695.28928587
0.38100002 24893.36038210  1996.94546445
0.38200002 25069.14304159  1440.22233597
0.38300002 25246.72455353  1890.47482413
0.38400002 25426.85741776  1468.40108544
0.38500002 25607.48309012  2075.74267762
0.38600002 25790.85019132  1646.87481699
0.38700002 25974.60189473  1662.89409208
0.38800002 26159.65027014  1831.69879869
0.38900002 26345.90443579  1695.35903076
0.39000002 26533.99756426  2489.95044939
0.39100002 26721.95468691  1571.25101003
0.39200002 26911.30745967  1745.06381490
0.39300002 27100.89869084  1921.99582621
0.39400002 27291.82838314  1617.04090831
0.39500002 27482.29857030  1795.69347366
0.39600002 27673.01880912  1977.51401779
0.39700002 27863.64681973  1996.15175274
0.39800002 28055.39563790  2518.67326272
0.39900002 28246.19811914  1694.77196744
0.40000002 28436.90333137  1710.47981642
0.40100002 28627.06871400  2071.45479029
0.40200002 28818.18415660  2613.08897221
0.40300002 29007.71191949  1933.65416817
0.40400002 29196.64139070  2128.43525823
0.40500002 29385.17344436  2147.46857706
0.40600002 29573.10403234  2166.52570406
0.40700002 29759.99916771  3096.23046011
0.40800002 29946.35074455  2572.09218732
0.40900002 30130.81708999  2408.95894048
0.41000002 30315.08440521  2429.60255477
0.41100002 30497.87984699  2638.67668939
0.41200002 30678.78851027  2280.66124592
0.41300002 30858.79818613  1916.33145816
0.41400002 31037.31896560  2511.69515630
0.41500002 31214.78576262  2142.58299627
0.41600002 31389.54882081  2159.75800895
0.41700002 31563.55656607  3166.45614475
0.41800002 31736.59540562  2194.10962733
0.41900002 31905.91359514  3015.10897761
0.42000002 32074.20945385  3038.22963448
0.42100002 32241.11844612  2040.86289435
0.42200002 32405.91913735  2878.61793337
0.42300002 32568.26731953  2692.74446958
0.42400002 32728.49014677  2295.08548030
0.42500002 32887.00182111  3152.21927392
0.42600002 33042.01606843  3386.14596715
0.42700002 33196.17888752  3196.79217835
0.42800002 33347.40063380  2789.67693221
0.42900002 33496.86345971  2592.65735464
0.43000002 33643.92145972  2610.09555053
0.43100002 33787.09868688  3065.16573812
0.43200002 33928.78694464  2644.40977978
0.43300002 34067.52007201  2439.57522796
0.43400002 34204.09520145  2231.81731766
0.43500002 34337.56492638  2694.81222313
0.43600002 34469.41290402  2259.47012293
0.43700002 34597.47504206  2954.97048338
0.43800002 34722.19932847  3429.68540120
0.43900002 34845.22779240  2299.78514328
0.44000002 34964.70487212  2544.20687059
0.44100002 35082.04476907  2325.93967842
0.44200002 35196.14606761  2572.66241873
0.44300002 35307.75336864  2821.79578295
0.44400002 35415.76483655  2836.80289785
0.44500002 35520.06241246  2851.55074561
0.44600002 35622.24821959  2866.16622758
0.44700002 35721.66483401  3360.69438685
0.44800002 35816.95744005  3377.18107707
0.44900002 35910.51727657  2666.35603415
0.45000002 36000.74403262  2922.54053907
0.45100002 36086.57647495  2691.33700105
0.45200002 36170.29752207  3440.88056635
0.45300002 36250.30049841  2468.64558094
0.45400002 36327.77140331  2727.30756736
0.45500002 36401.90189281  3734.83531121
0.45600002 36472.50680557  3500.26664402
0.45700002 36540.05859610  3012.36257343
0.45800002 36603.81088479  2772.18974874
0.45900002 36664.61047683  4047.77318848
0.46000002 36723.01933328  2539.39690725
0.46100002 36776.84728730  2803.49920158
0.46200002 36828.33867733  3069.27389084
0.46300002 36876.03069703  3336.54341560
0.46400002 36920.18362293  3347.73780868
0.46500002 36961.90946809  3875.45639141
0.46600002 36999.63201740  2851.00678023
0.46700002 37034.05698349  2859.77001581
0.46800002 37065.84417881  5215.16452314
0.46900002 37093.69148017  3399.63698529
0.47000002 37117.91029951  2622.38048695
0.47100002 37139.40459880  3681.25795831
0.47200002 37157.38367733  2899.94814655
0.47300002 37172.60645437  2907.26968859
0.47400002 37183.23991085  4238.88955075
0.47500002 37191.78766809  3452.14189498
0.47600002 37197.22792915  3193.75414137
0.47700002 37198.30791920  3467.25444549
