# SAXS profile: number of points = 501, q_min = 0, q_max = 0.5, delta_q = 0.001
#    q    intensity    error
0.00000000 1682732.95097188 328.13292544
0.00100000 1682663.81580174 757.19873509
0.00200000 1682456.36172971 1059.94754145
0.00300000 1682110.73772142 1009.26647859
0.00400000 1681626.84450002 1261.22018130
0.00500000 1681005.11815293 2269.35699933
0.00600000 1680245.30832306 1764.25764557
0.00700000 1679348.01232261 2418.26123825
0.00800000 1678312.78318165 2945.43905884
0.00900000 1677140.88844192 2767.28258422
0.01000000 1675831.55285609 3318.14661793
0.01100000 1674385.96096788 4520.84229145
0.01200000 1672803.60365914 3914.36060418
0.01300000 1671085.87448667 5263.92073680
0.01400000 1669232.05084066 4506.92673707
0.01500000 1667243.86498642 7202.49381746
0.01600000 1665120.15778384 4670.66225138
0.01700000 1662863.11543401 5836.64979700
0.01800000 1660472.26293664 7098.51924347
0.01900000 1657948.34347768 7460.76788230
0.02000000 1655291.95374617 7821.25483525
0.02100000 1652504.75017549 7089.24569967
0.02200000 1649585.02019528 8536.60286735
0.02300000 1646535.55205771 7113.03390866
0.02400000 1643356.18427200 8011.36176362
0.02500000 1640048.34904229 10233.90216541
0.02600000 1636612.26929031 9279.59199131
0.02700000 1633048.91948551 8916.44750877
0.02800000 1629358.17703085 9922.79175317
0.02900000 1625542.68052179 10240.91935749
0.03000000 1621602.57367047 7540.45231417
0.03100000 1617538.30684396 7764.18423011
0.03200000 1613350.70957880 8784.69501826
0.03300000 1609042.75916427 10667.95398506
0.03400000 1604612.35312164 9266.63676684
0.03500000 1600062.93743694 10368.40831338
0.03600000 1595394.04282147 8854.43734686
0.03700000 1590607.62741666 10879.75667469
0.03800000 1585705.15616273 13914.56338929
0.03900000 1580687.58922805 10432.53857204
0.04000000 1575554.16242816 14534.48782191
0.04100000 1570308.56869995 10882.23888566
0.04200000 1564951.17432087 11103.32909692
0.04300000 1559482.26042345 11321.84173621
0.04400000 1553905.24071285 11537.74694813
0.04500000 1548219.82378412 13887.53246463
0.04600000 1542426.54615789 14136.33995269
0.04700000 1536528.23908560 11063.00383593
0.04800000 1530525.55540962 14624.17236237
0.04900000 1524420.84744893 12576.47257686
0.05000000 1518213.82394894 15098.63718226
0.05100000 1511907.81510836 15330.74595937
0.05200000 1505500.98819464 17953.10012086
0.05300000 1498998.82043054 15784.45831497
0.05400000 1492399.69735179 14774.75769279
0.05500000 1485707.63979892 13727.93923214
0.05600000 1478920.93130923 20231.63928440
0.05700000 1472044.70144257 15368.14740042
0.05800000 1465077.73804866 12965.93858714
0.05900000 1458021.72573044 15746.63537335
0.06000000 1450879.73093044 18585.77022152
0.06100000 1443653.01899775 17453.76581532
0.06200000 1436342.04352853 13573.43294581
0.06300000 1428950.32250138 17833.30085862
0.06400000 1421475.71693934 15245.32777715
0.06500000 1413924.60387629 18197.21050311
0.06600000 1406294.69118829 15546.58853849
0.06700000 1398589.09835519 17118.73136501
0.06800000 1390810.86908113 17273.87180256
0.06900000 1382960.45037849 15973.19394972
0.07000000 1375037.64207501 20501.81220341
0.07100000 1367047.34097525 20669.75676367
0.07200000 1358988.21029499 17857.10591982
0.07300000 1350865.22686336 17993.52566492
0.07400000 1342677.88415023 19636.66497595
0.07500000 1334427.95277827 24339.96699955
0.07600000 1326116.33006686 21443.30206246
0.07700000 1317748.01330693 23126.47871790
0.07800000 1309321.55241055 20170.09946079
0.07900000 1300838.46467475 18732.07476992
0.08000000 1292303.79889448 18841.79027177
0.08100000 1283716.70825278 25263.54600374
0.08200000 1275078.04484917 17462.19464363
0.08300000 1266391.53400717 17552.18748510
0.08400000 1257657.61552777 17638.64888571
0.08500000 1248879.92385628 20943.71730628
0.08600000 1240058.02390614 19419.30956614
0.08700000 1231194.98976871 26002.83940495
0.08800000 1222290.10514872 24476.36050511
0.08900000 1213349.08564321 27846.36282345
0.09000000 1204370.96574669 18083.63090017
0.09100000 1195357.87066816 16495.93939022
0.09200000 1186311.32958391 18203.94820781
0.09300000 1177234.48997214 23238.60992408
0.09400000 1168125.76855719 28297.84807323
0.09500000 1158989.70401438 16689.45252226
0.09600000 1149826.72307837 18402.97756795
0.09700000 1140640.56206540 21797.64216584
0.09800000 1131431.55638081 18481.93534246
0.09900000 1122201.68011880 18516.32859264
0.10000000 1112950.74886091 18547.32510200
0.10100000 1103681.75662629 18574.96483763
0.10200000 1094396.86605341 23671.80532617
0.10300000 1085096.56103929 18620.25786334
0.10400000 1075784.04156289 18637.95939690
0.10500000 1066461.72263385 20348.09062522
0.10600001 1057126.21108695 20360.25178356
0.10700001 1047784.64610405 18671.52327221
0.10800001 1038434.83911922 25467.61562795
0.10900001 1029080.74846389 20375.79977859
0.11000001 1019722.95924626 18676.22687768
0.11100001 1010363.04520323 25461.14993766
0.11200001 1001003.60536039 18663.71310058
0.11300001 991643.20354644 20348.51949480
0.11400001 982287.31769900 27111.13124500
0.11500001 972934.84830100 18621.97387335
0.11600001 963588.07521047 18602.06866794
0.11700001 954249.13562046 16890.21049593
0.11800001 944916.89429671 18553.44409335
0.11900001 935595.08337582 21892.92598219
0.12000001 926284.27043555 16812.06030034
0.12100001 916987.72738799 23493.22668240
0.12200001 907703.93266392 18421.85218129
0.12300001 898436.53503782 23395.28847464
0.12400001 889184.92902655 21673.88366624
0.12500001 879951.65230450 18294.19571344
0.12600001 870739.49921029 16587.58824162
0.12700001 861547.79162912 21504.23389248
0.12800001 852377.20275984 19792.19958088
0.12900001 843230.22200698 23020.18614578
0.13000001 834108.21951874 16390.22728609
0.13100001 825010.89056584 22869.30296449
0.13200001 815942.01353477 21161.45711858
0.13300001 806902.33870809 21084.35910442
0.13400001 797890.72500885 19388.74553181
0.13500001 788910.40634458 19312.52765787
0.13600001 779961.01184764 20836.65941397
0.13700001 771045.78795043 17556.71341949
0.13800001 762162.78602063 15891.09483789
0.13900001 753317.19142634 18983.59411918
0.14000001 744506.59806648 20470.20987923
0.14100001 735733.53150093 21939.57494409
0.14200001 726997.71729248 21831.74247999
0.14300001 718303.80866410 15515.36299897
0.14400001 709646.00584534 21608.72189727
0.14500001 701033.24451821 16887.89165708
0.14600001 692460.25867421 16795.62436647
0.14700001 683933.04456981 21256.64002804
0.14800001 675447.48049503 15096.25190129
0.14900001 667006.57945523 21010.70824414
0.15000001 658612.28494830 19392.83964531
0.15100001 650264.45936449 16308.63341038
0.15200001 641964.72713241 22099.63677435
0.15300001 633713.18135855 17566.53021621
0.15400001 625508.50054895 15997.38065647
0.15500001 617355.85979298 17335.35336109
0.15600001 609251.55774339 17217.44983440
0.15700001 601201.80761397 24222.42197199
0.15800001 593199.57894773 16977.37275079
0.15900001 585252.87208579 16855.28351165
0.16000001 577356.95670918 16731.80539521
0.16100001 569518.22462848 17991.08156527
0.16200001 561731.35290004 15107.76544942
0.16300001 554001.11716934 14991.27093831
0.16400001 546325.76880851 16225.87609963
0.16500001 538707.09223975 14755.18795306
0.16600001 531144.66150747 15966.20927873
0.16700001 523638.95449719 13195.70227636
0.16800001 516190.33190505 23553.76595695
0.16900001 508801.85024393 16866.78213200
0.17000001 501470.96890903 12862.73095989
0.17100001 494199.30466740 15300.41119501
0.17200001 486987.02159787 16428.50794941
0.17300001 479834.42853752 13776.04709388
0.17400001 472743.59258778 13650.47188063
0.17500001 465712.20638780 13524.28311222
0.17600001 458740.32531824 15833.42307616
0.17700001 451831.90877217 20508.65130780
0.17800001 444984.04302733 19116.51539137
0.17900001 438197.80675160 15380.74374347
0.18000001 431474.45202784 14057.43831107
0.18100001 424814.49830185 13916.92362175
0.18200001 418214.04846717 14923.96902453
0.18300001 411679.24450014 12498.58245345
0.18400001 405205.82052341 13493.35446087
0.18500001 398796.67187534 17802.28427353
0.18600001 392450.40217004 14310.70459122
0.18700001 386167.22043570 14156.89097001
0.18800001 379947.12291124 15080.10202082
0.18900001 373792.69933175 12783.71092114
0.19000001 367698.12765275 13694.91741149
0.19100001 361672.28232202 14582.62711225
0.19200001 355706.58353423 12357.24729588
0.19300001 349807.54714651 10179.40010297
0.19400001 343971.24413276 16097.85498610
0.19500001 338199.47987310 10937.37169594
0.19600001 332490.48633751 13755.13206980
0.19700001 326846.13567043 9707.33068816
0.19800001 321265.88861935 10548.76595134
0.19900001 315750.38078258 11367.01424538
0.20000001 310296.53641401 10290.98511653
0.20100001 304908.49989680 11086.47358022
0.20200001 299582.46254175 12771.20098177
0.20300001 294321.23883124 9006.23033391
0.20400001 289123.13890663 12446.75171824
0.20500001 283987.86177301 10530.27041228
0.20600001 278916.28834169 10392.42139484
0.20700001 273907.30414285 9400.49912254
0.20800001 268961.04154615 10118.31486126
0.20900001 264079.77627158 12477.77001867
0.21000001 259258.50728567 13949.40464393
0.21100001 254499.88525444 12139.64510052
0.21200001 249803.28087893 9577.45824167
0.21300001 245168.35521551 8656.89503192
0.21400001 240595.94200082 9311.06339563
0.21500001 236085.49020668 12238.67239093
0.21600001 231634.72571710 8293.68174641
0.21700001 227245.43281515 8917.11120526
0.21800001 222917.02958549 8787.38972173
0.21900001 218647.58778203 10823.05610694
0.22000001 214438.01669088 7819.48264836
0.22100001 210290.64281445 9103.48235788
0.22200001 206201.22250559 8276.91746274
0.22300001 202170.91868498 6792.94318902
0.22400001 198197.74116092 9364.84371268
0.22500001 194286.01149251 7244.92571115
0.22600001 190430.58644675 7780.99413016
0.22700001 186633.91793316 8936.03241322
0.22800001 182893.79622374 8167.12285659
0.22900001 179210.36423171 7419.30943006
0.23000001 175583.83377305 9734.36820473
0.23100001 172015.00434522 7183.34692118
0.23200001 168500.03616775 5889.07654258
0.23300001 165041.74225230 7530.85505514
0.23400001 161638.72435847 6267.54183343
0.23500001 158288.71528554 7284.44702197
0.23600001 154994.27740094 9918.08427998
0.23700001 151753.25892190 5959.35075973
0.23800001 148565.88827930 5858.69608140
0.23900001 145431.38462408 6806.18912234
0.24000001 142349.37210621 7204.30206306
0.24100001 139320.63359739 5563.07316268
0.24200001 136342.98627316 5963.64250168
0.24300001 133416.62051975 6836.26795881
0.24400001 130540.57373478 6716.31283636
0.24500001 127715.41797097 6126.50888988
0.24600001 124940.02927855 5091.93113412
0.24700001 122215.11412618 5455.68295268
0.24800001 119538.16109711 5357.70063383
0.24900001 116909.55479904 4822.51936360
0.25000001 114329.66001235 8178.57261590
0.25100001 111796.97644447 4648.51850048
0.25200001 109312.55404996 7881.98208267
0.25300001 106874.72042607 6107.89056132
0.25400001 104482.41279027 4396.09772614
0.25500001 102135.98191831 5098.62845859
0.25600001 99835.41310398  6157.84857160
0.25700001 97579.29018594  5286.84619241
0.25800001 95367.65403807  4816.54359508
0.25900001 93199.98393478  5452.19931815
0.26000001 91076.40741639  4278.76982287
0.26100001 88993.66597702  5246.17685757
0.26200001 86955.68315807  5145.60279435
0.26300001 84958.54568419  4373.66613877
0.26400001 83002.61028171  3959.22469778
0.26500001 81088.62938606  4853.15469840
0.26600001 79214.33857434  3807.04129203
0.26700001 77381.01333410  3421.78857155
0.26800001 75587.29011671  3049.94730054
0.26900001 73831.94348617  2990.19385269
0.27000001 72115.90256821  4690.41852500
0.27100001 70437.89456609  3161.25285773
0.27200001 68797.84233324  3380.72613224
0.27300001 67194.49185352  3037.86312046
0.27400001 65626.83182460  2977.81763497
0.27500001 64097.78529512  4245.83749888
0.27600001 62602.33858022  3121.35274933
0.27700001 61143.83036942  3824.54677061
0.27800001 59719.21792616  3498.94914389
0.27900001 58329.48525931  3429.77389557
0.28000001 56973.41000741  2881.71521456
0.28100001 55650.66369830  2824.82782302
0.28200001 54361.20161236  2769.15974120
0.28300001 53104.34143111  2488.46955724
0.28400001 51879.65016628  2883.21169446
0.28500001 50686.63703847  2609.34819824
0.28600001 49524.15812069  2771.61964041
0.28700001 48392.81326897  2508.68355861
0.28800001 47291.06490976  2870.09486522
0.28900001 46220.65668434  3619.07758969
0.29000001 45178.08798037  2958.03545053
0.29100001 44165.98803019  1934.47036729
0.29200001 43181.38118827  3036.51486889
0.29300001 42224.91892186  1862.11901260
0.29400001 41295.93656972  2192.81433565
0.29500001 40395.22827038  2869.67715217
0.29600001 39520.13434300  2464.87089565
0.29700001 38671.14343168  2420.04027051
0.29800001 37848.71615837  2037.01800007
0.29900001 37051.69188772  2167.52407804
0.30000001 36279.52947326  1801.82291659
0.30100001 35532.82690235  2253.49198883
0.30200001 34809.32133158  2214.91722118
0.30300001 34110.00514540  2799.74935488
0.30400001 33434.88904144  1988.54011988
0.30500001 32781.54949393  1504.67319301
0.30600001 32151.14943016  1776.67260162
0.30700001 31543.39014891  2623.14844897
0.30800001 30957.21066281  1865.32681680
0.30900001 30392.52929886  1837.22848310
0.31000001 29849.67228175  1670.98473344
0.31100001 29325.81119829  1372.44802906
0.31200001 28823.36937305  1759.23443298
0.31300001 28340.18855070  1735.26982712
0.31400001 27878.16446750  1317.24333346
0.31500001 27434.27168353  1430.42299331
0.31600002 27009.10656169  1541.13969338
0.31700002 26602.05082751  1395.80967301
0.31800002 26213.58396130  1379.75205713
0.31900002 25843.03632116  1240.46580215
0.32000002 25489.64706635  2086.45515941
0.32100002 25153.75698811  1457.91182406
0.32200002 24834.49824789  1443.87779650
0.32300002 24530.85332081  1192.19952784
0.32400002 24243.67281264  1536.44283725
0.32500002 23971.76791093  1523.88535826
0.32600002 23715.80389153  1395.91228315
0.32700002 23474.60416620  1270.44563763
0.32800002 23248.75898101  1606.25683406
0.32900002 23036.12030062  1368.34561065
0.33000002 22839.16383201  1247.36099175
0.33100002 22653.51848721  1353.77432890
0.33200002 22483.90556189  1235.37824960
0.33300002 22326.00651722  1342.23957538
0.33400002 22181.86774374  1226.10279760
0.33500002 22049.63079375  1444.69187802
0.33600002 21929.68492336  1219.40018791
0.33700002 21820.89942238  1327.58358373
0.33800002 21725.22278722  1104.72763105
0.33900002 21639.78533721  1876.16947759
0.34000002 21565.91251796  1213.40612529
0.34100002 21502.83140833  1544.33342488
0.34200002 21451.14625922  1324.39383277
0.34300002 21408.24158852  1325.59838194
0.34400002 21376.46903620  1548.72525502
0.34500002 21353.75676976  1108.26002884
0.34600002 21341.84352816  1333.01160990
0.34700002 21336.97576251  1113.79018755
0.34800002 21342.71798016  1117.29133918
0.34900002 21356.71535243  1121.22760911
0.35000002 21379.30118274  1350.74431270
0.35100002 21410.19203216  1582.64146998
0.35200002 21448.30505464  1362.82536772
0.35300002 21494.54694502  1712.04074526
0.35400002 21548.76541799  1147.47181286
0.35500002 21609.97007190  1384.76694780
0.35600002 21677.70535255  1509.09352960
0.35700002 21752.44855495  2102.59177691
0.35800002 21834.41090508  1293.36139122
0.35900002 21922.15608683  1657.31507866
0.36000002 22016.90049261  1788.32282722
0.36100002 22116.63774145  1681.30688074
0.36200002 22223.41421120  1452.07795334
0.36300002 22333.89835652  1829.14636204
0.36400002 22450.59279406  1229.17001370
0.36500002 22571.93731494  1734.87918420
0.36600002 22698.74198899  1499.47896682
0.36700002 22829.92979623  1386.23340289
0.36800002 22966.99471578  2415.32411370
0.36900002 23107.42261590  1282.46201593
0.37000002 23251.12804252  1293.92533686
0.37100002 23399.19954119  1566.81047550
0.37200002 23551.70991072  1449.49005512
0.37300002 23707.16469070  1994.95800322
0.37400002 23867.12920099  1611.03129738
0.37500002 24029.15362098  1626.29319411
0.37600002 24195.53018720  2462.86313442
0.37700002 24363.41296236  1657.68669649
0.37800002 24535.17086388  1394.82452969
0.37900002 24709.36776346  1690.12083509
0.38000002 24885.98302352  2275.57439547
0.38100002 25064.48291934  1723.43392718
0.38200002 25245.36401914  1595.38085477
0.38300002 25428.08680394  1611.12365622
0.38400002 25613.37575654  1775.00702402
0.38500002 25799.25071019  1643.15435558
0.38600002 25987.81008660  2564.60715989
0.38700002 26176.83267291  1523.49173374
0.38800002 26367.09706983  1538.52018691
0.38900002 26558.68531632  1709.05148107
0.39000002 26752.00958101  1569.00543626
0.39100002 26945.21843436  1742.81681090
0.39200002 27139.87652185  2239.85411546
0.39300002 27334.75379621  1938.58083107
0.39400002 27531.02062766  2283.69826926
0.39500002 27726.73872222  1811.66519394
0.39600002 27922.72436542  1995.35797769
0.39700002 28118.56840793  2182.28219753
0.39800002 28315.65149513  1864.16100450
0.39900002 28511.68937267  1881.77158775
0.40000002 28707.45147459  2244.77927441
0.40100002 28902.89606546  2439.98260145
0.40200002 29099.11652106  2110.85001245
0.40300002 29293.75719716  2307.76230133
0.40400002 29487.79896697  1970.52225933
0.40500002 29681.27898702  2169.10797114
0.40600002 29874.26592849  2188.58882562
0.40700002 30066.07374683  2392.05694064
0.40800002 30257.31035661  2598.80050966
0.40900002 30446.64023023  2434.20900174
0.41000002 30635.71861658  2077.56135642
0.41100002 30823.26569502  2666.82907429
0.41200002 31008.77109594  2497.29149854
0.41300002 31193.49441425  2130.82770440
0.41400002 31376.52525581  2343.82654767
0.41500002 31558.49944299  2756.95064197
0.41600002 31737.66770199  2382.22945059
0.41700002 31916.03023034  2201.24870929
0.41800002 32093.33794795  2420.47966273
0.41900002 32266.83646281  2439.37295218
0.42000002 32439.33426076  2663.10727233
0.42100002 32610.31299143  2477.07949221
0.42200002 32779.09955277  2495.80075821
0.42300002 32945.25719891  2095.31845714
0.42400002 33109.36107470  2743.93842909
0.42500002 33271.53902201  2338.65658868
0.42600002 33430.17525440  3211.80423976
0.42700002 33587.85633297  3018.87667026
0.42800002 33742.61643286  3474.13995256
0.42900002 33895.43667542  2623.50692300
0.43000002 34045.71678564  2641.26683339
0.43100002 34192.11723732  2215.64930197
0.43200002 34336.81961019  2899.22950117
0.43300002 34478.59691564  2469.01244213
0.43400002 34618.11041225  3388.24771716
0.43500002 34754.18463534  2500.21616115
0.43600002 34888.74590060  2744.34888259
0.43700002 35019.41751140  2300.77583953
0.43800002 35146.58698883  3703.04458063
0.43900002 35272.00417249  2793.54286285
0.44000002 35393.75073353  2575.42639417
0.44100002 35513.22834236  3060.88529588
0.44200002 35629.36395454  2841.08561637
0.44300002 35742.84209755  3094.61541546
0.44400002 35852.67780775  2632.48299279
0.44500002 35958.68570378  2646.19980635
0.44600002 36062.48712139  3143.38683890
0.44700002 36163.45565097  3645.27650237
0.44800002 36259.99476495  3174.74399210
0.44900002 36354.90451549  2453.95617109
0.45000002 36446.29937773  3944.94763160
0.45100002 36533.19389083  3467.73092846
0.45200002 36617.82962708  2985.81796930
0.45300002 36698.55738845  2749.08906426
0.45400002 36776.76200620  3263.01836364
0.45500002 36851.46002222  3024.76798198
0.45600002 36922.67091143  3037.25905312
0.45700002 36990.48547590  3049.49576716
0.45800002 37054.46891526  3571.68042802
0.45900002 37115.42470037  3073.15731084
0.46000002 37173.76917853  3084.67951263
0.46100002 37227.44982520  2579.86239516
0.46200002 37278.76811001  3106.81268153
0.46300002 37326.15178588  3117.48034491
0.46400002 37369.86209909  3649.16720693
0.46500002 37411.03711106  2615.03161800
0.46600002 37447.98736520  3147.87796711
0.46700002 37481.65365021  3157.45465314
0.46800002 37512.58377965  3430.71351217
0.46900002 37539.45490185  4499.10388323
0.47000002 37562.46428090  3449.92469539
0.47100002 37582.71950624  4257.37066745
0.47200002 37599.34846383  3201.20867994
0.47300002 37613.22717470  3744.02081043
0.47400002 37622.17616926  4020.87026867
0.47500002 37629.05860056  4030.07236714
0.47600002 37632.76148649  4038.93631797
0.47700002 37631.90871362  3237.84957919
