# SAXS profile: number of points = 501, q_min = 0, q_max = 0.5, delta_q = 0.001
#    q    intensity    error
0.00000000 1682732.95097188 328.13292544
0.00100000 1682663.69002906 656.23885470
0.00200000 1682455.85604841 908.52619103
0.00300000 1682109.61141918 1009.26580280
0.00400000 1681624.83135522 1387.34053858
0.00500000 1681001.98140769 1815.48221178
0.00600000 1680240.77652802 2293.52875334
0.00700000 1679341.85619523 2216.73134231
0.00800000 1678304.74758626 2945.42495637
0.00900000 1677130.72420680 4528.25314893
0.01000000 1675818.99131933 3041.61160058
0.01100000 1674370.80679823 4520.80137519
0.01200000 1672785.58702731 3261.93203772
0.01300000 1671064.74887585 4211.08335290
0.01400000 1669207.56330521 4506.86062072
0.01500000 1667215.79314776 4801.58169807
0.01600000 1665088.25803878 4670.57277259
0.01700000 1662827.11838290 4489.63342103
0.01800000 1660431.99940159 6625.12397573
0.01900000 1657903.52493850 5968.45295909
0.02000000 1655242.40937643 8342.42212063
0.02100000 1652450.18561210 5453.08585975
0.02200000 1649525.19654348 10243.55193592
0.02300000 1646470.29909066 6520.02268118
0.02400000 1643285.26187664 7394.78401563
0.02500000 1639971.62567538 7035.47859546
0.02600000 1636529.44298666 6627.94454725
0.02700000 1632959.74848562 8915.96063509
0.02800000 1629262.51429046 8504.75071462
0.02900000 1625440.24597987 8777.37773130
0.03000000 1621493.22340075 9801.92698601
0.03100000 1617421.85289788 8539.98777625
0.03200000 1613226.89268282 14373.85227584
0.03300000 1608911.43737851 9846.53845069
0.03400000 1604473.35252189 10950.53113622
0.03500000 1599915.97981462 12095.36536594
0.03600000 1595239.01329414 8853.57693294
0.03700000 1590444.43498518 10878.64043841
0.03800000 1585533.45913021 14840.59386427
0.03900000 1580507.30679427 12327.95756390
0.04000000 1575365.02761889 10657.34490569
0.04100000 1570110.56200975 12859.20609910
0.04200000 1564744.12418573 10092.60006922
0.04300000 1559265.87551117 13378.50183289
0.04400000 1553679.52555964 10487.33728458
0.04500000 1547984.64069461 10681.09451709
0.04600000 1542181.63652517 10872.38104293
0.04700000 1536273.49094186 12167.28661413
0.04800000 1530260.82151129 14621.64282986
0.04900000 1524146.03160337 16003.53407676
0.05000000 1517928.79942055 17418.23378445
0.05100000 1511612.46700667 15327.75112948
0.05200000 1505195.29052092 16752.82436420
0.05300000 1498682.54614967 19422.92670356
0.05400000 1492072.92464487 16002.48286307
0.05500000 1485370.08300859 17467.95299105
0.05600000 1478572.53791358 13905.97536799
0.05700000 1471685.46379470 16644.76337247
0.05800000 1464707.45361413 19443.99235461
0.05900000 1457640.38281955 18366.26968134
0.06000000 1450487.15801126 17253.54555061
0.06100000 1443249.25069157 18791.10612214
0.06200000 1435927.15045469 14926.46342669
0.06300000 1428523.97223276 15085.21385209
0.06400000 1421038.12083396 18011.65902392
0.06500000 1413475.41180979 15392.74795465
0.06600000 1405833.98497067 16954.35865202
0.06700000 1398116.89436723 22817.26878390
0.06800000 1390327.20934451 18706.85347738
0.06900000 1382465.33251807 20322.24133948
0.07000000 1374530.89656682 23422.00757432
0.07100000 1366528.97528950 16234.36498682
0.07200000 1358458.24697583 19337.65405161
0.07300000 1350323.58587910 23981.74800889
0.07400000 1342124.70044632 22648.35538143
0.07500000 1333863.27212360 22809.06302243
0.07600000 1325540.00209428 22964.98161290
0.07700000 1317160.15392854 21575.08433297
0.07800000 1308722.10256481 20160.86493548
0.07900000 1300227.62183502 17163.00541323
0.08000000 1291681.32782879 17263.32175627
0.08100000 1283082.82951928 20516.49540661
0.08200000 1274432.90536208 17453.35945794
0.08300000 1265735.00376900 19137.91415517
0.08400000 1256989.72040778 20834.60559371
0.08500000 1248200.93093579 20932.33059446
0.08600000 1239367.66322444 19408.49851735
0.08700000 1230493.93383175 19491.02482715
0.08800000 1221578.11783788 16308.06863902
0.08900000 1212625.97545916 16370.45143761
0.09000000 1203636.97598305 26287.43279034
0.09100000 1194613.17118798 18134.22879060
0.09200000 1185555.79751836 21500.05539821
0.09300000 1176468.55712507 18247.02817848
0.09400000 1167349.31428758 28279.03846766
0.09500000 1158202.88613336 16678.12234424
0.09600000 1149029.74566064 23405.73701936
0.09700000 1139833.67959471 18431.11146554
0.09800000 1130614.71503715 20147.55516925
0.09900000 1121375.00302231 20184.75100354
0.10000000 1112114.33026256 16848.53289582
0.10100000 1102835.83081845 21935.40570664
0.10200000 1093541.45093181 18584.73783274
0.10300000 1084231.86505983 20296.82146870
0.10400000 1074910.24505403 18622.82087167
0.10500000 1065578.96783335 18636.97702426
0.10600001 1056234.77122038 20343.08265092
0.10700001 1046884.53104184 22047.38926124
0.10800001 1037526.15669001 20356.26415226
0.10900001 1028163.88780787 27143.52791566
0.11000001 1018797.93935889 18659.28513764
0.11100001 1009430.03406762 25437.63805594
0.11200001 1000062.84457011 20341.27921616
0.11300001 990695.04802630 18634.97473072
0.11400001 981331.59942029 18620.76797575
0.11500001 971972.14450005 21986.01094387
0.11600001 962618.20124695 21962.13529568
0.11700001 953272.58155992 16872.92548824
0.11800001 943933.58769714 20219.05840076
0.11900001 934605.64775170 18505.19269711
0.12000001 925288.54024267 20152.78535578
0.12100001 915986.12799099 21791.31101145
0.12200001 906696.55014521 16728.55213828
0.12300001 897423.60372645 23368.91174205
0.12400001 888166.75387239 18318.44016174
0.12500001 878928.45137871 19934.09821657
0.12600001 869711.45431446 21538.40518106
0.12700001 860515.02701908 16521.88929738
0.12800001 851339.95338229 29652.17197379
0.12900001 842189.02254158 26276.29874175
0.13000001 833063.13292856 18006.66046699
0.13100001 823962.08486461 19577.34005921
0.13200001 814889.75873245 17882.75659838
0.13300001 805846.86476148 19437.02729437
0.13400001 796832.18135166 17749.43767642
0.13500001 787849.10557752 22500.97151617
0.13600001 778897.18153728 17606.97161883
0.13700001 769979.61214296 20720.15233979
0.13800001 761094.68454199 19042.58990521
0.13900001 752247.38699149 25275.51339486
0.14000001 743435.23623594 23585.48398189
0.14100001 734660.98711058 26602.07559791
0.14200001 725924.20824995 17128.18250151
0.14300001 717229.48856981 21689.02075737
0.14400001 708571.03810142 16952.56288623
0.14500001 699958.06671826 15329.08238424
0.14600001 691385.15422306 18294.05204375
0.14700001 682858.13349843 19707.28666249
0.14800001 674373.12790010 22608.36017948
0.14900001 665932.88122933 19478.53769497
0.15000001 657539.63397657 22339.91011842
0.15100001 649192.76836876 14801.59581722
0.15200001 640894.69114095 22062.80078360
0.15300001 632644.82814813 17536.91546382
0.15400001 624442.28925090 17421.94069226
0.15500001 616291.81683832 20189.72087244
0.15600001 608189.99379383 20052.02504174
0.15700001 600143.04864412 19912.74729383
0.15800001 592143.67113919 16947.15266789
0.15900001 584200.15423803 16824.96523620
0.16000001 576307.78532238 13917.83367249
0.16100001 568472.51753065 16576.65939368
0.16200001 560689.84311204 20563.30096685
0.16300001 552963.60973064 13602.90544154
0.16400001 545292.78661304 21593.59536930
0.16500001 537678.78451988 13388.20236662
0.16600001 530121.09772529 17263.39436248
0.16700001 522620.59102464 15804.04741877
0.16800001 515177.12830009 16977.66306475
0.16900001 507794.31431100 16833.38231425
0.17000001 500469.14661707 14120.73763858
0.17100001 493203.53881343 19086.97785339
0.17200001 485997.67506665 13872.80428989
0.17300001 478851.52939317 17497.23571032
0.17400001 471767.11026715 14860.66467523
0.17500001 464742.72706956 12269.20857408
0.17600001 457777.72338796 13369.39904297
0.17700001 450876.68462679 12038.40804812
0.17800001 444036.41423747 14306.85394247
0.17900001 437257.88972311 14167.15629619
0.18000001 430542.43993168 14027.07335554
0.18100001 423890.58701417 13886.65628654
0.18200001 417298.40284003 12600.32586897
0.18300001 410772.12053863 17005.96659365
0.18400001 404307.45058259 20195.15811063
0.18500001 397907.06248128 15542.25059477
0.18600001 391569.84982707 16475.30220982
0.18700001 385295.96679781 11951.88145473
0.18800001 379085.14096481 12896.47710493
0.18900001 372940.44460745 14880.32444289
0.19000001 366855.47040136 12612.49166832
0.19100001 360839.50025646 15588.26714763
0.19200001 354884.11431185 11301.28515426
0.19300001 348995.10501223 10155.75803574
0.19400001 343169.15788792 11041.46817680
0.19500001 337407.83291868 11903.74890788
0.19600001 331709.59695633 10782.22095859
0.19700001 326076.13830501 10652.90794185
0.19800001 320506.70629817 9567.12563513
0.19900001 315002.15946603 10395.07175365
0.20000001 309559.61508225 13999.83425374
0.20100001 304182.77775554 10138.41246176
0.20200001 298868.26947725 9100.53923571
0.20300001 293618.60794090 11680.14877595
0.20400001 288432.22094186 11530.07857713
0.20500001 283308.65798482 10505.08553462
0.20600001 278248.94730816 9503.59324453
0.20700001 273252.05641982 14493.28975759
0.20800001 268317.91809317 10094.12055582
0.20900001 263448.80758881 10788.22918074
0.21000001 258639.74847474 11460.32779667
0.21100001 253893.42752612 9688.57365241
0.21200001 249209.28973163 8758.46090167
0.21300001 244586.89041542 8636.36350886
0.21400001 240026.99883667 9289.04529413
0.21500001 235529.26461636 9920.49309466
0.21600001 231091.09963643 9026.41877856
0.21700001 226714.72762276 11120.35791566
0.21800001 222398.90873712 9497.54584667
0.21900001 218142.40437599 8638.43962173
0.22000001 213945.77117085 9219.99344455
0.22100001 209811.29735420 6986.71653225
0.22200001 205734.97992372 7570.01894424
0.22300001 201717.74667374 9488.80325221
0.22400001 197757.60255302 9344.04716248
0.22500001 193858.88305141 7228.99809083
0.22600001 190016.51721404 7117.06898881
0.22700001 186232.97733255 7643.00175116
0.22800001 182505.99403637 9403.62178742
0.22900001 178835.68852740 9871.73047356
0.23000001 175222.31986526 9107.18050569
0.23100001 171666.41481136 7766.18897335
0.23200001 168164.66002048 7052.82617481
0.23300001 164719.54546081 6359.82195103
0.23400001 161329.60294380 6255.55565000
0.23500001 157992.75635778 6152.23822355
0.23600001 154711.26636520 10449.97298089
0.23700001 151483.30808985 5948.74979005
0.23800001 148308.88433529 7443.62325686
0.23900001 145187.41599237 5749.42194524
0.24000001 142118.46913369 7192.61606307
0.24100001 139102.61617684 6059.31024728
0.24200001 136137.75541480 4962.22141959
0.24300001 133224.18844433 6338.80718602
0.24400001 130360.92953717 7665.22301938
0.24500001 127548.36383648 6589.14878749
0.24600001 124785.71527177 6010.30426038
0.24700001 122073.32688400 5449.35356989
0.24800001 119408.82110392 5351.90361506
0.24900001 116792.63831096 4817.69655824
0.25000001 114225.15837908 4730.63515807
0.25100001 111704.77521164 6333.66105414
0.25200001 109232.54816260 5388.98801855
0.25300001 106806.82720096 4476.27433977
0.25400001 104426.57332119 5592.04326592
0.25500001 102092.10638251 4704.40448468
0.25600001 99803.37230660  6155.87229512
0.25700001 97559.19048919  6040.86536090
0.25800001 95359.02549816  4075.16814748
0.25900001 93203.02919934  5088.88563506
0.26000001 91090.92940853  3922.83106059
0.26100001 89019.46747918  4897.85133245
0.26200001 86992.78109403  5147.79806482
0.26300001 85006.72053995  4712.77280973
0.26400001 83061.88813600  4292.22327253
0.26500001 81158.76419259  3238.23484451
0.26600001 79295.22434970  3493.35127403
0.26700001 77472.63530015  4360.16012102
0.26800001 75689.36190218  4275.69225618
0.26900001 73944.50745241  3294.22796289
0.27000001 72238.78044059  3523.80787665
0.27100001 70570.93977430  3743.08282276
0.27200001 68940.89422908  3105.44272751
0.27300001 67347.47018938  2767.98115578
0.27400001 65789.55539010  3799.34700358
0.27500001 64270.02613919  3459.01297051
0.27600001 62784.03481513  3130.41212403
0.27700001 61334.90548186  2557.66567964
0.27800001 59919.55864150  2758.39701261
0.27900001 58538.89994735  2950.36069698
0.28000001 57191.70348029  3133.81954052
0.28100001 55877.63212147  2363.62395061
0.28200001 54596.76379697  3476.44909931
0.28300001 53348.37271227  2499.90486362
0.28400001 52131.92631177  3120.09593744
0.28500001 50947.12639887  3278.44773894
0.28600001 49792.64552637  2357.93084051
0.28700001 48669.17346279  2523.01007173
0.28800001 47575.10545030  2268.61901078
0.28900001 46512.20026062  2427.93696853
0.29000001 45477.01774792  2779.10068612
0.29100001 44472.08428836  2337.45286084
0.29200001 43494.60505182  2485.06437727
0.29300001 42544.99306675  2626.72799628
0.29400001 41622.71737584  2394.34693038
0.29500001 40728.52376827  1989.18119500
0.29600001 39859.84848089  2663.63450083
0.29700001 39017.15722034  2092.88041237
0.29800001 38200.95853858  1884.64437872
0.29900001 37409.63425164  1683.43362102
0.30000001 36643.24154910  1985.33092111
0.30100001 35902.20828040  1951.64413451
0.30200001 35184.12746578  2398.67800353
0.30300001 34490.14372344  1887.30075389
0.30400001 33820.10816866  1856.72402636
0.30500001 33171.73664783  1522.58278422
0.30600001 32545.99290553  1648.61734868
0.30700001 31942.89048951  2361.21857677
0.30800001 31361.26422287  1598.95413210
0.30900001 30800.85767261  1718.68793950
0.31000001 30262.06900359  1694.07070303
0.31100001 29742.20823510  1531.12895243
0.31200001 29243.60772689  2196.77991645
0.31300001 28764.12513482  1490.26939379
0.31400001 28305.59622664  2139.90317605
0.31500001 27864.95555112  1584.95874679
0.31600002 27443.12162795  1565.90459423
0.31700002 27039.13954370  1289.76701730
0.31800002 26653.49722598  1530.44388318
0.31900002 26285.64815269  1261.71117107
0.32000002 25934.81687613  1248.76149171
0.32100002 25601.30514650  1360.19740684
0.32200002 25284.30351587  1347.52701968
0.32300002 24982.83542130  1214.16585897
0.32400002 24697.70218658  1926.42086177
0.32500002 24427.58807713  1672.31275895
0.32600002 24173.19439438  1659.97333767
0.32700002 23933.59097389  1177.53273167
0.32800002 23709.11533806  1287.04938707
0.32900002 23497.70201734  1744.70445741
0.33000002 23301.83258202  1156.93604248
0.33100002 23117.20901980  1611.73188918
0.33200002 22948.35617820  1604.77862354
0.33300002 22791.16682310  1598.57251667
0.33400002 22647.51945506  1593.25306911
0.33500002 22515.65722883  1702.18376711
0.33600002 22395.96040129  1698.17377785
0.33700002 22287.39989258  1355.96547368
0.33800002 22191.74870780  1692.67571285
0.33900002 22106.09476955  1465.63415263
0.34000002 22032.11143158  1803.10808495
0.34100002 21968.51405796  1915.87420173
0.34200002 21916.30231528  1127.59380752
0.34300002 21872.87979193  1805.82504114
0.34400002 21840.32792717  1243.26072613
0.34500002 21816.83141543  1471.98168531
0.34600002 21803.93487592  1248.38435044
0.34700002 21797.98717945  1137.85498466
0.34800002 21802.54758931  1141.36342036
0.34900002 21815.24126857  1488.89028710
0.35000002 21836.38932222  2069.43471408
0.35100002 21865.68886046  1385.41011182
0.35200002 21902.18297516  1507.63683650
0.35300002 21946.81109692  1398.45086933
0.35400002 21999.11595276  1288.59827797
0.35500002 22058.37740114  1413.50089081
0.35600002 22124.05688444  1184.74330228
0.35700002 22196.63555359  1668.74313996
0.35800002 22276.35832828  1439.49834336
0.35900002 22361.84999573  1690.55593975
0.36000002 22454.19688405  1580.66326452
0.36100002 22551.49668519  1469.45559361
0.36200002 22655.66112470  1973.76129067
0.36300002 22763.44235864  1242.88401165
0.36400002 22877.39046670  2004.05949981
0.36500002 22995.79042211  1767.45653556
0.36600002 23119.77053812  1654.56645693
0.36700002 23247.92632088  1796.59983118
0.36800002 23381.98857195  1682.45106739
0.36900002 23519.20097749  1305.31571608
0.37000002 23659.72662557  1579.99661890
0.37100002 23804.59064119  1461.12584277
0.37200002 23953.70661147  1340.20994840
0.37300002 24105.71969544  1487.56403287
0.37400002 24262.22276008  1501.22510439
0.37500002 24420.77950643  1652.79843529
0.37600002 24583.42223135  1390.19259304
0.37700002 24747.70201321  1403.19477062
0.37800002 24915.73172162  1841.39724012
0.37900002 25086.15935469  1715.89338115
0.38000002 25258.95186972  1876.61391806
0.38100002 25433.60071712  1457.34539013
0.38200002 25610.55519424  1912.72440529
0.38300002 25789.25344032  1782.55328224
0.38400002 25970.51005645  1799.75643217
0.38500002 26152.36101323  1817.06612928
0.38600002 26336.83681484  2293.28017430
0.38700002 26521.66114689  1852.27290225
0.38800002 26707.78615226  1870.07927498
0.38900002 26895.14199579  2045.37564568
0.39000002 27084.14889759  1588.48540810
0.39100002 27273.13092391  1764.02619173
0.39200002 27463.52094261  2428.46195440
0.39300002 27653.98402683  1634.35053342
0.39400002 27845.82382871  1649.86514002
0.39500002 28037.09326701  2664.64547034
0.39600002 28228.69756715  3025.83423558
0.39700002 28420.06689381  2205.68149613
0.39800002 28612.70376683  2226.21152205
0.39900002 28804.22314378  2246.72951166
0.40000002 28995.48750787  2092.89438748
0.40100002 29186.35164006  1935.93079601
0.40200002 29378.00497406  2486.26067875
0.40300002 29567.99105814  2329.36644593
0.40400002 29757.47824562  2350.09695580
0.40500002 29946.38071185  2370.85507329
0.40600002 30134.75796774  1839.72706110
0.40700002 30321.88281630  2597.97904280
0.40800002 30508.44647661  2058.86260803
0.40900002 30693.14735708  2642.68011266
0.41000002 30877.57290864  2474.68319802
0.41100002 31060.42302364  2111.48765719
0.41200002 31241.31675123  2128.93963089
0.41300002 31421.36742309  2731.77381320
0.41400002 31599.67993024  2557.20421952
0.41500002 31776.98960974  2181.17267016
0.41600002 31951.54299755  1998.56910920
0.41700002 32125.16569648  2215.67278307
0.41800002 32297.84200131  2638.89530576
0.41900002 32466.73496260  2454.48527948
0.42000002 32634.44550375  2266.95186434
0.42100002 32800.74829637  2283.91621210
0.42200002 32964.92983227  3346.59983515
0.42300002 33126.48422279  2949.58229496
0.42400002 33285.81615354  2334.16796837
0.42500002 33443.42508470  2778.14545343
0.42600002 33597.46405121  3227.87651168
0.42700002 33750.47689143  3033.49300675
0.42800002 33900.60779656  3054.10590112
0.42900002 34048.82021721  3733.45331373
0.43000002 34194.55583259  2652.81376720
0.43100002 34336.38496620  2447.49763637
0.43200002 34476.58894809  2463.18001412
0.43300002 34613.74056437  2929.36100278
0.43400002 34748.64832935  2947.55423422
0.43500002 34880.34463102  3421.76197046
0.43600002 35010.39503207  2524.42465342
0.43700002 35136.61174690  2539.32305128
0.43800002 35259.29071803  2321.82440381
0.43900002 35380.28547575  3035.62863768
0.44000002 35497.61409705  2348.16728380
0.44100002 35612.63131114  3305.56459495
0.44200002 35724.45922480  2848.66851358
0.44300002 35833.57629672  2863.81955335
0.44400002 35939.08042247  3118.61385145
0.44500002 36040.76296681  3375.57801944
0.44600002 36140.27133747  2907.84636962
0.44700002 36236.92848308  2435.12170947
0.44800002 36329.25394562  2446.77536919
0.44900002 36419.92928405  3195.84894613
0.45000002 36507.12935747  3457.59038531
0.45100002 36589.80605771  3473.10455560
0.45200002 36670.28914264  3239.27014493
0.45300002 36746.89217800  4003.94156147
0.45400002 36820.99275761  4272.15588717
0.45500002 36891.63183288  3785.08160544
0.45600002 36958.77731115  2533.52430475
0.45700002 37022.61128693  2797.79886755
0.45800002 37082.51917054  3319.07103566
0.45900002 37139.49840687  4868.98847190
0.46000002 37193.90797111  3600.74240134
0.46100002 37243.69693261  2839.08715173
0.46200002 37291.06685112  3107.83765867
0.46300002 37334.64179001  3378.03854926
0.46400002 37374.49881937  3649.61998269
0.46500002 37411.84611507  2615.08816739
0.46600002 37445.07644101  2623.02772901
0.46700002 37474.96712329  2893.81709842
0.46800002 37502.15980533  3165.93248082
0.46900002 37525.31585864  3174.64187211
0.47000002 37544.68768439  3183.03877275
0.47100002 37561.27301012  3457.13973171
0.47200002 37574.24371663  3732.24980527
0.47300002 37584.57527580  2939.48977164
0.47400002 37590.06474918  2678.29224032
0.47500002 37593.36638163  3489.41643293
0.47600002 37593.61065404  3227.78756375
0.47700002 37589.30757706  3773.21487343
