# SAXS profile: number of points = 501, q_min = 0, q_max = 0.5, delta_q = 0.001
#    q    intensity    error
0.00000000 1682732.95097188 277.65093691
0.00100000 1682663.68108113 555.27902794
0.00200000 1682455.82254864 908.52617294
0.00300000 1682109.52430503 1211.11890064
0.00400000 1681624.68369510 1261.21856070
0.00500000 1681001.75455737 2118.06229458
0.00600000 1680240.45560922 2469.95357030
0.00700000 1679341.41469077 2418.25173766
0.00800000 1678304.16509733 3171.99500596
0.00900000 1677130.00062894 4276.68168442
0.01000000 1675818.09575444 3041.60997513
0.01100000 1674369.72160692 3918.02531915
0.01200000 1672784.28917608 4566.70130967
0.01300000 1671063.21560803 3860.15619831
0.01400000 1669205.79870397 5257.99849901
0.01500000 1667213.76769739 4801.57586478
0.01600000 1665085.94657564 5095.16322429
0.01700000 1662824.53241977 6734.43965840
0.01800000 1660429.07041974 5678.66767636
0.01900000 1657900.26877818 5968.44123691
0.02000000 1655238.81868843 6256.80301767
0.02100000 1652446.22397916 8724.91645818
0.02200000 1649520.86293694 6829.01668282
0.02300000 1646465.59982994 6520.00407211
0.02400000 1643280.13583335 7394.76094843
0.02500000 1639966.02080500 7675.04132789
0.02600000 1636523.40141110 9279.08811041
0.02700000 1632953.23570452 9601.76546571
0.02800000 1629255.52548430 8504.71423305
0.02900000 1625432.69846035 10240.22647047
0.03000000 1621485.19177108 9047.88778597
0.03100000 1617413.24977598 10869.01753861
0.03200000 1613217.78142721 9582.51406303
0.03300000 1608901.75515450 8205.39932956
0.03400000 1604463.09607239 11792.80430026
0.03500000 1599905.08752395 12095.28302022
0.03600000 1595227.54137375 10624.21591653
0.03700000 1590432.31824593 10878.55755991
0.03800000 1585520.68059285 11130.35569287
0.03900000 1580493.85787537 11379.55630369
0.04000000 1575350.87374975 10657.24915476
0.04100000 1570095.74300221 12859.08473142
0.04200000 1564728.53952177 11101.74950295
0.04300000 1559249.58588434 12349.25729343
0.04400000 1553662.51325058 14682.11143208
0.04500000 1547966.80987760 10680.97148445
0.04600000 1542163.01384740 15221.14965426
0.04700000 1536254.13681590 15485.44241930
0.04800000 1530240.60985938 14621.44970751
0.04900000 1524125.07202245 16003.31400115
0.05000000 1517907.01217282 12773.18810223
0.05100000 1511589.80729611 20043.68177846
0.05200000 1505171.75563421 13162.72761642
0.05300000 1498658.15753563 16994.78429871
0.05400000 1492047.53995344 18464.08916798
0.05500000 1485343.88393998 17467.64488999
0.05600000 1478545.34583890 15169.87595620
0.05700000 1471657.36011451 14083.76159371
0.05800000 1464678.41272357 15554.88546942
0.05900000 1457610.33075829 17054.04166640
0.06000000 1450456.12062221 14598.84153610
0.06100000 1443217.22402906 14764.11289176
0.06200000 1435894.15665684 20353.80062202
0.06300000 1428489.96928674 16456.20521560
0.06400000 1421003.11440623 18011.21531742
0.06500000 1413439.32422123 16791.65995722
0.06600000 1405796.91257948 18366.73752220
0.06700000 1398078.74686806 19964.56543960
0.06800000 1390287.99851882 15828.42960405
0.06900000 1382425.00396915 20321.64850978
0.07000000 1374489.40581798 17565.97542894
0.07100000 1366486.43346266 22137.08125895
0.07200000 1358414.62225987 22311.96121586
0.07300000 1350278.83677178 16486.90536949
0.07400000 1342078.69176409 21137.74038589
0.07500000 1333816.24886797 18246.60713978
0.07600000 1325491.69717666 16840.37280212
0.07700000 1317110.70288288 16951.21554092
0.07800000 1308671.56141641 24812.41396806
0.07900000 1300175.83997776 15602.11081153
0.08000000 1291628.43373848 18831.94344733
0.08100000 1283028.62979541 18937.50346429
0.08200000 1274377.41243640 22212.39934109
0.08300000 1265678.34427440 15947.54788631
0.08400000 1256931.82058966 17628.46961123
0.08500000 1248141.79197636 22541.44182130
0.08600000 1239307.35027480 19407.55401652
0.08700000 1230432.18889076 19490.04678724
0.08800000 1221515.11676147 22830.11860446
0.08900000 1212561.81187776 29465.25341260
0.09000000 1203571.43330502 21357.37608727
0.09100000 1194546.36092940 18133.21461083
0.09200000 1185487.86053138 23152.57900404
0.09300000 1176399.22532235 23222.12179912
0.09400000 1167278.72805588 18297.09492219
0.09500000 1158130.90032780 18344.79432345
0.09600000 1148956.57304435 16717.31892364
0.09700000 1139759.05216832 28482.58005273
0.09800000 1130538.83761493 23503.90353911
0.09900000 1121297.79260958 18501.41444804
0.10000000 1112035.85594912 28640.48481685
0.10100000 1102755.95069675 23621.03357486
0.10200000 1093460.23967630 18583.35764739
0.10300000 1084149.33516737 18604.00346662
0.10400000 1074826.29448114 18621.36642793
0.10500000 1065493.77885216 18635.48706891
0.10600001 1056148.12865650 16951.17826255
0.10700001 1046796.58722214 20349.72661321
0.10800001 1037436.87765152 28835.55937137
0.10900001 1028073.25760880 18659.53050382
0.11000001 1018705.84395758 22049.88903034
0.11100001 1009336.73591063 16956.85796151
0.11200001 999968.03717059 18644.40493077
0.11300001 990598.91871383 22021.01499978
0.11400001 981234.18541977 18618.91954500
0.11500001 971873.36511066 20292.71681905
0.11600001 962518.22823486 21959.85441130
0.11700001 953171.19257722 16871.13090316
0.11800001 943830.74590543 16847.37960790
0.11900001 934501.49360288 18503.13044486
0.12000001 925183.10251342 18471.28151177
0.12100001 915879.36530706 20112.71180962
0.12200001 906588.47138425 28435.14874458
0.12300001 897314.00817312 20028.04960603
0.12400001 888055.87224641 16651.04838918
0.12500001 878816.25290833 21592.51635141
0.12600001 869597.85040447 18222.42381393
0.12700001 860400.18336599 24779.52644871
0.12800001 851223.72247653 18118.29778681
0.12900001 842071.51782764 19704.47444588
0.13000001 832944.22219713 27824.50305400
0.13100001 823842.01016444 19574.48708420
0.13200001 814768.36750039 17880.09266767
0.13300001 805724.20711741 19434.06879185
0.13400001 796708.20506683 16133.34191322
0.13500001 787723.98796248 16069.57011209
0.13600001 778770.78326482 19204.48842082
0.13700001 769851.98393688 17529.53050082
0.13800001 760965.77113238 19039.36449155
0.13900001 752117.19531172 18953.35421566
0.14000001 743303.83110981 28297.57818488
0.14100001 734528.35551299 17210.00018134
0.14200001 725790.25192628 17125.02180191
0.14300001 717094.34125103 17038.16235177
0.14400001 708434.81189543 18490.14946265
0.14500001 699820.73874839 16858.68239171
0.14600001 691246.61207452 21338.78392138
0.14700001 682718.33506374 19703.25207947
0.14800001 674232.23318151 16576.00023480
0.14900001 665790.84418548 20972.41258134
0.15000001 657396.43474044 17868.03593931
0.15100001 649048.58815884 25157.12446407
0.15200001 640749.43875004 16175.72034453
0.15300001 632498.49667529 17532.85915520
0.15400001 624294.77603251 24675.25218714
0.15500001 616143.34536111 17301.30595424
0.15600001 608040.47568459 15751.28926599
0.15700001 599992.47708457 19907.75132925
0.15800001 591992.03561334 16942.81285893
0.15900001 584047.67336922 18222.28826922
0.16000001 576154.14231863 19479.77247129
0.16100001 568318.11523520 15191.14393732
0.16200001 560534.35784070 16446.07883540
0.16300001 552807.48442620 13599.06475887
0.16400001 545135.60582300 14841.31756918
0.16500001 537520.60589609 20076.39557805
0.16600001 529962.11008900 15930.66178141
0.16700001 522460.80830537 19749.01948639
0.16800001 515016.52667085 13055.66956755
0.16900001 507632.93668472 18122.49669535
0.17000001 500306.94718362 15399.44856147
0.17100001 493040.49979963 15264.53459461
0.17200001 485833.83016415 17650.34388336
0.17300001 478687.02876887 12493.73204088
0.17400001 471601.94996442 21045.23801105
0.17500001 464576.81308610 18397.24266707
0.17600001 457611.27843286 13364.53801783
0.17700001 450709.53751728 14440.73426410
0.17800001 443868.64260807 11917.87361693
0.17900001 437089.52610732 21242.55197218
0.18000001 430373.46945462 11684.64024762
0.18100001 423721.09744712 13881.10380806
0.18200001 417128.45899445 14885.22976236
0.18300001 410601.59576510 13599.12549415
0.18400001 404136.36337339 13457.74153609
0.18500001 397735.60832243 11096.82399643
0.18600001 391397.87515586 15370.19528351
0.18700001 385123.67126603 14118.63445564
0.18800001 378912.43303100 13964.81837914
0.18900001 372767.34996356 13811.03096869
0.19000001 366682.19454280 10505.44537002
0.19100001 360665.85571702 15580.76570317
0.19200001 354710.13974712 17457.06035252
0.19300001 348820.98380755 10150.69110845
0.19400001 342994.69969745 13042.37407230
0.19500001 337233.16384006 12889.05213104
0.19600001 331534.76483579 11756.22331663
0.19700001 325901.12764587 10647.19034335
0.19800001 320331.68619103 11474.28154162
0.19900001 314827.14074253 13222.74053609
0.20000001 309384.41207248 12126.32260428
0.20100001 304007.59216864 11053.71657368
0.20200001 298693.10950287 11823.76729850
0.20300001 293443.42889418 9877.30628343
0.20400001 288257.09688554 9750.29676301
0.20500001 283133.57468886 13998.12459426
0.20600001 278074.06846256 8634.20023388
0.20700001 273077.18439248 9372.00941136
0.20800001 268143.18878486 9246.91830235
0.20900001 263274.28484956 9122.45440127
0.21000001 258465.45948084 8180.43217928
0.21100001 253719.46886116 11295.59128768
0.21200001 249035.55075642 7956.68622282
0.21300001 244413.48607810 7845.67327402
0.21400001 239854.06587829 8508.82338930
0.21500001 235356.69835413 9913.22460335
0.21600001 230918.92779721 11274.61718275
0.21700001 226542.89189014 8889.54349806
0.21800001 222227.59807239 10950.26541275
0.21900001 217971.54705618 9350.97981084
0.22000001 213775.47431496 7795.32303948
0.22100001 209641.50467307 10471.59365355
0.22200001 205565.80503949 7563.79415408
0.22300001 201549.15839694 10835.28326777
0.22400001 197589.70401368 10669.84452128
0.22500001 193691.69204687 8535.99327215
0.22600001 189849.96585403 7110.83080732
0.22700001 186067.17886922 10181.59650920
0.22800001 182340.95036349 7516.09432942
0.22900001 178671.42831810 9862.66330957
0.23000001 175058.91611093 6065.79173011
0.23100001 171503.97764947 6565.17257491
0.23200001 168003.09256373 8807.56254419
0.23300001 164558.88156231 7508.82212081
0.23400001 161169.88863529 6817.48661171
0.23500001 157833.91864768 6146.05308283
0.23600001 154553.60425505 7142.69515848
0.23700001 151326.75505016 5942.60195189
0.23800001 148153.29567400 7435.81426158
0.23900001 145033.00829980 5221.18854575
0.24000001 141965.07816733 6671.64916405
0.24100001 138950.44078256 6052.68148679
0.24200001 135986.72797388 5452.38811602
0.24300001 133074.42116195 6818.73366288
0.24400001 130212.41086980 5263.83695841
0.24500001 127401.24705943 5641.32748665
0.24600001 124639.97182923 6003.28452714
0.24700001 121928.84588911 6350.05459430
0.24800001 119265.73311472 5790.94794534
0.24900001 116651.03921652 6561.62126634
0.25000001 114084.94306345 4724.82814050
0.25100001 111565.95889259 4217.19344565
0.25200001 109095.22817190 5382.21333649
0.25300001 106671.09632619 4877.00275477
0.25400001 104292.41493686 4787.02207208
0.25500001 101959.54334293 5089.82064449
0.25600001 99672.37632792  3842.37028923
0.25700001 97429.82766126  5655.80176333
0.25800001 95231.40185726  5179.63619209
0.25900001 93077.07655860  4356.00738905
0.26000001 90966.61819644  4985.88057926
0.26100001 88897.04678577  5240.48115598
0.26200001 86872.05255207  4455.23342594
0.26300001 84887.85674030  3697.71521457
0.26400001 82944.71007087  3297.05238133
0.26500001 81043.51152857  3880.36351560
0.26600001 79181.89331973  4439.72896852
0.26700001 77361.18860995  4353.88790100
0.26800001 75579.84631958  3049.64694331
0.26900001 73836.93400603  4485.59395313
0.27000001 72133.05632583  3811.87154192
0.27100001 70467.32147131  4600.10696334
0.27200001 68839.29182219  3100.86604687
0.27300001 67247.92995589  3869.44607278
0.27400001 65692.07976773  3793.71778612
0.27500001 64174.66023562  2922.51416544
0.27600001 62690.74354449  2865.28056930
0.27700001 61243.81781235  3830.80098546
0.27800001 59830.47434662  4256.63929884
0.27900001 58452.04141283  2454.98585553
0.28000001 57107.11701211  3129.18462478
0.28100001 55795.21579520  2832.16528781
0.28200001 54516.62999526  3934.19278981
0.28300001 53270.46988752  3177.05097446
0.28400001 52056.31887309  3115.57083202
0.28500001 50873.84187363  3273.73187952
0.28600001 49721.60789691  2996.72144979
0.28700001 48600.42976561  2309.49253178
0.28800001 47508.72586752  2265.45370022
0.28900001 46448.23350522  2626.64772905
0.29000001 45415.48770269  2180.62474526
0.29100001 44412.88511278  2139.81290602
0.29200001 43437.80425819  2100.00074627
0.29300001 42490.62023863  2435.98737359
0.29400001 41570.80000312  2391.36038338
0.29500001 40679.07795094  2347.99649048
0.29600001 39812.89216336  1951.03087282
0.29700001 38972.67829139  2438.91032293
0.29800001 38158.87064670  2224.85305838
0.29900001 37370.16178532  2690.65177592
0.30000001 36606.22701278  2974.98821016
0.30100001 35867.66390919  2274.72735281
0.30200001 35152.10074921  2076.96197109
0.30300001 34460.68113435  2357.11070118
0.30400001 33793.21783065  2473.66366231
0.30500001 33147.34321735  1825.75575085
0.30600001 32524.28591530  1497.74343731
0.30700001 31923.75452090  1622.36528156
0.30800001 31344.71295409  1598.11026562
0.30900001 30786.81954420  2290.53948253
0.31000001 30250.64449785  1552.31189590
0.31100001 29733.42838957  1669.82941742
0.31200001 29237.40326424  1784.50499272
0.31300001 28760.47901744  1354.61862586
0.31400001 28304.66491514  1604.87457667
0.31500001 27866.52183048  1849.22247623
0.31600002 27447.32664479  1566.14453250
0.31700002 27045.91887075  1548.10846946
0.31800002 26662.89658828  1530.98359459
0.31900002 26297.73657188  1388.52055674
0.32000002 25949.52685209  1374.41675480
0.32100002 25618.63218637  1361.11799251
0.32200002 25304.21785541  1225.98941315
0.32300002 25005.33014517  1579.83683338
0.32400002 24722.80040580  1325.76023454
0.32500002 24455.27182423  1554.62170348
0.32600002 24203.50683302  1187.18206638
0.32700002 23966.50464228  1297.06729266
0.32800002 23744.60352300  1406.15548722
0.32900002 23535.79259181  1864.03486154
0.33000002 23342.52201969  1274.85190047
0.33100002 23160.44571822  1268.72927652
0.33200002 22994.14858248  1493.12510891
0.33300002 22839.60354104  1373.11702991
0.33400002 22698.42788113  1254.65566054
0.33500002 22569.11512313  1592.47683850
0.33600002 22451.96203057  1248.44140783
0.33700002 22345.85059955  1586.10855067
0.33800002 22252.76334218  1244.70837649
0.33900002 22169.64282748  1469.84738907
0.34000002 22098.08272232  1356.38038173
0.34100002 22036.99009155  1356.59717428
0.34200002 21987.27961353  1583.74382557
0.34300002 21946.23463341  1245.66833679
0.34400002 21916.09774405  1134.15811197
0.34500002 21895.04826803  1363.62367071
0.34600002 21884.55011597  1139.09088748
0.34700002 21881.01049020  1256.40768185
0.34800002 21887.86285125  1260.41264198
0.34900002 21902.93532224  1379.88499065
0.35000002 21926.45563375  1154.42794379
0.35100002 21958.00425450  1507.19748341
0.35200002 21996.82756718  1397.67848982
0.35300002 22043.67651811  1287.57120641
0.35400002 22098.23444143  1765.09655961
0.35500002 22159.70380371  1419.99388700
0.35600002 22227.65628428  1309.32015544
0.35700002 22302.41311172  1676.69549716
0.35800002 22384.30867191  2049.17163443
0.35900002 22471.94935367  1577.53091935
0.36000002 22566.42337954  1344.16907227
0.36100002 22665.71741338  1230.74851384
0.36200002 22772.03166204  1735.91205582
0.36300002 22881.79867714  1499.21552034
0.36400002 22997.78519198  2014.60607824
0.36500002 23118.19581401  2030.70241649
0.36600002 23244.18069049  1663.46986991
0.36700002 23374.24898323  2193.43962849
0.36800002 23510.16742784  2602.57565754
0.36900002 23649.24056683  1837.54607909
0.37000002 23791.66102006  1324.00599848
0.37100002 23938.33647586  1736.48701022
0.37200002 24089.27077862  1752.13319308
0.37300002 24243.05710663  1496.03912492
0.37400002 24401.28821944  1647.08703284
0.37500002 24561.46586846  1800.84676278
0.37600002 24725.83903579  1398.24626371
0.37700002 24891.71427491  1411.36026625
0.37800002 25061.39619418  1424.74044113
0.37900002 25233.40099620  2013.62549489
0.38000002 25407.72402481  2323.28239489
0.38100002 25583.84625784  2492.12258204
0.38200002 25762.26296438  2072.05890839
0.38300002 25942.48916010  1793.14493569
0.38400002 26125.16128487  1961.34657638
0.38500002 26308.31824296  1675.57686827
0.38600002 26494.16493683  1999.38225168
0.38700002 26680.24377539  2173.90636581
0.38800002 26867.58479365  1724.49601168
0.38900002 27056.24162004  1741.06923073
0.39000002 27246.43170033  1598.00329493
0.39100002 27436.60535516  1613.27247131
0.39200002 27628.08542839  2280.14599843
0.39300002 27819.61117246  1808.55300801
0.39400002 28012.50055174  2157.66295722
0.39500002 28204.78735293  1675.36444814
0.39600002 28397.37962535  1860.17044049
0.39700002 28589.69630537  2218.84643538
0.39800002 28783.20630293  2067.20997462
0.39900002 28975.50771110  2086.23665404
0.40000002 29167.58663675  2105.31650319
0.40100002 29359.29030108  2655.54793355
0.40200002 29551.64865799  2143.67669522
0.40300002 29742.35753091  2883.81912283
0.40400002 29932.48215464  2363.91789017
0.40500002 30122.01294892  2017.87374306
0.40600002 30310.92988470  2590.67529999
0.40700002 30498.65356761  2239.82122413
0.40800002 30685.66356522  2635.59176849
0.40900002 30870.85469645  2657.98071530
0.41000002 31055.71044696  2680.41849568
0.41100002 31238.92477183  2123.62220661
0.41200002 31420.20350250  2530.42620897
0.41300002 31600.43044538  2943.58023546
0.41400002 31779.10199870  2571.72395110
0.41500002 31956.54615495  2193.49743201
0.41600002 32131.25756572  2612.75333276
0.41700002 32305.07107202  2025.52805219
0.41800002 32477.77254647  3061.84215190
0.41900002 32646.69982411  2673.76484229
0.42000002 32814.51772254  2279.46058161
0.42100002 32980.73672215  2922.75302681
0.42200002 33144.81779141  2523.64654622
0.42300002 33306.28936883  2965.59214593
0.42400002 33465.47642552  2560.10906787
0.42500002 33622.93165975  2578.20652184
0.42600002 33776.68761812  2163.39694446
0.42700002 33929.46982419  2178.27206593
0.42800002 34079.28632902  2193.00217919
0.42900002 34227.08303010  2869.94104807
0.43000002 34372.44744639  2444.39671598
0.43100002 34513.86857639  2907.44842665
0.43200002 34653.57563926  2475.82482887
0.43300002 34790.19917814  2717.81048859
0.43400002 34924.59302396  3190.36172392
0.43500002 35055.65741869  3209.69614536
0.43600002 35185.12080515  3228.93868930
0.43700002 35310.64814021  2319.90969275
0.43800002 35432.60501890  3033.20829638
0.43900002 35552.82362472  3519.72970565
0.44000002 35669.37789012  2595.48240517
0.44100002 35783.60902629  2372.45339087
0.44200002 35894.55406954  2862.23187715
0.44300002 36002.80096462  2397.78665788
0.44400002 36107.29926298  2651.17857403
0.44500002 36208.04548396  2664.55019344
0.44600002 36306.61631840  4138.40985718
0.44700002 36402.15840248  3180.09270875
0.44800002 36493.43045969  3932.53225271
0.44900002 36582.98715462  2469.35174996
0.45000002 36668.99263117  2976.78896287
0.45100002 36750.53332935  3488.36078894
0.45200002 36829.78488107  3003.10080153
0.45300002 36905.18054912  3518.54008031
0.45400002 36977.97331191  2776.12147796
0.45500002 37047.25980101  2787.43595953
0.45600002 37113.02644477  3052.91770004
0.45700002 37175.50976637  3320.14493459
0.45800002 37234.00017271  3076.27324007
0.45900002 37289.53296020  2572.97789620
0.46000002 37342.47732012  3098.67891488
0.46100002 37390.70121302  3109.41086024
0.46200002 37436.54615572  3119.96190449
0.46300002 37478.57008802  3130.21032211
0.46400002 37516.81031919  2616.79764379
0.46500002 37552.55337135  3149.90832608
0.46600002 37584.08715199  3685.87160169
0.46700002 37612.27501944  3432.49638096
0.46800002 37637.77157697  2912.59909153
0.46900002 37659.16748136  3451.46286325
0.47000002 37676.76957893  4525.16862475
0.47100002 37691.59682529  2935.42169988
0.47200002 37702.75347729  2942.51153460
0.47300002 37711.26589575  3485.65247195
0.47400002 37714.85879890  2687.18381679
0.47500002 37716.30056072  3231.53278521
0.47600002 37714.56524627  2968.32499840
0.47700002 37708.29012678  3785.15834234
