# SAXS profile: number of points = 501, q_min = 0, q_max = 0.5, delta_q = 0.001
#    q    intensity    error
0.00000000 1682732.95097188 328.13292544
0.00100000 1682663.62171951 555.27900835
0.00200000 1682455.57375643 1059.94704503
0.00300000 1682108.98179395 1614.82468005
0.00400000 1681623.70385372 1387.33960840
0.00500000 1681000.22369058 1664.19028732
0.00600000 1680238.24335638 2293.52529556
0.00700000 1679338.42826455 2216.72681744
0.00800000 1678300.25753397 2718.84653199
0.00900000 1677125.07005322 3270.39402641
0.01000000 1675811.99466550 2765.08991059
0.01100000 1674362.34791989 3616.62282897
0.01200000 1672775.52243092 4566.67737646
0.01300000 1671052.94742748 4912.89588212
0.01400000 1669193.87453052 6009.09821470
0.01500000 1667200.09303733 5201.66452190
0.01600000 1665070.43310504 4245.92979423
0.01700000 1662807.02611282 6285.41084066
0.01800000 1660409.46790371 6625.03407505
0.01900000 1657878.46105892 4973.63560760
0.02000000 1655214.68064549 6778.10442386
0.02100000 1652419.64806427 6543.58210301
0.02200000 1649491.79006550 6828.89632112
0.02300000 1646433.82366442 8890.74305248
0.02400000 1643245.59563752 8627.03977047
0.02500000 1639928.65133151 8954.01084521
0.02600000 1636483.09423552 7290.53251828
0.02700000 1632909.85078726 8915.68819365
0.02800000 1629208.94590232 10630.58885953
0.02900000 1625382.85390079 9508.49013189
0.03000000 1621432.01086982 12817.42063508
0.03100000 1617356.52045903 7763.31165542
0.03200000 1613157.55733444 9582.15633190
0.03300000 1608837.82376853 9025.58060742
0.03400000 1604395.33878427 10949.99869244
0.03500000 1599833.57413592 10366.92203913
0.03600000 1595152.14155616 12394.33271268
0.03700000 1590352.83214406 13597.51734368
0.03800000 1585437.10105709 11129.76896450
0.03900000 1580406.09185999 11378.92438835
0.04000000 1575258.80449908 10656.62630625
0.04100000 1569999.29922579 13847.39446123
0.04200000 1564627.75916825 13119.40436927
0.04300000 1559144.25344074 14406.49357051
0.04400000 1553552.56355712 14681.07240743
0.04500000 1547852.25968682 13884.23541452
0.04600000 1542043.72656785 11958.54965545
0.04700000 1536130.09442134 13272.16463306
0.04800000 1530111.79145952 13495.58662860
0.04900000 1523991.27737776 16001.90915732
0.05000000 1517768.24107245 13933.11310186
0.05100000 1511445.99645732 20041.77484665
0.05200000 1505022.84377226 13161.42538213
0.05300000 1498504.08182193 20634.40216862
0.05400000 1491888.34625753 16000.50325978
0.05500000 1485179.41545129 16218.15997329
0.05600000 1478375.64194006 15168.13479411
0.05700000 1471482.36811964 17922.65608030
0.05800000 1464497.94394790 14256.88815002
0.05900000 1457424.59042776 15740.18631178
0.06000000 1450264.94149858 18577.89476853
0.06100000 1443020.59455142 16104.11058776
0.06200000 1435692.06370881 17637.47782710
0.06300000 1428282.29195230 19196.11490136
0.06400000 1420789.77239202 15237.97102153
0.06500000 1413220.45108440 15389.97143222
0.06600000 1405572.53790822 14126.00466691
0.06700000 1397848.75212815 15683.86373287
0.06800000 1390052.29932722 20141.85876007
0.06900000 1382183.69652682 21769.39423952
0.07000000 1374242.49745223 23417.09325317
0.07100000 1366233.73349608 16230.85751415
0.07200000 1358156.30087525 16358.99341041
0.07300000 1350014.90293744 16483.68273722
0.07400000 1341809.19169452 19623.96034819
0.07500000 1333540.98944944 19763.07838999
0.07600000 1325210.80405038 19898.04115565
0.07700000 1316824.34612389 15406.84557205
0.07800000 1308379.43154423 15504.29699089
0.07900000 1299878.06945711 31197.07513023
0.08000000 1291325.06971755 18827.52039970
0.08100000 1282719.66330694 17355.19785882
0.08200000 1274063.01193589 22206.91934011
0.08300000 1265358.51154388 20726.57339183
0.08400000 1256606.39840571 20828.25203122
0.08500000 1247810.93138900 16096.76177058
0.08600000 1238970.96198829 22636.00053832
0.08700000 1230090.50801311 17860.91501506
0.08800000 1221167.98701346 17932.85273149
0.08900000 1212209.46278177 19637.79421945
0.09000000 1203213.76865130 26278.18994178
0.09100000 1194183.61428847 21423.65504684
0.09200000 1185119.76928478 21492.14802583
0.09300000 1176026.17349118 23214.75775563
0.09400000 1166900.50949978 18291.16634605
0.09500000 1157747.72635181 20005.88165169
0.09600000 1148568.44611919 18382.83884427
0.09700000 1139365.87837263 18423.54711943
0.09800000 1130141.11464464 18460.85597571
0.09900000 1120895.19229259 23538.80014500
0.10000000 1111628.61685381 21893.52663853
0.10100000 1102344.01340079 21925.62345774
0.10200000 1093043.63264648 20265.02990246
0.10300000 1083728.34931822 18596.77934911
0.10400000 1074401.07679452 16921.81775560
0.10500000 1065064.10468546 25401.78009189
0.10600001 1055714.09629204 16944.21204277
0.10700001 1046358.38003401 22036.30852049
0.10800001 1036994.76373401 18650.35170347
0.10900001 1027627.21964258 20347.01990657
0.11000001 1018255.95685175 22040.15122348
0.11100001 1008882.96672021 18644.15810263
0.11200001 999510.61612676 20330.04688910
0.11300001 990137.97585638 18624.49620271
0.11400001 980769.60012239 21993.75931831
0.11500001 971405.49797899 21973.19339896
0.11600001 962046.85262828 25325.88458807
0.11700001 952696.63399040 18549.00433736
0.11800001 943353.10955706 20206.62455841
0.11900001 934020.82786762 20174.85083221
0.12000001 924699.48923391 18461.62617219
0.12100001 915393.13756336 20102.03424786
0.12200001 906099.48840845 20061.04361846
0.12300001 896822.55328526 23353.26038782
0.12400001 887562.01822095 19970.14635091
0.12500001 878320.03219805 24900.37408613
0.12600001 869099.43171551 16556.34495437
0.12700001 859899.60503630 18161.08051423
0.12800001 850721.13032902 18107.60011245
0.12900001 841567.19324078 21333.72935416
0.13000001 832438.24043779 22900.37707385
0.13100001 823334.31413472 17932.22220714
0.13200001 814259.38033932 21117.81802460
0.13300001 805213.55472244 16184.79321292
0.13400001 796196.32866190 19347.57169864
0.13500001 787211.10475263 22482.75021176
0.13600001 778256.99547989 20791.13661456
0.13700001 769337.26865015 25480.45153918
0.13800001 760450.29571239 19026.46729593
0.13900001 751601.18356902 18940.35071913
0.14000001 742787.24141509 15709.95089682
0.14100001 734011.54095251 17197.89121562
0.14200001 725273.27859053 17112.82381547
0.14300001 716577.26517839 20121.49055529
0.14400001 707917.76727724 18476.65459748
0.14500001 699303.68148546 15314.75134696
0.14600001 690730.02597548 18276.71734950
0.14700001 682202.16353619 27260.79974098
0.14800001 673716.62368824 18069.08069979
0.14900001 665276.07332104 16465.58359156
0.15000001 656882.41278848 16366.22608683
0.15100001 648535.48527791 17743.93171445
0.15200001 640237.58812571 17632.14400899
0.15300001 631987.84043154 17518.70376345
0.15400001 623785.51987880 18853.91822807
0.15500001 615635.42719307 15846.45664379
0.15600001 607534.22917677 18599.66130406
0.15700001 599487.97748760 21311.79860553
0.15800001 591489.52652931 16928.43104827
0.15900001 583547.17882090 14005.13295275
0.16000001 575655.86877005 15292.29887571
0.16100001 567822.04158701 15177.88388808
0.16200001 560040.80625550 20539.49753901
0.16300001 552316.22135746 17663.07359285
0.16400001 544647.18457673 21568.02952746
0.16500001 537034.96025054 17383.82248402
0.16600001 529479.34557201 21221.53317246
0.16700001 521981.13654579 21046.28041922
0.16800001 514539.99509477 16956.66633898
0.16900001 507159.71356836 19398.85995997
0.17000001 499837.13174289 12820.82303460
0.17100001 492574.32599897 13979.26003197
0.17200001 485371.26631855 13854.92345133
0.17300001 478228.32177204 18722.63968154
0.17400001 471146.97661880 13604.36959235
0.17500001 464125.90200461 17154.09414824
0.17600001 457164.39938883 15779.02999014
0.17700001 450266.89587316 15628.76469391
0.17800001 443430.36103609 16668.54805864
0.17900001 436655.68238046 14147.64477737
0.18000001 429944.28718730 14007.58553821
0.18100001 423296.47295667 12711.59368334
0.18200001 416708.65333947 19445.71022666
0.18300001 410186.75677739 16981.73253279
0.18400001 403726.56523849 16805.11907194
0.18500001 397330.71111150 13302.63283646
0.18600001 390998.39460589 13161.00658421
0.18700001 384729.33982135 11934.30468509
0.18800001 378523.50847438 16096.71295838
0.18900001 372383.93032392 15919.41377350
0.19000001 366304.18016188 13642.99983474
0.19100001 360293.52229871 15564.68089874
0.19200001 354343.63868807 11284.07370721
0.19300001 348460.28733769 14196.27277695
0.19400001 342640.08051699 13028.88967732
0.19500001 336884.36048518 13866.16093282
0.19600001 331192.05801314 14680.08866516
0.19700001 325564.67641892 11603.12561591
0.19800001 320001.31686332 13372.85566370
0.19900001 314503.11079657 12265.62190074
0.20000001 309066.77179305 11182.03633195
0.20100001 303696.39477625 11962.60155562
0.20200001 298388.37682170 11811.70445475
0.20300001 293145.21964226 8970.24414503
0.20400001 287965.64921350 12396.92178459
0.20500001 282848.83090718 9614.03221696
0.20600001 277795.95055660 10350.67760699
0.20700001 272806.01068081 10213.85752269
0.20800001 267878.76789644 10917.39970169
0.20900001 263016.80888232 11599.04182001
0.21000001 258215.09814591 11441.51153971
0.21100001 253476.07537804 8866.59353588
0.21200001 248799.33463950 13513.53649979
0.21300001 244184.19255899 8622.14424687
0.21400001 239631.88320760 9273.75431856
0.21500001 235141.68458855 8380.45003494
0.21600001 230711.10955132 9762.54106222
0.21700001 226342.45450704 8881.67833478
0.21800001 222034.32882595 9481.97646083
0.21900001 217785.68636687 8624.31358790
0.22000001 213596.82627266 9204.95566345
0.22100001 209470.31520442 7672.89800874
0.22200001 205401.97985318 12367.25379174
0.22300001 201392.67928821 8796.83264727
0.22400001 197440.56573975 7996.34329058
0.22500001 193550.00547304 6561.34549580
0.22600001 189715.75417598 7105.80390868
0.22700001 185940.41057182 7630.99481073
0.22800001 182221.57813583 10014.89840795
0.22900001 178559.49059658 9240.45407536
0.23000001 174954.40805180 7274.60463082
0.23100001 171406.88838480 5964.95999789
0.23200001 167913.39367973 6455.43072532
0.23300001 164476.60090455 7505.06765422
0.23400001 161095.06097064 6246.46128456
0.23500001 157766.49051652 7818.90763980
0.23600001 154493.49278440 7139.91710673
0.23700001 151273.99347967 7560.67455172
0.23800001 148107.84980661 9557.40000007
0.23900001 144994.92310916 7307.74447035
0.24000001 141934.32145255 6157.11115585
0.24100001 138926.89994291 7564.57005970
0.24200001 135970.53899881 5451.73901904
0.24300001 133065.38558662 6331.25134570
0.24400001 130210.53116918 4785.23724683
0.24500001 127406.44722530 7522.07700001
0.24600001 124652.21594297 5542.03778299
0.24700001 121948.24106364 4990.12226039
0.24800001 119292.03551522 5346.66928473
0.24900001 116684.45921567 5688.36765587
0.25000001 114125.26591312 5156.17975788
0.25100001 111613.20436509 5484.67312197
0.25200001 109149.21838517 5799.09824716
0.25300001 106731.80188593 5286.42639751
0.25400001 104359.89910299 3991.76632954
0.25500001 102033.61833620 7444.37314602
0.25600001 99753.03670417  5768.21962033
0.25700001 97517.07404644  5283.47532182
0.25800001 95324.99184431  4814.38894088
0.25900001 93177.14283393  4360.69049095
0.26000001 91073.00807433  3922.05927830
0.26100001 89009.57643551  3847.88417137
0.26200001 86990.86455678  3774.96874606
0.26300001 85012.77805421  3703.15678727
0.26400001 83075.77088158  3962.71445856
0.26500001 81180.51589098  3563.01301105
0.26600001 79324.71941349  5083.12826055
0.26700001 77509.83128024  3427.48490140
0.26800001 75734.20137746  3667.05020422
0.26900001 73997.00156747  4795.00592848
0.27000001 72298.74553636  3526.73297416
0.27100001 70638.31196892  3746.65624413
0.27200001 69015.79955821  2826.19712565
0.27300001 67429.60512687  3602.76397243
0.27400001 65879.04199384  2989.26167194
0.27500001 64366.70961891  2664.78190433
0.27600001 62887.77305950  3396.88322257
0.27700001 61445.75030442  3074.74549075
0.27800001 60037.42881216  3517.59312058
0.27900001 58663.66015425  3203.03599601
0.28000001 57323.33081583  2899.41420989
0.28100001 56015.99724581  2606.42447521
0.28200001 54741.84255383  2556.17045903
0.28300001 53499.99277107  2962.82973989
0.28400001 52290.00319221  2458.93751650
0.28500001 51111.67454751  3069.76731862
0.28600001 49963.50124692  2366.02171354
0.28700001 48846.27686429  2110.15926042
0.28800001 47758.36150455  2898.45509690
0.28900001 46701.56181697  3047.27705280
0.29000001 45672.40297017  2990.40072602
0.29100001 44673.27677418  1956.68961533
0.29200001 43701.62470033  2881.02974474
0.29300001 42757.73483759  2262.73943471
0.29400001 41841.05806903  2962.34705151
0.29500001 40952.46612198  2727.43437283
0.29600001 40089.15151881  2500.36049859
0.29700001 39251.73734364  2105.46329078
0.29800001 38440.71701646  2586.09935970
0.29900001 37654.58989744  1694.45662560
0.30000001 36893.21247958  2165.44720900
0.30100001 36157.06085702  2129.28941467
0.30200001 35443.75509591  2416.37811806
0.30300001 34754.47986873  1584.80435704
0.30400001 34089.07033557  2027.44755419
0.30500001 33445.13833361  2302.69788328
0.30600001 32823.90951416  2116.15754656
0.30700001 32225.14419011  1637.68190527
0.30800001 31647.68968415  1906.93163220
0.30900001 31091.26490493  1734.89266383
0.31000001 30556.52447045  1853.10051425
0.31100001 30040.57464068  1827.66864767
0.31200001 29545.72159214  2219.47471108
0.31300001 29069.86768890  1916.86716616
0.31400001 28614.88794912  1892.87492746
0.31500001 28177.65851214  1335.62107671
0.31600002 27759.19953769  1715.93500067
0.31700002 27358.43404334  1696.49657535
0.31800002 26975.96758971  1936.20016543
0.31900002 26611.15573392  1277.33553571
0.32000002 26263.21582641  1517.48868230
0.32100002 25932.48201533  1753.55451691
0.32200002 25618.17580872  1241.20067670
0.32300002 25319.26363019  1476.61952483
0.32400002 25036.55450034  1952.85134350
0.32500002 24768.88291734  1332.31827521
0.32600002 24516.74689589  1924.07438750
0.32700002 24279.30296458  1433.45011491
0.32800002 24056.83715868  1424.64596400
0.32900002 23847.40696167  1298.49137055
0.33000002 23653.35756305  1291.82818448
0.33100002 23470.46892936  1168.82940803
0.33200002 23303.29062826  1280.39936420
0.33300002 23147.57710462  1971.47923536
0.33400002 23005.34985757  1502.82455061
0.33500002 22874.85007294  1383.47099793
0.33600002 22756.31585494  1265.36500304
0.33700002 22648.86923219  1722.44658668
0.33800002 22554.30628038  2408.46171021
0.33900002 22469.52332106  1260.54031801
0.34000002 22396.37510843  1374.68956926
0.34100002 22333.48058645  1489.41989085
0.34200002 22281.88197540  1375.68345831
0.34300002 22238.98031614  1836.05030185
0.34400002 22206.80031654  1953.64335037
0.34500002 22183.58572350  1611.85941501
0.34600002 22170.97197073  1384.79897488
0.34700002 22165.17004318  1504.12851037
0.34800002 22169.76374839  1276.64590591
0.34900002 22182.38520648  1281.03280635
0.35000002 22203.41379966  1285.91077111
0.35100002 22232.49053827  1408.65066722
0.35200002 22268.60872611  1650.77204305
0.35300002 22312.88028800  1421.77679929
0.35400002 22364.64088954  1190.91718377
0.35500002 22423.24211513  1556.62154136
0.35600002 22488.26907423  1204.24686596
0.35700002 22560.08577207  1211.47666334
0.35800002 22638.99780078  1828.66513397
0.35900002 22723.55753119  1227.07216481
0.36000002 22814.89783475  1235.42677627
0.36100002 22911.06282336  1492.88492428
0.36200002 23014.05603770  1503.73849273
0.36300002 23120.59950784  1641.10023080
0.36400002 23233.25661692  2035.23337605
0.36500002 23350.25714444  1410.12209575
0.36600002 23472.79526144  1292.17744035
0.36700002 23599.36540974  1823.75904525
0.36800002 23731.78918293  1444.91005285
0.36900002 23867.30359404  1457.09895344
0.37000002 24006.08500669  2137.50191025
0.37100002 24149.17056974  1482.27615979
0.37200002 24296.35500471  1631.25735229
0.37300002 24446.43639503  1508.58966140
0.37400002 24600.90408337  2214.08147239
0.37500002 24757.33489763  1954.83925612
0.37600002 24917.90042299  1550.01806924
0.37700002 25079.97574582  1564.23816137
0.37800002 25245.71735793  2152.82864968
0.37900002 25413.79719575  1593.44515966
0.38000002 25584.25522514  1608.35428092
0.38100002 25756.43633880  1623.42825934
0.38200002 25930.98455688  1787.68216004
0.38300002 26107.16504119  1954.90461090
0.38400002 26285.77419253  2428.80565045
0.38500002 26465.01570026  1532.32448164
0.38600002 26646.76854979  1701.52948636
0.38700002 26828.87046656  1873.72840215
0.38800002 27012.21142283  2206.62765567
0.38900002 27196.72082773  2227.41154132
0.39000002 27382.97690526  2087.81517305
0.39100002 27569.01698967  1783.16410337
0.39200002 27756.49172145  2127.11884385
0.39300002 27943.94984535  2642.38002256
0.39400002 28132.85483379  1666.87172787
0.39500002 28321.02933443  2018.72306660
0.39600002 28509.59963353  3225.71880336
0.39700002 28697.89803254  2055.91751246
0.39800002 28887.33251171  2766.25109238
0.39900002 29075.67124182  2093.44842860
0.40000002 29263.79154966  2464.30400315
0.40100002 29451.44101724  1953.51417523
0.40200002 29639.81752417  2329.24517050
0.40300002 29826.52455224  1988.23622085
0.40400002 30012.73402780  1823.27367858
0.40500002 30198.34106342  2022.98696369
0.40600002 30383.35939829  2411.37543290
0.40700002 30567.17542623  2057.78234719
0.40800002 30750.33691755  2452.49323706
0.40900002 30931.61146464  2282.75303425
0.41000002 31112.70090474  3068.95696266
0.41100002 31292.13862742  2320.62511057
0.41200002 31469.58262563  1949.54073603
0.41300002 31646.14795364  2161.74846914
0.41400002 31821.07106090  2377.03412088
0.41500002 31994.91629780  1996.48287158
0.41600002 32165.99247506  2011.98292465
0.41700002 32336.19052426  2838.47093872
0.41800002 32505.39893567  2247.26086190
0.41900002 32670.80263657  2881.56492909
0.42000002 32835.09265551  2902.95067923
0.42100002 32997.88767318  2088.76638869
0.42200002 33158.56773290  2735.08458905
0.42300002 33316.64562431  2118.93876211
0.42400002 33472.53386092  2774.03637517
0.42500002 33626.69047582  3008.24387252
0.42600002 33777.24610743  2812.46253041
0.42700002 33926.84712935  3702.77627116
0.42800002 34073.49833884  3069.68161081
0.42900002 34218.21939423  3089.90535772
0.43000002 34360.53692703  2665.69058112
0.43100002 34498.95170182  2906.19182908
0.43200002 34635.70933482  2699.50731348
0.43300002 34769.44269628  2489.83990947
0.43400002 34900.98514100  3415.93408255
0.43500002 35029.34684775  2520.01133165
0.43600002 35155.98947281  2534.92274106
0.43700002 35278.81714195  2317.81839607
0.43800002 35398.22226161  3729.55687422
0.43900002 35515.83847784  2812.85454074
0.44000002 35629.87886502  2356.91659861
0.44100002 35741.63324622  2369.67039652
0.44200002 35850.19683554  2858.69483114
0.44300002 35956.08660006  2394.67548105
0.44400002 36058.36604913  3128.96486220
0.44500002 36156.83709192  3628.33877412
0.44600002 36253.14613183  2916.92827600
0.44700002 36346.60599426  4152.23646556
0.44800002 36435.83013076  2944.74393072
0.44900002 36523.37920567  3204.92667719
0.45000002 36607.50493183  2476.49782600
0.45100002 36687.09854726  2736.12393933
0.45200002 36764.58390939  3497.41503305
0.45300002 36838.16189220  2759.54683813
0.45400002 36909.29198426  3526.68301624
0.45500002 36976.95433994  3540.91331541
0.45600002 37041.12975350  2793.08652144
0.45700002 37102.08766506  3058.69625207
0.45800002 37159.15178467  3325.93003812
0.45900002 37213.24404826  3338.02814933
0.46000002 37264.86629235  3607.61187674
0.46100002 37311.87304131  4912.85455619
0.46200002 37356.45436597  2594.40587868
0.46300002 37397.35932123  2863.14196533
0.46400002 37434.46296375  2872.15930702
0.46500002 37469.23361783  4190.55928643
0.46600002 37499.85744824  2889.55165263
0.46700002 37527.11870278  3688.16540091
0.46800002 37551.76265614  2905.94329088
0.46900002 37572.32768142  3178.61907250
0.47000002 37589.25599956  2921.24916846
0.47100002 37603.38722823  2662.31994194
0.47200002 37613.96587019  3469.32430647
0.47300002 37621.83259778  2942.40366693
0.47400002 37624.95750904  2948.85618454
0.47500002 37625.95213835  3492.44104302
0.47600002 37623.90471890  3499.58766330
0.47700002 37617.33988701  2966.87973751
