# SAXS profile: number of points = 501, q_min = 0, q_max = 0.5, delta_q = 0.001
#    q    intensity    error
0.00000000 1700912.83420644 331.67800267
0.00100000 1700842.95526523 612.30347844
0.00200000 1700633.26389477 1224.45598878
0.00300000 1700283.92810406 1122.18743252
0.00400000 1699794.81440304 2167.23847071
0.00500000 1699166.40287622 2905.57466392
0.00600000 1698398.39174382 2674.97757590
0.00700000 1697491.46121900 2444.38780574
0.00800000 1696445.08826182 3435.30144877
0.00900000 1695260.57446650 2542.89097040
0.01000000 1693937.12049399 3912.99491730
0.01100000 1692475.98194279 3960.39397018
0.01200000 1690876.59712802 3956.65141075
0.01300000 1689140.37874936 4256.63394219
0.01400000 1687266.56515203 5694.52490983
0.01500000 1685256.98003624 4853.54031863
0.01600000 1683110.41809630 4721.12493381
0.01700000 1680829.03325050 5899.71017136
0.01800000 1678412.45853832 5740.17086649
0.01900000 1675861.30758859 5530.34256459
0.02000000 1673176.37151984 6851.65755131
0.02100000 1670359.15320437 6063.40400104
0.02200000 1667407.94780875 8053.58075381
0.02300000 1664325.60737881 10185.67318079
0.02400000 1661111.96668161 8720.83822273
0.02500000 1657768.61231775 7758.35745998
0.02600000 1654295.46443237 8039.87632487
0.02700000 1650693.77808384 9012.78844113
0.02800000 1646963.28503635 9313.57780400
0.02900000 1643106.60729658 10351.57210125
0.03000000 1639124.08617041 10670.69829145
0.03100000 1635016.04498598 7848.07737705
0.03200000 1630783.29188225 8072.37766662
0.03300000 1626428.90190823 9124.26656034
0.03400000 1621950.78104132 12772.86299005
0.03500000 1617352.35215685 12227.18434693
0.03600000 1612633.09679377 12530.15974115
0.03700000 1607795.19648958 11913.76295697
0.03800000 1602839.77465860 12189.59705041
0.03900000 1597768.19252114 10545.27055899
0.04000000 1592579.35674917 11753.23619744
0.04100000 1587277.26511716 10999.83195729
0.04200000 1581862.18398730 12243.61387208
0.04300000 1576334.27387071 12484.56802856
0.04400000 1570697.12383917 16963.52972528
0.04500000 1564950.38732445 12957.78980913
0.04600000 1559094.65354546 14289.10316400
0.04700000 1553132.70831170 11182.55601992
0.04800000 1547065.27446746 12508.02332604
0.04900000 1540894.70660346 16179.39517245
0.05000000 1534620.72338013 12913.83398859
0.05100000 1528246.68595799 14304.38964692
0.05200000 1521770.87340228 13307.88690807
0.05300000 1515198.38049369 14727.72894497
0.05400000 1508528.33206689 12445.35931993
0.05500000 1501763.99304398 13876.29994305
0.05600000 1494904.05715782 14059.57331365
0.05700000 1487953.65249859 15534.23685720
0.05800000 1480911.50724877 14416.67419622
0.05900000 1473779.30150885 15916.81719970
0.06000000 1466560.22076016 14760.92931156
0.06100000 1459255.59278465 13571.07764709
0.06200000 1451865.76256423 16464.15851707
0.06300000 1444394.14788369 24959.13204240
0.06400000 1436839.02601131 23815.60796992
0.06500000 1429206.14678326 14149.14151502
0.06600000 1421493.87130391 14286.01407503
0.06700000 1413705.06298722 25955.62617114
0.06800000 1405842.98959932 21825.71343517
0.06900000 1397907.87844401 16145.83675196
0.07000000 1389899.47428171 19243.15912256
0.07100000 1381822.77052782 14923.68662069
0.07200000 1373676.63737565 19554.28784910
0.07300000 1365465.99733725 21219.34259287
0.07400000 1357190.23829738 16795.22998602
0.07500000 1348851.28711613 21527.66755143
0.07600000 1340449.87149304 15482.19674156
0.07700000 1331991.18413944 20259.58686070
0.07800000 1323473.54390826 18819.79467695
0.07900000 1314899.03117900 18934.54693708
0.08000000 1306271.98506930 17458.32589944
0.08100000 1297592.26643678 20748.50131381
0.08200000 1288860.32309967 20860.20530824
0.08300000 1280080.11145897 20967.71320975
0.08400000 1271251.71634580 16208.46014421
0.08500000 1262379.19571018 24427.03858372
0.08600000 1253461.88615439 21264.98189703
0.08700000 1244503.40165151 21355.67937515
0.08800000 1235502.34763189 23091.53996171
0.08900000 1226464.70442917 21524.45657373
0.09000000 1217389.49912795 18279.10418808
0.09100000 1208279.07244704 20009.10237977
0.09200000 1199134.54795487 20073.51327595
0.09300000 1189959.89575868 16778.43531865
0.09400000 1180752.79426273 25238.59216352
0.09500000 1171518.01804547 18556.84627806
0.09600000 1162256.06810136 23675.15722014
0.09700000 1152970.80232405 25423.00738645
0.09800000 1143662.41722835 16983.38769436
0.09900000 1134332.78323269 18716.49180344
0.10000000 1124981.98063588 23860.86893140
0.10100000 1115612.85529800 18775.76523772
0.10200000 1106227.70594091 22218.58451890
0.10300000 1096827.12574774 20532.60475987
0.10400000 1087414.10208646 25690.15937039
0.10500000 1077991.01842932 20568.06959935
0.10600001 1068555.00897966 20580.37044133
0.10700001 1059112.41940668 27452.19520286
0.10800001 1049661.74261955 17161.97029950
0.10900001 1040206.85211365 20596.09664122
0.11000001 1030748.13202725 18878.15292667
0.11100001 1021287.19931564 18873.38833179
0.11200001 1011826.69763239 18865.50966549
0.11300001 1002365.62020893 22282.58878633
0.11400001 992908.63248919 37680.88437715
0.11500001 983455.56580072 20534.55318085
0.11600001 974007.79422037 22221.98887160
0.11700001 964568.40499098 20487.43388686
0.11800001 955135.53228179 18754.08705964
0.11900001 945713.51351183 22129.69725852
0.12000001 936302.23840664 23791.44099861
0.12100001 926905.80058479 20354.85233972
0.12200001 917521.96484968 22006.76536369
0.12300001 908154.88098961 16891.68158225
0.12400001 898803.77479667 20223.08588579
0.12500001 889471.23649222 25216.51074277
0.12600001 880160.08837359 26827.28075782
0.12700001 870869.42966784 16720.69383761
0.12800001 861600.15002105 20006.35642637
0.12900001 852355.02258504 28255.57033044
0.13000001 843135.30365544 23194.65329684
0.13100001 833940.15130039 28070.42681594
0.13200001 824774.08192305 23035.94119403
0.13300001 815637.22049986 24591.46335739
0.13400001 806528.85825936 21231.87319467
0.13500001 797452.23644641 16268.02639052
0.13600001 788406.93933902 24302.64505101
0.13700001 779396.14652283 19360.20119252
0.13800001 770418.07496387 20882.18290661
0.13900001 761477.80902562 20788.34516674
0.14000001 752572.77085768 23875.37228144
0.14100001 743706.13551391 20593.22386362
0.14200001 734877.03414556 28373.60362661
0.14300001 726090.21410448 18820.25923729
0.14400001 717339.83394675 15602.14212429
0.14500001 708634.96626896 23278.65974004
0.14600001 699970.80087477 21608.09964235
0.14700001 691352.54752272 16882.83000698
0.14800001 682776.73020836 18312.07276813
0.14900001 674245.82417828 19721.69128770
0.15000001 665762.25491230 16587.46736378
0.15100001 657325.28703667 14987.01725160
0.15200001 648937.57694510 22339.67714048
0.15300001 640598.33473216 19237.16889979
0.15400001 632306.58256231 19111.46735984
0.15500001 624067.29013519 16063.49280616
0.15600001 615877.24563250 15954.30080107
0.15700001 607742.18528572 18724.53761239
0.15800001 599655.05231857 20022.48314195
0.15900001 591624.24594118 15618.88083007
0.16000001 583645.03348254 18323.53669110
0.16100001 575723.31055962 13990.07710699
0.16200001 567854.49370382 18049.25593441
0.16300001 560042.47806618 15154.75017189
0.16400001 552286.34060407 17769.81384784
0.16500001 544587.58748723 14916.25472549
0.16600001 536945.35371207 18830.67444374
0.16700001 529360.94786495 14673.88616764
0.16800001 521833.87381897 15874.18719110
0.16900001 514367.95451169 18362.93684313
0.17000001 506960.28248405 13003.53185974
0.17100001 499612.52799710 16757.00498031
0.17200001 492324.80661066 17886.16106880
0.17300001 485097.63113375 13927.15364755
0.17400001 477932.53756842 17564.02158512
0.17500001 470827.91676633 16158.81486656
0.17600001 463783.20406387 13544.78911439
0.17700001 456802.88414976 13416.30134114
0.17800001 449884.03370268 13287.32556300
0.17900001 443027.34096213 11961.73877097
0.18000001 436234.32716781 16581.26755887
0.18100001 429505.34892205 15243.14555328
0.18200001 422836.58281416 12767.55122119
0.18300001 416234.38467387 11488.06955969
0.18400001 409694.22274029 13642.81826175
0.18500001 403218.99318922 16874.71566217
0.18600001 396807.41439536 12243.49334959
0.18700001 390459.80922292 12112.06385433
0.18800001 384175.60236606 14158.79249415
0.18900001 377958.31526723 14003.35624227
0.19000001 371801.29700285 11717.31842867
0.19100001 365713.78062351 13692.32459351
0.19200001 359687.61317450 13536.84396146
0.19300001 353728.29031686 15440.24060192
0.19400001 347832.66346744 15261.15883078
0.19500001 342002.14730837 14076.80904841
0.19600001 336235.40948315 9935.75681975
0.19700001 330533.94410137 13743.60204522
0.19800001 324897.15186843 14547.27066240
0.19900001 319326.06414020 15327.65180311
0.20000001 313817.32313941 10407.75201380
0.20100001 308375.01336185 12146.89235041
0.20200001 302995.64058962 11071.46123042
0.20300001 297681.70694919 12752.68492845
0.20400001 292431.72752312 9891.50365100
0.20500001 287245.26029105 13313.81844379
0.20600001 282122.97176335 9635.91055605
0.20700001 277064.48024914 8644.41219239
0.20800001 272069.01044362 10235.23665671
0.20900001 267139.32007815 11780.84457234
0.21000001 262270.53693907 11621.20804113
0.21100001 257464.96752576 11462.34089611
0.21200001 252722.23997286 9689.37113862
0.21300001 248041.63590062 11146.99164435
0.21400001 243424.60207005 8635.48816669
0.21500001 238870.09218372 8513.33048792
0.21600001 234375.67783311 10680.50014381
0.21700001 229943.87218200 9774.91446861
0.21800001 225573.21964720 11115.12092365
0.21900001 221262.45911798 8031.82764574
0.22000001 217012.23873555 8632.74726508
0.22100001 212824.92106238 8504.48424777
0.22200001 208696.14554950 8377.06367846
0.22300001 204627.31678740 11688.31288758
0.22400001 200616.06506263 8802.03027084
0.22500001 196666.90070448 9333.81154881
0.22600001 192774.84214178 7876.78042239
0.22700001 188942.16347818 7108.00452618
0.22800001 185166.57241242 6360.47206315
0.22900001 181448.25567479 7511.95814018
0.23000001 177787.70422565 10472.58521268
0.23100001 174185.08119465 6667.80522347
0.23200001 170637.26773461 10138.41374193
0.23300001 167146.69140727 8213.58880421
0.23400001 163711.96482177 8079.18584606
0.23500001 160330.92476599 6810.85800619
0.23600001 157005.79090889 6697.86735696
0.23700001 153734.71069538 6585.99531769
0.23800001 150518.08639908 5396.07365263
0.23900001 147354.75181779 6365.72557962
0.24000001 144244.73673155 7300.22647129
0.24100001 141188.18550695 6150.15765159
0.24200001 138183.45859898 6547.82349544
0.24300001 135230.47369280 7919.09691405
0.24400001 132328.44824681 7294.60605467
0.24500001 129477.64787306 5255.49797578
0.24600001 126677.27571709 5162.73261607
0.24700001 123927.98131734 4610.12112309
0.24800001 121227.03825839 7697.31115835
0.24900001 118574.98209364 4891.21824275
0.25000001 115972.25280604 5239.62662965
0.25100001 113417.15858650 5573.31943661
0.25200001 110910.76660509 7997.22120441
0.25300001 108451.41293148 4545.19893099
0.25400001 106038.16213035 4461.55588272
0.25500001 103671.14727334 6767.65281419
0.25600001 101350.56003435 5860.59641127
0.25700001 99075.03385797  4984.46518923
0.25800001 96843.98524999  4514.86680597
0.25900001 94657.70505641  4429.98080624
0.26000001 92515.78044852  4708.59086872
0.26100001 90415.16575850  4263.97941893
0.26200001 88359.79182208  3485.79395232
0.26300001 86345.58218350  4786.99930276
0.26400001 84373.05711304  4024.59501473
0.26500001 82442.81122766  5263.14931782
0.26600001 80552.66589580  3548.74786396
0.26700001 78704.00985727  3163.90134598
0.26800001 76895.05746360  3723.25885858
0.26900001 75125.09699018  3346.82322929
0.27000001 73394.75452951  3281.84660409
0.27100001 71702.80821773  4095.66459922
0.27200001 70049.17661041  3155.36530974
0.27300001 68432.56106742  3093.83623227
0.27400001 66851.91535061  3584.93413033
0.27500001 65310.20338662  2974.22680298
0.27600001 63802.54581913  3181.19508510
0.27700001 62332.00619051  3119.09373739
0.27800001 60895.96821034  3313.04530728
0.27900001 59494.75921418  2748.65800578
0.28000001 58127.71691337  3185.10839901
0.28100001 56794.06722576  3123.10590456
0.28200001 55494.16652974  3062.44572489
0.28300001 54227.17107989  2310.07759734
0.28400001 52992.40981436  2945.05331482
0.28500001 51789.93332056  3777.04001584
0.28600001 50618.08116366  3486.57359558
0.28700001 49477.60206135  2778.66226329
0.28800001 48367.09829862  2306.38519154
0.28900001 47288.06999485  2262.73425636
0.29000001 46237.15132231  2018.25175075
0.29100001 45216.78782806  3168.79264098
0.29200001 44224.38353834  2138.02792337
0.29300001 43260.24713212  2480.11008548
0.29400001 42323.74797430  2434.67371747
0.29500001 41415.65319629  1838.85508896
0.29600001 40533.54873045  2528.07755399
0.29700001 39677.71126415  2305.67191071
0.29800001 38848.78391351  2090.84164920
0.29900001 38045.10482124  1712.02979800
0.30000001 37266.59006914  1850.84528340
0.30100001 36513.89859416  1984.89562154
0.30200001 35784.46803115  2114.32539371
0.30300001 35079.43883287  2239.47148111
0.30400001 34398.70692989  1888.48909986
0.30500001 33739.86742713  2168.12398351
0.30600001 33104.00778444  1676.88359371
0.30700001 32491.19046187  1951.42099153
0.30800001 31900.15471098  1922.14391311
0.30900001 31330.53343734  2185.30481072
0.31000001 30782.91213939  1723.22750315
0.31100001 30254.45712438  2265.45385673
0.31200001 29747.50366694  1815.63897227
0.31300001 29260.13974673  1378.15264732
0.31400001 28793.90809998  2040.76833321
0.31500001 28345.67318024  1477.94346959
0.31600002 27916.74808419  1725.67386453
0.31700002 27505.79697153  1443.22923543
0.31800002 27113.52644441  1816.33522251
0.31900002 26739.24168907  1411.83202803
0.32000002 26382.31857723  1397.33956961
0.32100002 26042.84556361  1635.23035037
0.32200002 25720.17566318  1993.82811182
0.32300002 25413.20780895  1482.09834960
0.32400002 25122.85519718  1347.21317374
0.32500002 24847.76963157  1336.56159177
0.32600002 24588.54370305  1206.06812574
0.32700002 24344.38432089  1676.84127143
0.32800002 24115.56671222  1547.13425568
0.32900002 23899.99961144  1774.57505518
0.33000002 23700.26317801  1176.71812251
0.33100002 23511.79177441  1170.88728581
0.33200002 23339.43952857  1398.96607159
0.33300002 23178.86535206  1509.63957187
0.33400002 23031.99507186  1273.09358789
0.33500002 22897.17928035  1731.02683557
0.33600002 22774.61305096  1611.75944194
0.33700002 22663.41267458  1493.74560012
0.33800002 22565.26442191  1491.67687525
0.33900002 22477.33283709  1260.97843188
0.34000002 22401.12694105  1947.89008541
0.34100002 22335.49097038  1260.39181515
0.34200002 22281.49105047  1375.65932261
0.34300002 22236.27555805  1376.87024776
0.34400002 22202.27301250  1608.55475594
0.34500002 22177.25457781  1496.29943723
0.34600002 22163.06756781  1153.58772154
0.34700002 22155.94196632  1387.84827050
0.34800002 22159.54725884  1160.05235394
0.34900002 22171.26141528  1629.58779120
0.35000002 22191.63246809  1869.42320765
0.35100002 22220.26651677  1290.55314042
0.35200002 22256.12938297  1532.00073864
0.35300002 22300.35583022  1657.80853094
0.35400002 22352.27879779  1190.25890236
0.35500002 22411.23380605  1436.11193031
0.35600002 22476.80937933  1444.35983913
0.35700002 22549.30665585  2179.61608459
0.35800002 22629.14064656  1827.86892230
0.35900002 22714.71153920  1471.91337746
0.36000002 22807.25596371  1358.51426583
0.36100002 22904.84153317  1368.10624958
0.36200002 23009.35743616  1879.28935761
0.36300002 23117.63236658  1262.22278700
0.36400002 23232.14010362  1526.35167711
0.36500002 23351.10650568  1538.37096946
0.36600002 23475.68409838  1809.27105916
0.36700002 23604.59200763  1302.97354054
0.36800002 23739.43650223  1313.97787264
0.36900002 23877.38596718  1722.75347914
0.37000002 24018.85421186  2138.63888033
0.37100002 24164.63918278  1618.06431633
0.37200002 24314.78842781  1496.45372468
0.37300002 24467.81715854  1784.43798990
0.37400002 24625.40419177  1662.21486168
0.37500002 24785.05870646  2376.39154135
0.37600002 24948.87525948  1834.11665159
0.37700002 25114.33729110  1851.17788942
0.37800002 25283.54970337  1437.36986873
0.37900002 25455.24715562  1596.04407227
0.38000002 25629.34123617  1757.66030524
0.38100002 25805.20487772  1774.36597145
0.38200002 25983.58941764  1642.03301104
0.38300002 26163.63329412  1959.13295388
0.38400002 26346.18350745  1521.49216963
0.38500002 26529.53182102  1996.87795477
0.38600002 26715.37485632  2636.40689260
0.38700002 26901.54157598  2191.93771145
0.38800002 27089.11086767  1896.77963282
0.38900002 27277.91746380  1595.75824723
0.39000002 27468.37444736  2255.42833273
0.39100002 27658.72060443  2114.23270317
0.39200002 27850.64142504  2298.51354570
0.39300002 28042.49014971  2651.69799419
0.39400002 28235.83991667  2342.16303205
0.39500002 28428.44281065  2026.37949955
0.39600002 28621.51196914  2215.73445407
0.39700002 28814.27436092  1892.23348693
0.39800002 29008.38593829  2083.38237680
0.39900002 29201.35625266  1927.28960399
0.40000002 29393.91809331  1944.84868279
0.40100002 29586.25676269  2140.86164078
0.40200002 29779.17454577  2160.18142390
0.40300002 29970.46712186  2724.31559046
0.40400002 30161.32626695  2198.76078904
0.40500002 30351.58621531  2033.25285690
0.40600002 30541.22028941  2237.44990441
0.40700002 30729.63155648  3009.04566458
0.40800002 30917.29660741  2845.16435510
0.40900002 31103.27419333  3060.56232564
0.41000002 31288.89018666  2121.85618855
0.41100002 31472.91413700  2139.52880441
0.41200002 31654.84952008  2157.11982276
0.41300002 31836.06785036  2372.42388862
0.41400002 32015.39610728  2391.55020253
0.41500002 32193.73122322  2209.77781587
0.41600002 32369.27451565  2834.57750365
0.41700002 32543.85240929  2652.64953557
0.41800002 32717.48351386  2261.92332991
0.41900002 32887.24945629  2900.65553949
0.42000002 33055.84682438  2296.22450846
0.42100002 33222.93810387  2313.31328979
0.42200002 33387.87764768  2753.99921827
0.42300002 33550.15037823  3200.68449775
0.42400002 33710.18417354  3008.63408005
0.42500002 33868.44298547  2380.61297026
0.42600002 34023.04024107  2397.09341377
0.42700002 34176.58095093  2194.13660102
0.42800002 34327.23839987  2429.85368528
0.42900002 34475.90964275  2223.69627733
0.43000002 34622.04252873  2462.14667111
0.43100002 34764.28991843  3153.81653085
0.43200002 34904.75108779  2720.47642870
0.43300002 35042.18581183  3193.74496624
0.43400002 35177.37613419  2754.38868183
0.43500002 35309.18906926  2771.06528947
0.43600002 35439.35929121  2787.66013395
0.43700002 35565.70903158  3271.33407175
0.43800002 35688.38852333  2585.08854519
0.43900002 35809.34237992  2599.75837998
0.44000002 35926.60671158  3327.16320523
0.44100002 36041.45973909  3584.32334091
0.44200002 36153.13339423  2882.85099347
0.44300002 36261.98864088  3381.06798111
0.44400002 36367.16944222  2427.50867531
0.44500002 36468.54572099  3171.66957166
0.44600002 36567.64700020  3187.41910183
0.44700002 36663.89838360  3942.10254103
0.44800002 36755.62482724  3465.68802921
0.44900002 36845.78155620  3233.21748478
0.45000002 36932.38500000  2998.17115639
0.45100002 37014.41278424  3513.40822799
0.45200002 37094.15954306  2772.60308645
0.45300002 37169.92210643  3037.52617849
0.45400002 37243.21434693  2796.03444961
0.45500002 37312.96870605  3062.64861654
0.45600002 37379.22548287  3074.81523395
0.45700002 37441.99886539  2829.49198836
0.45800002 37500.84663236  4131.09346081
0.45900002 37556.76440433  2850.55855339
0.46000002 37609.96680760  2860.80226081
0.46100002 37658.49047424  3653.62691897
0.46200002 37704.58210615  3666.01669193
0.46300002 37746.88213258  3152.61974513
0.46400002 37785.31661497  3426.18374645
0.46500002 37821.31536983  2908.08107662
0.46600002 37852.99653306  3712.24354594
0.46700002 37881.34096140  3722.97836614
0.46800002 37906.96205520  4266.80785116
0.46900002 37928.46243296  2941.35240109
0.47000002 37946.05903605  2948.97811776
0.47100002 37960.89733063  3225.15799007
0.47200002 37972.05338935  3771.76424193
0.47300002 37980.61960548  3240.50661833
0.47400002 37984.06810709  2977.00147900
0.47500002 37985.43539056  3797.02430161
0.47600002 37983.69639366  2717.73360578
