# SAXS profile: number of points = 501, q_min = 0, q_max = 0.5, delta_q = 0.001
#    q    intensity    error
0.00000000 1700912.83420644 306.16431016
0.00100000 1700842.94612124 561.27818555
0.00200000 1700633.23191008 765.28497859
0.00300000 1700283.84285450 1224.20441047
0.00400000 1699794.67019651 1274.84605109
0.00500000 1699166.18106119 1682.17458583
0.00600000 1698398.07909260 2674.97708347
0.00700000 1697491.02512356 2240.68824629
0.00800000 1696444.51236755 3206.28026374
0.00900000 1695259.86208346 2797.17889201
0.01000000 1693936.24194260 2794.99491989
0.01100000 1692474.90646917 3351.10046071
0.01200000 1690875.32441489 3626.92772989
0.01300000 1689138.87718062 4256.63015823
0.01400000 1687264.83075096 4555.61524498
0.01500000 1685254.98885480 4449.07336869
0.01600000 1683108.15012491 6437.88896202
0.01700000 1680826.49798710 4538.23174814
0.01800000 1678409.58065515 4783.46752011
0.01900000 1675858.11931286 6535.84696023
0.02000000 1673172.83079071 5797.54412095
0.02100000 1670355.26272454 6614.60714029
0.02200000 1667403.69586066 8628.81451811
0.02300000 1664320.98678697 6590.71140767
0.02400000 1661106.92751042 6852.06638842
0.02500000 1657763.09341028 7111.80399553
0.02600000 1654289.52125439 6699.87286752
0.02700000 1650687.36369225 9012.75341855
0.02800000 1646956.40856158 10746.39105869
0.02900000 1643099.19570584 8133.34139218
0.03000000 1639116.18893027 8384.07969175
0.03100000 1635007.59112724 9417.64415823
0.03200000 1630774.33847552 11301.26668615
0.03300000 1626419.38406509 9124.21316524
0.03400000 1621940.69357385 16178.85916490
0.03500000 1617341.65237528 13100.46798919
0.03600000 1612621.83012560 10740.06188497
0.03700000 1607783.28163350 10997.23815497
0.03800000 1602827.22032889 11251.84760744
0.03900000 1597754.97366543 16297.10148611
0.04000000 1592565.44839498 10773.70575763
0.04100000 1587262.69049918 12999.68203794
0.04200000 1581846.85838111 11223.20398089
0.04300000 1576318.24944034 13524.81120799
0.04400000 1570680.38247704 12722.51168892
0.04500000 1564932.85898793 10798.03722875
0.04600000 1559076.33687374 13189.78642310
0.04700000 1553113.67657291 15655.38658795
0.04800000 1547045.40426459 12507.86267545
0.04900000 1540874.09615441 17334.83438863
0.05000000 1534599.33595159 16435.55965338
0.05100000 1528224.39870550 14304.18103823
0.05200000 1521747.70452497 12097.89481475
0.05300000 1515174.41004161 13500.20462282
0.05400000 1508503.35099247 13689.66854866
0.05500000 1501738.18302472 12614.60132587
0.05600000 1494877.29784139 20449.92238875
0.05700000 1487925.99709203 15533.94813474
0.05800000 1480882.90556336 19658.72148927
0.05900000 1473749.72702567 17242.87261154
0.06000000 1466529.66481966 17444.37117801
0.06100000 1459224.07046593 14927.86293847
0.06200000 1451833.27284675 15091.80757669
0.06300000 1444360.70541412 18025.62244636
0.06400000 1436804.55948528 15409.72962114
0.06500000 1429170.64339659 22638.06405036
0.06600000 1421457.40158606 14285.64755434
0.06700000 1413667.52766093 15861.35040265
0.06800000 1405804.36223148 18915.09857922
0.06900000 1397868.15709462 24951.94777236
0.07000000 1389858.61974111 16282.19449274
0.07100000 1381780.88843050 14923.23429402
0.07200000 1373633.66636735 22561.93402704
0.07300000 1365421.95471004 22734.27661115
0.07400000 1357144.92350535 19848.24543644
0.07500000 1348804.95399400 18451.65263551
0.07600000 1340402.28371555 21674.30594378
0.07700000 1331942.50083076 18700.47358850
0.07800000 1323423.76548436 21955.60129902
0.07900000 1314847.98999669 17355.99428202
0.08000000 1306219.92508062 15870.57283423
0.08100000 1297538.87891635 22343.62054326
0.08200000 1288805.66419208 19254.75752656
0.08300000 1280024.28122882 17741.13737046
0.08400000 1271194.67382304 17828.50613721
0.08500000 1262320.92559113 22797.51698641
0.08600000 1253402.48244904 21263.97411312
0.08700000 1244442.51513585 26282.62715384
0.08800000 1235440.24112341 24739.69199037
0.08900000 1226401.45041130 26490.27257312
0.09000000 1217324.91838425 21601.43169147
0.09100000 1208213.20184670 16673.34296882
0.09200000 1199067.59311144 31781.28804872
0.09300000 1189891.58574707 18455.21936219
0.09400000 1180683.18430558 20189.68340049
0.09500000 1171447.06254377 20242.60619221
0.09600000 1162183.88346408 20291.73155915
0.09700000 1152897.24616468 18642.34934691
0.09800000 1143587.59083988 25473.41478366
0.09900000 1134256.64691962 18715.23555421
0.10000000 1124904.56491481 17042.30495991
0.10100000 1115534.07947642 17067.67221871
0.10200000 1106147.59751430 18798.97930399
0.10300000 1096745.72382181 18820.15750610
0.10400000 1087331.28489124 25688.20281406
0.10500000 1077907.00621153 29135.82774872
0.10600001 1068469.49302498 24008.51063796
0.10700001 1059025.65790054 17156.21646532
0.10800001 1049573.62875071 17160.52963768
0.10900001 1040117.37791882 22310.51880642
0.11000001 1030657.24774207 24024.62157570
0.11100001 1021195.11921837 22302.90245360
0.11200001 1011733.10635266 20578.65235200
0.11300001 1002270.67351958 20566.59518891
0.11400001 992812.47911368 18838.61767819
0.11500001 983357.98635380 27376.68762920
0.11600001 973909.04511008 23928.94636520
0.11700001 964468.25931878 17071.08899390
0.11800001 955033.96531631 18752.09279218
0.11900001 945610.57724637 22127.28854980
0.12000001 936198.09715198 23788.79476920
0.12100001 926800.30205083 16960.44632651
0.12200001 917415.15340301 25389.46556656
0.12300001 908046.58499863 21956.56745974
0.12400001 898694.17706425 20220.61993669
0.12500001 889360.33112332 16808.91105027
0.12600001 880047.75502625 23470.87473258
0.12700001 870755.89847429 18390.36544245
0.12800001 861485.22849526 18336.71395272
0.12900001 852238.83644771 19942.38971280
0.13000001 843017.72640574 23191.41874655
0.13100001 833821.38819817 21462.56354392
0.13200001 824653.93378110 19742.21610537
0.13300001 815515.86736256 22948.61758945
0.13400001 806406.22705932 17962.69955461
0.13500001 797328.42285900 16265.50059321
0.13600001 788281.87262539 22678.87054476
0.13700001 779269.83867393 20970.15234753
0.13800001 770290.46250494 17666.61259063
0.13900001 761348.92811835 25581.32519115
0.14000001 752442.74088985 22279.83060848
0.14100001 743574.82257524 22173.40225496
0.14200001 734744.31778684 20488.34626782
0.14300001 725956.39728153 21952.92248926
0.14400001 717204.89667226 23398.81085765
0.14500001 708498.94493716 20170.96591387
0.14600001 699833.51088648 21603.86150021
0.14700001 691214.04524076 16879.44778109
0.14800001 682637.05739710 15256.93895263
0.14900001 674105.01042856 16684.09979528
0.15000001 665620.35453306 15076.30174152
0.15100001 657182.38777399 17980.51097791
0.15200001 648793.48975035 20845.73580933
0.15300001 640453.20982745 16273.91682967
0.15400001 632160.26397337 17637.27219718
0.15500001 623920.00992208 21899.59338177
0.15600001 615728.88039744 18850.54056302
0.15700001 607592.79445237 14399.94990815
0.15800001 599504.64095857 20017.46090641
0.15900001 591472.89410016 17034.42015412
0.16000001 583492.47415197 18318.74709069
0.16100001 575570.02636993 18182.25799131
0.16200001 567700.07419804 15268.29421631
0.16300001 559887.37958753 22037.16830089
0.16400001 552130.12385878 15031.74333170
0.16500001 544430.45677021 13556.31901359
0.16600001 536787.33580637 13446.52339680
0.16700001 529202.12511450 22671.02011031
0.16800001 521674.22341892 19836.66328212
0.16900001 514207.51962953 15734.75084363
0.17000001 506798.97490438 18199.15204817
0.17100001 499450.34757472 16751.56544869
0.17200001 492161.80570449 12771.59946114
0.17300001 484933.92712943 17719.48653410
0.17400001 477768.17650691 16303.83979326
0.17500001 470662.78105338 14910.59760796
0.17600001 463617.51442735 13539.95014833
0.17700001 456636.47524263 18288.29169723
0.17800001 449716.93547236 13282.39031653
0.17900001 442859.61730990 14348.65227858
0.18000001 436065.91172165 13023.10906871
0.18100001 429336.42363874 19925.50436228
0.18200001 422667.16753438 13922.65715626
0.18300001 416064.36189749 11483.37693084
0.18400001 409523.58754704 15909.99212780
0.18500001 403047.96089838 15743.05409643
0.18600001 396635.80573453 13350.76185176
0.18700001 390287.76675698 12106.72709678
0.18800001 384003.21008007 13063.78982414
0.18900001 377785.45190924 16150.32883218
0.19000001 371628.22988076 14906.00900481
0.19100001 365540.27636587 13685.82859379
0.19200001 359513.73050124 16652.67678368
0.19300001 353554.22166878 10288.42833672
0.19400001 347658.19831314 14236.60389366
0.19500001 341827.46763999 12059.67362822
0.19600001 336060.50057601 12909.76473970
0.19700001 330358.76370433 14717.48361854
0.19800001 324721.99473518 10662.24720101
0.19900001 319150.79202069 15319.23874098
0.20000001 313641.81918105 12293.19168379
0.20100001 308199.49952198 12139.97885993
0.20200001 302820.07770964 12909.22052290
0.20300001 297506.13088506 12745.16324951
0.20400001 292256.12667001 8986.87631987
0.20500001 287069.59843345 11531.58631413
0.20600001 281947.46542206 11380.80997971
0.20700001 276888.85845372 13822.29246738
0.20800001 271893.52482167 10228.63488730
0.20900001 266964.01867663 8409.36698584
0.21000001 262095.32514240 10783.91266276
0.21100001 257290.07625306 11454.55473628
0.21200001 252547.46154000 8875.78095542
0.21300001 247867.21084787 11934.80676655
0.21400001 243250.46710127 11767.24190234
0.21500001 238696.25847198 8507.13505414
0.21600001 234202.19938898 8385.61014558
0.21700001 229770.62291049 9767.54964173
0.21800001 225400.49953331 8144.84743573
0.21900001 221090.11747796 8025.57164391
0.22000001 216840.34194880 7188.25767548
0.22100001 212653.51853394 8497.63500241
0.22200001 208525.24863495 8370.20387599
0.22300001 204456.94036445 8243.70422530
0.22400001 200446.28628688 6765.06248208
0.22500001 196497.71444872 7993.52740177
0.22600001 192606.19824535 8525.71376850
0.22700001 188774.17633188 8392.90027661
0.22800001 184999.28702364 7625.67097173
0.22900001 181281.67493262 6254.21808094
0.23000001 177621.84491497 10462.81526952
0.23100001 174020.19777508 7267.08380277
0.23200001 170473.08475048 7745.44497195
0.23300001 166983.39934742 7619.45287258
0.23400001 163549.43408390 7494.65317136
0.23500001 160169.18777930 6803.98741867
0.23600001 156845.16875027 6133.43061407
0.23700001 153575.09775055 6030.89437391
0.23800001 150359.35973023 8085.57495193
0.23900001 147197.11602869 5829.00607045
0.24000001 144087.97951040 8854.92719965
0.24100001 141032.55511818 5631.43019224
0.24200001 138028.83697646 5534.26648035
0.24300001 135077.03977283 7415.72983431
0.24400001 132176.14330266 5343.22084576
0.24500001 129326.66586632 6203.80045507
0.24600001 126527.54797496 5625.41504908
0.24700001 123779.39021952 5525.51224079
0.24800001 121079.75198657 5426.79474076
0.24900001 118429.07559926 6217.52676310
0.25000001 115827.59940234 5233.09118857
0.25100001 113273.80436375 5138.10000902
0.25200001 110768.80147765 5044.41145794
0.25300001 108310.88265397 4539.30930678
0.25400001 105899.10295407 5265.83314352
0.25500001 103533.58888311 6361.10400193
0.25600001 101214.45673072 4291.99924073
0.25700001 98940.34388485  4211.89063846
0.25800001 96711.01867511  4132.94557863
0.25900001 94526.26688436  4423.82949950
0.26000001 92385.82117088  4701.97659097
0.26100001 90286.94112523  3903.10464952
0.26200001 88233.21813587  5569.28099226
0.26300001 86220.73778566  3755.77551566
0.26400001 84249.76791634  3683.82127645
0.26500001 82321.31706898  3284.62070648
0.26600001 80432.97706271  4509.87723731
0.26700001 78586.01446731  3159.15793108
0.26800001 76778.96116004  3717.63747529
0.26900001 75010.76377034  3037.93607646
0.27000001 73282.09039725  6553.61765436
0.27100001 71592.12059623  4381.43798783
0.27200001 69940.37687445  3436.87028226
0.27300001 68325.66361432  4212.27736117
0.27400001 66746.93344539  3579.30447540
0.27500001 65207.25492988  3509.45462641
0.27600001 63701.51353977  3440.83741669
0.27700001 62233.04292265  2595.11801269
0.27800001 60798.78529447  2798.87221349
0.27900001 59399.68826093  2744.26572754
0.28000001 58034.72391692  2446.16372887
0.28100001 56703.16551784  2878.25281791
0.28200001 55405.41297326  3998.33181646
0.28300001 54140.41613446  2998.29638744
0.28400001 52907.91268401  2487.99471172
0.28500001 51707.54380809  2440.07910780
0.28600001 50537.80967009  2393.21809020
0.28700001 49399.42881933  2347.46096861
0.28800001 48291.12241599  2930.78835815
0.28900001 47214.40183774  2464.59189259
0.29000001 46165.69689586  2619.67259436
0.29100001 45147.51061119  2175.20716421
0.29200001 44157.38367663  2717.00394623
0.29300001 43195.50066972  2285.90600365
0.29400001 42261.28454445  2992.09908738
0.29500001 41355.46908700  2019.80120582
0.29600001 40475.76296421  1983.51485796
0.29700001 39622.26892284  2125.33860563
0.29800001 38795.43949949  1913.97309831
0.29900001 37994.24276168  2051.68920626
0.30000001 37218.06492029  2688.63313712
0.30100001 36467.72590575  1982.38567408
0.30200001 35740.61178058  2274.17523526
0.30300001 35037.91526803  1757.50191305
0.30400001 34359.61682483  1571.95254415
0.30500001 33703.10991420  1856.36738196
0.30600001 33069.77594588  3045.72650881
0.30700001 32459.32380905  1499.62083098
0.30800001 31870.64070292  1920.36554647
0.30900001 31303.46094511  2183.41650429
0.31000001 30758.21818422  2008.81932472
0.31100001 30232.24676119  1980.81690158
0.31200001 29727.71846087  2093.57467173
0.31300001 29242.73050809  1652.79920657
0.31400001 28778.99921014  1359.80777706
0.31500001 28333.15105574  2283.08542017
0.31600002 27906.63270996  1857.74462746
0.31700002 27498.05256565  1573.98860338
0.31800002 27108.23784703  1556.55509088
0.31900002 26736.42682184  1540.01825786
0.32000002 26381.94928105  1651.37819344
0.32100002 26044.93595781  1509.56455959
0.32200002 25724.64066913  1495.63067932
0.32300002 25420.06161075  1606.03956861
0.32400002 25132.11324800  1592.74775251
0.32500002 24859.42954211  1215.62616217
0.32600002 24602.70947815  1568.79184416
0.32700002 24360.86090018  1438.26529565
0.32800002 24134.48321697  1191.03680316
0.32900002 23921.30081800  2012.97755916
0.33000002 23723.97530575  1413.47451565
0.33100002 23537.84071304  1406.62142762
0.33200002 23367.89388646  1517.39426137
0.33300002 23209.74723162  1395.37006964
0.33400002 23065.15860720  1159.02427490
0.33500002 22932.67215845  1386.96807782
0.33600002 22812.51976101  1153.17292853
0.33700002 22703.54032638  1496.39041378
0.33800002 22607.71955626  1724.40389082
0.33900002 22522.17228748  1493.22009338
0.34000002 22448.11588509  1377.86541828
0.34100002 22384.87844930  1492.84761448
0.34200002 22333.15134785  1263.94476039
0.34300002 22290.12692100  1380.20472431
0.34400002 22258.29520377  1727.80024702
0.34500002 22235.53908083  1269.42698624
0.34600002 22223.55055255  1156.73586104
0.34700002 22218.60193618  1275.79218360
0.34800002 22224.27387615  1396.12895102
0.34900002 22238.17685196  1284.25477403
0.35000002 22260.75249170  1406.43440904
0.35100002 22291.44235334  1412.38585440
0.35200002 22329.41730686  2009.98259408
0.35300002 22375.62289995  1425.77475871
0.35400002 22429.64446566  1433.25434924
0.35500002 22490.60141786  1561.29762438
0.35600002 22558.23243682  1328.79274463
0.35700002 22632.72795785  1701.52856846
0.35800002 22714.49883284  1467.81098410
0.35900002 22802.01551010  2093.22512297
0.36000002 22896.45855974  1487.81194768
0.36100002 22995.84966597  1498.40963521
0.36200002 23102.28244744  1635.29514050
0.36300002 23212.37438811  1520.87484195
0.36400002 23328.66109634  1660.41753218
0.36500002 23449.47519980  1673.58912428
0.36600002 23575.82386917  1816.98883166
0.36700002 23706.48369114  1570.31755408
0.36800002 23842.94404741  1451.67771709
0.36900002 23982.60151091  1597.24133629
0.37000002 24125.68205698  1611.11312408
0.37100002 24273.04397950  1489.87951004
0.37200002 24424.85205156  1776.54169812
0.37300002 24579.42518033  2068.35872690
0.37400002 24738.53965338  1530.69721356
0.37500002 24899.58406757  1685.20392952
0.37600002 25064.97442907  1700.90924533
0.37700002 25231.81921552  1716.77306075
0.37800002 25402.48348708  1877.37063105
0.37900002 25575.53977822  1749.36700370
0.38000002 25750.96181870  1618.83429142
0.38100002 25928.10956309  2525.65727219
0.38200002 26107.72394560  1799.86657408
0.38300002 26289.07241456  1665.67570710
0.38400002 26472.87032396  1681.68916700
0.38500002 26657.30261018  1852.14947310
0.38600002 26844.30130053  1869.97411718
0.38700002 27031.52408053  1887.88173122
0.38800002 27220.11894149  1905.95281858
0.38900002 27410.03120584  1603.48690151
0.39000002 27601.45877097  1780.70819697
0.39100002 27792.77201846  1797.63657932
0.39200002 27985.54846427  2144.67260817
0.39300002 28178.30826462  2164.93952654
0.39400002 28372.50037252  1849.17779939
0.39500002 28565.92821248  1866.49783783
0.39600002 28759.73213742  2055.17055591
0.39700002 28953.27694233  2074.21285842
0.39800002 29148.06795098  1744.51194952
0.39900002 29341.56842901  1936.54360807
0.40000002 29534.73687097  1776.51450696
0.40100002 29727.72591199  1971.84015317
0.40200002 29921.14488542  1989.60662342
0.40300002 30113.00209342  2554.78721865
0.40400002 30304.27556777  2393.28027636
0.40500002 30494.94129833  2228.57041567
0.40600002 30684.92380540  2622.64056191
0.40700002 30873.74201024  2267.36772066
0.40800002 31061.69526079  3049.01615127
0.40900002 31247.94293795  3074.79773078
0.41000002 31433.77559686  2519.26006458
0.41100002 31618.01175093  2540.19118443
0.41200002 31800.09356956  2364.01906797
0.41300002 31981.29673341  2780.45406975
0.41400002 32160.79684279  2202.21066816
0.41500002 32339.11720694  3026.94151400
0.41600002 32514.58986817  2033.78769262
0.41700002 32689.17944939  2254.57281345
0.41800002 32862.61852612  3098.12350835
0.41900002 33032.21926064  2705.33888564
0.42000002 33200.76820471  2935.28005607
0.42100002 33367.57659061  2323.38446810
0.42200002 33532.23045135  2553.14414755
0.42300002 33694.19941355  3000.13165794
0.42400002 33853.92082080  3237.28133189
0.42500002 34011.81567219  2390.69063688
0.42600002 34165.94459305  2188.32885488
0.42700002 34319.08424667  2864.27090695
0.42800002 34469.25520040  3105.33534816
0.42900002 34617.37922531  2679.38527901
0.43000002 34762.92508644  2472.16553467
0.43100002 34904.59253796  2940.36301473
0.43200002 35044.37830329  2958.97222226
0.43300002 35181.12352597  3206.40775010
0.43400002 35315.62254795  2534.77892850
0.43500002 35446.60448245  2550.02884731
0.43600002 35575.99536810  2565.20726758
0.43700002 35701.49029283  2345.58802339
0.43800002 35823.27516527  2830.75533771
0.43900002 35943.28139465  3795.61069515
0.44000002 36059.61026922  2862.41199882
0.44100002 36173.52412718  4077.11809759
0.44200002 36284.14020284  3375.51372304
0.44300002 36391.94467458  2908.44435623
0.44400002 36495.91391327  3654.15355374
0.44500002 36596.23766061  2937.94609863
0.44600002 36694.19232019  3198.44942517
0.44700002 36789.20027782  2472.23437583
0.44800002 36879.71288589  2732.23365864
0.44900002 36968.58679924  4990.75945442
0.45000002 37053.82755471  3509.36817402
0.45100002 37134.58448751  2769.49744233
0.45200002 37212.96316334  3287.20725682
0.45300002 37287.35584907  2793.19595903
0.45400002 37359.17862783  4079.62249950
0.45500002 37427.42724033  2816.03975902
0.45600002 37492.17584234  2827.09765338
0.45700002 37553.44713967  3353.89852300
0.45800002 37610.72834799  3366.34840033
0.45900002 37665.06240030  2858.77837167
0.46000002 37716.64540186  2868.91676846
0.46100002 37763.45051452  2878.70796916
0.46200002 37807.90097278  2888.33473171
0.46300002 37848.51539340  2897.68247585
0.46400002 37885.19903121  2906.74203344
0.46500002 37919.41354329  3180.68055876
0.46600002 37949.27011112  2924.18114701
0.46700002 37975.79413321  3199.08104941
0.46800002 37999.57691877  3742.57850811
0.46900002 38019.21431407  2680.35473618
0.47000002 38034.90549413  2687.16620052
0.47100002 38047.87397577  3232.54752619
0.47200002 38057.08766038  3240.18059698
0.47300002 38063.71183218  4330.12806326
0.47400002 38065.13247328  4339.42530763
0.47500002 38064.52870814  3261.36897429
0.47600002 38060.69410060  3540.21562957
0.47700002 38052.19338762  3001.17663473
