# SAXS profile: number of points = 501, q_min = 0, q_max = 0.5, delta_q = 0.001
#    q    intensity    error
0.00000000 1682732.95097188 252.40994265
0.00100000 1682663.66376648 706.71875557
0.00200000 1682455.75420838 832.81562470
0.00300000 1682109.36749834 1211.11878774
0.00400000 1681624.40286082 1639.58385509
0.00500000 1681001.31006220 1966.77161062
0.00600000 1680239.83285714 2469.95265486
0.00700000 1679340.58591705 2015.20878685
0.00800000 1678303.05713722 2492.28014507
0.00900000 1677128.60479831 2767.26231621
0.01000000 1675816.38145313 3871.13600831
0.01100000 1674367.62935457 4219.40660968
0.01200000 1672781.81657124 4892.88702799
0.01300000 1671060.32385621 3509.22683487
0.01400000 1669202.41131867 4506.84671035
0.01500000 1667209.87794087 4801.56466228
0.01600000 1665081.56471126 4670.55399781
0.01700000 1662819.57384993 4938.57435587
0.01800000 1660423.52661529 7571.53162207
0.01900000 1657894.08755163 5471.05073579
0.02000000 1655231.97097603 7299.57332221
0.02100000 1652438.67956337 7088.96225673
0.02200000 1649512.60146531 7967.14622704
0.02300000 1646456.55632869 9483.59019613
0.02400000 1643270.32365641 9859.62239151
0.02500000 1639955.38906517 7035.40894040
0.02600000 1636511.88700815 9941.81016830
0.02700000 1632940.88930576 8915.85766397
0.02800000 1629242.26215794 8504.64499848
0.02900000 1625418.44346072 10240.13666397
0.03000000 1621470.04111440 9801.78684908
0.03100000 1617397.08181444 14750.66206487
0.03200000 1613200.57346053 10380.94616835
0.03300000 1608883.50056659 9025.83685427
0.03400000 1604443.69127093 10107.99572139
0.03500000 1599884.64697608 9503.31524188
0.03600000 1595205.95130166 13280.09015831
0.03700000 1590409.51863202 9971.86814300
0.03800000 1585496.72001214 13912.73436198
0.03900000 1580468.70340296 11379.37519148
0.04000000 1575324.45608104 17438.84253692
0.04100000 1570068.08789748 11869.71529486
0.04200000 1564699.59837598 15138.46931660
0.04300000 1559219.32086271 14407.18719352
0.04400000 1553630.88294743 12584.41073632
0.04500000 1547933.78840879 12816.89236356
0.04600000 1542128.58842838 13046.40846459
0.04700000 1536218.39477672 13272.92754817
0.04800000 1530203.46068046 12371.69555523
0.04900000 1524086.43086513 12573.71363991
0.05000000 1517866.91270297 11611.68242289
0.05100000 1511548.19011948 12969.08407538
0.05200000 1505128.60387181 19145.23673344
0.05300000 1498613.41934719 13352.64618886
0.05400000 1492001.39289263 13539.91327192
0.05500000 1485296.11224150 16219.43430230
0.05600000 1478495.96165992 15169.36927450
0.05700000 1471606.38802582 21765.05949486
0.05800000 1464625.76760806 24627.68343226
0.05900000 1457556.06933656 19677.00785507
0.06000000 1450400.26882933 17252.51200374
0.06100000 1443159.81401022 20132.08034624
0.06200000 1435835.03083319 17639.23417831
0.06300000 1428429.10038994 21940.67200783
0.06400000 1420940.46976830 15239.58725097
0.06500000 1413375.03930728 13992.41354368
0.06600000 1405730.97556369 14127.59696542
0.06700000 1398011.02508573 18537.62706018
0.06800000 1390218.48899654 17266.51444157
0.06900000 1382353.65322832 14514.71403846
0.07000000 1374416.39626846 16101.28883628
0.07100000 1366411.57724000 17708.69487047
0.07200000 1358337.94091741 23798.08183974
0.07300000 1350200.46673577 16485.94847130
0.07400000 1341998.44979011 19626.72824797
0.07500000 1333734.28811682 25847.77171525
0.07600000 1325407.93692197 27555.23230041
0.07700000 1317025.22202033 16950.11540217
0.07800000 1308584.14685578 18608.06744094
0.07900000 1300086.72631035 17161.14559222
0.08000000 1291537.44846610 18830.61688200
0.08100000 1282935.75282426 18936.13260014
0.08200000 1274282.72334790 22210.74891020
0.08300000 1265581.94422546 15946.33324563
0.08400000 1256833.67223282 17627.09308046
0.08500000 1248041.60890435 22539.63251494
0.08600000 1239205.49138327 25874.61187493
0.08700000 1230328.34394080 16240.33490263
0.08800000 1221409.49109851 17936.39921914
0.08900000 1212454.47779313 18004.94984092
0.09000000 1203462.24280608 21355.43850178
0.09100000 1194435.45584619 18131.53107159
0.09200000 1185375.15517422 18189.58261082
0.09300000 1176284.74572471 18244.17726352
0.09400000 1167162.46675806 31600.92527264
0.09500000 1158012.79788290 23345.53910262
0.09600000 1148836.76708773 16715.57574689
0.09700000 1139637.43282713 16752.67105015
0.09800000 1130415.49004996 16786.67081651
0.09900000 1121172.77843441 18499.35171405
0.10000000 1111909.05610752 18529.96529144
0.10100000 1102627.40872406 25305.30022037
0.10200000 1093329.94235587 16891.94840393
0.10300000 1084017.48855099 16910.67361689
0.10400000 1074692.80834400 28774.90129713
0.10500000 1065358.51983712 18633.12138863
0.10600001 1056011.25709244 20338.77776861
0.10700001 1046658.07398617 23738.20623507
0.10800001 1037296.83990078 27135.68660886
0.10900001 1027931.61085998 18656.95961521
0.11000001 1018562.53873498 28830.41401593
0.11100001 1009191.84657087 22040.75096664
0.11200001 999821.55588430 20336.37140406
0.11300001 990451.14909512 22017.73008100
0.11400001 981084.70832410 20308.45441852
0.11500001 971722.57740452 18598.77100730
0.11600001 962365.91614851 16889.52262376
0.11700001 953017.45031563 20242.09159800
0.11800001 943675.68778602 16844.61182033
0.11900001 934344.90484922 25227.31361918
0.12000001 925025.17348544 23504.89076546
0.12100001 915720.10151922 28488.05370028
0.12200001 906427.74185712 28430.10746273
0.12300001 897152.07214640 20024.43519375
0.12400001 887892.62278585 19977.58495397
0.12500001 878651.70044728 16606.51792096
0.12600001 869432.11236445 23187.75552945
0.12700001 860233.25847828 16516.47934114
0.12800001 851055.52128833 18114.71762436
0.12900001 841902.22390576 16417.09413993
0.13000001 832773.84952872 18000.40760601
0.13100001 823670.50149159 24463.01504743
0.13200001 814595.78304317 24376.77995670
0.13300001 805550.53428563 19429.87980295
0.13400001 796533.56557345 19355.76655597
0.13500001 787548.39560080 17672.58683051
0.13600001 778594.38010038 32000.23053096
0.13700001 769674.48579776 17525.48886800
0.13800001 760787.50145577 23793.63023004
0.13900001 751938.06550970 17369.77013240
0.14000001 743123.70933858 18860.48063248
0.14100001 734347.48397556 17205.76236102
0.14200001 725608.75193776 18677.17015579
0.14300001 716912.05991194 18582.36146940
0.14400001 708251.83356659 15404.47810670
0.14500001 699636.95008469 22983.07489444
0.14600001 691062.21247710 15237.92250396
0.14700001 682533.45644047 19697.91648215
0.14800001 674046.84653281 19584.43204998
0.14900001 665604.93848667 17971.33418704
0.15000001 657209.95515552 17862.96742395
0.15100001 648861.72441912 22191.07202222
0.15200001 640562.07828775 22051.35058559
0.15300001 632310.82243058 17527.65682489
0.15400001 624106.70467094 18863.62603887
0.15500001 615954.95860525 17296.01605389
0.15600001 607851.76167799 18609.38256204
0.15700001 599803.53646299 18479.94783062
0.15800001 591802.79838233 15525.94714837
0.15900001 583858.32026479 15413.86038253
0.16000001 575964.66557582 16691.45679626
0.16100001 568128.56771920 15186.07733198
0.16200001 560344.81036503 16440.51751220
0.16300001 552617.79752608 14953.83830699
0.16400001 544945.93984264 18882.37770698
0.16500001 537331.03709869 13379.54345542
0.16600001 529772.65530157 13270.80564186
0.16700001 522271.54817177 15793.49236240
0.16800001 514827.20218401 13050.87019158
0.16900001 507443.85495513 18115.74647729
0.17000001 500118.17772340 17959.24461008
0.17100001 492851.95294687 15258.69718377
0.17200001 485645.59942866 17643.50546042
0.17300001 478499.20615168 18733.24480551
0.17400001 471414.45833362 18561.94517349
0.17500001 464389.76345084 17163.84646775
0.17600001 457424.68458283 13359.08854418
0.17700001 450523.31010794 13231.87024282
0.17800001 443682.98140159 21443.19950395
0.17900001 436904.46679063 14155.70539264
0.18000001 430189.01241478 16351.48513425
0.18100001 423537.23826210 20812.62087131
0.18200001 416945.35623973 11445.15056943
0.18300001 410419.33441539 13593.08899797
0.18400001 403954.63955375 17935.58684348
0.18500001 397554.65876282 14419.30815453
0.18600001 391217.78762258 14265.75729962
0.18700001 384944.42287717 14112.06320940
0.18800001 378734.12327038 13958.24677260
0.18900001 372589.86871878 13804.45528826
0.19000001 366505.71576836 11550.42817818
0.19100001 360490.36553618 12458.54762160
0.19200001 354535.73850496 10263.81011470
0.19300001 348647.60630232 11160.21040509
0.19400001 342822.46158083 11030.31322259
0.19500001 337062.09399349 13873.47644436
0.19600001 331364.83540141 10771.01448372
0.19700001 325732.33515908 12576.52605483
0.19800001 320164.16338295 12423.97094722
0.19900001 314660.99224750 12271.77927762
0.20000001 309219.50750052 10255.26545093
0.20100001 303843.97973523 10127.12032321
0.20200001 298530.89325459 10908.31935509
0.20300001 293282.55777467 11666.78069970
0.20400001 288097.71396191 11516.70665997
0.20500001 282975.65075449 10492.73762594
0.20600001 277917.56151895 13806.94510889
0.20700001 272922.25009602 11921.24444770
0.20800001 267989.71854232 11762.06930282
0.20900001 263122.48680831 9117.19459889
0.21000001 258315.27742900 8993.24680882
0.21100001 253570.97699793 10482.62468464
0.21200001 248888.70809883 9542.39351962
0.21300001 244268.26996206 9409.21420376
0.21400001 239710.60520749 9276.80086010
0.21500001 235214.93753871 8383.06077021
0.21600001 230778.87451654 9014.22326480
0.21700001 226404.82351580 8884.12569480
0.21800001 222091.29564098 12402.68899148
0.21900001 217837.06806624 7188.62358608
0.22000001 213642.89920856 7082.26244363
0.22100001 209510.80924728 7674.38130560
0.22200001 205437.06708457 7559.05724080
0.22300001 201422.43563865 10151.69123621
0.22400001 197464.91578781 7330.88534527
0.22500001 193568.92091628 7218.18540230
0.22600001 189729.22394764 7106.30841900
0.22700001 185948.51475205 6359.43950525
0.22800001 182224.34436480 7511.28782993
0.22900001 178556.89408038 8008.27707822
0.23000001 174946.39506097 7274.27145065
0.23100001 171393.68641527 5964.50056933
0.23200001 167894.86355628 9388.68121409
0.23300001 164452.84534613 6349.52465911
0.23400001 161066.02191805 6813.09304936
0.23500001 157732.26188246 6142.09456820
0.23600001 154454.11129460 6039.92830785
0.23700001 151229.60799560 5938.78698688
0.23800001 148058.34541828 5838.68112773
0.23900001 144940.42645239 7826.78339863
0.24000001 141874.69808146 6667.40175171
0.24100001 138862.31341828 6048.84265862
0.24200001 135900.96577383 6935.02661148
0.24300001 132991.02652150 4867.47180093
0.24400001 130131.33412299 4782.32675524
0.24500001 127322.49657554 6107.66044965
0.24600001 124563.42908636 6461.10537235
0.24700001 121854.78692042 5439.59794545
0.24800001 119193.92550304 5787.46132659
0.24900001 116581.77807330 4808.99857302
0.25000001 114018.17325880 4722.06286891
0.25100001 111501.54823344 5479.18633941
0.25200001 109033.24435110 4965.37418266
0.25300001 106611.43389505 5280.46457064
0.25400001 104235.24950973 4784.39817885
0.25500001 101904.71734507 4304.45546431
0.25600001 99620.15996217  4608.42881789
0.25700001 97379.95257993  4145.46477746
0.25800001 95183.94463869  3697.89642418
0.25900001 93032.10654656  4353.90279238
0.26000001 90924.08939028  4271.61392167
0.26100001 88856.96865196  3841.28693658
0.26200001 86834.52849569  3768.18454237
0.26300001 84852.73723917  4368.21911977
0.26400001 82912.06633714  4284.48123071
0.26500001 81013.44614625  4848.65498129
0.26600001 79154.15687236  4755.18619912
0.26700001 77335.97454635  3419.79695627
0.26800001 75557.09110280  3353.60164729
0.26900001 73816.64916389  2989.57443261
0.27000001 72115.30475754  4104.08218797
0.27100001 70451.91645738  3736.76982573
0.27200001 68826.38226579  3100.28453588
0.27300001 67237.50986697  3316.15414357
0.27400001 65684.15716632  2709.47161134
0.27500001 64169.19090582  3453.58601799
0.27600001 62687.64892063  3125.60632310
0.27700001 61243.15976358  3575.37583621
0.27800001 59832.31206856  3505.57533001
0.27900001 58456.28276689  3191.71319013
0.28000001 57113.69713356  2888.81093774
0.28100001 55804.31339137  3304.73159545
0.28200001 54528.11793915  2777.66245929
0.28300001 53284.21773184  2269.90778281
0.28400001 52072.43674767  2448.70645396
0.28500001 50892.39185738  2838.26882823
0.28600001 49742.45980859  2355.55429573
0.28700001 48623.73130697  2310.59982107
0.28800001 47534.30883133  2884.85733952
0.28900001 46476.16510870  2628.22726130
0.29000001 45445.69704758  2182.07524703
0.29100001 44445.37796921  1946.70764720
0.29200001 43472.59931226  2101.68291324
0.29300001 42527.69535613  1875.47145398
0.29400001 41610.10739810  2393.62154138
0.29500001 40720.63826185  2169.59570929
0.29600001 39856.60757696  2663.41792741
0.29700001 39018.64741961  2267.37370889
0.29800001 38206.92044754  2056.29655583
0.29900001 37420.45496496  2525.88082971
0.30000001 36658.73356295  2317.19865821
0.30100001 35922.33098457  1627.28167064
0.30200001 35208.75044674  1760.26156192
0.30300001 34519.45299671  2361.13069675
0.30400001 33854.12916280  1858.59177903
0.30500001 33210.26621913  1829.22154995
0.30600001 32589.22999842  1650.80752372
0.30700001 31990.86311695  1625.77574057
0.30800001 31413.64701427  2184.03391207
0.30900001 30857.80784504  1578.37694600
0.31000001 30323.60215933  1556.05571848
0.31100001 29808.29620216  2092.54249246
0.31200001 29314.17134680  2064.45061484
0.31300001 28839.17509975  2037.48781726
0.31400001 28385.12348049  1743.55629234
0.31500001 27948.94658840  1589.73615722
0.31600002 27531.50732281  1309.12323518
0.31700002 27131.87571194  1423.60958601
0.31800002 26750.73968033  1408.02524974
0.31900002 26387.22857139  2026.53925024
0.32000002 26040.71107296  1379.24632729
0.32100002 25711.49593729  1366.05184383
0.32200002 25398.74910914  1845.85417891
0.32300002 25101.49253210  1219.93259482
0.32400002 24820.50356854  1330.99956689
0.32500002 24554.65481896  1560.93948075
0.32600002 24304.49729066  1788.20347284
0.32700002 24068.94673221  1421.03068236
0.32800002 23848.57560788  1412.31271438
0.32900002 23641.25369985  1287.26632491
0.33000002 23449.39857865  1164.26269456
0.33100002 23268.74164774  1274.66172782
0.33200002 23103.93188901  1846.46632401
0.33300002 22950.64972207  1379.79312663
0.33400002 22810.77957176  1260.86590054
0.33500002 22682.88087219  1600.50415014
0.33600002 22566.95777867  1140.75976973
0.33700002 22462.11662248  1366.59524003
0.33800002 22370.25118819  1820.04372286
0.33900002 22288.31293391  1250.37441481
0.34000002 22217.83299283  1363.73065368
0.34100002 22157.98251134  1591.38637933
0.34200002 22109.30028201  1365.02826406
0.34300002 22069.42358366  1480.41700410
0.34400002 22040.27161943  1482.75934342
0.34500002 22020.22865928  1371.41990585
0.34600002 22010.69434180  1489.35370317
0.34700002 22008.07496153  1378.58588088
0.34800002 22015.90727549  1267.78608050
0.34900002 22031.85778819  1503.67436526
0.35000002 22056.14249030  1277.38155283
0.35100002 22088.65898200  1282.90937444
0.35200002 22128.16739029  1288.85517069
0.35300002 22175.83716553  1295.29071019
0.35400002 22231.13176130  1420.56938683
0.35500002 22293.28807989  1309.50780384
0.35600002 22361.82068441  1317.22310980
0.35700002 22437.33812122  1807.32767127
0.35800002 22519.78448384  1697.76663265
0.35900002 22607.98188564  1953.32972744
0.36000002 22702.97610774  1475.23945736
0.36100002 22802.84380205  1238.19447710
0.36200002 22909.53946939  1372.16693151
0.36300002 23019.83817348  1508.25986857
0.36400002 23136.20456941  1520.04871221
0.36500002 23257.05692963  1404.49373451
0.36600002 23383.33400549  1415.97785777
0.36700002 23513.72807055  1687.34520627
0.36800002 23649.96468997  1309.02560760
0.36900002 23789.34379101  1452.33950724
0.37000002 23931.91794804  1864.53581565
0.37100002 24078.82860916  1477.95857004
0.37200002 24229.85388637  1626.79246699
0.37300002 24383.84671304  1778.31402502
0.37400002 24542.14993543  1518.54559919
0.37500002 24702.43561617  2507.79138255
0.37600002 24866.89786052  1968.71239688
0.37700002 25032.84274677  1561.29847608
0.37800002 25202.42934856  1576.03399397
0.37900002 25374.38460354  1880.24198819
0.38000002 25548.68226123  2044.15016456
0.38100002 25724.67251422  2653.24284881
0.38200002 25903.02852356  1785.75487101
0.38300002 26083.09392879  1502.38628147
0.38400002 26265.43881440  1668.51207973
0.38500002 26448.44378742  1684.50146462
0.38600002 26633.97573609  2164.54331062
0.38700002 26819.81078748  2185.27828649
0.38800002 27006.87963191  2363.77725177
0.38900002 27195.14926869  2068.19119987
0.39000002 27385.00475859  1766.74366570
0.39100002 27574.75903063  2107.81468016
0.39200002 27765.74811486  2291.50730048
0.39300002 27956.86406522  2313.15104235
0.39400002 28149.36045258  2501.77452875
0.39500002 28341.10111488  2020.15378318
0.39600002 28533.16557766  1699.15009065
0.39700002 28724.93937699  1886.36685826
0.39800002 28917.84378389  1903.80633571
0.39900002 29109.57793401  1921.23223467
0.40000002 29301.05346880  2291.19598455
0.40100002 29492.04945996  1956.20773336
0.40200002 29683.74980983  2153.25931323
0.40300002 29873.67567454  2172.41379798
0.40400002 30063.13922464  2556.87011220
0.40500002 30251.82309854  2026.56972539
0.40600002 30440.01979823  2044.19962641
0.40700002 30626.91903035  2249.24104016
0.40800002 30813.12023648  2079.42351768
0.40900002 30997.33147906  3050.13756206
0.41000002 31181.40793812  2499.03405761
0.41100002 31363.72805166  1938.27848543
0.41200002 31544.02693881  2540.39832989
0.41300002 31723.34892644  2167.02206784
0.41400002 31901.01333287  2184.42199147
0.41500002 32077.53706424  3002.45761148
0.41600002 32251.18084104  2420.77374863
0.41700002 32423.95606788  2439.57857014
0.41800002 32595.64656825  2458.36378066
0.41900002 32763.46296915  2683.32774432
0.42000002 32930.17522824  3119.31099630
0.42100002 33095.29294139  2094.93214246
0.42200002 33258.27972280  2743.30933293
0.42300002 33418.43798141  3825.74296140
0.42400002 33576.56784504  2140.50630155
0.42500002 33732.78716561  3017.73528283
0.42600002 33885.36739134  2387.39367269
0.42700002 34036.89967100  2403.68596867
0.42800002 34185.45957717  2419.81787084
0.42900002 34332.06244206  2878.74357218
0.43000002 34476.07942128  2674.65436825
0.43100002 34616.22429716  2691.75772890
0.43200002 34754.60376768  2708.77394602
0.43300002 34889.93656785  2725.60197384
0.43400002 35022.99407738  2970.82561340
0.43500002 35152.72207453  2988.68457241
0.43600002 35280.74743233  2312.65310378
0.43700002 35404.83776530  2791.31754169
0.43800002 35525.48555420  2807.22400152
0.43900002 35644.23147045  3528.77908280
0.44000002 35759.32147729  2602.02715060
0.44100002 35872.19455865  2853.99193434
0.44200002 35981.68536090  2630.08141610
0.44300002 36088.44466468  2403.49052857
0.44400002 36191.48968641  2657.36025616
0.44500002 36290.71034434  3398.98809193
0.44600002 36387.74051781  2927.75774081
0.44700002 36481.77238121  2696.73274222
0.44800002 36571.53638208  2463.09309206
0.44900002 36659.59043465  2721.97471877
0.45000002 36744.07165619  3977.17850455
0.45100002 36823.98810929  2746.33316335
0.45200002 36901.74989592  3008.96882912
0.45300002 36975.50421743  3273.44154351
0.45400002 37046.77103798  2781.28646749
0.45500002 37114.49344593  3046.35776642
0.45600002 37178.67903525  2803.45842552
0.45700002 37239.54766106  3325.86415923
0.45800002 37296.42952241  3081.43115318
0.45900002 37350.30071672  2834.88795876
0.46000002 37401.67507331  3103.59114468
0.46100002 37448.28290005  2595.16612797
0.46200002 37492.45333403  3124.62120895
0.46300002 37532.91211426  3134.74896835
0.46400002 37569.47601090  4192.75372153
0.46500002 37603.61143689  2891.34182042
0.46600002 37633.50637977  3690.71814559
0.46700002 37660.04808859  3172.48260135
0.46800002 37683.94292721  3181.27861270
0.46900002 37703.65198940  4252.97214598
0.47000002 37719.61126673  3197.86879476
0.47100002 37732.76411113  3205.77579083
0.47200002 37742.32928193  4284.50942316
0.47300002 37749.12923641  3757.54850229
0.47400002 37751.04300874  4034.64291279
0.47500002 37750.78162168  3773.56830976
0.47600002 37747.47499855  4591.41433907
0.47700002 37739.55503233  3247.11146889
