# SAXS profile: number of points = 501, q_min = 0, q_max = 0.5, delta_q = 0.001
#    q    intensity    error
0.00000000 1664650.74656091 299.63713438
0.00100000 1664582.03778803 549.31208552
0.00200000 1664375.85642333 1048.55682275
0.00300000 1664032.36945053 998.41945724
0.00400000 1663551.45123180 1497.19636300
0.00500000 1662933.54218926 2244.96037081
0.00600000 1662178.42636442 2094.34490248
0.00700000 1661286.69416708 1993.54411585
0.00800000 1660257.82051191 3586.15704371
0.00900000 1659093.15646413 3484.09577751
0.01000000 1657791.89177177 2735.35673953
0.01100000 1656355.24167796 3577.72747780
0.01200000 1654782.68101172 3549.50900639
0.01300000 1653075.57459745 4165.75063172
0.01400000 1651233.20138383 4458.32984138
0.01500000 1649257.31340654 4354.03950127
0.01600000 1647146.82007511 4620.24703685
0.01700000 1644903.75093033 4885.36435941
0.01800000 1642527.80515738 5149.32490088
0.01900000 1640019.56558975 5904.07070253
0.02000000 1637379.76623474 5157.74649695
0.02100000 1634609.91898450 6473.05557266
0.02200000 1631708.32887059 5629.39399036
0.02300000 1628677.96938013 6449.56505232
0.02400000 1625518.54299470 6705.26429560
0.02500000 1622231.45482788 6326.70296277
0.02600000 1618816.95653896 7211.82987124
0.02700000 1615276.01135040 12889.90316095
0.02800000 1611608.49451725 7010.49727265
0.02900000 1607816.98600394 7235.17676922
0.03000000 1603901.92302297 7458.14428487
0.03100000 1599863.34618886 9983.14773957
0.03200000 1595702.30132308 8688.59943088
0.03300000 1591421.82345072 8927.87684114
0.03400000 1587019.53519494 9998.22353305
0.03500000 1582499.15885168 10254.59502290
0.03600000 1577860.19672685 10508.54939584
0.03700000 1573104.47797331 8966.69593914
0.03800000 1568233.49825739 12843.83294514
0.03900000 1563248.23625543 13131.28579266
0.04000000 1558147.81962663 9582.60953475
0.04100000 1552936.25347427 9783.49885052
0.04200000 1547613.61559227 11978.52994040
0.04300000 1542180.20647655 11196.22881873
0.04400000 1536639.61537971 10372.31788552
0.04500000 1530991.38973349 12676.60929601
0.04600000 1525235.98098795 15054.07983217
0.04700000 1519376.59099323 14221.36555310
0.04800000 1513413.36594658 11123.58875727
0.04900000 1507349.06303150 16957.67774844
0.05000000 1501183.09430190 14929.26656803
0.05100000 1494919.01964937 13992.44267574
0.05200000 1488554.89127766 16567.61671199
0.05300000 1482096.21953979 15606.47391929
0.05400000 1475541.54150112 15825.18377059
0.05500000 1468894.47156101 14806.45696405
0.05600000 1462153.50636004 16251.83698157
0.05700000 1455324.01094100 12661.31948620
0.05800000 1448404.27515899 14100.21627705
0.05900000 1441396.42838592 18161.59584591
0.06000000 1434303.29381576 15748.65090186
0.06100000 1427126.27391425 18581.18495469
0.06200000 1419865.82632605 17443.05249177
0.06300000 1412525.06544207 17628.31364093
0.06400000 1405102.34402852 20549.62274246
0.06500000 1397603.73485500 20754.41643344
0.06600000 1390027.29150987 16763.72991996
0.06700000 1382375.76390535 15510.25679688
0.06800000 1374652.33288462 22764.24369814
0.06900000 1366857.46235280 20092.80563731
0.07000000 1358990.84849908 14473.25321428
0.07100000 1351057.52736645 16050.56417689
0.07200000 1343056.12263313 14706.46523178
0.07300000 1334991.54292502 23709.45091327
0.07400000 1326863.17806396 16419.93259805
0.07500000 1318673.27295647 18039.45121960
0.07600000 1310422.02285973 21189.52510302
0.07700000 1302114.97788589 16758.22055116
0.07800000 1293750.34775375 19930.22504180
0.07900000 1285330.06201195 16966.35761434
0.08000000 1276858.36190452 21719.36175487
0.08100000 1268334.88602325 17160.57181304
0.08200000 1259760.92889156 20389.23159088
0.08300000 1251139.64371432 23646.54037598
0.08400000 1242471.58297526 17425.66476917
0.08500000 1233760.36715877 15915.50948350
0.08600000 1225005.60558792 15986.32390350
0.08700000 1216210.54660841 17659.37796600
0.08800000 1207374.03938076 19342.13301926
0.08900000 1198501.98445605 19415.73306014
0.09000000 1189593.41829510 21109.33619927
0.09100000 1180650.73107343 22810.17319599
0.09200000 1171674.92840251 19613.83922305
0.09300000 1162669.61982070 19672.37089181
0.09400000 1153632.85824538 16439.26900260
0.09500000 1144569.28356726 24722.69768709
0.09600000 1135479.76511443 21477.60076675
0.09700000 1126367.37679225 16557.60121726
0.09800000 1117232.75057066 18249.99783864
0.09900000 1108077.96178580 23269.63829170
0.10000000 1098902.47831821 19978.04799534
0.10100000 1089709.47619137 21674.32250083
0.10200000 1080500.98816959 23371.23747340
0.10300000 1071277.89795002 18383.12959358
0.10400000 1062042.89021090 18399.89393853
0.10500000 1052798.72844841 21761.35074089
0.10600001 1043541.78543459 23448.38502204
0.10700001 1034279.53200975 20106.39504843
0.10800001 1025009.31227472 18434.79334883
0.10900001 1015735.47717218 18435.59977836
0.11000001 1006457.99353843 21784.78429554
0.11100001 997179.09259096 30154.69717943
0.11200001 987901.13559328 21768.40254759
0.11300001 978623.22847850 25101.68699228
0.11400001 969349.41511327 18393.40601782
0.11500001 960080.18427113 23387.55439012
0.11600001 950816.47171547 20024.19583730
0.11700001 941561.34055454 24998.45476902
0.11800001 932313.05107099 24962.68311813
0.11900001 923075.90039596 26584.58718358
0.12000001 913850.02968842 23220.93034820
0.12100001 904638.69576750 16554.88891242
0.12200001 895440.58567759 24781.31937611
0.12300001 886259.13061772 18132.86266676
0.12400001 877094.00654110 23023.71875652
0.12500001 867947.53379987 19685.05099415
0.12600001 858822.43964711 19632.68189549
0.12700001 849718.26065083 17946.05051068
0.12800001 840635.18267113 19519.54986157
0.12900001 831576.65966934 17837.32019062
0.13000001 822542.90384227 17779.26570457
0.13100001 813534.36559960 19329.57743780
0.13200001 804554.36298105 19261.03235774
0.13300001 795603.96491070 19189.96853832
0.13400001 786681.71002442 22302.42753065
0.13500001 777791.31103962 15866.94349331
0.13600001 768931.97725969 25282.48460439
0.13700001 760106.76778998 17307.63191869
0.13800001 751314.37063017 17231.39590296
0.13900001 742559.59712862 23390.62841261
0.14000001 733839.80794281 21728.99773794
0.14100001 725157.79950558 21624.20660112
0.14200001 716513.35391103 21516.89703280
0.14300001 707910.67449520 21407.21980646
0.14400001 699344.56510123 16731.81950928
0.14500001 690823.54087991 19667.74713662
0.14600001 682342.49787725 18054.78334555
0.14700001 673907.50585814 14960.74733585
0.14800001 665514.19184316 20823.94004522
0.14900001 657165.55620989 19222.09342605
0.15000001 648863.51841117 24984.49095526
0.15100001 640608.14249965 18987.62623962
0.15200001 632401.05373500 14513.60486807
0.15300001 624242.19897578 14419.99547681
0.15400001 616130.34101449 15757.53421506
0.15500001 608070.46559133 15651.73452297
0.15600001 600058.70388846 16957.65977220
0.15700001 592102.05154783 18242.66506918
0.15800001 584192.46588894 20899.48645361
0.15900001 576338.86862807 19364.98689994
0.16000001 568535.68819010 17849.17877325
0.16100001 560789.72646583 24528.94379349
0.16200001 553095.91393002 16227.83488076
0.16300001 545458.36379131 16101.93165926
0.16400001 537875.89707237 13312.42908102
0.16500001 530349.87599861 15846.85504299
0.16600001 522880.10832368 15717.77679829
0.16700001 515467.09102899 16886.70269941
0.16800001 508110.63232300 14168.66565132
0.16900001 500814.58965342 12770.77263917
0.17000001 493576.02021578 13926.24806798
0.17100001 486396.47493687 12549.02964595
0.17200001 479276.33451983 13680.94361492
0.17300001 472215.83676274 14789.80070585
0.17400001 465216.40318885 21981.47608877
0.17500001 458276.69860525 14518.20649747
0.17600001 451396.02862908 14381.47815135
0.17700001 444578.85103259 17805.38382481
0.17800001 437821.97206916 11755.52050529
0.17900001 431126.72012221 13968.50639174
0.18000001 424494.00211436 19592.52159304
0.18100001 417924.38797457 14832.13722984
0.18200001 411414.25750789 11293.32190206
0.18300001 404969.46530717 12294.87354753
0.18400001 398585.57393907 13272.90023919
0.18500001 392265.70885298 15321.89931164
0.18600001 386008.56025347 11910.29468930
0.18700001 379814.24330594 11781.83838398
0.18800001 373682.81517142 13772.08080382
0.18900001 367616.78053858 12572.49448844
0.19000001 361610.02547266 15540.19157894
0.19100001 355671.84870614 11267.68469941
0.19200001 349793.47515349 10126.52158419
0.19300001 343981.25701255 11010.84055726
0.19400001 338231.59416651 11871.92951624
0.19500001 332545.99477549 12709.90852093
0.19600001 326922.82796441 13524.79803202
0.19700001 321364.15247937 14316.77366953
0.19800001 315868.93025044 9428.68801356
0.19900001 310438.15263860 13038.40302702
0.20000001 305068.67568763 10117.60310735
0.20100001 299764.39124522 12716.00607761
0.20200001 294521.92676577 10761.83171266
0.20300001 289343.57496013 9739.30519348
0.20400001 284228.10682160 9614.01616765
0.20500001 279174.84437981 8626.50309908
0.20600001 274184.96653181 10216.13233587
0.20700001 269257.21695758 10921.07323603
0.20800001 264391.74993678 9946.41810279
0.20900001 259590.71292142 11447.95098099
0.21000001 254849.16504177 10485.76939133
0.21100001 250169.76601381 8750.93882885
0.21200001 245551.90384279 11768.07554800
0.21300001 240995.23451162 7735.94739354
0.21400001 236500.52759393 10677.99932568
0.21500001 232067.33173374 12030.37104584
0.21600001 227693.13052122 8152.55292375
0.21700001 223380.12342310 7304.53038129
0.21800001 219127.04683322 10077.65336034
0.21900001 214932.66799674 8511.33405510
0.22000001 210797.55994185 11180.70310797
0.22100001 206723.82992750 6883.90386208
0.22200001 202707.94177501 10170.87145949
0.22300001 198750.27711525 8013.61155221
0.22400001 194849.24400620 7233.77852579
0.22500001 191009.11056476 6475.20915434
0.22600001 187224.36055453 7649.98773401
0.22700001 183498.09947703 6903.19882877
0.22800001 179827.65181497 6177.08013196
0.22900001 176213.31836386 6687.29574816
0.23000001 172655.13986278 5982.50087917
0.23100001 169154.12000280 7652.53275084
0.23200001 165706.29866479 6370.57895346
0.23300001 162314.50621319 6266.96338128
0.23400001 158977.38079132 6164.34823173
0.23500001 155692.67896650 5511.52109609
0.23600001 152462.75700280 6504.06152136
0.23700001 149285.89896249 7461.30958305
0.23800001 146161.39257840 7335.84064049
0.23900001 143089.75171255 5151.23130530
0.24000001 140069.51851673 7088.91866744
0.24100001 137102.07136097 7465.20813872
0.24200001 134185.00663127 6358.35683999
0.24300001 131318.52181824 4806.25812590
0.24400001 128501.63677810 7083.65306247
0.24500001 125734.92816174 6031.50478924
0.24600001 123017.52673233 5013.57953914
0.24700001 120349.61532826 5372.40708240
0.24800001 117728.87282633 6595.76041212
0.24900001 115156.15970645 6045.69867060
0.25000001 112631.38024672 5512.74316697
0.25100001 110152.85075770 4996.53354675
0.25200001 107722.02902632 4496.85631445
0.25300001 105337.11391886 6421.35076829
0.25400001 102996.95494547 4333.59708436
0.25500001 100702.07358323 5800.43971282
0.25600001 98452.16231391  4933.93034780
0.25700001 96246.18359815  4469.67297777
0.25800001 94083.70760969  5848.24354172
0.25900001 91964.77722192  4662.61442576
0.26000001 89889.02669519  4574.90223012
0.26100001 87853.51518366  4833.70063412
0.26200001 85862.00760734  4403.43326850
0.26300001 83910.48906845  3655.14107677
0.26400001 81999.60377562  3259.48440431
0.26500001 80130.02182044  4156.34442850
0.26600001 78299.10128881  3763.05498601
0.26700001 76508.82151331  3690.78572445
0.26800001 74757.01171466  3619.73467851
0.26900001 73043.17479925  3254.07359129
0.27000001 71367.89298117  2901.10498697
0.27100001 69729.79742436  3698.46863041
0.27200001 68129.05814268  3068.87356927
0.27300001 66564.35414775  2735.79508494
0.27400001 65034.52573186  2950.94174474
0.27500001 63542.51067857  3419.85808657
0.27600001 62083.39860263  3869.34800103
0.27700001 60660.80039989  2529.55549639
0.27800001 59271.10960781  2480.49605448
0.27900001 57915.80886895  3162.20331390
0.28000001 56593.22841485  3339.56656682
0.28100001 55303.34751092  2807.19805252
0.28200001 54046.15559857  3441.38912062
0.28300001 52820.68776241  2925.20982673
0.28400001 51626.85203417  2427.75283181
0.28500001 50464.03856664  2597.88882837
0.28600001 49330.95008424  2973.17650230
0.28700001 48228.44081032  2291.81561578
0.28800001 47154.75193997  2452.99031202
0.28900001 46111.69657971  3409.96012348
0.29000001 45095.96629719  2558.97072866
0.29100001 44109.85649142  2511.61534751
0.29200001 43150.63226541  2275.76445340
0.29300001 42218.94010608  2234.22641617
0.29400001 41313.99383142  2193.77317629
0.29500001 40436.84383262  2693.09392674
0.29600001 39584.35435790  2292.52799116
0.29700001 38757.66086785  1905.71427508
0.29800001 37956.68628109  1872.59320632
0.29900001 37180.51923945  2007.74813398
0.30000001 36428.55306780  1973.69909865
0.30100001 35701.47324769  1779.00449615
0.30200001 34996.80743277  2544.96795699
0.30300001 34315.97862388  1721.28956926
0.30400001 33658.62314176  1693.87028980
0.30500001 33022.39279289  1818.87348114
0.30600001 32408.56008919  1940.13854159
0.30700001 31816.88076789  2057.91594550
0.30800001 31246.00208931  1737.90271849
0.30900001 30696.05718945  1712.84007226
0.31000001 30167.44651287  1548.04259110
0.31100001 29657.17396923  2081.93371121
0.31200001 29167.86587234  1780.26077781
0.31300001 28697.14063258  1486.79892657
0.31400001 28246.95332869  1601.60232957
0.31500001 27814.54724342  1450.25056194
0.31600002 27400.25838386  1693.74705219
0.31700002 27003.57314331  1288.07049992
0.31800002 26624.92544163  2293.20493687
0.31900002 26263.60247641  2017.04476569
0.32000002 25918.89923589  1372.79456303
0.32100002 25591.14946459  1854.07886650
0.32200002 25279.67767723  1592.24057389
0.32300002 24983.31837599  1335.60826362
0.32400002 24702.82762397  1926.82064591
0.32500002 24437.24371065  1672.97378365
0.32600002 24187.00751387  1186.37277473
0.32700002 23951.11036524  1296.23415435
0.32800002 23730.11079646  1756.62153489
0.32900002 23521.86261765  1746.49838206
0.33000002 23328.77872927  1274.10131063
0.33100002 23146.73135888  1383.24873151
0.33200002 22980.11789281  1262.64263741
0.33300002 22824.90260771  1600.93874472
0.33400002 22682.85601165  1595.73899599
0.33500002 22552.44755449  1363.97209269
0.33600002 22433.81791761  1701.04432416
0.33700002 22326.08140036  1131.93238060
0.33800002 22231.01321242  1356.53649046
0.33900002 22145.59238359  1129.42526505
0.34000002 22071.66713391  1241.86241010
0.34100002 22007.94815159  1129.00779364
0.34200002 21955.24804962  1581.43659191
0.34300002 21911.21101420  1469.80410444
0.34400002 21877.66672859  1245.38623751
0.34500002 21853.03894985  1587.84188530
0.34600002 21838.76455430  1136.70774889
0.34700002 21831.24918289  1253.55038745
0.34800002 21834.05685935  1371.61551687
0.34900002 21844.78637045  1490.90674039
0.35000002 21863.61895152  1151.11959232
0.35100002 21890.62621058  1386.99014239
0.35200002 21924.53713333  1276.99472581
0.35300002 21966.38002476  1399.69780147
0.35400002 22015.75403797  1641.27454127
0.35500002 22071.88145149  1532.23008293
0.35600002 22134.24625570  1659.40452039
0.35700002 22203.46793944  1669.25679875
0.35800002 22279.56724279  1919.60760456
0.35900002 22361.29373833  1811.26487860
0.36000002 22449.75084599  1823.48109884
0.36100002 22542.93834747  1836.12241537
0.36200002 22642.89868449  1479.48707012
0.36300002 22746.34372288  1490.34051132
0.36400002 22855.83652198  1376.49281974
0.36500002 22969.76618330  1387.14424552
0.36600002 23088.99584955  1525.25913807
0.36700002 23212.30469589  1281.31927991
0.36800002 23341.41840949  1421.14232718
0.36900002 23473.68272768  1433.06839841
0.37000002 23609.03495916  1970.76428657
0.37100002 23748.81618778  1457.70240666
0.37200002 23892.51794288  1470.46508645
0.37300002 24039.19395961  1753.17849852
0.37400002 24190.20699419  1496.76912867
0.37500002 24343.21074265  2059.43572639
0.37600002 24500.26774954  1524.03922756
0.37700002 24658.89210664  2237.05479789
0.37800002 24821.15686191  1834.40768478
0.37900002 24985.70894944  1993.85966862
0.38000002 25152.71829406  1437.47791860
0.38100002 25321.40224133  1741.09970059
0.38200002 25492.44933054  2050.35779679
0.38300002 25665.21188749  2069.64278465
0.38400002 25840.29564516  1641.50485862
0.38500002 26016.01221268  1807.59261417
0.38600002 26194.44660255  2128.82277624
0.38700002 26373.15376660  2148.88467071
0.38800002 26553.08903662  1859.24738243
0.38900002 26734.28182837  1876.74667326
0.39000002 26917.15738746  1736.56049112
0.39100002 27099.93638919  1912.17160221
0.39200002 27284.00153493  2090.90955669
0.39300002 27468.30768698  1785.71476733
0.39400002 27653.99007570  1802.34888857
0.39500002 27839.03958735  2480.45854475
0.39600002 28024.47727231  2336.40078089
0.39700002 28209.69934475  1852.53104374
0.39800002 28396.03435611  2379.30383143
0.39900002 28581.38014510  1886.37117895
0.40000002 28766.63285359  2422.43826737
0.40100002 28951.33186932  1920.34193388
0.40200002 29136.88801884  2113.58995703
0.40300002 29320.82497858  2665.26311683
0.40400002 29504.28862180  1971.62418057
0.40500002 29687.19066065  2169.53999627
0.40600002 29869.57861240  2188.24543283
0.40700002 30050.82619008  2574.75490996
0.40800002 30231.58072472  1854.70756534
0.40900002 30410.33283614  1870.23555804
0.41000002 30589.06582456  2262.97919693
0.41100002 30766.17189379  2091.48446444
0.41200002 30941.46524890  1916.82386299
0.41300002 31115.83774258  2511.98169998
0.41400002 31288.66404031  1947.71942880
0.41500002 31460.52083508  2159.45025244
0.41600002 31629.56825157  2374.11550546
0.41700002 31797.88079243  2990.59083023
0.41800002 31965.26904057  2209.91897983
0.41900002 32128.89932819  2428.94490430
0.42000002 32291.50539209  2854.89212699
0.42100002 32452.74513854  2670.53652399
0.42200002 32611.94633587  3103.84213959
0.42300002 32768.50419448  2917.70775173
0.42400002 32923.11243598  2308.73336897
0.42500002 33075.99428410  2113.55613491
0.42600002 33225.39108271  2128.08639969
0.42700002 33373.85294497  2999.64204484
0.42800002 33519.46251244  2588.37301787
0.42900002 33663.32690250  2605.54162572
0.43000002 33804.71047256  2622.56956274
0.43100002 33942.32342640  3079.24772716
0.43200002 34078.42835248  3320.09103957
0.43300002 34211.58741183  3340.76166908
0.43400002 34342.61733651  3137.19824236
0.43500002 34470.55660228  3156.12431207
0.43600002 34596.84636827  2494.60572560
0.43700002 34719.39395299  2737.27714897
0.43800002 34838.60616045  2752.94678926
0.43900002 34956.15284553  3460.65929571
0.44000002 35070.14205695  2551.87900771
0.44100002 35182.07871977  2332.57192966
0.44200002 35290.78922029  2579.58036030
0.44300002 35396.92117188  3300.40908647
0.44400002 35499.54719562  2843.51386513
0.44500002 35598.46444311  2381.53738411
0.44600002 35695.30163231  3111.38111423
0.44700002 35789.31864226  3126.55502476
0.44800002 35879.35833927  3141.41736827
0.44900002 35967.69235022  2913.38321844
0.45000002 36052.66059783  3658.44390755
0.45100002 36133.15936370  2694.81115306
0.45200002 36211.71600682  2706.64484121
0.45300002 36286.46967882  2965.33044269
0.45400002 36358.81093294  2977.78675653
0.45500002 36427.84457485  4983.32937402
0.45600002 36493.35106308  3502.26706751
0.45700002 36555.80855135  3767.07624975
0.45800002 36614.46382405  3025.08714451
0.45900002 36670.19506684  3795.36536930
0.46000002 36723.59381383  3047.32395910
0.46100002 36772.47229591  4841.83165668
0.46200002 36818.97388244  2557.07785733
0.46300002 36861.79297834  3335.25518675
0.46400002 36901.01357328  3088.61498247
0.46500002 36937.90998079  4389.33205105
0.46600002 36970.75727094  3884.70250436
0.46700002 37000.39359554  2597.42775351
0.46800002 37027.45581532  2865.36980408
0.46900002 37050.49792029  3395.67829534
0.47000002 37070.03853338  3666.59768512
0.47100002 37086.78697872  2625.74464255
0.47200002 37100.13404716  2895.48009895
0.47300002 37110.76895141  3957.86369626
0.47400002 37116.80681164  2909.02987174
0.47500002 37120.71007580  3180.50259004
0.47600002 37121.66761743  3452.87207709
0.47700002 37118.28785409  3193.65763834
