# SAXS profile: number of points = 501, q_min = 0, q_max = 0.5, delta_q = 0.001
#    q    intensity    error
0.00000000 1664650.74656091 374.54641798
0.00100000 1664582.10783368 499.37464421
0.00200000 1664376.13288760 898.76314022
0.00300000 1664032.99747011 1198.10380086
0.00400000 1663552.57128915 1746.73026623
0.00500000 1662935.29247029 2095.29855145
0.00600000 1662180.94390764 2094.34807459
0.00700000 1661290.07430694 2591.61262363
0.00800000 1660262.26415511 3137.89581173
0.00900000 1659098.76398130 2737.51307759
0.01000000 1657798.82181276 3555.97862633
0.01100000 1656363.60451848 3875.89100333
0.01200000 1654792.63559266 3549.53035897
0.01300000 1653087.25574594 4860.07674625
0.01400000 1651246.75900697 4829.89698421
0.01500000 1649272.85400772 4354.08052846
0.01600000 1647164.46459686 4620.29652974
0.01700000 1644923.68305471 7106.07062957
0.01800000 1642550.11758302 5617.52165491
0.01900000 1640044.46812034 5904.16035164
0.02000000 1637407.21798510 6189.39956397
0.02100000 1634640.18891440 7552.03801518
0.02200000 1631741.53620928 9570.16454466
0.02300000 1628714.20282671 7036.04567648
0.02400000 1625557.93795474 8534.17956340
0.02500000 1622274.10031044 8224.93006421
0.02600000 1618863.02952372 6556.39556945
0.02700000 1615325.59136319 9498.11491224
0.02800000 1611661.72502751 7010.72882538
0.02900000 1607874.13744111 7235.43395069
0.03000000 1603962.87306547 8204.27047284
0.03100000 1599928.33463845 9983.55326752
0.03200000 1595771.38378554 11848.60307033
0.03300000 1591495.13290051 10551.61321756
0.03400000 1587097.27089972 13331.61769068
0.03500000 1582581.31592875 9400.53345072
0.03600000 1577946.93731515 8757.60590682
0.03700000 1573195.89977285 12554.10386078
0.03800000 1568329.68953764 18349.45821680
0.03900000 1563349.26496053 11256.11522899
0.04000000 1558254.00411005 11499.91508323
0.04100000 1553047.46170513 15654.71913984
0.04200000 1547730.00564241 12977.71669938
0.04300000 1542301.90930639 11197.11238131
0.04400000 1536766.65472241 12447.81048135
0.04500000 1531124.01961326 10564.75622622
0.04600000 1525374.22921147 12904.66657903
0.04700000 1519520.38906283 15316.76623410
0.04800000 1513562.93839206 17799.50098367
0.04900000 1507504.46857810 12436.91244468
0.05000000 1501344.46915052 14930.87144097
0.05100000 1495086.44727602 12827.84231520
0.05200000 1488728.34918950 13018.93002036
0.05300000 1482275.98309177 13207.07962503
0.05400000 1475727.32975045 14609.70124584
0.05500000 1469086.64110322 13574.36119703
0.05600000 1462352.10187897 17504.35547632
0.05700000 1455529.11602483 16462.03507066
0.05800000 1448615.81548100 14102.27562218
0.05900000 1441614.59976819 12974.53200390
0.06000000 1434528.09748289 15751.11924624
0.06100000 1427357.69263975 18584.19802663
0.06200000 1420103.90811610 14761.98081489
0.06300000 1412770.08611413 17631.37149906
0.06400000 1405354.25693598 17812.86603971
0.06500000 1397862.66231999 19374.37740605
0.06600000 1390293.04863205 20958.66868875
0.06700000 1382648.50591192 15513.31696234
0.06800000 1374932.29367903 15653.60489627
0.06900000 1367144.37807095 20097.02329856
0.07000000 1359284.94896678 18819.30099972
0.07100000 1351358.83389291 17513.61130755
0.07200000 1343364.67457877 17651.81265090
0.07300000 1335307.18656893 22232.86569811
0.07400000 1327186.22209804 14930.84569832
0.07500000 1319003.43298111 16540.30382487
0.07600000 1310759.57867469 21194.98338080
0.07700000 1302459.64881428 19810.41218735
0.07800000 1294102.52894977 24536.18509954
0.07900000 1285689.44869930 20056.75634045
0.08000000 1277225.19318876 20173.77287279
0.08100000 1268709.32778238 18726.15055667
0.08200000 1260142.65227459 23533.16513553
0.08300000 1251528.64371343 22076.96631122
0.08400000 1242867.84011063 17431.22227575
0.08500000 1234164.23623955 23881.07909234
0.08600000 1225416.74113541 19190.02706718
0.08700000 1216629.10573261 20877.35643472
0.08800000 1207799.94713961 24186.19507735
0.08900000 1198935.05777480 16185.62404019
0.09000000 1190034.05307008 19492.75870497
0.09100000 1181098.40696115 17929.07466000
0.09200000 1172129.97736147 19621.45674298
0.09300000 1163131.96468924 21320.20991464
0.09400000 1154102.39149809 16445.95985177
0.09500000 1145046.22145812 18137.53300041
0.09600000 1135963.59920678 23139.57960358
0.09700000 1126858.55274722 23190.75010580
0.09800000 1117730.97126340 21577.79741478
0.09900000 1108583.31007341 18291.62547633
0.10000000 1099414.67999980 16656.13318529
0.10100000 1090228.83460306 20016.60234473
0.10200000 1081027.40126220 18372.06154861
0.10300000 1071811.06463411 21736.32941327
0.10400000 1062582.80717692 23429.95200052
0.10500000 1053345.53502729 21772.65323340
0.10600001 1044095.34514154 21785.05040144
0.10700001 1034839.74645936 16764.40468154
0.10800001 1025576.09936133 21798.62101781
0.10900001 1016308.76014572 23476.73346431
0.11000001 1007037.85895000 20120.61736889
0.11100001 997765.42046898 23467.44379412
0.11200001 988494.00369900 16754.97415147
0.11300001 979222.00059636 18419.16669841
0.11400001 969954.55219624 20078.06017583
0.11500001 960691.23814056 23402.43966308
0.11600001 951433.60587974 18367.42662646
0.11700001 942184.26141442 18344.32843366
0.11800001 932942.09469134 21648.92232694
0.11900001 923710.58979502 19952.14967935
0.12000001 914490.41893766 19917.60226268
0.12100001 905284.56016018 24850.06234704
0.12200001 896092.06944792 16532.89946020
0.12300001 886916.17591247 19795.96997904
0.12400001 877756.42764683 24686.90069075
0.12500001 868615.07391492 18058.50823762
0.12600001 859495.03275866 27834.74794756
0.12700001 850396.05280326 17960.36548161
0.12800001 841318.02989748 19535.40557491
0.12900001 832264.19580807 22720.81361644
0.13000001 823235.01923990 22647.19644676
0.13100001 814231.10723181 16121.77668313
0.13200001 805255.56000318 28916.72852286
0.13300001 796309.71251270 22408.15636649
0.13400001 787391.67988841 27105.95985809
0.13500001 778505.39085683 17469.66179449
0.13600001 769649.92963817 30050.98291965
0.13700001 760828.74264105 18898.98685835
0.13800001 752040.11173646 15680.03706911
0.13900001 743288.96948435 20291.78982385
0.14000001 734572.86983556 17089.83862269
0.14100001 725894.28734889 15461.54904974
0.14200001 717252.98669504 18462.09274830
0.14300001 708653.53208351 16837.60871649
0.14400001 700090.49833741 16749.66596280
0.14500001 691572.45062261 15145.43738308
0.14600001 683094.08974729 16568.44792843
0.14700001 674661.76214373 16475.24100879
0.14800001 666270.81757160 16380.26882280
0.14900001 657924.62415125 17763.96569020
0.15000001 649624.84738201 16185.40383620
0.15100001 641371.54851443 16085.59919574
0.15200001 633166.38758669 15984.28620888
0.15300001 625009.35906236 17325.26025077
0.15400001 616899.17887699 20080.06922004
0.15500001 608840.92843152 21370.31759648
0.15600001 600830.55901472 22639.29653213
0.15700001 592875.13878764 16861.36974292
0.15800001 584966.84580227 18136.89791014
0.15900001 577114.12640249 13850.73968742
0.16000001 569311.82206748 21998.20984306
0.16100001 561566.38196797 17739.88284377
0.16200001 553873.10827877 14896.41795036
0.16300001 546236.01433690 14781.14724574
0.16400001 538653.82658126 14664.85112100
0.16500001 531127.88425712 18515.11891933
0.16600001 523658.10248498 19676.45412986
0.16700001 516244.64534227 13009.36567686
0.16800001 508888.26318078 15480.38169689
0.16900001 501591.66530249 19185.88210374
0.17000001 494352.39248129 16484.18130567
0.17100001 487172.26457187 13825.94952143
0.17200001 480051.04484360 13703.05772216
0.17300001 472989.36810520 22221.04156296
0.17400001 465988.89406902 17125.09266579
0.17500001 459047.78372186 14542.63447512
0.17600001 452165.65893411 13205.49869285
0.17700001 445347.02805873 14268.91945293
0.17800001 438588.17419447 22374.57676333
0.17900001 431890.95887495 13993.26772850
0.18000001 425256.17518454 15009.41741211
0.18100001 418684.41563088 11430.08508664
0.18200001 412171.80345024 15839.76315483
0.18300001 405724.34270830 11197.99238773
0.18400001 399337.91808397 12189.79052537
0.18500001 393015.38638713 16447.69469732
0.18600001 386755.33866313 10848.48776202
0.18700001 380557.83322500 13951.25082515
0.18800001 374423.14714650 12737.87606774
0.18900001 368353.76552174 12597.69937605
0.19000001 362343.53441082 14533.59985191
0.19100001 356401.82723750 10264.37310943
0.19200001 350519.47772078 17250.81691115
0.19300001 344703.43490167 11033.95747259
0.19400001 338949.68563557 11897.13452799
0.19500001 333260.04738637 11757.41502739
0.19600001 327632.52168063 12586.00391513
0.19700001 322069.30801085 10522.00478996
0.19800001 316569.57795335 13229.44328788
0.19900001 311133.97693255 9334.01974910
0.20000001 305759.71330148 10140.52137090
0.20100001 300450.55935667 10924.38285452
0.20200001 295203.00844863 8988.93203211
0.20300001 290019.48193543 8874.59656668
0.20400001 284898.51946863 8760.62988774
0.20500001 279839.89338955 10376.46373735
0.20600001 274844.58670250 8533.92482049
0.20700001 269910.98466926 10105.46774369
0.20800001 265039.92023983 9139.90208152
0.20900001 260232.86490720 9017.06919528
0.21000001 255485.14623928 9703.32631287
0.21100001 250799.53329871 11963.13830389
0.21200001 246175.47009431 11797.95996201
0.21300001 241612.55188063 9306.91593843
0.21400001 237111.16555351 9176.20254074
0.21500001 232671.36942683 9046.26327100
0.21600001 228290.68611665 12632.46571351
0.21700001 223970.59457882 10985.75818349
0.21800001 219710.79421846 10104.49990385
0.21900001 215509.40703430 10667.71615258
0.22000001 211367.14439612 7707.50328483
0.22100001 207286.34468722 7592.89916491
0.22200001 203262.95807615 10198.71940371
0.22300001 199297.94177809 8705.33450850
0.22400001 195389.50052201 7913.27514533
0.22500001 191541.70657920 7142.59057609
0.22600001 187749.37036817 6392.86636334
0.22700001 184015.35254539 8181.32296106
0.22800001 180337.12667965 7433.49671327
0.22900001 176714.89505818 6706.33058461
0.23000001 173148.71608649 6599.56362574
0.23100001 169639.68236817 7674.49959328
0.23200001 166183.75426580 7550.55923216
0.23300001 162783.82591980 6285.08381601
0.23400001 159438.38620410 5620.20337950
0.23500001 156145.23974195 7185.80427279
0.23600001 152907.04365636 5979.43022499
0.23700001 149721.56863253 8552.09640479
0.23800001 146588.72757935 6831.76797197
0.23900001 143508.37209821 6199.56196788
0.24000001 140479.54934126 5078.33594889
0.24100001 137503.42075425 5490.51185042
0.24200001 134577.57295269 5886.42331939
0.24300001 131702.33556462 4820.30570968
0.24400001 128876.58608084 4736.21476251
0.24500001 126100.99399292 6049.06496799
0.24600001 123374.65766733 6399.44379593
0.24700001 120697.72640342 7632.92457883
0.24800001 118068.11373372 4409.84425657
0.24900001 115486.24508886 6063.02815399
0.25000001 112952.30060194 4677.91975073
0.25100001 110464.72135849 6263.34999734
0.25200001 108024.81093358 5739.35847643
0.25300001 105630.69432028 6439.24743041
0.25400001 103281.32757886 5135.66425683
0.25500001 100977.33201471 6591.80054579
0.25600001 98718.14488155  4186.14313176
0.25700001 96502.82781001  4855.05749683
0.25800001 94331.22805692  4397.72206009
0.25900001 92202.87040244  5393.86817375
0.26000001 90117.93778504  4586.55266058
0.26100001 88073.04659165  4153.52507379
0.26200001 86072.14475056  4414.21015240
0.26300001 84111.43646819  3996.97565010
0.26400001 82191.23989580  3593.81213450
0.26500001 80312.24619596  4165.79640731
0.26600001 78472.12947415  4714.21340123
0.26700001 76672.36693768  4006.89808577
0.26800001 74911.42474975  3627.21135803
0.26900001 73188.26030974  4742.59949250
0.27000001 71503.63699276  4069.27217382
0.27100001 69856.29516317  3705.17807079
0.27200001 68246.24174030  4192.02559728
0.27300001 66672.26128131  3014.25307517
0.27400001 65133.29452609  2686.74852635
0.27500001 63632.04851282  4214.98709297
0.27600001 62163.79334680  3874.35860370
0.27700001 60731.96192290  2785.77522524
0.27800001 59333.21711356  3228.02382984
0.27900001 57968.76507392  3408.56354767
0.28000001 56637.17418609  2625.98270542
0.28100001 55338.30149382  3277.13436957
0.28200001 54072.12421991  3443.04267266
0.28300001 52837.80209878  2475.97952354
0.28400001 51634.99872973  3311.09445026
0.28500001 50463.27412482  4329.74912484
0.28600001 49321.44974825  2972.60391703
0.28700001 48210.11611903  2915.74796089
0.28800001 47127.70187409  2655.88176483
0.28900001 46075.95850008  2605.59557651
0.29000001 45051.58577663  2163.15199346
0.29100001 44057.03322788  1929.69814672
0.29200001 43089.28795368  2272.52915425
0.29300001 42149.02205811  2044.64915682
0.29400001 41235.74425823  2372.08630074
0.29500001 40350.17967023  2149.85767460
0.29600001 39489.55905314  2462.96391473
0.29700001 38654.56590830  2073.43101347
0.29800001 37845.48535630  1867.10710844
0.29900001 37061.21754684  1834.53035541
0.30000001 36301.27819763  2130.70362468
0.30100001 35566.21676238  1933.37963473
0.30200001 34853.82850715  2534.57052903
0.30300001 34165.10745304  1557.92897361
0.30400001 33500.00920952  1992.41314206
0.30500001 32856.27617091  2412.96503623
0.30600001 32234.85548875  1929.73971519
0.30700001 31635.59653893  1900.03401808
0.30800001 31057.40969461  1583.46210825
0.30900001 30500.14818328  1701.90834920
0.31000001 29964.36620545  1956.97284953
0.31100001 29446.91399589  1791.55033233
0.31200001 28950.54579758  1766.99664641
0.31300001 28472.90978450  1341.07411434
0.31400001 28015.92079242  1456.12755213
0.31500001 27576.71001909  1568.56334015
0.31600002 27155.78578788  1807.76074549
0.31700002 26752.42432282  1786.52698087
0.31800002 26367.21645335  1387.83850373
0.31900002 25999.55905810  1622.37256204
0.32000002 25648.54915181  1358.47547015
0.32100002 25314.57256784  1467.23269551
0.32200002 24997.01082236  1332.21575486
0.32300002 24694.63610575  1320.17530872
0.32400002 24408.34914679  1308.89778497
0.32500002 24136.92378875  1298.32519207
0.32600002 23880.93579569  1405.63194749
0.32700002 23639.51990152  1511.98376450
0.32800002 23412.94561700  1386.51470509
0.32900002 23199.31053791  1492.87570381
0.33000002 23000.95050328  1484.59642054
0.33100002 22813.75667428  1704.18770427
0.33200002 22642.00010232  1357.16155040
0.33300002 22481.85934290  1238.97532706
0.33400002 22334.96511985  1459.03166555
0.33500002 22199.74909043  1566.41437000
0.33600002 22076.58080718  1339.16545518
0.33700002 21964.24273257  1447.66330706
0.33800002 21864.77810388  1556.55362693
0.33900002 21775.13011867  1998.95703956
0.34000002 21696.94353707  1331.75845737
0.34100002 21629.14737579  1442.44790680
0.34200002 21572.52672652  1220.89720791
0.34300002 21524.49137751  1332.79656922
0.34400002 21487.27949272  1334.36011969
0.34500002 21459.02188893  1447.84027542
0.34600002 21441.23545118  1450.82126552
0.34700002 21430.29274055  1342.39360084
0.34800002 21429.76639468  1570.58765345
0.34900002 21437.31689099  1238.00510909
0.35000002 21453.15940284  1242.45978566
0.35100002 21477.17232481  1587.59265344
0.35200002 21508.26009476  1138.86242596
0.35300002 21547.26566856  1487.40781955
0.35400002 21594.10904811  2184.78408642
0.35500002 21647.78382727  1271.59088224
0.35600002 21707.79730061  1511.18838066
0.35700002 21774.73537976  1169.30334528
0.35800002 21848.66085587  1176.55044282
0.35900002 21928.30321447  1420.95411560
0.36000002 22014.90074145  1192.10693161
0.36100002 22106.22681256  1320.40499006
0.36200002 22204.49495113  1450.84176883
0.36300002 22306.36597115  1217.92763971
0.36400002 22414.32583838  1227.18439778
0.36500002 22526.87824765  1236.72567438
0.36600002 22644.91437563  1994.56415268
0.36700002 22767.05175408  1256.74131635
0.36800002 22895.15272515  1774.14546871
0.36900002 23026.55662164  1661.36613895
0.37000002 23161.10362145  1546.69857311
0.37100002 23300.06955132  1820.20151957
0.37200002 23443.24661802  1836.30959458
0.37300002 23589.44234789  1852.71488977
0.37400002 23740.06634156  2403.68183095
0.37500002 23892.82112258  1482.31069266
0.37600002 24049.71209645  1768.01466852
0.37700002 24208.24616286  1372.60762246
0.37800002 24370.60600111  2216.75042687
0.37900002 24535.34478550  2097.77207854
0.38000002 24702.53766322  1835.27512263
0.38100002 24871.68742000  1852.69208368
0.38200002 25043.08443637  2014.21537664
0.38300002 25216.44056708  2033.45386366
0.38400002 25392.34044709  2052.97082240
0.38500002 25568.74084039  1776.51619775
0.38600002 25748.08415341  2092.54689828
0.38700002 25927.77289591  1508.99645403
0.38800002 26108.79177776  1675.79287965
0.38900002 26291.16394952  2153.24642948
0.39000002 26475.31051037  1708.05473850
0.39100002 26659.41327562  2037.84564733
0.39200002 26844.94376286  2690.26616665
0.39300002 27030.85776563  1597.52376963
0.39400002 27218.10264611  2257.74172146
0.39500002 27405.01905400  1790.64402982
0.39600002 27592.17285937  1807.42536878
0.39700002 27779.41134290  2155.96021647
0.39800002 27967.70196691  2008.64045043
0.39900002 28155.15468481  1689.30936113
0.40000002 28342.64688619  1875.29132007
0.40100002 28529.57155792  1720.33324645
0.40200002 28717.55064481  2603.96402809
0.40300002 28903.97243859  1926.73889405
0.40400002 29089.88755393  2120.65290316
0.40500002 29275.37998671  1961.15779823
0.40600002 29460.48702695  2158.27538186
0.40700002 29644.47433201  1995.66610659
0.40800002 29828.11285642  2744.93221567
0.40900002 30009.86254260  2399.28862396
0.41000002 30191.51675528  2419.69922500
0.41100002 30371.77097327  2815.46330262
0.41200002 30550.15368175  2081.84032129
0.41300002 30727.86344564  2480.66053351
0.41400002 30903.94343539  2885.65585501
0.41500002 31079.10423857  2521.13705529
0.41600002 31251.63773656  1954.79003305
0.41700002 31423.46904361  2364.30192287
0.41800002 31594.38789073  2779.99032223
0.41900002 31761.71750403  3201.58127611
0.42000002 31928.00650979  2419.50444796
0.42100002 32093.04491916  2234.63882361
0.42200002 32256.07331519  2046.64794883
0.42300002 32416.58902070  2061.69515941
0.42400002 32575.07852332  3114.99203140
0.42500002 32731.99585638  3346.51941493
0.42600002 32885.43510464  3370.09954922
0.42700002 33038.04747356  2545.25129797
0.42800002 33187.83340257  2562.76461679
0.42900002 33335.94976887  2795.21952058
0.43000002 33481.61478835  2597.50379837
0.43100002 33623.56215486  2614.56831706
0.43200002 33764.08414471  3289.46605368
0.43300002 33901.70812765  2869.10169480
0.43400002 34037.19299731  2220.92694832
0.43500002 34169.57321038  2458.15921324
0.43600002 34300.51535973  2922.91855489
0.43700002 34427.65605831  3166.65595431
0.43800002 34551.55675268  2730.26414398
0.43900002 34673.82205292  2288.47236394
0.44000002 34792.55562414  2531.68042997
0.44100002 34909.22655490  3471.72274541
0.44200002 35022.71316959  2327.25940041
0.44300002 35133.73017437  2339.90654050
0.44400002 35241.32250870  2822.83006672
0.44500002 35345.10246534  3310.42245379
0.44600002 35446.87007081  3802.74040141
0.44700002 35545.96935822  2388.68925408
0.44800002 35640.97780748  2640.46196600
0.44900002 35734.28804630  3135.68392467
0.45000002 35824.29364049  3392.91901149
0.45100002 35909.99494197  3165.10710419
0.45200002 35993.61763126  4157.80293772
0.45300002 36073.54780317  3193.59133837
0.45400002 36150.99619464  2960.76672866
0.45500002 36225.18878311  2477.80303020
0.45600002 36295.90241378  2488.08422838
0.45700002 36363.56986181  2997.81284148
0.45800002 36427.49744202  2508.03331775
0.45900002 36488.52976185  2769.47954018
0.46000002 36547.12631087  3285.40407543
0.46100002 36601.25268544  3043.76031758
0.46200002 36653.08335227  2800.11243541
0.46300002 36701.17780597  3576.16293491
0.46400002 36745.70874810  3075.61596799
0.46500002 36787.91858524  3342.91832028
0.46600002 36826.01944028  3095.59534087
0.46700002 36860.98125318  3105.16920794
0.46800002 36893.36102158  2854.99287797
0.46900002 36921.80461828  2602.98734896
0.47000002 36946.63500233  3132.33586396
0.47100002 36968.73362397  3140.86375756
0.47200002 36987.40008676  3411.53300870
0.47300002 37003.40699897  3157.13083479
0.47400002 37014.74032189  2901.03041023
0.47500002 37024.00747651  3436.56853685
0.47600002 37030.26654322  4239.22511480
0.47700002 37032.17546869  3186.24852835
