# SAXS profile: number of points = 501, q_min = 0, q_max = 0.5, delta_q = 0.001
#    q    intensity    error
0.00000000 1664650.74656090 324.60689558
0.00100000 1664582.11329176 499.37464585
0.00200000 1664376.15706568 1048.55701215
0.00300000 1664033.04958256 1397.78781144
0.00400000 1663552.65889108 1871.49681237
0.00500000 1662935.43753288 2244.96292953
0.00600000 1662181.14626658 2094.34832956
0.00700000 1661290.34636326 2591.61304803
0.00800000 1660262.63145697 3137.89650594
0.00900000 1659099.23646250 2737.51385719
0.01000000 1657799.39447231 3008.90603089
0.01100000 1656364.31053329 4174.03824428
0.01200000 1654793.45098995 4194.90158218
0.01300000 1653088.21264597 3471.48539967
0.01400000 1651247.87426104 4086.83866997
0.01500000 1649274.13941443 4749.90973302
0.01600000 1647165.91972587 6720.43725291
0.01700000 1644925.32070619 6217.81799119
0.01800000 1642551.94191718 5617.52789413
0.01900000 1640046.50473370 5904.16768345
0.02000000 1637409.48246941 7736.76015465
0.02100000 1634642.66377798 5933.75313854
0.02200000 1631744.27578367 6192.46980794
0.02300000 1628717.19177933 7622.39680449
0.02400000 1625561.19029359 6705.44021571
0.02500000 1622277.61748913 6959.57129688
0.02600000 1618866.86570969 7212.05221660
0.02700000 1615329.67467500 11533.45440542
0.02800000 1611666.12032607 7010.74794493
0.02900000 1607878.86942918 7959.00076911
0.03000000 1603967.91942154 8950.14140177
0.03100000 1599933.72624155 11519.52335899
0.03200000 1595777.12964806 12638.55544892
0.03300000 1591501.16669334 8116.65632432
0.03400000 1587103.68377388 9165.52419669
0.03500000 1582588.11866064 9400.57385894
0.03600000 1577954.11703392 8757.64575426
0.03700000 1573203.47260644 10760.71225028
0.03800000 1568337.71190964 11927.20885106
0.03900000 1563357.64697982 9380.14631627
0.04000000 1558262.77697767 11499.97982699
0.04100000 1553056.68276007 10762.68331056
0.04200000 1547739.73523726 11979.50610650
0.04300000 1542312.02727513 14250.96379352
0.04400000 1536777.20326876 14522.54524535
0.04500000 1531135.04644271 12677.79877362
0.04600000 1525385.70916054 13980.16067435
0.04700000 1519532.36476661 10940.63353515
0.04800000 1513575.40596304 12237.25772659
0.04900000 1507517.33738515 12437.01861234
0.05000000 1501357.91885629 13782.46633690
0.05100000 1495100.33324427 20991.20965660
0.05200000 1488742.76909556 14202.60667903
0.05300000 1482290.91597407 14407.86837493
0.05400000 1475742.76143739 14609.85401954
0.05500000 1469102.61176773 13574.50876597
0.05600000 1462368.67296143 15003.90328473
0.05700000 1455546.15044720 15195.90251999
0.05800000 1448633.40936555 20512.65003440
0.05900000 1441632.80288455 14272.16541515
0.06000000 1434546.82841033 19689.15613979
0.06100000 1427376.92668861 17256.98785011
0.06200000 1420123.75549170 16104.20414004
0.06300000 1412790.48723824 14919.06824278
0.06400000 1405375.23556667 15072.65010635
0.06500000 1397884.26060196 15222.96031005
0.06600000 1390315.23718644 20959.00318123
0.06700000 1382671.34220094 16923.89802056
0.06800000 1374955.65479910 19923.10837062
0.06900000 1367168.37277907 18661.84916216
0.07000000 1359309.58581609 26057.96598035
0.07100000 1351383.93992833 18973.43140527
0.07200000 1343390.52234072 19123.16498138
0.07300000 1335333.58868343 17786.64423467
0.07400000 1327213.28400549 23889.84023168
0.07500000 1319031.08421868 16540.65057140
0.07600000 1310787.78343484 18167.51953011
0.07700000 1302488.60256045 16763.02910095
0.07800000 1294132.02267222 18402.55822541
0.07900000 1285719.55447217 20057.22599052
0.08000000 1277256.01399958 20174.25968752
0.08100000 1268740.81645125 17166.06405199
0.08200000 1260174.71064884 23533.76382569
0.08300000 1251561.41922461 18923.60954680
0.08400000 1242901.13673220 22185.78633204
0.08500000 1234198.15828583 31842.31397862
0.08600000 1225451.32416561 15992.14053122
0.08700000 1216664.30446504 22483.95740231
0.08800000 1207835.68667597 19349.52860928
0.08900000 1198971.52191730 21041.95119798
0.09000000 1190071.11459042 24366.70721588
0.09100000 1181136.15615068 17929.64769272
0.09200000 1172168.39667377 17986.92489211
0.09300000 1163171.07914081 24601.06947989
0.09400000 1154141.99545060 16446.52420812
0.09500000 1145086.51947926 19787.09598665
0.09600000 1136004.54817260 19834.64034348
0.09700000 1126900.02384198 23191.60358097
0.09800000 1117773.19701594 21578.61258297
0.09900000 1108626.07692661 24944.08790378
0.10000000 1099458.04767509 21653.82726728
0.10100000 1090272.83145750 18349.29261643
0.10200000 1081071.95571393 18372.81875155
0.10300000 1071856.28262024 20065.15055453
0.10400000 1062628.73348470 16736.40333975
0.10500000 1053391.91835290 23448.50520577
0.10600001 1044142.25042204 21786.02908017
0.10700001 1034887.32954605 26824.28084412
0.10800001 1025624.33315310 21799.64622710
0.10900001 1016357.52962133 23477.86003925
0.11000001 1007087.26832722 21798.40494898
0.11100001 997815.39266727 21792.28920169
0.11200001 988544.55293695 18431.41405721
0.11300001 979273.06665540 25118.35534230
0.11400001 970006.30499711 16732.60954905
0.11500001 960743.38193939 25075.40344937
0.11600001 951486.35255573 18368.44490109
0.11700001 942237.54894733 16677.60540180
0.11800001 932995.85834533 21650.16991259
0.11900001 923764.78771786 24941.65044317
0.12000001 914545.19204360 19918.79522098
0.12100001 905339.90775159 19881.26531079
0.12200001 896147.95317408 19840.71661800
0.12300001 886972.51649131 21446.99645922
0.12400001 877813.32045141 23042.60074756
0.12500001 868672.38143652 22985.07229588
0.12600001 859552.95664119 19649.38151476
0.12700001 850454.29675962 22860.21257422
0.12800001 841376.82771966 17908.70662204
0.12900001 832323.41523903 19476.36883456
0.13000001 823294.71464432 21031.06447689
0.13100001 814291.20902235 17735.26336850
0.13200001 805316.06328867 16066.05621997
0.13300001 796370.51045303 17607.75281620
0.13400001 787452.99701551 20729.70112375
0.13500001 778567.08059811 17471.04611235
0.13600001 769712.06202973 20562.85870668
0.13700001 760891.25358127 20475.58459936
0.13800001 752103.08089994 21953.88996672
0.13900001 743352.20966168 17171.43685296
0.14000001 734636.39770610 20198.82870752
0.14100001 725958.15226141 15462.90937244
0.14200001 717317.12833288 18463.74375414
0.14300001 708718.15515027 16839.14416063
0.14400001 700155.40076071 15228.38068487
0.14500001 691637.64641816 18176.23820528
0.14600001 683159.56215892 22595.50358433
0.14700001 674727.37930654 22468.42279089
0.14800001 666336.83284727 19360.41759178
0.14900001 657990.83941508 16285.27404388
0.15000001 649691.29792545 22073.26288850
0.15100001 641438.32915395 16087.27405426
0.15200001 633233.43570696 14532.70803523
0.15300001 625076.50693714 20214.97518827
0.15400001 616966.55737655 15778.92044953
0.15500001 608908.46495127 22797.53400366
0.15600001 600898.28844602 15566.27089684
0.15700001 592942.95643650 19673.84822311
0.15800001 585034.92715785 18139.00877267
0.15900001 577182.24597257 16622.84946862
0.16000001 569380.11008713 15125.58333843
0.16100001 561634.86889360 16377.27355001
0.16200001 553941.64036482 17607.03587015
0.16300001 546304.59176246 14783.00295097
0.16400001 538722.51458109 17333.39772495
0.16500001 531196.56401868 15872.15408222
0.16600001 523726.84940476 14431.29401669
0.16700001 516313.47601748 15613.32025195
0.16800001 508957.14610941 16772.68354198
0.16900001 501660.56022469 21746.98631259
0.17000001 494421.36731771 16486.48127170
0.17100001 487241.08118893 16342.06663477
0.17200001 480119.82662536 17442.75412500
0.17300001 473058.07370137 13581.49793735
0.17400001 466057.63481134 17127.61888819
0.17500001 459116.42267378 13332.74154412
0.17600001 452234.35846390 19210.91645486
0.17700001 445415.47852631 15460.37198985
0.17800001 438656.61850688 14133.51691585
0.17900001 431959.15799550 13995.47738011
0.18000001 425324.43697313 16166.58261298
0.18100001 418752.47468557 14861.52602860
0.18200001 412239.74604054 11315.98156336
0.18300001 405792.01014429 12319.84600996
0.18400001 399405.43214708 14408.55164538
0.18500001 393082.68181952 12063.70807496
0.18600001 386822.51114731 14105.48353538
0.18700001 380624.77092144 10733.61904709
0.18800001 374489.93559599 13801.82722847
0.18900001 368420.13414961 15749.96147904
0.19000001 362409.73550824 10383.03941290
0.19100001 356467.65364413 12319.52269204
0.19200001 350585.06961764 13194.26971851
0.19300001 344768.73752686 15049.15610416
0.19400001 339014.76796345 11899.41891781
0.19500001 333324.80971603 14699.62480311
0.19600001 327696.94730384 14525.16787565
0.19700001 322133.35909038 12437.56958225
0.19800001 316633.17042009 10396.65064208
0.19900001 311197.35627505 14937.47380715
0.20000001 305822.65072045 10142.60869050
0.20100001 300513.16661119 10016.10431654
0.20200001 295265.05836869 9889.90359749
0.20300001 290081.10869694 10651.77881480
0.20400001 284959.78391910 12267.51927755
0.20500001 279900.68256494 9513.82465007
0.20600001 274904.92066265 11096.53764706
0.20700001 269970.87309138 10950.01913018
0.20800001 265099.17641938 9141.94553096
0.20900001 260291.74530843 9839.02843776
0.21000001 255543.54780190 9705.54440432
0.21100001 250857.45239083 10370.44757208
0.21200001 246232.95879613 8653.85774600
0.21300001 241669.28204570 7757.58432041
0.21400001 237167.42526018 10708.10975674
0.21500001 232726.96683814 7540.35408205
0.21600001 228345.79397710 8175.92153990
0.21700001 224025.10825229 8790.74566344
0.21800001 219764.81103977 10828.91157598
0.21900001 215562.76417717 7113.57155419
0.22000001 211419.86992671 9811.99662723
0.22100001 207338.48830282 11046.99517911
0.22200001 203314.38293563 6800.86643077
0.22300001 199348.67858916 10716.98546771
0.22400001 195439.64255707 6596.08824821
0.22500001 191591.22900631 7793.93156453
0.22600001 187798.19355124 8952.34030993
0.22700001 184063.51605132 9442.45881996
0.22800001 180384.53299654 9294.31350218
0.22900001 176761.56064514 7317.92895678
0.23000001 173194.74638329 6601.31807059
0.23100001 169684.98204319 10038.56401243
0.23200001 166228.30590980 9295.48730609
0.23300001 162827.67892784 8001.35252093
0.23400001 159481.40112468 7870.40751774
0.23500001 156187.47574039 6081.94059298
0.23600001 152948.57715327 5981.05439246
0.23700001 149762.35452870 8019.77446433
0.23800001 146628.70393042 6833.63106990
0.23900001 143547.56229663 7751.56873066
0.24000001 140517.98617142 6603.64307248
0.24100001 137540.97409422 5991.28511494
0.24200001 134614.36615569 6378.70204201
0.24300001 131738.30842902 8196.75793818
0.24400001 128911.79723890 6158.76140442
0.24500001 126135.27192053 5119.83092944
0.24600001 123408.07458010 5943.95019333
0.24700001 120730.36710626 5389.40384257
0.24800001 118099.81894052 7057.64551376
0.24900001 115517.19635499 4331.89506824
0.25000001 112982.40634964 5104.54536036
0.25100001 110493.92216629 5429.67159212
0.25200001 108053.12078023 6971.04741693
0.25300001 105658.14813818 5635.80588832
0.25400001 103307.92373388 5136.98675070
0.25500001 101002.91648007 4654.21461160
0.25600001 98742.92949764  4187.19412345
0.25700001 96526.67934734  4109.14093423
0.25800001 94354.16983924  3665.65967169
0.25900001 92224.91348603  3956.44897575
0.26000001 90139.12591211  3528.94694643
0.26100001 88093.28704131  4846.89288235
0.26200001 86091.44524678  5434.09228110
0.26300001 84129.82251511  3331.54112924
0.26400001 82208.72456678  4574.91573862
0.26500001 80328.75942596  5128.18824441
0.26600001 78487.76488034  3457.77864542
0.26700001 76687.05430417  3391.10170180
0.26800001 74925.23624881  4837.17348112
0.26900001 73201.11434415  5632.82601534
0.27000001 71515.61105933  3488.53167256
0.27100001 69867.26900711  3135.64318143
0.27200001 68256.30230562  3913.13399636
0.27300001 66681.38365047  2740.60499773
0.27400001 65141.49428458  3761.92147297
0.27500001 63639.30831403  3425.06773555
0.27600001 62170.06259943  3099.79946791
0.27700001 60737.27101544  3292.56761757
0.27800001 59337.64340577  2483.28049406
0.27900001 57972.24600060  2921.80133671
0.28000001 56639.66871118  2864.83457900
0.28100001 55339.91809803  4213.58156341
0.28200001 54072.80460855  2524.92973070
0.28300001 52837.53147406  2701.05473680
0.28400001 51633.78590946  2648.81334253
0.28500001 50461.14273648  2814.21806361
0.28600001 49318.33265140  2760.10061748
0.28700001 48206.15783195  2499.00734029
0.28800001 47122.79648720  2042.77332441
0.28900001 46070.10462182  3006.07446886
0.29000001 45044.77630010  1966.20457857
0.29100001 44049.33381786  2315.23309506
0.29200001 43080.62123941  1893.39339310
0.29300001 42139.45283455  2230.01994956
0.29400001 41225.28398705  2371.48457361
0.29500001 40338.85270517  2149.25417387
0.29600001 39477.32588368  2286.32943678
0.29700001 38641.38452663  1727.26997011
0.29800001 37831.39932661  2375.43367617
0.29900001 37046.25783089  2500.62252196
0.30000001 36285.51516333  2129.77841333
0.30100001 35549.54483582  2254.55224022
0.30200001 34836.24967393  2058.29990943
0.30300001 34146.65113072  2024.21357486
0.30400001 33480.67829495  1684.91521496
0.30500001 32836.10585671  1657.89506319
0.30600001 32213.81534886  1483.44626705
0.30700001 31613.76669243  1606.61169937
0.30800001 31034.68419265  1582.30344847
0.30900001 30476.56774301  1700.59256057
0.31000001 29939.99177718  1676.04081904
0.31100001 29421.75514303  1652.32584706
0.31200001 28924.53361949  1901.20968482
0.31300001 28446.08397428  1741.75380421
0.31400001 27988.27770594  1454.69080264
0.31500001 27548.27124614  1305.78811889
0.31600002 27126.51464789  1418.85241584
0.31700002 26722.38368726  1402.12353846
0.31800002 26336.47603685  1638.26056944
0.31900002 25968.05396021  1495.75997893
0.32000002 25616.24480692  1233.42224585
0.32100002 25281.60406066  1465.32184074
0.32200002 24963.25142003  1330.41654743
0.32300002 24660.19599194  1318.33414015
0.32400002 24373.10455424  1188.18890328
0.32500002 24100.98017122  1178.53798618
0.32600002 23844.36400420  1286.52272077
0.32700002 23602.21022012  1277.35167760
0.32800002 23374.93994041  1499.61934289
0.32900002 23160.65632182  1261.09779644
0.33000002 22961.62431387  2052.08046210
0.33100002 22773.75233002  1247.54621172
0.33200002 22601.40884959  1467.62255315
0.33300002 22440.57455976  1573.98197416
0.33400002 22293.10758334  1120.22870911
0.33500002 22157.29606004  1116.72777431
0.33600002 22033.50393911  1225.17304455
0.33700002 21920.58114296  1667.06027487
0.33800002 21820.52147293  1220.53092639
0.33900002 21730.31110189  1329.89510242
0.34000002 21651.58450348  1439.72217974
0.34100002 21583.22461150  1992.99505501
0.34200002 21526.05655021  1661.27349294
0.34300002 21477.53566115  1440.71316038
0.34400002 21439.72953281  1220.45666146
0.34500002 21411.01359636  1555.72432159
0.34600002 21392.73215244  1224.84093740
0.34700002 21381.33187982  1227.71613469
0.34800002 21380.30605867  1231.18498270
0.34900002 21387.40650204  1122.83889454
0.35000002 21402.79440153  1352.22861433
0.35100002 21426.43657388  1810.10544749
0.35200002 21457.12139741  1590.61648453
0.35300002 21495.68317175  1369.70499658
0.35400002 21542.15317414  1261.83168194
0.35500002 21595.43025736  1499.15483947
0.35600002 21655.05505941  1507.51672936
0.35700002 21721.66508921  1516.38951170
0.35800002 21795.23616081  1643.14293199
0.35900002 21874.51370320  1299.34617551
0.36000002 21960.77102222  1189.17580718
0.36100002 22051.86324215  1436.89947692
0.36200002 22149.82402072  1809.08696258
0.36300002 22251.45605268  1336.42251383
0.36400002 22359.15473531  1346.58015772
0.36500002 22471.46972961  1357.05212125
0.36600002 22589.21369406  1740.95078187
0.36700002 22711.15615335  1504.38705486
0.36800002 22839.03578926  1769.79696714
0.36900002 22970.28329538  1657.30601827
0.37000002 23104.58825267  1542.92447660
0.37100002 23243.35743288  1556.37528743
0.37200002 23386.40683522  1439.31647685
0.37300002 23532.47714822  1716.22363972
0.37400002 23682.93474045  1332.16514226
0.37500002 23835.57823420  1478.75934370
0.37600002 23992.39326228  1628.12388391
0.37700002 24150.81836269  1643.22175924
0.37800002 24313.12743377  2211.52217614
0.37900002 24477.82659350  1674.28341831
0.38000002 24644.96023668  1549.30549867
0.38100002 24814.06925585  2417.13860072
0.38200002 24985.46643884  1866.03964939
0.38300002 25158.78940564  2028.80487378
0.38400002 25334.66730987  2194.61565969
0.38500002 25511.13068510  2215.64180497
0.38600002 25690.43315386  1640.46268676
0.38700002 25870.24172366  2258.47220947
0.38800002 26051.30661927  2280.14071987
0.38900002 26233.68800012  1534.67082071
0.39000002 26417.96634972  2014.23793976
0.39100002 26602.17673792  1564.20806630
0.39200002 26787.77357016  1737.05325945
0.39300002 26973.83531373  1753.56911682
0.39400002 27161.22696438  1931.16332866
0.39500002 27348.28610445  1786.93709873
0.39600002 27535.59656710  1967.69382391
0.39700002 27722.95298063  2151.57848276
0.39800002 27911.46316381  1837.55126445
0.39900002 28099.17470056  2023.14067429
0.40000002 28286.84502065  1871.59918947
0.40100002 28473.96570278  2060.37625587
0.40200002 28662.21744271  2252.42046445
0.40300002 28848.88944507  2272.71561816
0.40400002 29035.07415692  2116.65700633
0.40500002 29220.84115175  2669.32396569
0.40600002 29406.22152963  1795.24990944
0.40700002 29590.51379774  2173.12743627
0.40800002 29774.50284443  2374.66558687
0.40900002 29956.52877750  2395.02458924
0.41000002 30138.52769466  1858.04032041
0.41100002 30319.13134620  2248.46688717
0.41200002 30497.86736694  2456.14586477
0.41300002 30675.91462042  2666.96414347
0.41400002 30852.39562503  2304.67406239
0.41500002 31028.00331772  2516.99174840
0.41600002 31200.87321824  2927.42206841
0.41700002 31373.16415840  2557.22673172
0.41800002 31544.52478593  2180.83082441
0.41900002 31712.25391611  2397.44650966
0.42000002 31879.02161276  2617.10840331
0.42100002 32044.54091720  2839.78735065
0.42200002 32207.98960750  2247.95674118
0.42300002 32368.98354705  2264.53419626
0.42400002 32528.03805242  2281.02877651
0.42500002 32685.38245638  2088.59603793
0.42600002 32839.34804155  3155.04051260
0.42700002 32992.51584837  2329.93157962
0.42800002 33142.77819963  3199.10681731
0.42900002 33291.49946476  2362.03199895
0.43000002 33437.72596502  3674.97344633
0.43100002 33580.19922581  2828.79611683
0.43200002 33721.28717091  3285.29655831
0.43300002 33859.50392032  3747.23147644
0.43400002 33995.59437227  2661.85516549
0.43500002 34128.58561659  2232.00960510
0.43600002 34260.10341168  2694.89986207
0.43700002 34387.82024955  2711.13587695
0.43800002 34512.39742749  2499.90562613
0.43900002 34635.26341909  3200.29849158
0.44000002 34754.61883155  3218.62540252
0.44100002 34871.99093896  4624.02621764
0.44200002 34986.10047460  2789.79178405
0.44300002 35097.77902093  3272.51707100
0.44400002 35206.03035495  2585.00290132
0.44500002 35310.48595741  3307.18027150
0.44600002 35412.92016066  2849.32369116
0.44700002 35512.73628607  2863.74718983
0.44800002 35608.43563326  3597.34238033
0.44900002 35702.43902277  3373.88064755
0.45000002 35793.19235426  2905.69149303
0.45100002 35879.55048203  2675.89700177
0.45200002 35963.93841269  2443.74973096
0.45300002 36044.58307942  3191.02709125
0.45400002 36122.75840478  2711.91621577
0.45500002 36197.70143413  2723.51518498
0.45600002 36269.15322994  2734.87562892
0.45700002 36337.55736481  2995.66837113
0.45800002 36402.23958095  2506.29431393
0.45900002 36464.02512597  3019.22142352
0.46000002 36523.42586828  3283.27352404
0.46100002 36578.28668350  3295.33800350
0.46200002 36630.88955791  2798.41694041
0.46300002 36679.75259321  3318.78417193
0.46400002 36725.04593552  3330.04369803
0.46500002 36768.02896209  3598.11948476
0.46600002 36806.95652297  3609.65839729
0.46700002 36842.71296323  3362.26614438
0.46800002 36875.87630484  3891.32703150
0.46900002 36905.10661453  2861.99115360
0.47000002 36930.71894901  3391.90204264
0.47100002 36953.63000572  3924.47569262
0.47200002 36973.11587637  2885.56696534
0.47300002 36989.87058185  3155.97590763
0.47400002 37001.99861467  3427.31028413
0.47500002 37012.07153961  3435.46064314
0.47600002 37019.15624073  2648.72075457
0.47700002 37021.89766289  2919.91720707
