# SAXS profile: number of points = 501, q_min = 0, q_max = 0.5, delta_q = 0.001
#    q    intensity    error
0.00000000 1682732.95097188 378.61491397
0.00100000 1682663.73183607 555.27904469
0.00200000 1682456.02256439 832.81575754
0.00300000 1682109.97822181 1211.11922746
0.00400000 1681625.49159091 1261.21916662
0.00500000 1681003.01328285 1512.90277184
0.00600000 1680242.27771387 1940.67990977
0.00700000 1679343.87524129 2015.21273404
0.00800000 1678307.38593639 2265.71506667
0.00900000 1677134.06262861 2767.27132163
0.01000000 1675823.12167732 2765.10827016
0.01100000 1674375.77924576 3616.65184064
0.01200000 1672791.50212582 3588.13792938
0.01300000 1671071.68501844 4562.02590131
0.01400000 1669215.61562122 4882.45589214
0.01500000 1667225.00630842 5601.87627064
0.01600000 1665098.72876612 5944.40272743
0.01700000 1662838.96255314 6285.53156041
0.01800000 1660445.24241645 6151.94989998
0.01900000 1657918.30103676 6465.88166580
0.02000000 1655258.71807005 5735.47171756
0.02100000 1652468.13712302 5453.14509974
0.02200000 1649544.90268811 7398.20922467
0.02300000 1646491.81514780 7705.58204564
0.02400000 1643308.67048232 9243.61169295
0.02500000 1639996.88925614 7675.18579225
0.02600000 1636556.74244405 7290.86062106
0.02700000 1632989.12083215 8230.26554595
0.02800000 1629294.05406418 8504.91535225
0.02900000 1625474.03279278 10240.48687678
0.03000000 1621529.32966680 7540.11172953
0.03100000 1617460.30725705 9316.57179849
0.03200000 1613267.79733198 8784.24356106
0.03300000 1608954.83520330 10667.37104917
0.03400000 1604519.30272887 9266.09940080
0.03500000 1599964.55202839 10367.77077591
0.03600000 1595290.30509369 11510.02008317
0.03700000 1590498.45839383 11785.59412175
0.03800000 1585590.30025017 12985.98516003
0.03900000 1580566.96053266 13276.76308332
0.04000000 1575427.69730018 13564.43310232
0.04100000 1570176.23068188 10881.32178315
0.04200000 1564812.77401205 14130.26000487
0.04300000 1559337.71239008 10291.62937949
0.04400000 1553754.45226778 11536.62734387
0.04500000 1548062.74516813 16022.45015697
0.04600000 1542263.01028956 14134.84114639
0.04700000 1536358.21136157 12167.95759989
0.04800000 1530348.86625005 12372.87115932
0.04900000 1524237.47853378 13718.13794535
0.05000000 1518023.75905151 17419.32344627
0.05100000 1511710.91545342 12970.48025881
0.05200000 1505297.20479576 15557.24733655
0.05300000 1498788.11546834 12140.18430124
0.05400000 1492181.97819928 16003.65246250
0.05500000 1485482.89383043 12478.05689027
0.05600000 1478688.95917113 13907.07030997
0.05700000 1471805.68010735 15365.65201757
0.05800000 1464831.34073398 15556.50956497
0.05900000 1457768.01296306 18367.87782122
0.06000000 1450618.70359340 13273.16175799
0.06100000 1443384.63946125 17450.52110657
0.06200000 1436066.30116390 16284.99261642
0.06300000 1428667.07530633 13715.20456420
0.06400000 1421185.14891406 18013.52260492
0.06500000 1413626.47247961 13994.90273220
0.06600000 1405988.99356571 18369.24706041
0.06700000 1398275.85951456 14262.41443451
0.06800000 1390490.34533694 17269.89089747
0.06900000 1382632.23861430 18872.93094070
0.07000000 1374701.90422255 14640.57596557
0.07100000 1366704.05153860 20664.56622715
0.07200000 1358637.44062561 14877.08067179
0.07300000 1350506.79536060 16489.68874399
0.07400000 1342311.98214605 22651.51576026
0.07500000 1334054.65168336 19770.69086465
0.07600000 1325735.47778615 15312.24548628
0.07700000 1317359.62547938 15413.10834081
0.07800000 1308925.81863234 21715.08034947
0.07900000 1300435.36215203 17165.74758554
0.08000000 1291893.22668554 21975.10481680
0.08100000 1283298.86313572 22098.40746001
0.08200000 1274652.86609331 19043.31471305
0.08300000 1265959.14172603 23926.62890155
0.08400000 1257217.86116277 19235.43417868
0.08500000 1248433.17369940 17715.26756644
0.08600000 1239603.98259141 21029.88255205
0.08700000 1230734.05759815 16245.69032316
0.08800000 1221822.22574055 19573.59297561
0.08900000 1212874.13180053 18011.18170322
0.09000000 1203889.13216329 19719.70491118
0.09100000 1194869.14761994 16489.19501184
0.09200000 1185815.95659125 24813.20005756
0.09300000 1176732.51554981 16591.92924894
0.09400000 1167617.18266888 23293.96388900
0.09500000 1158474.60819625 23354.84919898
0.09600000 1149305.25427843 20066.87068300
0.09700000 1140112.91177192 20111.59270916
0.09800000 1130897.74077556 20152.59868815
0.09900000 1121661.86629893 16824.92878563
0.10000000 1112404.73596534 16852.93254242
0.10100000 1103129.89856225 20253.46589016
0.10200000 1093839.21543569 18589.79834073
0.10300000 1084533.18449872 16918.71847405
0.10400000 1075214.99919574 20321.56444083
0.10500000 1065887.27090088 20337.13008564
0.10600001 1056546.47550329 20349.08607569
0.10700001 1047199.65294212 22054.02572877
0.10800001 1037844.68374392 20362.51365335
0.10900001 1028485.60325403 20364.01590288
0.11000001 1019122.86156629 18665.23608815
0.11100001 1009758.32250683 18660.33467833
0.11200001 1000394.19554887 18652.35065411
0.11300001 991029.44083548 18641.26465976
0.11400001 981669.06329534 18627.17135308
0.11500001 972312.51859412 20301.88634422
0.11600001 962961.70357669 20279.97443234
0.11700001 953618.66079273 20254.86130914
0.11800001 944282.67221534 25283.16973936
0.11900001 934957.28003811 26926.77093339
0.12000001 925642.87200443 20160.50270192
0.12100001 916342.96119647 25153.61546978
0.12200001 907055.94563051 20082.21958236
0.12300001 897785.53340028 21708.45522040
0.12400001 888531.07143848 21657.94588678
0.12500001 879295.02375724 16618.67673209
0.12600001 870080.21499707 19890.03465212
0.12700001 860886.17729972 16529.01538311
0.12800001 851713.21177195 21424.84685186
0.12900001 842564.29402299 18073.00495861
0.13000001 833440.16275415 21290.22996107
0.13100001 824341.09857937 21218.54087762
0.13200001 815270.54983576 24396.97235392
0.13300001 806229.47691970 16205.21325005
0.13400001 797216.40933246 16143.63305008
0.13500001 788234.97355062 19295.99306229
0.13600001 779284.54142038 17615.72788940
0.13700001 770368.38494047 15946.62632020
0.13800001 761484.81942597 20640.04700384
0.13900001 752638.74291828 18966.49721597
0.14000001 743827.76917680 26744.32870203
0.14100001 735054.55974749 17222.32914714
0.14200001 726318.69267844 18695.44403132
0.14300001 717624.91376784 21700.97841592
0.14400001 708967.42935389 16962.04654739
0.14500001 700355.17196729 30675.55797920
0.14600001 691782.87584446 21355.33838474
0.14700001 683256.39257966 22752.43894628
0.14800001 674771.88205803 22621.72841326
0.14900001 666332.09097171 16491.72002964
0.15000001 657939.04628706 14902.32010154
0.15100001 649592.55595826 14810.71097469
0.15200001 641294.59509334 16189.48281706
0.15300001 633044.75048285 14623.33442621
0.15400001 624842.01867198 20338.60866757
0.15500001 616691.53610997 15873.64088860
0.15600001 608589.45212406 18631.96695611
0.15700001 600542.12260264 15656.13387517
0.15800001 592542.36903147 25437.84510315
0.15900001 584598.43991775 15433.39954229
0.16000001 576705.38701271 16712.92290452
0.16100001 568869.50808702 15205.88266895
0.16200001 561085.98778394 21949.68487827
0.16300001 553359.05727467 17696.42348705
0.16400001 545687.27795306 16206.91292033
0.16500001 538072.11699730 14737.79598035
0.16600001 530513.41403890 14618.29781402
0.16700001 523011.57108736 17133.85987779
0.16800001 515566.97619005 15683.54815622
0.16900001 508182.72964662 15550.39226145
0.17000001 500856.14114096 17985.74487765
0.17100001 493589.00574192 15281.51633938
0.17200001 486381.24754944 15145.91276392
0.17300001 479233.39298795 13758.79136244
0.17400001 472147.33301923 17351.41530790
0.17500001 465120.94733553 18418.79038436
0.17600001 458154.11055066 14596.79065154
0.17700001 451250.92871249 18072.60054852
0.17800001 444408.35655619 16705.31091197
0.17900001 437627.63509185 14179.13604671
0.18000001 430909.89593231 12869.12464989
0.18100001 424255.62504595 16215.05075520
0.18200001 417661.04098600 13757.75533997
0.18300001 411132.04343747 12481.96942840
0.18400001 404664.58070682 13475.33117412
0.18500001 398261.63238449 12222.65007530
0.18600001 391921.59245329 12092.74130645
0.18700001 385644.79909263 13050.22061785
0.18800001 379430.99216301 16135.30370406
0.18900001 373283.16194995 11702.42768004
0.19000001 367195.23407995 16832.23032553
0.19100001 361176.06601702 11442.05831206
0.19200001 355217.17682509 11311.89153050
0.19300001 349324.95257572 12198.42792035
0.19400001 343495.51265738 11051.96864200
0.19500001 337730.76839912 10922.21356616
0.19600001 332028.94804145 11773.74705393
0.19700001 326391.71425598 10663.21780866
0.19800001 320818.69472068 11491.72618798
0.19900001 315310.55319559 9459.31704291
0.20000001 309864.07803738 11210.88287323
0.20100001 304483.41680531 11993.60235481
0.20200001 299164.89977713 11842.44311739
0.20300001 293911.16031923 11691.78651011
0.20400001 288720.62892195 10653.79171078
0.20500001 283593.07292922 11391.93427803
0.20600001 278529.22098113 8648.33272025
0.20700001 273527.94913225 11947.70138285
0.20800001 268589.51362849 10104.33798034
0.20900001 263715.99874777 9137.75978856
0.21000001 258902.49733301 12291.39664193
0.21100001 254151.76311632 11314.83702883
0.21200001 249463.11119316 9564.41613530
0.21300001 244836.11737923 7859.23973942
0.21400001 240271.65812606 12398.01814544
0.21500001 235769.23195788 12222.27756254
0.21600001 231326.46303330 7529.67672773
0.21700001 226945.15751529 8163.21770178
0.21800001 222624.71267816 8775.86658870
0.21900001 218363.25327416 10808.98154814
0.22000001 214161.78929126 9939.24911096
0.22100001 210022.37655355 9091.86911090
0.22200001 205941.05107862 8266.47418117
0.22300001 201918.79728321 7462.91910047
0.22400001 197953.74901381 6680.93934513
0.22500001 194049.91472751 7893.95090440
0.22600001 190202.50715040 9066.95394462
0.22700001 186413.89512680 7650.42661779
0.22800001 182681.73500090 6275.11789403
0.22900001 179006.28901087 6793.28898922
0.23000001 175387.70093128 6077.18412467
0.23100001 171826.74489744 6577.52810574
0.23200001 168319.69251339 9412.43765050
0.23300001 164869.28899088 6365.60354900
0.23400001 161474.12208330 7399.55199443
0.23500001 158131.88582838 8396.80353462
0.23600001 154845.25406156 7156.17375492
0.23700001 151611.99326857 5953.80325726
0.23800001 148432.22669898 6917.68425250
0.23900001 145305.46278189 5754.09659833
0.24000001 142231.07218527 8226.64560432
0.24100001 139209.89546919 5558.65138902
0.24200001 136239.75749398 6455.72121422
0.24300001 133320.83063226 6831.35968474
0.24400001 130452.19828043 6232.35406766
0.24500001 127634.36014829 6593.59135717
0.24600001 124866.31555922 5088.92693135
0.24700001 122148.60362202 6361.49957757
0.24800001 119478.78993123 4908.78631654
0.24900001 116857.32684150 6135.00994941
0.25000001 114284.48538518 6023.93550963
0.25100001 111758.76513841 5069.37782651
0.25200001 109281.29198408 4976.67027240
0.25300001 106850.27034779 4885.19459142
0.25400001 104464.74162729 4794.93186755
0.25500001 102125.06561449 4705.92324616
0.25600001 99831.05914968  3848.48751230
0.25700001 97581.54261487  4154.04646566
0.25800001 95376.35222771  4446.44575124
0.25900001 93215.06890425  4726.00421706
0.26000001 91097.83848046  3923.12859979
0.26100001 89021.32635833  4548.09977885
0.26200001 86989.46168628  4804.42819626
0.26300001 84998.38984823  4039.12367671
0.26400001 83048.41456945  4951.76195301
0.26500001 81140.33685115  3884.99951227
0.26600001 79271.85570885  3492.32176851
0.26700001 77444.20341353  3735.90854945
0.26800001 75656.08714058  3052.72326058
0.26900001 73906.31619043  2993.20594736
0.27000001 72195.71709450  3521.70724652
0.27100001 70523.06666778  3165.07538183
0.27200001 68888.26159111  3667.26677935
0.27300001 67290.12441605  3042.18666882
0.27400001 65727.54028033  4066.89174731
0.27500001 64203.45359507  2658.02310463
0.27600001 62712.82696257  3126.86170034
0.27700001 61259.11702108  2809.95583074
0.27800001 59839.20513362  2504.27085336
0.27900001 58454.07428411  2455.07123613
0.28000001 57102.52650372  4091.68173028
0.28100001 55784.11474200  3067.56861485
0.28200001 54498.97853512  3238.87444764
0.28300001 53246.34855111  2495.12401120
0.28400001 52025.66649925  3113.73628736
0.28500001 50836.72286034  3271.34327090
0.28600001 49678.14243892  2780.23737319
0.28700001 48550.63055981  3565.55847708
0.28800001 47452.58258325  2057.06955235
0.28900001 46385.76953312  2824.89349828
0.29000001 45346.78079317  2375.26449038
0.29100001 44338.09046462  3107.21352684
0.29200001 43356.80072908  2096.08463047
0.29300001 42403.50128470  2056.99394469
0.29400001 41477.64555630  1835.38590275
0.29500001 40579.94330507  1981.92452484
0.29600001 39707.79809207  2122.77898649
0.29700001 38861.63845324  2431.96144953
0.29800001 38041.98669241  2047.41982071
0.29900001 37247.53588335  1843.75311351
0.30000001 36477.90009068  2305.76817389
0.30100001 35733.61381824  2104.35261738
0.30200001 35012.48268323  1591.31741329
0.30300001 34315.46127547  1877.74212989
0.30400001 33642.47802659  1846.97213110
0.30500001 32991.23929709  2271.44693314
0.30600001 32362.76724402  2682.54990386
0.30700001 31756.93177770  1467.17031759
0.30800001 31172.59863615  1444.85001519
0.30900001 30609.57499903  1850.34889629
0.31000001 30068.39626957  1963.76705334
0.31100001 29546.02273274  1935.85550110
0.31200001 29045.00446176  1636.39562885
0.31300001 28563.22536627  1345.32797845
0.31400001 28102.53361832  1327.84477633
0.31500001 27659.73548541  1573.28582890
0.31600002 27235.79663023  1424.56841019
0.31700002 26829.72377348  1663.71124997
0.31800002 26442.18911079  1391.78468975
0.31900002 26072.51788008  1752.07328450
0.32000002 25719.92599474  1486.09739434
0.32100002 25384.68908036  1716.51275689
0.32200002 25066.05085632  1457.34026579
0.32300002 24762.98124017  1684.87332336
0.32400002 24476.36957856  1909.15691753
0.32500002 24204.87985090  1893.78988921
0.32600002 23949.15626283  1997.00048954
0.32700002 23708.33221882  1399.74000048
0.32800002 23482.63160476  1738.30188686
0.32900002 23270.11587261  1382.24494829
0.33000002 23073.22839313  1718.37876595
0.33100002 22887.63223988  1367.76496742
0.33200002 22717.86831041  1588.66060618
0.33300002 22559.91474007  1243.27696020
0.33400002 22415.49308188  1239.01643878
0.33500002 22282.99516566  1347.67561144
0.33600002 22162.73273306  1232.35881198
0.33700002 22053.58735135  1788.98709066
0.33800002 21957.53229015  1451.50274078
0.33900002 21871.56232800  1561.62962417
0.34000002 21797.16782380  1337.91022439
0.34100002 21733.43442414  1337.91028651
0.34200002 21681.12009473  1784.78989072
0.34300002 21637.51778913  1116.49597080
0.34400002 21604.96012372  1565.27943509
0.34500002 21581.54074568  1344.09842130
0.34600002 21568.75473835  1347.18448476
0.34700002 21562.99607577  1238.14729331
0.34800002 21567.82420508  1241.98321567
0.34900002 21580.85435110  1472.89337922
0.35000002 21602.39664551  1478.57610843
0.35100002 21632.17198467  1256.39660838
0.35200002 21669.19161569  2294.76750079
0.35300002 21714.32701992  1383.63698324
0.35400002 21767.33531975  1506.84385888
0.35500002 21827.35173341  2447.71933932
0.35600002 21893.84452167  1406.89851560
0.35700002 21967.32881776  1297.61017473
0.35800002 22047.97727507  1662.19708550
0.35900002 22134.39317713  1912.41166109
0.36000002 22227.81178812  1323.99967187
0.36100002 22326.10645830  1333.53840192
0.36200002 22431.45378388  1465.67125966
0.36300002 22540.47281597  1230.70987405
0.36400002 22655.65706135  1364.43701115
0.36500002 22775.46653286  1625.48512345
0.36600002 22900.82835130  1512.82879255
0.36700002 23030.36615319  1398.40389906
0.36800002 23165.92632455  1666.90430764
0.36900002 23304.72096207  2069.45931946
0.37000002 23446.84729201  1826.74395905
0.37100002 23593.32070441  1843.11030074
0.37200002 23744.14769617  1594.18215184
0.37300002 23897.97602636  2145.08242974
0.37400002 24056.24092808  1759.11270120
0.37500002 24216.61736383  1775.56246923
0.37600002 24381.23789973  2206.01450967
0.37700002 24547.42212886  1391.83890064
0.37800002 24717.46007283  1826.74397322
0.37900002 24889.93454269  2553.70740506
0.38000002 25064.77145939  1718.94210812
0.38100002 25241.57663179  1590.97665047
0.38200002 25420.63182809  1460.41536771
0.38300002 25601.64022730  1769.58545634
0.38400002 25785.13686709  1786.91006954
0.38500002 25969.22601854  1653.98008348
0.38600002 26156.03246308  1518.35775641
0.38700002 26343.20871315  2606.39719356
0.38800002 26531.70601399  2322.18767889
0.38900002 26721.51859989  1875.85069458
0.39000002 26913.00224861  2683.36101632
0.39100002 27104.44683220  1593.74154924
0.39200002 27297.29246531  1931.01056048
0.39300002 27490.34693345  1624.67958074
0.39400002 27684.79184358  2296.45359222
0.39500002 27878.72510633  1821.59598475
0.39600002 28072.92760255  2006.09150152
0.39700002 28267.01614843  2362.55732162
0.39800002 28462.26853378  2044.16022295
0.39900002 28656.52636918  2063.26999634
0.40000002 28850.57835566  1908.89860734
0.40100002 29044.19096520  2276.77423763
0.40200002 29238.64014509  1944.22346856
0.40300002 29431.48488540  3210.38652341
0.40400002 29623.73735425  2159.57055545
0.40500002 29815.47028034  1997.33844872
0.40600002 30006.70230813  2747.86389406
0.40700002 30196.71460050  2032.84292322
0.40800002 30386.18353989  2423.45018305
0.40900002 30573.77757948  2444.37363330
0.41000002 30761.16404047  2086.06843825
0.41100002 30946.96637263  1912.52261245
0.41200002 31130.77344487  1928.55150629
0.41300002 31313.77310708  1944.58540209
0.41400002 31495.07303008  2352.68206682
0.41500002 31675.29328517  1976.53839465
0.41600002 31852.82324656  2988.59128272
0.41700002 32029.47807970  2209.07320783
0.41800002 32205.11523988  2428.90990648
0.41900002 32376.97320460  3671.54893538
0.42000002 32547.77398949  3083.08803725
0.42100002 32717.06354863  2485.18826491
0.42200002 32884.24046225  2921.10721868
0.42300002 33048.76807887  3152.85262412
0.42400002 33211.16450568  2540.65420508
0.42500002 33371.79624016  2558.94945695
0.42600002 33528.79531293  2362.27138571
0.42700002 33684.85617868  2378.82465606
0.42800002 33837.96323684  2612.96764497
0.42900002 33989.20620938  2411.53429483
0.43000002 34137.89624115  2427.71660623
0.43100002 34282.73680754  2887.97788552
0.43200002 34425.88967035  2906.75013206
0.43300002 34566.06015183  2475.27568477
0.43400002 34703.98619786  3170.20928941
0.43500002 34838.54190966  2961.97297352
0.43600002 34971.59932345  2292.38844429
0.43700002 35100.68525320  2997.94966955
0.43800002 35226.34702009  2551.62056732
0.43900002 35350.20150173  3033.04743258
0.44000002 35470.42906973  3050.27969240
0.44100002 35588.39499247  2831.41283978
0.44200002 35703.03273891  2846.95996552
0.44300002 35815.01851177  2623.80838052
0.44400002 35923.38378296  3836.61756984
0.44500002 36027.85587989  2410.26367259
0.44600002 36130.20710149  2907.03660115
0.44700002 36229.66983101  2434.63392802
0.44800002 36324.77595824  3180.41590975
0.44900002 36418.18268652  3687.34117176
0.45000002 36508.10981192  2716.75112041
0.45100002 36593.54495610  3969.66794497
0.45200002 36676.70197473  2741.40021902
0.45300002 36755.99723820  3754.62529582
0.45400002 36832.73397349  2765.21763411
0.45500002 36906.00742133  3281.68233543
0.45600002 36975.73127026  3041.62379844
0.45700002 37042.13967964  3308.23365158
0.45800002 37104.66649276  3321.05333183
0.45900002 37164.21113944  3077.19682819
0.46000002 37221.10842088  4375.52760779
0.46100002 37273.35975565  2841.34834884
0.46200002 37323.20675059  2851.30651485
0.46300002 37369.20853421  3121.07644470
0.46400002 37411.46860160  2609.45005864
0.46500002 37451.24734170  3141.41077591
0.46600002 37486.75882860  3151.13709648
0.46700002 37518.97487219  4214.13145738
0.46800002 37548.51468862  3169.84576025
0.46900002 37573.93375833  3973.44368327
0.47000002 37595.52569019  2921.73641749
0.47100002 37614.35347067  2929.40598714
0.47200002 37629.57030501  2669.81813968
0.47300002 37642.06474427  2676.35093017
0.47400002 37649.61180863  2682.53496851
0.47500002 37655.03667611  2688.56974611
0.47600002 37657.31978121  3502.69576547
0.47700002 37655.03175022  4049.79885669
