# SAXS profile: number of points = 501, q_min = 0, q_max = 0.5, delta_q = 0.001
#    q    intensity    error
0.00000000 1682732.95097188 429.09690250
0.00100000 1682663.67179464 504.79911353
0.00200000 1682455.77453857 908.52614702
0.00300000 1682109.43472576 1312.04540583
0.00400000 1681624.50800330 2144.07132917
0.00500000 1681001.48087470 1966.77181047
0.00600000 1680240.06042642 2646.37820291
0.00700000 1679340.87830538 2418.25096526
0.00800000 1678303.46707484 2492.28075383
0.00900000 1677129.12652086 3521.97131625
0.01000000 1675817.00245612 3041.60799079
0.01100000 1674368.38554011 4520.79483779
0.01200000 1672782.71156447 3914.31171668
0.01300000 1671061.38299171 3860.15196496
0.01400000 1669203.64113257 4506.85003085
0.01500000 1667211.30100210 5601.83022081
0.01600000 1665083.17305349 4245.96228110
0.01700000 1662821.41316807 4938.57981865
0.01800000 1660425.57494481 7098.31965230
0.01900000 1657896.43392661 4973.68952621
0.02000000 1655234.49988040 5213.98891048
0.02100000 1652441.51338655 5998.36296555
0.02200000 1649515.74557365 6259.91253885
0.02300000 1646459.94684393 7112.70729412
0.02400000 1643274.03600533 8010.96129081
0.02500000 1639959.42122253 6395.84203487
0.02600000 1636516.31828370 9279.04794908
0.02700000 1632945.63666576 9601.72078336
0.02800000 1629247.34468453 9213.39415671
0.02900000 1625424.04366592 11703.05365173
0.03000000 1621475.98743983 8293.85005698
0.03100000 1617403.40393686 10092.59770496
0.03200000 1613207.39518420 7985.37697395
0.03300000 1608890.72310998 8205.34306613
0.03400000 1604451.40488860 12635.05539648
0.03500000 1599892.83233638 9503.36386293
0.03600000 1595214.67900364 12394.81862867
0.03700000 1590418.78489203 9971.92624245
0.03800000 1585506.51256488 10202.73488053
0.03900000 1580478.93019795 10431.16142237
0.04000000 1575335.36598772 13563.63812968
0.04100000 1570079.49126946 15826.40200581
0.04200000 1564711.65471350 11101.62970523
0.04300000 1559232.06461844 14407.30494583
0.04400000 1553644.17135920 11535.80850809
0.04500000 1547947.86466167 17089.34521992
0.04600000 1542143.36938334 16308.16688934
0.04700000 1536233.80136879 12166.97227270
0.04800000 1530219.65600318 13496.53799392
0.04900000 1524103.28606420 14860.00773082
0.05000000 1517884.63291219 15095.36337724
0.05100000 1511566.68861456 11790.22072043
0.05200000 1505147.84272832 15555.70367951
0.05300000 1498633.62494692 14566.71951355
0.05400000 1492022.26356676 13540.10267330
0.05500000 1485317.87104573 14972.00483857
0.05600000 1478518.75560917 13905.46954539
0.05700000 1471630.12484852 20485.09229411
0.05800000 1464650.32394683 12962.15597216
0.05900000 1457581.71314623 18365.53044342
0.06000000 1450426.84884153 17252.82817300
0.06100000 1443187.36343605 14763.80741788
0.06200000 1435863.56048490 18996.47579318
0.06300000 1428458.72647370 13713.20441531
0.06400000 1420971.16141058 20781.70420752
0.06500000 1413406.90669540 19589.82064317
0.06600000 1405763.92710425 16953.51375411
0.06700000 1398045.18142976 18538.07997332
0.06800000 1390253.86998639 17266.95387348
0.06900000 1382390.19865965 17418.11731861
0.07000000 1374454.16698158 23420.70010212
0.07100000 1366450.49310280 16233.43261840
0.07200000 1358378.31556347 16361.66757745
0.07300000 1350242.05726883 20982.76255312
0.07400000 1342041.53977779 19627.35843907
0.07500000 1333778.57384072 16725.58409993
0.07600000 1325453.59502251 19901.68666227
0.07700000 1317072.26508679 23114.61933608
0.07800000 1308632.69381746 23260.94722346
0.07900000 1300136.63813055 23402.46058401
0.08000000 1291588.95114922 20400.64844042
0.08100000 1282988.90153049 17358.84065215
0.08200000 1274337.39698905 20625.15173811
0.08300000 1265638.26593366 19136.45147903
0.08400000 1256891.32068857 20832.97461828
0.08500000 1248101.15642133 17710.55624104
0.08600000 1239266.57299975 19406.91544436
0.08700000 1230391.20699326 19489.39763395
0.08800000 1221473.86948037 16306.67692339
0.08900000 1212520.51669351 18005.93051863
0.09000000 1203530.20418333 19713.82567059
0.09100000 1194505.11332660 23077.83987369
0.09200000 1185446.64242728 18190.67958277
0.09300000 1176358.18327602 28197.30697818
0.09400000 1167237.68870477 19959.76541491
0.09500000 1158090.05965166 16676.49764282
0.09600000 1148915.69763214 18388.39660500
0.09700000 1139718.35073364 21780.01870646
0.09800000 1130498.53292539 21824.27520425
0.09900000 1121257.76390621 25228.30087419
0.10000000 1111995.93358054 21900.76094180
0.10100000 1102716.50452657 21933.03230658
0.10200000 1093421.08773382 25340.03490013
0.10300000 1084110.75221270 21985.76708910
0.10400000 1074788.19160598 20313.49777700
0.10500000 1065456.01895904 25411.12724775
0.10600001 1056110.73224221 18645.63585508
0.10700001 1046759.81928125 18653.26085737
0.10800001 1037400.83484557 20353.80533755
0.10900001 1028037.89714575 18658.88871139
0.11000001 1018671.28273940 16960.87765595
0.11100001 1009302.84443263 35608.20602778
0.11200001 999934.93255209 27118.23664746
0.11300001 990566.61764881 16938.68995928
0.11400001 981202.75064064 18618.32307004
0.11500001 971842.69341025 18601.07002776
0.11600001 962488.30417052 18580.83758701
0.11700001 953142.22155251 20244.74173920
0.11800001 943803.02225789 21900.95016299
0.11900001 934474.51264735 20184.65042391
0.12000001 925157.34731549 16791.60664474
0.12100001 915854.68476750 18436.15567286
0.12200001 906564.95243312 25089.18624057
0.12300001 897291.93611326 20027.55695763
0.12400001 888035.05465863 19980.78967126
0.12500001 878796.61912166 16609.25688404
0.12600001 869579.58134844 21535.13934690
0.12700001 860383.33123233 21475.16895961
0.12800001 851208.46192174 21412.14986878
0.12900001 842057.68575368 19704.15077533
0.13000001 832931.88236879 18003.82348601
0.13100001 823831.09488339 21205.41338187
0.13200001 814759.06666495 21130.77739007
0.13300001 805716.39969328 17814.39043704
0.13400001 796702.08073363 20973.18326411
0.13500001 787719.67183083 20890.32668190
0.13600001 778768.21995479 20804.79397705
0.13700001 769851.19669978 17529.51257543
0.13800001 760966.82631758 15866.15907690
0.13900001 752120.18464274 25271.23939574
0.14000001 743308.68499367 17293.07737193
0.14100001 734535.09608585 18774.71794143
0.14200001 725798.87302913 17125.22521684
0.14300001 717105.18852808 18587.36736337
0.14400001 708447.71631017 16949.61241223
0.14500001 699835.52884502 15326.39880468
0.14600001 691263.46923644 24387.77634514
0.14700001 682737.44287697 31829.22108852
0.14800001 674253.45121874 16576.52188027
0.14900001 665814.36036669 16478.90619656
0.15000001 657422.12865480 14890.61191661
0.15100001 649076.54970220 26638.10285670
0.15200001 640779.77952852 16176.48629752
0.15300001 632531.12928356 26300.64559671
0.15400001 624329.78534800 17418.80183322
0.15500001 616180.61741507 24511.66611755
0.15600001 608080.16278212 17184.34621124
0.15700001 600034.57244269 19909.14805330
0.15800001 592036.85699339 15532.08767632
0.15900001 584094.84342517 15420.10459426
0.16000001 576203.88320907 15306.85687997
0.16100001 568370.29571416 23479.37802428
0.16200001 560589.11997087 15077.04509334
0.16300001 552864.60982600 16320.56405252
0.16400001 545195.49764315 13493.58920369
0.16500001 537583.10583596 14724.40196401
0.16600001 530027.15594351 14604.89897157
0.16700001 522528.53655836 13167.71974298
0.16800001 515087.07813446 18280.44126613
0.16900001 507706.00501929 14241.15411323
0.17000001 500382.98452239 14118.30657496
0.17100001 493119.23557895 16539.21994232
0.17200001 485915.00879041 16392.34359564
0.17300001 478771.08273074 14995.11101926
0.17400001 471688.74150149 14858.19605899
0.17500001 464666.36758614 15947.35048871
0.17600001 457703.55727446 13367.23302152
0.17700001 450804.55280723 18054.72319267
0.17800001 443966.33412660 15496.64562463
0.17900001 437189.98789843 14164.95627697
0.18000001 430476.83691744 17531.17001155
0.18100001 423827.13071032 18512.76994390
0.18200001 417237.30635138 12598.48106041
0.18300001 410713.21027442 14736.39068078
0.18400001 404250.71107438 15705.14086716
0.18500001 397852.73047685 16650.13755704
0.18600001 391517.90526440 10982.07776150
0.18700001 385246.28353732 13036.73485082
0.18800001 379037.95559143 16118.58982307
0.18900001 372895.47282848 12753.02577328
0.19000001 366813.04059441 13661.95234245
0.19100001 360799.38727330 13508.32969778
0.19200001 354846.32138027 10272.80148936
0.19300001 348959.85933710 13201.15210251
0.19400001 343136.49210140 10036.74286824
0.19500001 337377.54569403 12894.57040576
0.19600001 331681.69115715 9801.19443686
0.19700001 326050.65515514 10652.07540731
0.19800001 320483.75617476 11479.72868870
0.19900001 314981.91667787 10394.40374161
0.20000001 309541.74804889 9332.68414475
0.20100001 304167.61924230 12902.79101807
0.20200001 298855.51789037 11830.19623483
0.20300001 293608.26298536 11679.73725360
0.20400001 288424.39377585 10642.86063337
0.20500001 283303.35153895 10504.88877160
0.20600001 278246.16007769 12959.31551818
0.20700001 273251.75898440 9378.00081163
0.20800001 268319.99888263 9253.01559886
0.20900001 263453.45089948 9958.54091475
0.21000001 258646.98729928 9004.79528850
0.21100001 253903.21188039 9688.94702339
0.21200001 249221.64350522 8758.89507506
0.21300001 244601.57398081 10992.39525437
0.21400001 240044.22962346 10063.85480275
0.21500001 235548.88464215 12210.85475715
0.21600001 231113.29292602 8275.01184445
0.21700001 226739.16266458 11121.55645452
0.21800001 222425.99737438 8768.03323106
0.21900001 218171.87518948 8639.60666600
0.22000001 213977.51407162 9930.69689761
0.22100001 209845.54813673 7686.64279170
0.22200001 205771.43794287 7571.36041712
0.22300001 201756.49479460 7456.92040021
0.22400001 197798.81549686 7343.28137256
0.22500001 193902.42104092 10517.26781459
0.22600001 190062.32946946 7118.78488691
0.22700001 186281.06197138 8919.13766897
0.22800001 182556.24937438 8779.13044758
0.22900001 178888.14695578 6788.80549802
0.23000001 175277.02137290 7895.35380113
0.23100001 171723.43088087 6573.57324500
0.23200001 168223.71486301 5879.41911252
0.23300001 164780.75646680 6940.56579063
0.23400001 161392.80394311 6258.00626887
0.23500001 158057.94181777 8392.87710747
0.23600001 154778.68214462 8803.81185678
0.23700001 151552.68071557 7033.56024468
0.23800001 148380.17582266 5851.37251033
0.23900001 145260.67726270 5752.32309168
0.24000001 142193.48526477 7196.41262964
0.24100001 139179.45253168 5557.43580246
0.24200001 136216.54176318 5958.11181855
0.24300001 133304.72635611 6342.63918005
0.24400001 130443.20171039 8149.43941235
0.24500001 127632.41904732 5180.60013420
0.24600001 124871.47544565 7402.38141459
0.24700001 122160.71177915 4998.81656248
0.24800001 119497.74847633 4909.56522841
0.24900001 116883.33995877 5259.75054697
0.25000001 114317.27806716 4734.45029513
0.25100001 111798.31416198 5493.76941782
0.25200001 109327.50730575 6223.46864781
0.25300001 106903.19683150 4480.31319117
0.25400001 104524.36928419 5997.08597141
0.25500001 102191.24322540 4316.55831807
0.25600001 99903.74246210  5776.93418119
0.25700001 97660.65686143  4535.36111923
0.25800001 95461.82097341  4079.56111232
0.25900001 93306.92125490  4366.76412134
0.26000001 91195.85863760  4284.38164151
0.26100001 89125.43806646  5253.94482261
0.26200001 87099.79414895  4123.30445011
0.26300001 85114.76853551  3370.54499349
0.26400001 83170.74756673  5289.65979554
0.26500001 81268.48886925  3891.13543118
0.26600001 79405.80208317  3498.22277631
0.26700001 77583.92287394  4054.53600125
0.26800001 75801.44916183  4282.02406578
0.26900001 74057.19675945  2999.31661069
0.27000001 72352.04528161  3529.33293585
0.27100001 70684.76351817  3749.12003442
0.27200001 69055.31728463  3110.59691429
0.27300001 67462.26560622  3327.23909716
0.27400001 65904.79735028  3262.28762323
0.27500001 64385.71536047  3465.23936469
0.27600001 62900.03865192  2874.84640264
0.27700001 61451.16540539  3587.51920615
0.27800001 60036.00497455  3015.00831251
0.27900001 58655.44785863  2956.23471199
0.28000001 57308.38311434  3140.21300137
0.28100001 55994.41801196  2368.56399401
0.28200001 54713.67125791  3251.63363676
0.28300001 53465.18679185  3871.94901073
0.28400001 52248.64492265  2456.99264378
0.28500001 51063.72695499  2409.69738906
0.28600001 49909.03595600  3008.01773944
0.28700001 48785.34639724  2318.27977053
0.28800001 47690.98796870  2687.62575419
0.28900001 46627.80996196  2231.14081229
0.29000001 45592.24706362  2189.11184638
0.29100001 44586.81904359  1952.90276655
0.29200001 43608.87540111  2108.27118106
0.29300001 42658.73856924  2257.50055194
0.29400001 41735.94967522  2216.17903266
0.29500001 40841.18425104  2357.35326656
0.29600001 39971.88386572  1958.82226157
0.29700001 39128.41694117  2098.84838408
0.29800001 38311.33857285  2061.91633960
0.29900001 37519.34524651  1688.37061602
0.30000001 36752.11234741  2654.97272166
0.30100001 36010.17422565  1794.38706661
0.30200001 35291.12970369  1603.98192097
0.30300001 34596.11563150  1893.09953698
0.30400001 33925.05544380  2328.10704005
0.30500001 33275.57750067  1985.55380347
0.30600001 32648.86187904  1804.17619285
0.30700001 32044.58559368  1776.55190942
0.30800001 31461.73639201  1458.25155081
0.30900001 30900.03524704  1436.85170701
0.31000001 30360.04909281  1557.92599296
0.31100001 29838.88907573  2094.69011229
0.31200001 29338.89960899  1652.95368223
0.31300001 28857.99906403  1766.97536635
0.31400001 28398.03710351  1744.34951167
0.31500001 27955.93173181  1457.62234951
0.31600002 27532.56860448  1571.00843896
0.31700002 27126.97739104  1682.14394766
0.31800002 26739.84747857  1407.45193868
0.31900002 26370.43416778  1772.09325998
0.32000002 26017.92217698  1252.76301214
0.32100002 25682.71311738  1984.76016369
0.32200002 25363.99148192  1351.77399004
0.32300002 25060.74126854  1705.13291665
0.32400002 24773.79824170  1570.03953791
0.32500002 24501.89760326  1797.21427430
0.32600002 24245.72228366  2140.65492179
0.32700002 24004.18104970  1417.20691628
0.32800002 23777.80994251  1642.80896672
0.32900002 23564.45265498  1283.08450782
0.33000002 23366.70199633  1508.20385177
0.33100002 23180.07840401  1269.80475510
0.33200002 23009.23316834  1494.10462654
0.33300002 22850.04352483  1831.65957569
0.33400002 22704.36014723  1483.16239685
0.33500002 22570.41011329  1478.81334065
0.33600002 22448.67527855  1702.17088360
0.33700002 22337.96761983  1585.54901674
0.33800002 22240.20023583  1583.27992977
0.33900002 22152.46078378  1694.66333021
0.34000002 22076.25470227  1242.12052965
0.34100002 22010.52718690  1580.79613743
0.34200002 21956.16773657  1355.57386025
0.34300002 21910.49281938  1695.87222454
0.34400002 21875.66280506  1471.68528491
0.34500002 21849.95808401  1587.61802957
0.34600002 21834.80107853  1250.15159496
0.34700002 21826.64956872  1367.22139374
0.34800002 21828.89569855  1371.29129273
0.34900002 21839.34637674  1605.19203471
0.35000002 21858.25660142  1841.33962331
0.35100002 21885.29110174  1848.86947984
0.35200002 21919.43584765  1508.82443804
0.35300002 21961.71114075  1166.16691681
0.35400002 22011.77339953  1875.40318247
0.35500002 22068.70015540  1296.31550853
0.35600002 22132.11710266  1303.69241968
0.35700002 22202.38634384  2503.76322659
0.35800002 22279.86859136  1319.74807852
0.35900002 22363.00646004  1328.36264664
0.36000002 22453.03139557  1458.99804919
0.36100002 22548.02595150  1346.79365388
0.36200002 22649.87533994  1233.28577068
0.36300002 22755.40923202  1490.93448350
0.36400002 22867.06992594  1502.36656530
0.36500002 22983.26143821  1514.13733527
0.36600002 23104.93868455  1526.31232180
0.36700002 23230.83636731  1538.81067386
0.36800002 23362.58655744  1293.11922721
0.36900002 23497.62644452  2217.00116006
0.37000002 23635.88400282  1578.40440848
0.37100002 23778.49510125  1724.89211635
0.37200002 23925.47891335  1606.35673034
0.37300002 24075.30673279  1755.81220320
0.37400002 24229.62257597  2044.37450169
0.37500002 24385.93865925  1925.51380775
0.37600002 24546.54501952  1526.91790527
0.37700002 24708.67412571  2241.57102287
0.37800002 24874.58242483  1979.76810898
0.37900002 25042.92798754  1570.19165920
0.38000002 25213.66410247  1873.24926323
0.38100002 25386.25896966  1600.09597866
0.38200002 25561.19753166  1468.49086776
0.38300002 25737.91911401  1927.25547456
0.38400002 25917.19547753  1496.71810973
0.38500002 26097.10620207  1662.12477275
0.38600002 26279.61771945  2135.74463324
0.38700002 26462.51863435  1694.13052323
0.38800002 26646.76260334  1710.32253872
0.38900002 26832.28404192  1726.65755990
0.39000002 27019.56261057  2693.98561772
0.39100002 27206.67401975  1599.75250815
0.39200002 27395.26208574  2422.42616470
0.39300002 27584.05750267  2445.32681346
0.39400002 27774.19766060  1810.18341829
0.39500002 27963.82841234  2325.47208095
0.39600002 28153.70948546  1844.20882722
0.39700002 28343.58024878  1861.32300312
0.39800002 28534.55623853  1878.57259897
0.39900002 28724.48120858  2240.50964042
0.40000002 28914.28720426  1913.11390351
0.40100002 29103.71134644  2105.94465281
0.40200002 29293.91192009  2656.22558920
0.40300002 29482.56564616  2322.63663165
0.40400002 29670.61157723  2343.23666034
0.40500002 29858.23874731  2000.20350845
0.40600002 30045.23038606  2201.11368237
0.40700002 30231.17142752  2405.19211273
0.40800002 30416.52382943  2612.47535549
0.40900002 30600.03851047  2634.66344059
0.41000002 30783.31012366  2277.34939085
0.41100002 30965.11866882  3253.19552149
0.41200002 31144.87542033  2894.13768557
0.41300002 31323.89647610  3112.34250134
0.41400002 31501.29467565  3725.81580430
0.41500002 31677.69329359  1976.68815518
0.41600002 31851.28713625  2589.98753621
0.41700002 32024.10571759  2409.49382836
0.41800002 32195.94819055  2630.57007156
0.41900002 32364.03157694  2446.72090315
0.42000002 32531.12566648  2259.77475150
0.42100002 32696.69903924  2483.64137671
0.42200002 32860.21233457  2084.98057143
0.42300002 33021.17115189  3150.21987716
0.42400002 33180.00884360  2115.22566401
0.42500002 33337.09937005  2556.28890083
0.42600002 33490.61657897  3003.10373094
0.42700002 33643.28564399  2159.89904069
0.42800002 33792.99141146  3044.41074052
0.42900002 33940.90846710  2408.10756985
0.43000002 34086.33721104  3085.15452717
0.43100002 34227.92356095  3548.75128297
0.43200002 34367.89354066  2232.19479124
0.43300002 34504.92554310  3144.77906302
0.43400002 34639.77300575  2712.29435488
0.43500002 34771.35743921  2501.45157272
0.43600002 34901.36092046  2745.34118010
0.43700002 35027.59807225  2531.44463264
0.43800002 35150.35747746  3240.51160941
0.43900002 35271.42727452  2560.70574148
0.44000002 35388.89833053  3979.65875036
0.44100002 35504.16198296  2589.31865613
0.44200002 35616.17190658  3076.70315596
0.44300002 35725.58042940  2379.32376936
0.44400002 35831.36172022  3587.61526226
0.44500002 35933.47038312  2884.73913907
0.44600002 36033.31303437  2657.63712880
0.44700002 36130.46953837  3156.35796846
0.44800002 36223.32752475  2927.56946929
0.44900002 36314.47694305  3431.71823375
0.45000002 36402.23577628  2955.13364037
0.45100002 36485.54944422  2721.09240651
0.45200002 36566.73919016  2981.65205487
0.45300002 36644.06811570  3244.09950403
0.45400002 36718.86969668  3759.09446335
0.45500002 36790.30605377  3523.03987468
0.45600002 36858.17047462  2779.29047636
0.45700002 36922.86378875  3551.24120751
0.45800002 36983.74687131  3564.86352988
0.45900002 37041.68344229  4344.98967371
0.46000002 37097.05612137  4104.41848380
0.46100002 37147.79255838  3861.51321946
0.46200002 37196.27520607  3874.92215324
0.46300002 37240.89926533  3369.55672523
0.46400002 37281.82833122  3120.48917922
0.46500002 37320.40421518  3130.43565394
0.46600002 37354.77965745  2616.70243903
0.46700002 37385.91775614  3149.38986105
0.46800002 37414.35836743  3421.73030667
0.46900002 37438.80458892  3167.32301834
0.47000002 37459.50904838  2646.51443970
0.47100002 37477.46769005  3714.76677351
0.47200002 37491.87801610  3724.06841985
0.47300002 37503.59219135  3733.10774367
0.47400002 37510.48299139  3741.67085574
0.47500002 37515.33260051  4017.89231195
0.47600002 37517.08073790  3758.08615564
0.47700002 37514.28616792  2958.75189030
