# SAXS profile: number of points = 501, q_min = 0, q_max = 0.5, delta_q = 0.001
#    q    intensity    error
0.00000000 1700912.83420644 331.67800267
0.00100000 1700842.96946827 612.30348355
0.00200000 1700633.32043874 841.81352027
0.00300000 1700284.04758656 1734.28979032
0.00400000 1699795.03003766 1784.78484936
0.00500000 1699166.74974674 1682.17514883
0.00600000 1698398.88813555 2496.64646720
0.00700000 1697492.11125773 2444.38874180
0.00800000 1696445.93157387 2748.24252518
0.00900000 1695261.66959673 3305.76039703
0.01000000 1693938.45662215 3633.49814635
0.01100000 1692477.59022766 3351.10577456
0.01200000 1690878.51359325 3626.93457068
0.01300000 1689142.62066031 5320.79948975
0.01400000 1687269.15457985 3796.35576610
0.01500000 1685259.95439360 4853.54888478
0.01600000 1683113.78913235 5150.32842498
0.01700000 1680832.87800002 4538.24897418
0.01800000 1678416.71095939 5261.83662563
0.01900000 1675866.08727206 6033.11818641
0.02000000 1673181.59900382 6324.62673033
0.02100000 1670364.88143724 6063.42479452
0.02200000 1667414.28492578 6327.83749878
0.02300000 1664332.49649320 10185.71534218
0.02400000 1661119.47388485 6852.11814221
0.02500000 1657776.67471565 9051.46105733
0.02600000 1654304.19195807 9379.90519742
0.02700000 1650703.11425158 7626.24873713
0.02800000 1646973.33565720 9313.63464026
0.02900000 1643117.29724676 10351.63944794
0.03000000 1639135.51178420 11432.97072021
0.03100000 1635028.14129542 8632.94898327
0.03200000 1630796.22434099 8879.68585052
0.03300000 1626442.57674720 9124.34327619
0.03400000 1621965.25067398 9366.84975483
0.03500000 1617367.53641655 8733.78509996
0.03600000 1612649.17848818 9845.22368965
0.03700000 1607812.07413057 12830.34094493
0.03800000 1602857.47727477 13127.40334641
0.03900000 1597786.65861910 9586.72039568
0.04000000 1592598.73386661 12732.82746729
0.04100000 1587297.53922090 11999.96995291
0.04200000 1581883.22659622 13264.09147037
0.04300000 1576356.26781693 12484.74222063
0.04400000 1570720.00432985 10602.36052162
0.04500000 1564974.23055451 15117.65176960
0.04600000 1559119.35435676 12090.97115511
0.04700000 1553158.39945695 13419.28919541
0.04800000 1547091.89036323 19330.91406952
0.04900000 1540922.22741492 11556.91724356
0.05000000 1534649.33407658 12914.07474761
0.05100000 1528276.16941999 20264.94295053
0.05200000 1521801.24856440 16937.64868584
0.05300000 1515229.81825149 12273.36210000
0.05400000 1508560.50160473 18668.43707794
0.05500000 1501797.22621957 16399.62647535
0.05600000 1494938.15827561 15338.06621965
0.05700000 1487988.82506794 15534.60405884
0.05800000 1480947.48977103 17038.30166538
0.05900000 1473816.21325924 15917.21584663
0.06000000 1466598.05942087 16103.24744477
0.06100000 1459294.45368828 14928.58295886
0.06200000 1451905.53066088 19208.71106853
0.06300000 1444434.78477653 19413.20441507
0.06400000 1436880.60902677 14009.58659319
0.06500000 1429248.74690611 15564.51958188
0.06600000 1421537.34901580 17143.74123126
0.06700000 1413749.40395140 15862.26905467
0.06800000 1405888.30995322 16006.03915805
0.06900000 1397953.87574264 16146.36802078
0.07000000 1389946.35163466 20724.10107335
0.07100000 1381870.54478923 16416.62284101
0.07200000 1373725.19909122 24067.66661557
0.07300000 1365515.33281902 18188.66508539
0.07400000 1357240.35239547 18322.74561602
0.07500000 1348902.28089307 18452.98406755
0.07600000 1340501.53482577 17031.07279839
0.07700000 1332043.61083727 21818.87536857
0.07800000 1323526.81220606 17252.17280617
0.07900000 1314952.85136849 18935.32194784
0.08000000 1306326.64569079 17459.05643868
0.08100000 1297647.51318056 20749.38470928
0.08200000 1288916.13922905 16047.00668641
0.08300000 1280136.64712526 19355.66701293
0.08400000 1271308.78692935 21071.94413244
0.08500000 1262436.89928599 24428.15514797
0.08600000 1253520.12912991 16358.43845320
0.08700000 1244561.84054696 18071.03877332
0.08800000 1235561.39214044 18144.21989570
0.08900000 1226524.17110959 23181.30792279
0.09000000 1217449.33642916 18280.00264520
0.09100000 1208339.30557398 30015.14976060
0.09200000 1199195.46718185 23420.28857450
0.09300000 1190020.98237797 20135.15596803
0.09400000 1180814.22407664 20191.92418068
0.09500000 1171579.62902751 18557.82219606
0.09600000 1162317.87931460 23676.41631461
0.09700000 1153032.81421707 16949.58316584
0.09800000 1143724.70025009 25476.46889592
0.09900000 1134395.24873538 37435.04496856
0.10000000 1125044.32606192 25566.63351208
0.10100000 1115675.36456472 17069.83388067
0.10200000 1106290.21954499 23929.05857429
0.10300000 1096889.63061109 17111.47904247
0.10400000 1087476.46351927 20553.30612745
0.10500000 1078053.44719386 22283.36580192
0.10600001 1068617.10217389 20581.56635630
0.10700001 1059174.34974365 17158.62527329
0.10800001 1049723.51449430 27460.76843152
0.10900001 1040268.34461730 18880.87134344
0.11000001 1030809.29999080 22311.86834851
0.11100001 1021348.22553521 17158.65099671
0.11200001 1011887.13704438 22296.93411445
0.11300001 1002425.64189573 17141.47928345
0.11400001 992968.22453200 25693.05401951
0.11500001 983514.59114365 17113.15469172
0.11600001 974066.46205085 20513.84065682
0.11700001 964626.24986939 22196.05105482
0.11800001 955192.83063379 18755.21211283
0.11900001 945770.04297241 17023.86157536
0.12000001 936358.11215064 28891.33091133
0.12100001 926960.94020664 20356.06320587
0.12200001 917576.15553395 16929.28086716
0.12300001 908208.20838835 16892.67347191
0.12400001 898856.13764033 21909.61938731
0.12500001 889522.64658878 26899.16610035
0.12600001 880210.34344794 23475.21096599
0.12700001 870918.76115509 28426.78970375
0.12800001 861648.38350130 23342.05580914
0.12900001 852402.19392134 16621.84356489
0.13000001 843181.02655622 16568.50795278
0.13100001 833984.69389882 18164.18748933
0.13200001 824817.38688118 19746.12917277
0.13300001 815679.24622023 19674.18434633
0.13400001 806569.42926415 19599.63805516
0.13500001 797491.56633707 19522.59446439
0.13600001 788444.74874884 17822.79438583
0.13700001 779432.39813285 19361.10168256
0.13800001 770452.73435321 17670.33429565
0.13900001 761510.93398479 17590.90340460
0.14000001 752604.26528388 19101.09715372
0.14100001 743735.80796772 25346.51753096
0.14200001 734904.84278292 15763.70962119
0.14300001 726116.37151698 17252.52580100
0.14400001 717364.24436028 18723.20766097
0.14500001 708657.54211616 18623.52108532
0.14600001 699991.30378794 16978.28987432
0.14700001 691371.10248461 23022.65879887
0.14800001 682793.26030596 18312.51610537
0.14900001 674260.38163644 19722.11709337
0.15000001 665774.62930660 24127.67370448
0.15100001 657335.63389626 16485.97847601
0.15200001 648945.77080500 16382.63675702
0.15300001 640604.27435052 20717.14321012
0.15400001 632310.24226237 16171.33520900
0.15500001 624068.69281931 16063.52891125
0.15600001 615876.38689903 18855.05647478
0.15700001 607738.84913226 15843.75254465
0.15800001 599649.38913644 14301.63860592
0.15900001 591616.18214371 14198.78904164
0.16000001 583634.39483432 15504.24843061
0.16100001 575710.18502040 16787.70978765
0.16200001 567838.76898087 19437.12197977
0.16300001 560024.36700106 16531.92009431
0.16400001 552265.62848810 21869.71992059
0.16500001 544564.00826714 18983.50222443
0.16600001 536919.15565025 14794.80803245
0.16700001 529332.09685343 14673.08641756
0.16800001 521802.29198169 17195.99534419
0.16900001 514333.68475335 18361.71341270
0.17000001 506923.24285784 14302.83997261
0.17100001 499572.66783160 15466.77052643
0.17200001 492282.01389902 17884.60640951
0.17300001 485052.01469728 13925.84399960
0.17400001 477884.07229268 17562.24048615
0.17500001 470776.50455820 14914.20036877
0.17600001 463728.97458929 13543.20534251
0.17700001 456745.67106161 13414.62099266
0.17800001 449823.81436215 15701.10098191
0.17900001 442964.16337713 13156.03627371
0.18000001 436168.02023114 16578.74723208
0.18100001 429436.01524354 15240.68490091
0.18200001 422764.33708326 17407.32240169
0.18300001 416159.07127017 13783.18909158
0.18400001 409615.64378134 15913.56851267
0.18500001 403137.42961146 13497.04178102
0.18600001 396722.76822483 20030.53351398
0.18700001 390372.07897997 13210.19177680
0.18800001 384084.80041498 18510.96783057
0.18900001 377864.29059897 11846.04606997
0.19000001 371704.29971407 12779.19442797
0.19100001 365613.57255355 16847.47421931
0.19200001 359584.26248562 10409.96489084
0.19300001 353621.82436490 15435.59336290
0.19400001 347723.02802488 11187.98895538
0.19500001 341889.37840695 11056.70302017
0.19600001 336119.53230550 10925.56591389
0.19700001 330414.82185632 11775.98480746
0.19800001 324775.02364204 11633.44189664
0.19900001 319200.82710856 14364.03789873
0.20000001 313688.88924765 13240.80864092
0.20100001 308243.58168967 10273.75906328
0.20200001 302861.08001108 9222.12032221
0.20300001 297543.93874853 10015.32945165
0.20400001 292290.86556396 13481.91681137
0.20500001 287101.36302583 10645.71904419
0.20600001 281976.06366423 8755.35719062
0.20700001 276914.41667342 11231.64927118
0.20800001 271915.89512511 10229.47645816
0.20900001 266983.30043330 10091.96923344
0.21000001 262111.41342193 9125.40928966
0.21100001 257303.00234782 9000.45944761
0.21200001 252557.22490809 9683.04446074
0.21300001 247873.80541710 10343.77438906
0.21400001 243253.73698788 10198.41340536
0.21500001 238696.38111634 10053.89204794
0.21600001 234199.17504872 9147.82020990
0.21700001 229764.49388726 8264.62923587
0.21800001 225391.03881737 9625.32476779
0.21900001 221077.44012222 8754.66704277
0.22000001 216824.48015964 8625.27822858
0.22100001 212634.45404221 7788.80041985
0.22200001 208503.05871816 11159.08423025
0.22300001 204431.56228610 9616.46114466
0.22400001 200417.77536861 9469.74033396
0.22500001 196465.91988636 9324.27299873
0.22600001 192571.40937924 11146.99655904
0.22700001 188736.11047003 6454.77528332
0.22800001 184958.08709445 10800.62800664
0.22900001 181237.38092129 6877.95893123
0.23000001 177574.40197516 7383.54398331
0.23100001 173969.55061376 7264.96877721
0.23200001 170419.39225917 7743.00545349
0.23300001 166926.58410418 5859.12337916
0.23400001 163489.63678108 5763.00996910
0.23500001 160106.41425670 6801.32079930
0.23600001 156779.27893786 6130.85399284
0.23700001 153506.25110346 6028.19076595
0.23800001 150287.51933670 5926.58860536
0.23900001 147122.34814447 5826.04526209
0.24000001 144010.27815154 8329.55488228
0.24100001 140951.90692516 6651.52080242
0.24200001 137945.41305673 6536.54370688
0.24300001 134990.73242435 5434.72714448
0.24400001 132086.94101356 6310.45390543
0.24500001 129234.66414267 4768.75933245
0.24600001 126432.65688176 4684.33015906
0.24700001 123681.93396548 5061.06497729
0.24800001 120979.51306912 4970.44352958
0.24900001 118326.19525676 5324.67903845
0.25000001 115722.04968588 5228.32245215
0.25100001 113165.69753820 5560.96264011
0.25200001 110658.11977135 5039.37101280
0.25300001 108197.61708611 5771.26116841
0.25400001 105783.34874124 5260.07726502
0.25500001 103415.39532203 5956.72705237
0.25600001 101093.86295694 4286.88546151
0.25700001 98817.34603130  4206.65461958
0.25800001 96585.63370243  4127.58725157
0.25900001 94398.61072500  4049.70059171
0.26000001 92256.01300932  5056.55231229
0.26100001 90154.68387794  4251.69509286
0.26200001 88098.89651102  3475.50163181
0.26300001 86084.27942032  4090.72515162
0.26400001 84111.33899716  3677.76847168
0.26500001 82180.78210956  3606.91469746
0.26600001 80290.39954400  3537.19371929
0.26700001 78441.47957160  3784.01715359
0.26800001 76632.60021160  4328.97579080
0.26900001 74862.56582576  3638.32087130
0.27000001 73132.18890237  2972.82361956
0.27100001 71440.36320848  4372.15043526
0.27200001 69786.93499376  2857.77512323
0.27300001 68170.52065571  4202.71279731
0.27400001 66590.26906281  3021.53360172
0.27500001 65049.02712309  3500.93880545
0.27600001 63541.79863188  3696.22660134
0.27700001 62071.79270640  3623.75142970
0.27800001 60636.32398419  2791.39330672
0.27900001 59235.79931200  3731.85553328
0.28000001 57869.50821930  3170.95985295
0.28100001 56536.82405502  3348.11087900
0.28200001 55237.82764787  2579.33048410
0.28300001 53971.77117359  3218.87658514
0.28400001 52738.12394255  3156.37686736
0.28500001 51536.79099834  2432.02128232
0.28600001 50366.04112731  2601.90980779
0.28700001 49226.90936614  2551.92310233
0.28800001 48117.61370589  2920.25811404
0.28900001 47040.14011681  2046.24619194
0.29000001 45990.64906227  2609.73950457
0.29100001 44971.84400754  2166.74354685
0.29200001 43981.10220417  1932.96953337
0.29300001 43018.63619449  2086.83414058
0.29400001 42083.93705209  2607.10002379
0.29500001 41177.69777899  2559.60581511
0.29600001 40297.50199560  2513.35531844
0.29700001 39443.67999964  2115.75909534
0.29800001 38616.66052189  2078.34876767
0.29900001 37815.17054705  1871.85103069
0.30000001 37038.86789334  3511.84042556
0.30100001 36288.41899771  2465.79818763
0.30200001 35561.26785989  2586.01552119
0.30300001 34858.55459361  1748.50518119
0.30400001 34180.29460411  1720.12340739
0.30500001 33523.95077634  1692.62435483
0.30600001 32890.78852115  1817.54505973
0.30700001 32280.58034344  1640.49917072
0.30800001 31692.11344511  2056.50133882
0.30900001 31125.34007787  1447.32838214
0.31000001 30580.53060845  1569.24000247
0.31100001 30054.93944699  1547.22835599
0.31200001 29550.93091298  1526.15789926
0.31300001 29066.49633031  1916.64485877
0.31400001 28603.28207380  1621.80617037
0.31500001 28158.25987529  2135.52253005
0.31600002 27732.41163471  1450.54385923
0.31700002 27324.68598231  1433.72634138
0.31800002 26935.67611274  1675.53381193
0.31900002 26564.67696500  1275.10455470
0.32000002 26211.10176958  1388.27107096
0.32100002 25875.07629204  1374.74286849
0.32200002 25555.78976186  1485.81368711
0.32300002 25252.30939992  1349.98852444
0.32400002 24965.50582495  1338.77531326
0.32500002 24694.04776389  1690.55458997
0.32600002 24438.49645238  1678.19163085
0.32700002 24197.96442853  1547.70187814
0.32800002 23972.91490119  1419.67608767
0.32900002 23761.08761892  1293.79128212
0.33000002 23565.11380458  1404.00954696
0.33100002 23380.52120735  1280.78501239
0.33200002 23212.03746038  1159.44132605
0.33300002 23055.32158212  1155.07166596
0.33400002 22912.42305806  1611.88903847
0.33500002 22781.57718122  1263.01069874
0.33600002 22663.01687714  1260.17711313
0.33700002 22555.87564169  1372.29953903
0.33800002 22461.73690203  1827.48700089
0.33900002 22377.96956100  1141.27650166
0.34000002 22305.79764655  1369.12992438
0.34100002 22244.45132632  1483.48252921
0.34200002 22194.56160902  1256.10127375
0.34300002 22153.57050269  1257.43672128
0.34400002 22123.70470793  1602.86248200
0.34500002 22102.89324043  1376.56825621
0.34600002 22092.95687221  1149.93845966
0.34700002 22090.11529610  1268.41448038
0.34800002 22097.96556704  1503.87711789
0.34900002 22113.98907166  1625.37827375
0.35000002 22138.69113037  1631.84300051
0.35100002 22171.68098550  1287.73129263
0.35200002 22211.80588589  1411.33821283
0.35300002 22260.30956886  1773.03374114
0.35400002 22316.65339576  1544.87040449
0.35500002 22379.94087061  1434.10667891
0.35600002 22449.84405907  1683.06488883
0.35700002 22526.74580672  1572.59219925
0.35800002 22610.92710459  1461.11817870
0.35900002 22700.84865238  1471.01506235
0.36000002 22797.68830582  1975.19180837
0.36100002 22899.64514350  1492.14094823
0.36200002 23008.46099929  1628.65398898
0.36300002 23121.10785391  1388.65380348
0.36400002 23239.84839303  1399.61993577
0.36500002 23363.27649736  1539.17272855
0.36600002 23492.15823159  1551.89204629
0.36700002 23625.33209091  1564.94207183
0.36800002 23764.46288223  1446.89939112
0.36900002 23906.80564886  1724.87610927
0.37000002 24052.41742809  2007.77563992
0.37100002 24202.41415438  1485.54425117
0.37200002 24356.75509143  1771.58866550
0.37300002 24514.04122906  1512.76155591
0.37400002 24675.79978198  1943.21932488
0.37500002 24839.57510936  1821.23773329
0.37600002 25007.57556006  1979.84985088
0.37700002 25177.19749756  1713.05659888
0.37800002 25350.44947922  1873.52505751
0.37900002 25526.15604549  1891.48825258
0.38000002 25704.30018232  1469.00082501
0.38100002 25884.22949029  1631.48306206
0.38200002 26066.51132622  2096.52960529
0.38300002 26250.52782526  1965.63961668
0.38400002 26436.98897129  2290.10427813
0.38500002 26624.19681136  1541.54106841
0.38600002 26813.80122800  1867.84948203
0.38700002 27003.82700986  1728.78508707
0.38800002 27195.10279147  2062.88461998
0.38900002 27387.62639273  2082.82908584
0.39000002 27581.77004733  1941.20506790
0.39100002 27775.73234509  1796.53445319
0.39200002 27971.18919716  2638.24269007
0.39300002 28166.64036326  1831.11337677
0.39400002 28363.48462911  1680.53654389
0.39500002 28559.58110459  2544.65879698
0.39600002 28756.00954154  1883.66249426
0.39700002 28952.18071199  2419.82337855
0.39800002 29149.54414124  1919.06032946
0.39900002 29345.74073517  2465.04233854
0.40000002 29541.52815161  1954.61530276
0.40100002 29736.99522076  1793.14089677
0.40200002 29933.08998095  2352.29198760
0.40300002 30127.45078283  2190.86832473
0.40400002 30321.30849750  2578.82740990
0.40500002 30514.43639389  2601.66097021
0.40600002 30706.99007350  2624.52656593
0.40700002 30898.20197340  2836.45507555
0.40800002 31088.70662540  2860.93836276
0.40900002 31277.31293800  2692.97677156
0.41000002 31465.61763241  2133.84096085
0.41100002 31652.24278535  2151.71956650
0.41200002 31836.69643382  2169.51178128
0.41300002 32020.38154123  2783.85210310
0.41400002 32202.07963642  2004.57955235
0.41500002 32382.81359841  2222.75643072
0.41600002 32560.64168003  3055.00235039
0.41700002 32737.47522371  2257.90377317
0.41800002 32913.21527082  2482.31481335
0.41900002 33085.02954330  2709.66404799
0.42000002 33255.68295632  2520.11577384
0.42100002 33424.74495776  2750.52239291
0.42200002 33591.56486462  2344.52338082
0.42300002 33755.62810393  2361.54385405
0.42400002 33917.49592886  2378.46451472
0.42500002 34077.44332270  2830.81335096
0.42600002 34233.61540712  2631.19580487
0.42700002 34388.77357860  2428.53530520
0.42800002 34540.92372793  2889.52111139
0.42900002 34691.03237895  2908.84320282
0.43000002 34838.52073901  3378.46570876
0.43100002 34982.05046113  2946.88807049
0.43200002 35123.70085912  2281.28447890
0.43300002 35262.34002317  2754.69413315
0.43400002 35398.62371517  3233.66442962
0.43500002 35531.40590740  3020.88027340
0.43600002 35662.51873354  2571.44603514
0.43700002 35789.69751019  3527.07485677
0.43800002 35913.21809636  2601.37407609
0.43900002 36034.91744440  2853.96559684
0.44000002 36152.81909606  2630.66000619
0.44100002 36268.31263763  3606.88386274
0.44200002 36380.46813325  2659.23044422
0.44300002 36489.78441040  3159.28568397
0.44400002 36595.36878421  3175.56327674
0.44500002 36697.04549578  2700.53570602
0.44600002 36796.38923415  2713.91781658
0.44700002 36892.82000665  3718.79643291
0.44800002 36984.67226410  2740.00957454
0.44900002 37074.86052849  3003.06384513
0.45000002 37161.46983976  3268.16561994
0.45100002 37243.40231208  2525.10279643
0.45200002 37322.98938398  3296.92642348
0.45300002 37398.53522105  3820.26055388
0.45400002 37471.57577698  2813.17868478
0.45500002 37540.96188233  2824.58210589
0.45600002 37606.74725974  3093.53117620
0.45700002 37669.03113259  4658.15261062
0.45800002 37727.36748007  4415.79993599
0.45900002 37782.64208793  3128.40291315
0.46000002 37835.14044708  3401.19011169
0.46100002 37882.93355526  3412.87364574
0.46200002 37928.24846838  2897.52867907
0.46300002 37969.64398844  3171.22481621
0.46400002 38007.12523390  2916.09682178
0.46500002 38042.16092597  3456.89132718
0.46600002 38072.71713216  3200.39275381
0.46700002 38099.95920005  2942.07898887
0.46800002 38124.40406783  2950.25714862
0.46900002 38144.69664861  2689.20124119
0.47000002 38160.98658112  4044.11074461
0.47100002 38174.46043325  3513.57750481
0.47200002 38184.24119302  2980.08924516
0.47300002 38191.30140914  3530.02215656
0.47400002 38193.20942080  2993.39293023
0.47500002 38193.02098663  4363.17092432
0.47600002 38189.64221866  3278.96283631
0.47700002 38181.49029149  2737.61298366
