# SAXS profile: number of points = 501, q_min = 0, q_max = 0.5, delta_q = 0.001
#    q    intensity    error
0.00000000 1700912.83420644 306.16431016
0.00100000 1700842.97808772 663.32877721
0.00200000 1700633.35533855 1300.98455803
0.00300000 1700284.13281290 1020.17051603
0.00400000 1699795.16969957 1402.33106829
0.00500000 1699166.96509627 1529.25032912
0.00600000 1698399.20422388 2318.31500815
0.00700000 1697492.53763431 2444.38935578
0.00800000 1696446.48787207 2290.20285532
0.00900000 1695262.37786731 3051.47241060
0.01000000 1693939.32818985 3633.50001586
0.01100000 1692478.63106548 3351.10783541
0.01200000 1690879.77196118 3297.21569989
0.01300000 1689144.11402754 4966.08391427
0.01400000 1687270.85454032 4175.99555011
0.01500000 1685261.92715242 4853.55456632
0.01600000 1683116.04335163 4291.94610241
0.01700000 1680835.40814107 4992.08138612
0.01800000 1678419.54529224 4783.49591933
0.01900000 1675869.26306131 5530.36881765
0.02000000 1673185.05077364 5270.53314835
0.02100000 1670368.73583188 7717.10390943
0.02200000 1667418.49089321 5752.59405494
0.02300000 1664337.08280869 6590.77514792
0.02400000 1661124.45728060 6229.21699884
0.02500000 1657782.07578451 9051.49054717
0.02600000 1654310.04257729 8039.94717466
0.02700000 1650709.43604887 10399.46992342
0.02800000 1646980.07976644 9313.67277820
0.02900000 1643124.59257543 11091.09150912
0.03000000 1639143.28339448 11433.02492720
0.03100000 1635036.46509503 10202.62801165
0.03200000 1630805.05116588 12108.72806261
0.03300000 1626451.98347886 10783.37714758
0.03400000 1621975.19027649 10218.44417022
0.03500000 1617378.09415104 13974.14737876
0.03600000 1612660.30523186 12530.37115073
0.03700000 1607823.85158391 13746.89456680
0.03800000 1602869.84390572 11252.14682496
0.03900000 1597799.67398710 9586.79848789
0.04000000 1592612.50819409 14691.85106890
0.04100000 1587311.85573636 13000.08470125
0.04200000 1581898.27747382 10203.24436306
0.04300000 1576372.08767324 11444.46188774
0.04400000 1570736.43707916 13783.21287549
0.04500000 1564991.47554920 12958.13001965
0.04600000 1559137.37146160 14289.49467372
0.04700000 1553177.12057847 13419.45094591
0.04800000 1547111.48245516 17056.90488769
0.04900000 1540942.56645315 13868.48374362
0.05000000 1534670.49729327 16436.32179139
0.05100000 1528298.14516267 19073.16174013
0.05200000 1521823.96158509 12098.50105841
0.05300000 1515253.48221107 15955.61991150
0.05400000 1508585.03956087 13690.40987245
0.05500000 1501822.57949374 12615.31025624
0.05600000 1494964.49587610 15338.33644344
0.05700000 1488016.08420699 18124.03675164
0.05800000 1480975.58590940 15727.96145673
0.05900000 1473845.36055766 17243.99152392
0.06000000 1466628.10803548 13419.64781547
0.06100000 1459325.44494487 14928.89999943
0.06200000 1451937.51157086 23325.37721370
0.06300000 1444467.79932497 15253.58067406
0.06400000 1436914.46367169 19613.88334640
0.06500000 1429283.66540128 24054.84521394
0.06600000 1421573.28545524 17144.17462474
0.06700000 1413786.42371696 20188.87107550
0.06800000 1405926.26201412 21827.00623947
0.06900000 1397992.92455879 14678.92639512
0.07000000 1389986.52272946 22205.03574043
0.07100000 1381911.69212939 17909.57636884
0.07200000 1373767.51747771 18051.30602530
0.07300000 1365558.73839240 22736.55405957
0.07400000 1357284.89301081 15269.45576196
0.07500000 1348947.90578508 15378.00684676
0.07600000 1340548.26729218 17031.66653440
0.07700000 1332091.47741565 15585.47101654
0.07800000 1323575.76816722 17252.81094715
0.07900000 1315003.02452395 18936.04444132
0.08000000 1306377.96281683 19046.99159138
0.08100000 1297700.00883918 15961.71085762
0.08200000 1288969.91011543 24071.51420097
0.08300000 1280191.60056473 22582.58089381
0.08400000 1271364.77683847 21072.87216523
0.08500000 1262494.24635021 24429.26481371
0.08600000 1253578.63929565 19631.04241308
0.08700000 1244621.67652486 19714.80828192
0.08800000 1235622.34332807 19794.67086975
0.08900000 1226586.26245367 16558.91532089
0.09000000 1217512.81134489 19942.86078666
0.09100000 1208403.93662515 20011.17013066
0.09200000 1199261.26086449 25094.54306270
0.09300000 1190088.22032833 16780.24469517
0.09400000 1180882.59120916 20193.09325870
0.09500000 1171649.27121051 20246.10035814
0.09600000 1162388.67775712 23677.85847896
0.09700000 1153105.05133811 28816.09658766
0.09800000 1143798.13968279 20382.48380748
0.09900000 1134470.06317729 22122.16727220
0.10000000 1125120.43196683 20454.69041508
0.10100000 1115752.78318422 23899.42573984
0.10200000 1106368.91989260 23930.76086289
0.10300000 1096969.64989043 22246.54554627
0.10400000 1087557.79343678 20554.84326296
0.10500000 1078136.04217971 18856.60026491
0.10600001 1068700.97615360 29159.50750641
0.10700001 1059259.55436552 22308.00726470
0.10800001 1049809.95084033 20597.27220483
0.10900001 1040356.13640036 29181.99099950
0.11000001 1030898.56677689 18880.90813923
0.11100001 1021438.64408435 20592.20403408
0.11200001 1011978.94218218 17153.04387750
0.11300001 1002518.71263788 20571.68495186
0.11400001 993062.56519333 20556.39606739
0.11500001 983610.21922336 20537.78234447
0.11600001 974163.22154531 18806.22187755
0.11700001 964724.36997423 18783.18436799
0.11800001 955292.31521930 20462.36235574
0.11900001 945870.78690556 22133.37745611
0.12000001 936460.32145300 16996.75563500
0.12100001 927064.27994747 22054.86025891
0.12200001 917680.74470128 18624.33159113
0.12300001 908314.26476623 23652.50456889
0.12400001 898963.48121570 23597.79249378
0.12500001 889631.19649444 21858.23952784
0.12600001 880320.23381738 18447.11136893
0.12700001 871029.96692832 18396.15376847
0.12800001 861760.87972307 21677.59595108
0.12900001 852515.96593462 18286.46833118
0.13000001 843296.08157832 19884.92254089
0.13100001 834100.92634512 21469.75885616
0.13200001 824934.69412386 16457.44792358
0.13300001 815797.91612896 21316.80055339
0.13400001 806689.32674468 17969.00560040
0.13500001 797612.72551812 21152.69047805
0.13600001 788567.08175497 22687.07601180
0.13700001 779555.98174767 22591.53341631
0.13800001 770577.53887695 19279.85093186
0.13900001 761636.94685212 20792.68962961
0.14000001 752731.54455048 17512.30020986
0.14100001 743864.18375891 17428.73864746
0.14200001 735034.25684768 17343.13410832
0.14300001 726247.16182969 17255.63337898
0.14400001 717496.11826714 20287.20370095
0.14500001 708790.49917678 17074.76393062
0.14600001 700125.29857013 21612.86898643
0.14700001 691506.35519331 19956.87435237
0.14800001 682929.47507862 21368.86428336
0.14900001 674397.67785911 18208.73816130
0.15000001 665913.17649741 18099.52099119
0.15100001 657475.07665874 20986.60543720
0.15200001 649086.26926732 17875.83669913
0.15300001 640745.79803326 16281.35149633
0.15400001 632452.84077981 23527.24678728
0.15500001 624212.35122345 16067.22667875
0.15600001 616020.87911488 15958.02162661
0.15700001 607884.39270832 23050.97725943
0.15800001 599796.11783298 21457.70712825
0.15900001 591763.75210929 19883.26300937
0.16000001 583782.81086434 16918.02665742
0.16100001 575859.59964668 13993.38893196
0.16200001 567989.01314397 18053.53163502
0.16300001 560175.41826519 15158.34753385
0.16400001 552417.46572350 19141.26609097
0.16500001 544717.02303665 21701.52722234
0.16600001 537072.74062901 13453.67278795
0.16700001 529486.49938780 16011.67249747
0.16800001 521957.66111277 13231.62733396
0.16900001 514489.69979478 15743.38555709
0.17000001 507079.98753262 14307.26252382
0.17100001 499730.25623462 12893.04121968
0.17200001 492440.18272163 14056.70567959
0.17300001 485210.85738967 16463.20516870
0.17400001 478043.64470584 12548.64626615
0.17500001 470936.79079416 16162.55142337
0.17600001 463889.78770788 14779.52933440
0.17700001 456907.20016410 12199.42282057
0.17800001 449985.78226572 16914.96635430
0.17900001 443126.69078089 11964.42121621
0.18000001 436331.10364410 14215.66802820
0.18100001 429599.71982449 12900.88019572
0.18200001 422928.42004646 11609.38567868
0.18300001 416323.62718743 16086.74571445
0.18400001 409780.72928580 11371.41577487
0.18500001 403302.99872232 14627.80045471
0.18600001 396888.71962700 14472.54784493
0.18700001 390538.20503955 12114.49569267
0.18800001 384251.42251832 10893.52834307
0.18900001 378031.22209246 12928.66840641
0.19000001 371871.45560811 17046.58833051
0.19100001 365781.05550320 12641.39387550
0.19200001 359751.94084543 10414.81917959
0.19300001 353789.74455870 10295.28205314
0.19400001 347891.20913246 12210.98201757
0.19500001 342057.69312432 13073.44564900
0.19600001 336287.96654912 12918.50284547
0.19700001 330583.30405365 10800.15705382
0.19800001 324943.68451113 11639.48332926
0.19900001 319369.54604047 13413.52156762
0.20000001 313857.57060993 11355.36744134
0.20100001 308412.34594765 10279.38397626
0.20200001 303029.85876088 10149.98559892
0.20300001 297712.73534310 12754.01418491
0.20400001 292459.49281437 9892.44281202
0.20500001 287269.85768274 8876.63902197
0.20600001 282144.41585375 9636.64297899
0.20700001 277082.57980454 8644.97689854
0.20800001 272083.93388411 9382.81490352
0.20900001 267151.06608581 10939.83667335
0.21000001 262278.92035319 9131.24104375
0.21100001 257470.27541448 9825.06617428
0.21200001 252724.21322510 11304.35459197
0.21300001 248040.47436843 10350.72948473
0.21400001 243419.98859662 8635.32450371
0.21500001 238862.21872292 8513.04987776
0.21600001 234364.63800928 8391.42626066
0.21700001 229929.30958622 9022.42653474
0.21800001 225555.57386962 7409.50095194
0.21900001 221241.48000822 8761.16302257
0.22000001 216987.90899061 10070.40933241
0.22100001 212797.45761278 9212.00237563
0.22200001 208665.29215995 7677.83978807
0.22300001 204593.11815631 10311.49364266
0.22400001 200578.67293512 8123.43663800
0.22500001 196626.20276735 7332.19144791
0.22600001 192730.81358657 9187.47831813
0.22700001 188894.89094514 7752.24669099
0.22800001 185116.02695351 6994.60940921
0.22900001 181394.55078983 6883.92352802
0.23000001 177730.67650432 6774.20505533
0.23100001 174125.16765707 8483.37856945
0.23200001 170573.91232057 7153.87022106
0.23300001 167080.29966227 7037.42255461
0.23400001 163642.23142398 6922.06671662
0.23500001 160257.96945346 9077.01181915
0.23600001 156929.92036465 6136.74482611
0.23700001 153655.74102697 6034.06123553
0.23800001 150436.00805822 7550.38360157
0.23900001 147269.66586650 5831.87904416
0.24000001 144156.41562117 6253.50560544
0.24100001 141096.88686611 7682.72585326
0.24200001 138089.07841198 7550.02071931
0.24300001 135133.17562095 7913.39913869
0.24400001 132228.21440485 6803.14195294
0.24500001 129374.62053510 6206.10084064
0.24600001 126571.40763148 5627.36504950
0.24700001 123819.16434222 4606.07313143
0.24800001 121115.39656767 4976.02630338
0.24900001 118460.69692150 5330.73161365
0.25000001 115855.05830436 5670.52609697
0.25100001 113297.22586727 4710.89887443
0.25200001 110788.13902700 4204.41007498
0.25300001 108326.11540556 4127.22519221
0.25400001 105910.24635712 7291.92080668
0.25500001 103540.80646454 6759.14416579
0.25600001 101217.62846654 3901.93976200
0.25700001 98939.37539154  4211.84940969
0.25800001 96706.13966917  4508.44044469
0.25900001 94517.35425519  4054.79468940
0.26000001 92372.94344113  3978.04099752
0.26100001 90269.93431251  3902.36944498
0.26200001 88212.39315440  3479.97907460
0.26300001 86196.03995834  4437.37234702
0.26400001 84221.17869973  4352.12961524
0.26500001 82288.78033530  3939.98698889
0.26600001 80396.59091385  3863.86034216
0.26700001 78545.69004526  3157.53688923
0.26800001 76734.96416192  4644.38392568
0.26900001 74962.93353651  4553.99842785
0.27000001 73230.48952563  3572.18344810
0.27100001 71536.74514462  4669.91894403
0.27200001 69881.31334170  4292.45987515
0.27300001 68262.85865709  3366.72434829
0.27400001 66680.47533078  3300.68368508
0.27500001 65137.20928215  3775.35282866
0.27600001 63627.88183704  3965.60792317
0.27700001 62155.78796154  2851.08612873
0.27800001 60718.03407020  2541.04984610
0.27900001 59315.39049896  2989.49582263
0.28000001 57946.89552532  4640.67734778
0.28100001 56611.95344210  3592.02861591
0.28200001 55310.85958543  3521.91915079
0.28300001 54042.46526143  2532.43004201
0.28400001 52806.63897698  2257.48392311
0.28500001 51602.91196193  2656.51803354
0.28600001 50429.97183021  2171.01039005
0.28700001 49288.42478560  2555.11206183
0.28800001 48176.86959603  2506.16087501
0.28900001 47097.04598510  2868.21023626
0.29000001 46045.21555129  2612.83588013
0.29100001 45023.95115064  2169.25406912
0.29200001 44030.84754298  2322.18700934
0.29300001 43065.94043655  3418.57451367
0.29400001 42128.80994204  2609.87989945
0.29500001 41220.12670507  2562.24319728
0.29600001 40337.62326964  1797.04120173
0.29700001 39481.29945369  1941.29558604
0.29800001 38651.70072948  2426.94040369
0.29900001 37847.77472470  2043.77993188
0.30000001 37069.02381385  2008.39980531
0.30100001 36316.10576096  1645.11966885
0.30200001 35586.43176680  1779.14374041
0.30300001 34881.13528644  2067.75379767
0.30400001 34200.31586636  2190.53033494
0.30500001 33541.47001441  1539.55354655
0.30600001 32905.76000716  1666.84135208
0.30700001 32292.93848465  1641.12721149
0.30800001 31701.97905877  1763.26415873
0.30900001 31132.62247353  1737.20041627
0.31000001 30585.20259425  1712.15972229
0.31100001 30057.07954789  1828.67280627
0.31200001 29550.49159899  1803.61434014
0.31300001 29063.47896780  1368.88992420
0.31400001 28597.70267085  1486.36566669
0.31500001 28150.03178637  2668.62313970
0.31600002 27721.65080322  1845.43038135
0.31700002 27311.18038542  1433.01770267
0.31800002 26919.64053224  1674.53631860
0.31900002 26546.14075894  1656.47926179
0.32000002 26189.96013590  1261.04664025
0.32100002 25851.32519369  1872.92859897
0.32200002 25529.44247912  1360.59170135
0.32300002 25223.33527143  1348.43956746
0.32400002 24934.00624652  1337.08614828
0.32500002 24659.88181338  1567.62876111
0.32600002 24401.84177225  1436.29247473
0.32700002 24158.65719069  1307.46658907
0.32800002 23931.05215607  1417.19697579
0.32900002 23716.64775549  1291.37153144
0.33000002 23518.19672476  1634.74993175
0.33100002 23331.04211329  1510.45173794
0.33200002 23160.04152060  1850.95060598
0.33300002 23000.82149398  1267.57533256
0.33400002 22855.38833998  1378.17998217
0.33500002 22721.97974656  1603.26296684
0.33600002 22601.04494967  1485.22773920
0.33700002 22491.29324113  1254.33948346
0.33800002 22394.69631213  1480.40146982
0.33900002 22308.52827556  1820.37599349
0.34000002 22233.82394459  1478.43819321
0.34100002 22170.05847001  1251.05645871
0.34200002 22117.79901093  1365.55297561
0.34300002 22074.35259825  1822.45863682
0.34400002 22042.03260818  1140.67524150
0.34500002 22018.94795604  1599.89683426
0.34600002 22006.60245404  1374.53245438
0.34700002 22001.40210705  1493.01521770
0.34800002 22006.86833044  1267.26557283
0.34900002 22020.61533936  1618.51530410
0.35000002 22043.09567674  1624.79665929
0.35100002 22073.76014615  1748.24188638
0.35200002 22111.63660687  1639.13569930
0.35300002 22157.83659397  1411.89741464
0.35400002 22212.05594009  1892.46725573
0.35500002 22273.10054882  1784.07543846
0.35600002 22340.91348919  1196.35597401
0.35700002 22415.62183145  1685.20652911
0.35800002 22497.66994506  1211.49958392
0.35900002 22585.49083972  1829.42484467
0.36000002 22680.24495244  1596.57591905
0.36100002 22780.16021598  1855.44413748
0.36200002 22886.93692506  1370.81315206
0.36300002 22997.58026734  1381.23473628
0.36400002 23114.34712893  1771.71479135
0.36500002 23235.81219574  1785.90460996
0.36600002 23362.78121359  2057.79386677
0.36700002 23494.10014326  1426.56182827
0.36800002 23631.29165253  1831.18887690
0.36900002 23771.77784226  1715.13385256
0.37000002 23915.61242623  1330.90389456
0.37100002 24063.78349733  2014.13877414
0.37200002 24216.53183224  1354.91502020
0.37300002 24371.99715026  1503.99601539
0.37400002 24532.08631094  1517.92291239
0.37500002 24694.12384048  1810.57324575
0.37600002 24860.57316644  1405.86547916
0.37700002 25028.51250190  2128.67508913
0.37800002 25200.26455426  1575.89861855
0.37900002 25374.48719690  1446.34583874
0.38000002 25551.10647911  2044.34412624
0.38100002 25729.52612757  1916.59249204
0.38200002 25910.41310702  1935.11929457
0.38300002 26093.01563110  2254.43665733
0.38400002 26278.13580284  1517.56241451
0.38500002 26464.00529038  1685.49257679
0.38600002 26652.35347153  2011.31995001
0.38700002 26841.07752097  2187.01110002
0.38800002 27031.14501805  2050.44760249
0.38900002 27222.55314453  2229.52720816
0.39000002 27415.55249748  2090.29889920
0.39100002 27608.34215326  1948.04471462
0.39200002 27802.74185572  3277.94342009
0.39300002 27997.20360122  1820.09829235
0.39400002 28192.98764579  2171.56497630
0.39500002 28388.20053532  2360.76286836
0.39600002 28583.62606697  2383.01701811
0.39700002 28778.95178589  2748.96560483
0.39800002 28975.50826537  2081.02110221
0.39900002 29170.79792040  2800.39673304
0.40000002 29365.85249198  2472.89855551
0.40100002 29560.65045264  1960.75803742
0.40200002 29756.01147127  2158.50117439
0.40300002 29949.82689473  2722.43939372
0.40400002 30142.97554693  2014.30443636
0.40500002 30335.61918507  2771.15894385
0.40600002 30527.55496447  2236.44878266
0.40700002 30718.36333542  2067.96031772
0.40800002 30908.38877340  2275.47568931
0.40900002 31096.61449472  1912.44188204
0.41000002 31284.53571952  2121.56089034
0.41100002 31470.85348639  2528.36848890
0.41200002 31654.96219104  1961.02500065
0.41300002 31838.40795092  2372.59827292
0.41400002 32020.02175945  2790.54502856
0.41500002 32200.55309378  2009.31460826
0.41600002 32378.24311006  2632.83696325
0.41700002 32554.97973801  2041.19732629
0.41800002 32730.66997698  3085.68405829
0.41900002 32902.46786558  3523.85447538
0.42000002 33073.28304924  2506.29350823
0.42100002 33242.35933225  3366.78631271
0.42200002 33409.29515008  2755.76584104
0.42300002 33573.56430854  2562.33454944
0.42400002 33735.63988318  3010.90600225
0.42500002 33895.81642319  2382.53704928
0.42600002 34052.24432667  2399.15098772
0.42700002 34207.78631546  2635.36798262
0.42800002 34360.28316097  2211.08432618
0.42900002 34510.83697061  2893.73381711
0.43000002 34658.74856019  2464.75702066
0.43100002 34802.79551758  3157.30975897
0.43200002 34944.98863416  2950.58025515
0.43300002 35084.13520988  2283.97731040
0.43400002 35221.10239504  2757.81244822
0.43500002 35354.50824341  2543.40344356
0.43600002 35486.31539335  2791.35370112
0.43700002 35614.26361948  2573.84295375
0.43800002 35738.51017122  2353.38100630
0.43900002 35861.00431235  3313.55695549
0.44000002 35979.77993325  3570.09383306
0.44100002 36096.17833986  2632.49441108
0.44200002 36209.24501895  3127.93577920
0.44300002 36319.48858464  3144.54147068
0.44400002 36426.02694429  2431.43741376
0.44500002 36528.83050582  2932.53465198
0.44600002 36629.15937464  2947.18230295
0.44700002 36726.76035331  2961.64609525
0.44800002 36819.78954662  3471.73812088
0.44900002 36911.08371461  3238.94774946
0.45000002 36998.87717850  2753.27157572
0.45100002 37082.08605067  3016.99866407
0.45200002 37163.01038405  3282.79467786
0.45300002 37239.90664152  3043.24531497
0.45400002 37314.20237217  3056.03331912
0.45500002 37385.00970201  2557.13478481
0.45600002 37452.22450133  3080.82013349
0.45700002 37515.92873969  2835.07886922
0.45800002 37575.78043629  2845.80186622
0.45900002 37632.61785043  2596.65075475
0.46000002 37686.65592966  3387.84209536
0.46100002 37735.94621492  3138.12143596
0.46200002 37782.93480014  3411.23243011
0.46300002 37825.97023830  3422.49394937
0.46400002 37865.09538927  3433.41768715
0.46500002 37901.83219997  3974.00729452
0.46600002 37934.12875718  3454.47159900
0.46700002 37963.11644661  3731.01526121
0.46800002 37989.37483568  3207.06317563
0.46900002 38011.44896303  3483.74946258
0.47000002 38029.57519055  2955.46857601
0.47100002 38044.94415480  2962.94039121
0.47200002 38056.59047712  3510.14978903
0.47300002 38065.59744884  2706.46410689
0.47400002 38069.41893440  3526.18009593
0.47500002 38071.23468938  4077.42942849
0.47600002 38069.82605320  5447.79236643
0.47700002 38063.67067224  2729.16531656
