# SAXS profile: number of points = 501, q_min = 0, q_max = 0.5, delta_q = 0.001
#    q    intensity    error
0.00000000 1682732.95097188 277.65093691
0.00100000 1682663.70020578 555.27903426
0.00200000 1682455.89009290 1059.94724432
0.00300000 1682109.69230566 1211.11902160
0.00400000 1681624.97285670 1513.46253308
0.00500000 1681002.19992228 1512.90203981
0.00600000 1680241.10959802 1940.67856059
0.00700000 1679342.30565932 2216.73193560
0.00800000 1678305.33371498 2492.28352579
0.00900000 1677131.46020349 2767.26702763
0.01000000 1675819.91454705 3318.12357408
0.01100000 1674371.88511260 3918.03038175
0.01200000 1672786.88192802 4240.51493161
0.01300000 1671066.27283327 4211.08719327
0.01400000 1669209.33458961 4506.86540319
0.01500000 1667217.80890775 5601.85208737
0.01600000 1665090.56355141 5095.17735224
0.01700000 1662829.75166005 4489.64053088
0.01800000 1660434.93824229 7098.35968039
0.01900000 1657906.86073242 5471.09288729
0.02000000 1655246.04386845 5214.02527405
0.02100000 1652454.25065434 5998.40920183
0.02200000 1649529.70793630 6259.96552602
0.02300000 1646475.19807585 8298.23537602
0.02400000 1643290.61554621 8011.04211607
0.02500000 1639977.36452823 8314.68561789
0.02600000 1636535.69196426 9941.95478341
0.02700000 1632966.51213665 8915.99756463
0.02800000 1629269.76520439 7087.32380366
0.02900000 1625448.14462046 10240.32378129
0.03000000 1621501.72581037 9801.97838307
0.03100000 1617430.89222965 10092.76923191
0.03200000 1613236.57013274 10381.17780694
0.03300000 1608921.69033100 9846.60119876
0.03400000 1604484.26101707 9265.89703491
0.03500000 1599927.67248383 9503.57081341
0.03600000 1595251.42326373 10624.37496993
0.03700000 1590457.51403090 15411.53402370
0.03800000 1585547.35139486 9275.45243492
0.03900000 1580521.90629127 10431.44506460
0.04000000 1575380.54975364 13564.02716192
0.04100000 1570126.87486642 12859.33970140
0.04200000 1564761.31497374 21194.69299460
0.04300000 1559284.01891784 10291.27500256
0.04400000 1553698.47856409 14682.45130431
0.04500000 1548004.50662196 14953.72422879
0.04600000 1542202.51383369 14134.28669634
0.04700000 1536295.42257452 14379.72582407
0.04800000 1530283.74824397 15746.62050209
0.04900000 1524170.02935229 20576.29635403
0.05000000 1517953.94698425 18579.75717627
0.05100000 1511638.70179452 14148.93890791
0.05200000 1505222.56076062 14359.82389884
0.05300000 1498711.05398558 13353.51611352
0.05400000 1492102.50149629 17233.78469596
0.05500000 1485400.92760417 13725.10521133
0.05600000 1478604.69375439 13906.27779368
0.05700000 1471718.90490073 15364.74608437
0.05800000 1464742.16175694 14259.26561050
0.05900000 1457676.46028306 14430.99763081
0.06000000 1450524.66348268 15926.76154912
0.06100000 1443288.18336652 17449.35495233
0.06200000 1435967.37610346 18997.84927388
0.06300000 1428565.74105774 24685.61715966
0.06400000 1421081.32719334 16626.65230574
0.06500000 1413520.29759611 16792.62192096
0.06600000 1405880.53488908 14129.10003672
0.06700000 1398164.96819827 18539.66834595
0.06800000 1390376.99239627 15829.44279939
0.06900000 1382516.52845012 18871.35149688
0.07000000 1374583.88878851 16103.25101125
0.07100000 1366583.54887263 17710.92362293
0.07200000 1358514.86427460 25288.75538317
0.07300000 1350382.02829828 14989.24121644
0.07400000 1342184.96327610 18119.49785338
0.07500000 1333925.34958945 16727.42466791
0.07600000 1325604.01476213 16841.79979711
0.07700000 1317226.08673627 15411.54593744
0.07800000 1308790.07374075 20161.91203149
0.07900000 1300297.61088770 18724.28647502
0.08000000 1291753.46989459 23542.20809322
0.08100000 1283157.12368505 17361.11669801
0.08200000 1274509.18244431 15867.64006602
0.08300000 1265813.59962397 20734.02773493
0.08400000 1257070.36910229 17630.41275421
0.08500000 1248283.77599881 19323.43375960
0.08600000 1239452.97464167 19409.83449421
0.08700000 1230581.30080338 19492.40872004
0.08800000 1221667.59385523 26094.82103026
0.08900000 1212718.09111161 18008.86449888
0.09000000 1203731.62410702 18074.03118500
0.09100000 1194710.14508288 19784.40093207
0.09200000 1185655.37772331 21501.86128531
0.09300000 1176570.72262750 18248.61276549
0.09400000 1167453.96530364 18299.84176618
0.09500000 1158310.25025396 21683.56890394
0.09600000 1149139.67362719 16719.98303724
0.09700000 1139946.03897275 18432.92831677
0.09800000 1130729.95298892 21828.74276879
0.09900000 1121492.98665340 21869.11426808
0.10000000 1112234.91409221 20220.43168911
0.10100000 1102959.28513822 23625.38899881
0.10200000 1093667.81994590 23656.03605812
0.10300000 1084361.18480871 25374.05291814
0.10400000 1075042.43363091 23704.68677675
0.10500000 1065714.04844121 25417.28125119
0.10600001 1056372.62453479 20345.73770588
0.10700001 1047025.49831919 18657.99525805
0.10800001 1037670.29494109 16965.91012073
0.10900001 1028310.98122284 28844.12438087
0.11000001 1018948.24330439 25448.23357436
0.11100001 1009583.47630737 23745.40448053
0.11200001 1000219.39466230 23735.20735272
0.11300001 990854.77845980 23721.06451313
0.11400001 981494.74956025 20316.94227251
0.11500001 972138.25971445 21989.76847019
0.11600001 962787.67806066 21966.00190937
0.11700001 953445.19864668 20251.17697298
0.11800001 944109.80155161 20222.83290170
0.11900001 934784.79234662 20191.35246573
0.12000001 925471.22891699 18477.03395569
0.12100001 916172.12868143 20119.14089362
0.12200001 906886.04875918 20078.45806545
0.12300001 897616.62281461 28382.63895063
0.12400001 888363.28814174 18322.49368123
0.12500001 879128.39760346 23261.73849669
0.12600001 869914.88679316 23200.63112407
0.12700001 860722.12978359 21483.62537184
0.12800001 851550.72538295 24716.26096910
0.12900001 842403.21046830 22997.60872971
0.13000001 833280.89923679 21286.16157432
0.13100001 824183.48976011 17950.71725313
0.13200001 815114.71311154 17887.69322246
0.13300001 806075.45462983 21062.75262244
0.13400001 797064.48935410 19368.66800445
0.13500001 788085.15344152 20900.01925467
0.13600001 779136.90771266 24016.89631266
0.13700001 770223.11972963 17537.98126322
0.13800001 761341.92697547 20636.17390378
0.13900001 752498.26652440 17382.71077645
0.14000001 743689.82434745 18874.84863209
0.14100001 734919.34131536 17219.16097913
0.14200001 726186.17151371 18692.03293638
0.14300001 717495.26560276 17047.68831482
0.14400001 708840.77319012 18500.74505294
0.14500001 700231.34593346 23002.60079900
0.14600001 691662.26279910 16776.26897560
0.14700001 683138.99078794 16682.25494205
0.14800001 674657.73884459 15078.60117457
0.14900001 666221.32778328 14989.98058236
0.15000001 657831.75993762 20859.84609185
0.15100001 649488.85949220 17770.01603418
0.15200001 641194.47942722 19130.03819640
0.15300001 632948.34719541 29242.21502034
0.15400001 624749.42690536 23240.67977763
0.15500001 616602.73630813 18757.05612369
0.15600001 608504.53601946 14330.28249957
0.15700001 600461.28472774 14230.93311970
0.15800001 592465.74758348 16956.37049616
0.15900001 584525.93678963 15431.48545962
0.16000001 576637.18104256 18103.52515336
0.16100001 568805.62216933 13821.97727117
0.16200001 561026.46044179 13717.09760533
0.16300001 553303.92491850 17694.66035422
0.16400001 545636.68077506 21607.21357876
0.16500001 538026.15487743 17415.90745561
0.16600001 530472.16506625 15945.99403475
0.16700001 522975.07635495 13178.97254639
0.16800001 515535.38105748 18296.35153762
0.16900001 508155.93374979 14253.77461472
0.17000001 500834.35880529 15415.68229195
0.17100001 493572.18761247 14007.57934590
0.17200001 486369.32340019 16407.66989972
0.17300001 479226.69209772 18761.72588164
0.17400001 472145.86479043 17351.36135048
0.17500001 465124.59805694 19646.86394980
0.17600001 458163.08379637 15813.49958409
0.17700001 451265.16671143 14458.53662432
0.17800001 444427.95360962 11932.89111803
0.17900001 437652.50203312 15361.60354695
0.18000001 430940.36205326 16380.04393536
0.18100001 424291.53576614 11583.15947356
0.18200001 417702.43193775 14905.71198781
0.18300001 411178.96442015 15887.95593573
0.18400001 404717.21796532 14600.17432782
0.18500001 398319.80864885 14447.06014220
0.18600001 391985.51708238 12094.71370097
0.18700001 385714.24327696 16315.71326145
0.18800001 379506.36580352 13986.70777251
0.18900001 373364.08570166 10640.87694525
0.19000001 367281.91363917 22097.51737818
0.19100001 361268.50182692 11444.98667865
0.19200001 355315.34205766 11315.01760248
0.19300001 349428.97406472 11185.22198834
0.19400001 343605.51864164 11055.50808471
0.19500001 337846.57380376 10925.95871312
0.19600001 332150.39774653 14722.56707585
0.19700001 326519.07078184 12606.90191866
0.19800001 320951.86079403 13412.57889644
0.19900001 315449.64033282 13248.88552012
0.20000001 310008.98089439 14954.83394513
0.20100001 304634.23366888 10153.45948806
0.20200001 299321.46217346 10937.20674475
0.20300001 294073.54074022 9898.51584917
0.20400001 288888.82778143 9771.66506157
0.20500001 283767.07233081 9645.24324442
0.20600001 278708.95998327 10384.69633984
0.20700001 273713.48722376 11101.81956657
0.20800001 268780.68803420 10111.52996182
0.20900001 263912.88948825 11638.55897660
0.21000001 259105.23164574 9020.74906618
0.21100001 254360.17945871 8897.51949808
0.21200001 249677.22963680 11168.06300962
0.21300001 245055.66687062 12586.05964549
0.21400001 240496.84502449 12409.63778995
0.21500001 235999.85585646 9940.31439863
0.21600001 231562.69132120 9044.83915063
0.21700001 227186.78664341 8171.90910193
0.21800001 222871.88499131 9517.74429856
0.21900001 218615.86293344 9378.62096328
0.22000001 214419.55163925 7108.00847293
0.22100001 210285.54903145 9103.26184801
0.22200001 206209.29266067 8277.24139878
0.22300001 202192.18044837 10869.85213489
0.22400001 198232.24275554 8697.44006217
0.22500001 194333.58740197 7905.49070934
0.22600001 190491.16948515 7134.84709046
0.22700001 186707.49156073 7023.93616467
0.22800001 182980.14553713 6285.36829644
0.22900001 179309.45266491 8660.64697329
0.23000001 175695.66516069 10958.13915430
0.23100001 172139.34551257 9584.71921143
0.23200001 168636.87011146 6483.24477805
0.23300001 165190.99899015 5798.20433878
0.23400001 161800.20707200 7984.84059665
0.23500001 158462.33771177 8414.35053046
0.23600001 155180.00608417 7171.64432038
0.23700001 151950.83398913 5967.10953298
0.23800001 148775.24098558 7467.02969825
0.23900001 145652.46056577 5243.48882838
0.24000001 142581.95266502 5669.77161591
0.24100001 139564.56402492 6079.43269649
0.24200001 136598.27070317 4979.00720265
0.24300001 133682.95629758 6360.63536151
0.24400001 130817.89262036 8172.84822806
0.24500001 128003.43990016 6612.65801805
0.24600001 125238.74933915 6032.12464727
0.24700001 122524.33290956 5013.69593984
0.24800001 119857.63611610 5372.01950486
0.24900001 117239.30683615 5275.76905721
0.25000001 114669.42051564 6044.22544132
0.25100001 112146.52264940 8054.36363772
0.25200001 109671.72565715 5826.85905983
0.25300001 107243.32181495 4494.56782990
0.25400001 104860.33999136 4411.99901387
0.25500001 102523.01014215 5905.32566358
0.25600001 100231.37275635 4250.31156283
0.25700001 97983.90737432  5308.76835272
0.25800001 95780.82246412  4465.30215455
0.25900001 93621.45158844  4381.48414165
0.26000001 91506.07902960  3940.70947987
0.26100001 89431.26153374  4569.04336795
0.26200001 87400.99119644  3792.76619243
0.26300001 85411.40541560  4396.97935885
0.26400001 83462.81527757  4312.94118355
0.26500001 81555.95121875  3904.89912913
0.26600001 79688.56975441  3829.83284362
0.26700001 77861.90767340  3443.05372024
0.26800001 76074.70188367  3376.57580289
0.26900001 74325.63669387  5117.32032853
0.27000001 72615.69588894  3837.37663084
0.27100001 70943.43402997  4052.28914356
0.27200001 69309.07489926  3405.84810173
0.27300001 67711.13491785  3061.22055451
0.27400001 66148.72349759  3274.36196809
0.27500001 64624.55005111  2675.45649873
0.27600001 63133.84169680  3147.85349598
0.27700001 61679.82667620  2829.25378354
0.27800001 60259.67150334  2521.86737177
0.27900001 58873.89991079  3214.51508727
0.28000001 57521.69949768  3879.26359772
0.28100001 56202.60515554  3328.31843484
0.28200001 54916.57948375  3030.57158225
0.28300001 53662.88252375  2743.24668445
0.28400001 52441.03123574  3138.59586801
0.28500001 51250.87044265  2418.52869066
0.28600001 50090.85150589  2587.69351128
0.28700001 48961.87460047  2326.66839114
0.28800001 47862.15729957  2489.78954057
0.28900001 46793.58436182  2239.07311770
0.29000001 45752.67298317  2995.65640537
0.29100001 44741.93678782  2547.60600129
0.29200001 43758.52587782  2307.82476404
0.29300001 42802.97463081  2076.37239763
0.29400001 41874.79030527  2223.55147046
0.29500001 40974.57907129  2183.12567626
0.29600001 40099.80304935  1965.09094146
0.29700001 39250.86009663  2105.41623525
0.29800001 38428.33837971  2068.21326950
0.29900001 37630.93892231  2032.07079800
0.30000001 36858.25152857  1830.56514882
0.30100001 36110.76411571  1799.39946107
0.30200001 35386.33060200  1929.97056240
0.30300001 34685.79714088  3163.34484900
0.30400001 34009.26335817  1711.51625953
0.30500001 33354.38015852  1990.25595828
0.30600001 32722.17724320  1808.22760007
0.30700001 32112.49017826  1631.95682812
0.30800001 31524.12990157  1899.48653715
0.30900001 30957.00673353  1727.40105751
0.31000001 30411.70635484  1844.31801921
0.31100001 29885.02828177  1538.48132879
0.31200001 29379.60580997  1379.37255809
0.31300001 28893.36028328  2449.57920079
0.31400001 28427.99545347  1477.54513365
0.31500001 27980.55238290  1989.41736862
0.31600002 27551.79843953  1572.10569340
0.31700002 27140.87376691  1553.54368798
0.31800002 26748.42822936  1535.89482165
0.31900002 26373.67684809  1265.93654865
0.32000002 26015.89350014  1628.46493075
0.32100002 25675.48432958  1860.18892776
0.32200002 25351.49632656  1351.10806070
0.32300002 25043.05629014  1338.80185266
0.32400002 24750.91051379  1206.60694468
0.32500002 24473.88688570  1196.77312538
0.32600002 24212.54952441  1187.62561041
0.32700002 23965.99018531  1179.12677295
0.32800002 23734.46508137  1288.42549795
0.32900002 23516.12859018  1164.04842034
0.33000002 23313.33819125  1736.26094401
0.33100002 23121.74104185  1266.60903425
0.33200002 22945.95199130  1719.22553436
0.33300002 22781.78850682  1369.64118989
0.33400002 22631.26713508  1250.94335013
0.33500002 22492.58147641  1360.35139211
0.33600002 22365.98924490  1808.96129579
0.33700002 22250.53436563  1804.96343322
0.33800002 22148.06737766  1464.09806334
0.33900002 22055.64419961  1687.25686117
0.34000002 21974.80531042  1573.61588280
0.34100002 21904.52454104  1460.81281082
0.34200002 21845.62429887  1461.14465043
0.34300002 21795.40318371  1349.57142905
0.34400002 21756.22829715  1463.65032801
0.34500002 21726.03388421  1465.85557559
0.34600002 21706.54431061  1129.82568488
0.34700002 21694.06463550  1472.15929589
0.34800002 21692.11384475  1135.58221356
0.34900002 21698.32949692  1139.16235254
0.35000002 21713.03063787  1257.51022895
0.35100002 21736.02643706  1377.19470028
0.35200002 21766.14052065  1152.51719515
0.35300002 21804.37414743  1736.71848310
0.35400002 21850.53341634  1745.31143929
0.35500002 21903.58200034  1286.61646764
0.35600002 21963.14151769  1528.96416917
0.35700002 22029.70109745  1182.99500497
0.35800002 22103.42683165  1666.37742777
0.35900002 22182.87575307  1796.81302111
0.36000002 22269.34413985  1447.06205075
0.36100002 22360.79191621  1335.61016442
0.36200002 22459.16317346  1589.77194054
0.36300002 22561.32642897  1478.21817764
0.36400002 22669.58261158  1241.15970677
0.36500002 22782.52310549  1751.06480883
0.36600002 22900.95463307  1260.69761227
0.36700002 23023.67217178  1270.90676408
0.36800002 23152.34723389  1409.63072811
0.36900002 23284.41710726  1938.42781600
0.37000002 23419.67728327  1563.96612306
0.37100002 23559.35953869  1577.53478944
0.37200002 23703.46330323  1326.20883464
0.37300002 23850.57377580  2007.02587831
0.37400002 24002.15465961  1485.13338992
0.37500002 24155.90300936  2179.82879083
0.37600002 24313.93499632  2062.42963376
0.37700002 24473.57238475  2081.47742993
0.37800002 24637.04909425  1680.73956883
0.37900002 24803.04044887  1979.28272158
0.38000002 24971.47636612  1712.54393032
0.38100002 25141.87515345  1440.62951454
0.38200002 25314.64474329  1599.75905034
0.38300002 25489.32441648  1908.64070273
0.38400002 25666.53276525  1778.69080490
0.38500002 25844.53224342  1945.31803412
0.38600002 26025.16369573  1812.91298893
0.38700002 26206.36053794  1525.21025557
0.38800002 26388.82239853  2463.66057584
0.38900002 26572.67189330  1554.50137940
0.39000002 26758.37613482  2197.13036852
0.39100002 26943.98504816  1584.30639589
0.39200002 27131.12132537  1759.31764569
0.39300002 27318.55413210  2583.24260112
0.39400002 27507.44781133  2444.72454006
0.39500002 27695.86494760  1645.13445583
0.39600002 27884.59000347  2324.73837873
0.39700002 28073.35093867  2178.77286958
0.39800002 28263.31323208  1691.55937708
0.39900002 28452.39644754  2560.71580160
0.40000002 28641.37951309  1895.05696527
0.40100002 28829.93911857  1738.44541122
0.40200002 29019.48561087  2105.07358595
0.40300002 29207.44931939  1946.96866388
0.40400002 29394.99491597  2321.46983348
0.40500002 29582.04685228  2522.16543413
0.40600002 29768.68802401  1999.11633897
0.40700002 29954.20731768  2566.47660458
0.40800002 30139.31811463  2218.85670473
0.40900002 30322.59037983  2051.32333639
0.41000002 30505.75594744  2068.74793760
0.41100002 30687.48746779  2275.78417844
0.41200002 30867.25820065  2485.89475698
0.41300002 31046.41740726  2120.78087358
0.41400002 31223.88837504  1943.68714344
0.41500002 31400.49436665  1959.39094132
0.41600002 31574.34019472  2764.96510187
0.41700002 31747.53478279  2388.68463024
0.41800002 31919.80794843  2206.77602708
0.41900002 32088.40503285  3234.51138058
0.42000002 32255.99527193  2648.05605733
0.42100002 32422.26842817  2257.56265763
0.42200002 32586.45474011  2067.61065123
0.42300002 32748.11311601  2915.89213002
0.42400002 32907.82279187  2307.66118263
0.42500002 33065.78709671  2324.19428516
0.42600002 33220.26389648  2340.53380374
0.42700002 33373.93467248  2571.12804900
0.42800002 33524.70510826  2157.31487594
0.42900002 33673.77630879  2389.15454232
0.43000002 33820.40172486  3498.38252020
0.43100002 33963.22965498  2200.81738593
0.43200002 34104.53987237  2658.10796361
0.43300002 34242.98600487  2452.14034401
0.43400002 34379.29955895  2467.57434278
0.43500002 34512.33073946  2482.81719105
0.43600002 34643.94867661  3406.36641505
0.43700002 34771.75057649  2512.95453325
0.43800002 34896.27137568  3217.08741058
0.43900002 35019.06224743  3004.63568322
0.44000002 35138.30696775  2789.27893928
0.44100002 35255.43508199  2804.92254805
0.44200002 35369.36128600  3055.38241949
0.44300002 35480.72561430  3071.92136927
0.44400002 35588.62014334  2375.54050715
0.44500002 35692.68365087  2626.62471435
0.44600002 35794.67653068  2640.03649263
0.44700002 35894.02032942  3135.70176458
0.44800002 35989.04858465  2423.86253705
0.44900002 36082.51822874  2435.57009587
0.45000002 36172.62135232  2691.78574550
0.45100002 36258.27447917  2704.14223881
0.45200002 36341.88048644  2963.31707530
0.45300002 36421.62458499  3472.43785250
0.45400002 36498.93432589  2740.15762438
0.45500002 36572.92726039  2501.58834317
0.45600002 36643.46307905  3265.48236705
0.45700002 36710.73144397  2522.02736973
0.45800002 36774.30995566  3797.86704067
0.45900002 36834.95280909  3049.93423714
0.46000002 36893.10083446  3571.62126106
0.46100002 36946.65905954  5376.84754777
0.46200002 36997.95112296  2826.45861000
0.46300002 37045.46291945  4898.89224865
0.46400002 37089.29258735  4397.86307698
0.46500002 37130.85618129  3114.53636410
0.46600002 37168.18595021  3124.35785906
0.46700002 37202.33475872  2872.76442623
0.46800002 37233.86321029  3405.22312129
0.46900002 37261.40445368  3940.39370774
0.47000002 37285.20026639  2897.61947604
0.47100002 37306.30143141  3169.54351984
0.47200002 37323.93025755  3972.19946593
0.47300002 37338.83797500  3185.74980702
0.47400002 37348.88840197  3459.44095220
0.47500002 37356.99803097  2934.01876442
0.47600002 37362.05090753  3742.55681680
0.47700002 37362.58265506  3214.67676401
