# SAXS profile: number of points = 501, q_min = 0, q_max = 0.5, delta_q = 0.001
#    q    intensity    error
0.00000000 1664650.74656091 324.60689558
0.00100000 1664582.16580447 649.18706008
0.00200000 1664376.36333499 973.66020338
0.00300000 1664033.51947470 1397.78820615
0.00400000 1663553.48570369 1372.43167786
0.00500000 1662936.73620493 1496.64312182
0.00600000 1662182.99972895 2268.87988700
0.00700000 1661292.90484109 2192.90672553
0.00800000 1660265.96970391 2689.63098448
0.00900000 1659103.43085261 2737.52077793
0.01000000 1657804.58163069 2735.37767780
0.01100000 1656370.57707644 3875.90731911
0.01200000 1654800.89332801 4517.60663685
0.01300000 1653096.94097346 3471.50372915
0.01400000 1651257.98341585 5944.52900382
0.01500000 1649285.71865379 4749.94308123
0.01600000 1647179.09246122 4200.30687354
0.01700000 1644940.15794805 4885.47248826
0.01800000 1642568.53467312 6553.84874825
0.01900000 1640064.92788240 5412.21450622
0.02000000 1637429.90006080 5673.69486036
0.02100000 1634665.17740449 5933.83486301
0.02200000 1631768.95166164 8444.40470850
0.02300000 1628744.01298090 7622.52232772
0.02400000 1625590.32457937 7924.75319367
0.02500000 1622309.23082767 6959.70691810
0.02600000 1618900.88430979 7212.20376947
0.02700000 1615366.33981733 8141.44672557
0.02800000 1611705.47456616 11918.56253100
0.02900000 1607920.88587267 7959.20875051
0.03000000 1604012.80808357 8204.52589047
0.03100000 1599981.45698022 9983.88475095
0.03200000 1595827.84274861 9479.21782252
0.03300000 1591554.97765395 11363.70306432
0.03400000 1587160.58563452 9999.11215086
0.03500000 1582648.29657327 12819.45179422
0.03600000 1578017.52608276 10509.59720940
0.03700000 1573270.17964417 9864.40448257
0.03800000 1568407.87452334 9175.18649059
0.03900000 1563431.35894860 9380.58858811
0.04000000 1558339.93480382 11500.54925178
0.04100000 1553137.39528494 11741.71925278
0.04200000 1547824.13977719 11980.15939767
0.04300000 1542400.16405863 10179.84155531
0.04400000 1536869.12998194 13486.02724191
0.04500000 1531230.63325469 12678.59023246
0.04600000 1525485.18756017 13981.07239393
0.04700000 1519635.83730968 14223.79209874
0.04800000 1513682.83504654 18913.46790391
0.04900000 1507628.78835824 14699.38137071
0.05000000 1501473.32803278 16080.78009205
0.05100000 1495219.82153400 11662.71515126
0.05200000 1488866.50597720 13020.13820153
0.05300000 1482418.68569078 13208.35110525
0.05400000 1475874.72224482 17046.35383686
0.05500000 1469238.79513518 13575.76710035
0.05600000 1462509.12732790 17506.23507103
0.05700000 1455690.71398708 13930.96078313
0.05800000 1448782.40598108 17950.41484825
0.05900000 1441786.05938733 14273.68265460
0.06000000 1434704.39548493 19691.31874799
0.06100000 1427538.89983185 17258.94610550
0.06200000 1420290.09484794 17448.26463080
0.06300000 1412961.15316833 20346.64155694
0.06400000 1405550.32924337 13704.11635102
0.06500000 1398063.70619217 17993.08074037
0.06600000 1390499.15282510 15371.96885371
0.06700000 1382859.42982295 18336.71689759
0.06800000 1375148.00232185 15656.06073928
0.06900000 1367365.28778375 14357.33619392
0.07000000 1359510.74942788 20270.30622320
0.07100000 1351589.43252798 16056.88321050
0.07200000 1343600.31759635 22068.63625037
0.07300000 1335547.95874197 17789.49964398
0.07400000 1327431.81023049 17920.33027793
0.07500000 1319253.88792404 19551.34353545
0.07600000 1311014.88273397 15142.22260545
0.07700000 1302720.02726856 18290.19004045
0.07800000 1294367.48660315 23007.38315333
0.07900000 1285959.30348905 20060.96607536
0.08000000 1277499.80414731 15521.62334853
0.08100000 1268988.67999929 18730.27379558
0.08200000 1260426.82964076 21969.24067155
0.08300000 1251817.53392893 18927.48200131
0.08400000 1243161.31874857 19020.36906964
0.08500000 1234462.14152525 22294.38732256
0.08600000 1225719.23513104 20794.32780032
0.08700000 1216936.07067997 16063.55688728
0.08800000 1208111.16114597 17741.11323462
0.08900000 1199251.07457269 21046.85734732
0.09000000 1190354.22750550 21122.83675934
0.09100000 1181423.06559843 21194.73079259
0.09200000 1172458.67267352 16355.79925230
0.09300000 1163464.90856619 21326.31277619
0.09400000 1154439.42344168 23031.06758006
0.09500000 1145387.31831551 19792.29379078
0.09600000 1136308.76965007 19839.95205072
0.09700000 1127207.32757964 24854.92274163
0.09800000 1118083.84887853 26565.67349841
0.09900000 1108939.76106456 21624.32635759
0.10000000 1099774.88769296 21660.06743172
0.10100000 1090592.51331123 20023.27948612
0.10200000 1081394.55839760 16707.54671310
0.10300000 1072181.68775171 28434.25969674
0.10400000 1062957.05184414 20089.88922499
0.10500000 1053722.89921761 21780.45335158
0.10600001 1044475.67283412 20116.60240534
0.10700001 1035223.24955984 20124.74091847
0.10800001 1025962.77118495 18451.94130814
0.10900001 1016698.33501280 23485.73264417
0.11000001 1007430.25001388 16773.71445226
0.11100001 998160.38804156 21799.82390102
0.11200001 988891.44506103 16761.71078288
0.11300001 979622.09290461 20101.84629281
0.11400001 970357.23467120 18412.52939483
0.11500001 961096.09286360 20067.68736394
0.11600001 951840.70784999 18375.28573036
0.11700001 942593.60235256 20020.68905684
0.11800001 933353.26454630 21658.46352387
0.11900001 924123.62671118 23287.91649002
0.12000001 914905.17560257 21587.18863521
0.12100001 905701.27171291 24861.50107970
0.12200001 896510.30746902 18194.67754726
0.12300001 887335.80209312 19805.33603584
0.12400001 878177.37854948 26345.32259781
0.12500001 869037.37665756 27922.17222771
0.12600001 859918.50929816 22934.02772371
0.12700001 850820.28190654 22870.05025543
0.12800001 841743.20449507 17916.50495207
0.12900001 832690.10503257 24356.18672016
0.13000001 823661.78894745 24277.43237354
0.13100001 814658.44004722 24195.35680991
0.13200001 805683.31171016 19288.05939159
0.13300001 796737.54972173 19217.31060525
0.13400001 787819.88150967 19144.02402324
0.13500001 778933.69771516 15890.24818259
0.13600001 770078.32499760 15825.11032487
0.13700001 761257.04441506 23637.03234365
0.13800001 752467.97631927 15688.95804608
0.13900001 743716.48757574 18741.65637073
0.14000001 734999.79741534 18654.29573815
0.14100001 726320.75012297 18564.75924871
0.14200001 717678.75953222 18473.05214165
0.14300001 709078.47906626 18379.31504431
0.14400001 700514.52394805 18283.42993747
0.14500001 691995.13029276 19701.10228878
0.14600001 683515.79496175 19592.98118686
0.14700001 675082.07569408 22480.23418115
0.14800001 666689.80792810 20860.72507425
0.14900001 658341.99740117 20737.77389656
0.15000001 650040.61058351 25029.81489150
0.15100001 641785.60612904 16095.98376120
0.15200001 633578.75285082 20356.88628968
0.15300001 625419.66264320 15891.91437769
0.15400001 617307.37848296 18658.11639514
0.15500001 609246.75269539 15682.01215446
0.15600001 601234.17183840 16990.87849804
0.15700001 593276.38283276 16872.78112411
0.15800001 585365.60182968 18149.26134135
0.15900001 577510.10299878 22176.38900189
0.16000001 569705.20690610 13758.38139621
0.16100001 561957.00785812 16386.66712266
0.16200001 554260.79159874 14906.84469374
0.16300001 546620.56752866 13446.86659600
0.16400001 539035.20669132 16009.34639453
0.16500001 531506.01619839 13234.50042816
0.16600001 524032.92482596 14439.72792532
0.16700001 516616.23903674 18226.22177376
0.16800001 509256.28890461 12909.64753328
0.16900001 501955.99250886 16639.84193737
0.17000001 494713.10325951 12689.39169780
0.17100001 487529.15268704 15093.90327994
0.17200001 480404.08238084 17453.08113708
0.17300001 473338.57148548 16060.37848895
0.17400001 466334.03859179 13465.39600026
0.17500001 459388.84297424 14553.43923275
0.17600001 452502.44604913 13215.33456101
0.17700001 445679.36018585 14279.56737479
0.17800001 438916.30363651 17677.35496390
0.17900001 432214.62867771 12836.77507805
0.18000001 425575.30053816 13865.24394646
0.18100001 418998.99762117 14870.27512799
0.18200001 412481.76175757 20380.72481118
0.18300001 406029.56852553 13447.69994483
0.18400001 399638.61888928 15525.96107731
0.18500001 393310.94071412 13168.05091719
0.18600001 387046.10448112 13027.97249232
0.18700001 380843.72810311 11813.77300390
0.18800001 374704.04416329 11685.14616931
0.18900001 368629.46135160 10505.94014490
0.19000001 362614.16509976 10388.89632097
0.19100001 356667.05155957 14380.81619838
0.19200001 350779.61809865 10155.07042380
0.19300001 344958.32811767 15057.43173384
0.19400001 339199.41159519 12898.05823539
0.19500001 333504.36462755 11766.03454007
0.19600001 327871.31383563 9688.59778169
0.19700001 322302.72425228 14358.58704399
0.19800001 316797.44461294 11347.68500231
0.19900001 311356.43836668 13076.97102942
0.20000001 305976.64706238 9225.19634492
0.20100001 300661.85061761 10932.06540513
0.20200001 295408.56269342 10794.22939099
0.20300001 290219.56112549 10656.86278822
0.20400001 285093.04346538 10519.93380111
0.20500001 280028.71055824 10383.46507829
0.20600001 275027.45883803 9393.56330063
0.20700001 270088.28288161 11797.45675392
0.20800001 265211.28258677 9977.24892254
0.20900001 260398.57483634 9843.06659411
0.21000001 255645.38656793 8900.29455410
0.21100001 250954.05152735 7980.33921583
0.21200001 246324.15510401 11805.08569144
0.21300001 241755.19006344 10088.44455828
0.21400001 237248.28999216 9181.50925677
0.21500001 232802.63465135 8297.08629124
0.21600001 228416.11108638 7434.94476738
0.21700001 224090.45307813 8060.53397832
0.21800001 219824.84901032 10109.74528398
0.21900001 215617.74785772 7826.92461730
0.22000001 211469.71004491 8412.26546334
0.22100001 207383.22769821 8287.03417066
0.22200001 203354.15460469 9523.07551043
0.22300001 199383.31911544 8709.06379077
0.22400001 195469.22180711 7256.79520274
0.22500001 191615.86723397 7794.93384768
0.22600001 187817.93284994 7034.72100755
0.22700001 184078.39350106 10072.77016871
0.22800001 180394.49485058 8675.17166761
0.22900001 176766.68612480 7318.14115165
0.23000001 173195.15026742 7801.57591275
0.23100001 169680.46174352 10038.29659148
0.23200001 166219.07467977 9875.90678917
0.23300001 162813.76775909 6286.23987048
0.23400001 159462.93217813 7307.38921267
0.23500001 156164.55743871 6633.87071375
0.23600001 152920.95896849 7610.87648783
0.23700001 149730.13600040 6414.43932965
0.23800001 146592.22548463 5255.33153219
0.23900001 143506.65064597 6716.11156790
0.24000001 140472.75039120 6093.70820020
0.24100001 137491.50697656 5490.03613326
0.24200001 134560.64347315 6866.62996124
0.24300001 131680.38683987 6265.35310221
0.24400001 128849.71270188 7576.36346526
0.24500001 126069.21710440 4651.95433121
0.24600001 123338.14159286 5026.64619840
0.24700001 120656.43073289 4937.26137915
0.24800001 118022.08819466 4848.93772287
0.24900001 115435.68135632 4328.83825565
0.25000001 112897.14520975 5525.75103370
0.25100001 110405.10520367 4590.64449155
0.25200001 107960.60110774 5735.94700822
0.25300001 105562.08923580 4826.29894820
0.25400001 103208.53115384 4737.27180409
0.25500001 100900.10390355 6586.75909446
0.25600001 98636.74246894  4182.69126229
0.25700001 96417.30049827  5597.02455874
0.25800001 94241.59549031  5858.05785285
0.25900001 92109.27071458  4310.71407340
0.26000001 90020.34032754  3524.29649058
0.26100001 87971.66106464  3457.28644343
0.26200001 85967.03576825  4747.95961014
0.26300001 84002.49280378  3326.49887243
0.26400001 82078.70800609  4241.41743691
0.26500001 80196.16961798  5119.72371067
0.26600001 78352.50133626  3765.62139241
0.26700001 76549.45652571  3692.74595754
0.26800001 74785.09751499  3017.57882752
0.26900001 73058.60944841  2958.87382268
0.27000001 71370.87087893  3771.59385008
0.27100001 69720.27916662  2844.58752461
0.27200001 68107.35917631  3346.79578831
0.27300001 66530.26642791  3554.71230347
0.27400001 64988.43543530  3216.92770629
0.27500001 63484.33336214  3416.72698325
0.27600001 62013.28976621  2834.31754290
0.27700001 60578.81282455  3789.20492151
0.27800001 59177.57117452  3714.87220630
0.27900001 57810.60404050  2670.85003308
0.28000001 56476.58934898  2856.58602447
0.28100001 55175.35534624  2567.30940577
0.28200001 53906.84663509  2288.34574797
0.28300001 52670.24534384  3814.37934834
0.28400001 51465.29999699  2860.18418271
0.28500001 50291.56462695  2373.25904708
0.28600001 49147.87086870  2327.39753515
0.28700001 48034.58619022  2697.62248813
0.28800001 46950.35951853  3052.94727220
0.28900001 45896.80518005  1996.51111983
0.29000001 44870.84147238  2350.33478757
0.29100001 43874.50670171  2113.87383295
0.29200001 42905.39717112  2074.26152442
0.29300001 41963.68450252  2220.71828899
0.29400001 41049.08580521  2361.34877272
0.29500001 40162.16524513  2674.80033194
0.29600001 39300.33448796  2100.99598118
0.29700001 38464.11831550  1891.28078710
0.29800001 37653.98613818  1688.78135824
0.29900001 36868.68692955  2322.72738652
0.30000001 36107.84012316  2119.34977636
0.30100001 35371.90542119  1762.58213058
0.30200001 34658.67586496  1575.23689264
0.30300001 33969.26954946  2323.49814718
0.30400001 33303.52399211  2285.45444216
0.30500001 32659.09971677  2248.57912195
0.30600001 32037.09849513  1622.83930110
0.30700001 31437.39027128  1597.64824922
0.30800001 30858.86064512  1716.36991034
0.30900001 30301.22200380  1549.90757887
0.31000001 29765.10344339  1805.10478379
0.31100001 29247.53140134  1779.41989470
0.31200001 28751.04487576  1484.84778291
0.31300001 28273.25490826  1598.00444307
0.31400001 27816.22314323  1314.31660575
0.31500001 27376.98693128  1686.97001458
0.31600002 26956.09057741  1281.76216764
0.31700002 26552.91088015  2026.51825433
0.31800002 26168.00629391  1752.99482463
0.31900002 25800.50215415  1733.79382685
0.32000002 25449.78091306  1470.48841078
0.32100002 25116.22935605  1334.42532887
0.32200002 24799.02534290  2162.72310256
0.32300002 24497.08771844  1190.55851949
0.32400002 24211.28156390  1298.33003534
0.32500002 23940.44884465  1756.03200591
0.32600002 23685.09942910  1277.92960021
0.32700002 23444.23562308  1384.14773673
0.32800002 23218.32540686  1374.98929570
0.32900002 23005.46600801  1366.52474559
0.33000002 22807.91507504  1585.37825194
0.33100002 22621.51424424  1239.20660898
0.33200002 22450.66331644  1457.83389149
0.33300002 22291.30938555  1228.47411841
0.33400002 22145.40436068  1224.08728400
0.33500002 22011.15993465  1442.17126721
0.33600002 21888.99322242  1770.38185567
0.33700002 21777.79926397  1435.37481746
0.33800002 21679.38649152  1763.83496848
0.33900002 21590.81361302  1541.58416498
0.34000002 21513.86190447  1320.52090623
0.34100002 21447.18212798  1100.24049527
0.34200002 21391.72169332  1210.66454657
0.34300002 21344.97217730  1541.96086311
0.34400002 21309.03183313  1102.74244959
0.34500002 21282.00036249  1325.44304535
0.34600002 21265.59178760  1328.24892596
0.34700002 21256.03263281  1664.34743397
0.34800002 21256.83620095  1112.79542782
0.34900002 21265.75150147  1339.74240805
0.35000002 21283.07687568  1680.83107586
0.35100002 21308.48553020  1237.59689821
0.35200002 21341.03387942  1130.00779744
0.35300002 21381.59707225  1475.97171580
0.35400002 21429.87369168  1141.14082813
0.35500002 21485.05008752  1491.49224772
0.35600002 21546.50930727  1384.57875366
0.35700002 21614.97595831  1392.86911673
0.35800002 21690.49437862  1401.63981314
0.35900002 21771.73423637  1763.51055668
0.36000002 21859.88373660  1538.82658853
0.36100002 21952.80491120  1430.44483577
0.36200002 22052.71531516  1200.77040579
0.36300002 22156.19474630  1330.70111949
0.36400002 22265.90118969  1340.96396267
0.36500002 22379.96932444  1842.99056117
0.36600002 22499.64692874  1362.46618431
0.36700002 22623.49138416  1998.10685370
0.36800002 22753.14684567  1637.20275883
0.36900002 22886.19678121  1905.27597229
0.37000002 23022.41799050  1537.43714623
0.37100002 23163.03337910  1550.99678853
0.37200002 23307.92607960  1825.70993630
0.37300002 23455.74686814  1579.04095396
0.37400002 23608.00954092  1460.74565954
0.37500002 23762.46160366  1340.20289793
0.37600002 23921.02760161  1893.82784493
0.37700002 24081.24764433  1775.02884795
0.37800002 24245.28292485  1929.68215940
0.37900002 24411.70745828  1391.46739104
0.38000002 24580.58170370  1404.78031091
0.38100002 24751.29322332  1985.54883644
0.38200002 24924.48652333  1718.29418232
0.38300002 25099.38215925  1879.44182512
0.38400002 25276.90582763  1897.66379491
0.38500002 25455.04744588  1473.84731694
0.38600002 25635.95469146  1785.80068841
0.38700002 25817.26367777  1502.56481723
0.38800002 25999.96467904  1972.22741416
0.38900002 26183.91033684  1838.11059273
0.39000002 26369.69901525  1855.89950462
0.39100002 26555.42842497  1717.60519190
0.39200002 26742.58665359  2364.71333688
0.39300002 26930.09523774  1750.72557435
0.39400002 27118.99091294  2088.84037403
0.39500002 27307.37983931  1784.26428323
0.39600002 27496.14867483  1964.87487739
0.39700002 27684.90473700  1818.06778022
0.39800002 27874.76014559  2001.96536851
0.39900002 28063.78487706  2020.59260688
0.40000002 28252.78645962  2379.16726049
0.40100002 28441.22452501  2058.00710414
0.40200002 28630.67686592  2076.86939826
0.40300002 28818.55085165  1921.04469079
0.40400002 29006.01704168  2290.75030440
0.40500002 29193.04915457  2133.42813330
0.40600002 29379.55497080  2690.43287393
0.40700002 29565.12080560  2533.13967065
0.40800002 29750.11387582  1825.16957276
0.40900002 29933.33857612  2761.35061448
0.41000002 30116.38448974  2599.34526847
0.41100002 30298.07711627  2059.66337996
0.41200002 30477.86807739  1888.10401686
0.41300002 30656.88865243  2284.55145063
0.41400002 30834.43450297  2111.38800263
0.41500002 31010.98031396  2515.61084227
0.41600002 31184.83355215  1950.61143111
0.41700002 31358.05268270  2162.76499601
0.41800002 31530.33842640  3765.19554160
0.41900002 31699.03885346  2396.44745088
0.42000002 31866.64687692  3421.04403758
0.42100002 32032.95277994  2027.68600705
0.42200002 32197.29171820  2860.08555885
0.42300002 32359.09137538  2881.25363259
0.42400002 32518.91193494  2280.38880750
0.42500002 32677.06989181  2505.67783804
0.42600002 32831.82988143  2313.16668391
0.42700002 32985.71146941  2117.68277669
0.42800002 33136.66457401  2985.28225294
0.42900002 33286.03281380  2361.64414005
0.43000002 33432.99716668  2593.73204310
0.43100002 33576.16743815  2393.30932840
0.43200002 33717.91746885  2846.97249639
0.43300002 33856.68791978  2865.29163443
0.43400002 33993.36231723  3548.90719410
0.43500002 34127.03228224  2901.48042213
0.43600002 34259.07702110  2470.25086567
0.43700002 34387.43675408  2485.18017199
0.43800002 34512.55054327  3181.71218536
0.43900002 34635.92433731  3200.35956043
0.44000002 34755.85780311  2529.01011289
0.44100002 34873.61803329  3005.75728073
0.44200002 34988.34962931  3254.96632027
0.44300002 35100.55497710  3039.00619394
0.44400002 35209.19622890  3290.29954352
0.44500002 35314.17385896  3780.02934900
0.44600002 35417.03676746  2374.71242780
0.44700002 35517.24554463  3818.81442194
0.44800002 35613.35208811  2398.55937681
0.44900002 35707.86786320  3374.39367299
0.45000002 35798.96389494  2663.98002449
0.45100002 35885.79236637  2919.66820530
0.45200002 35970.54920447  3177.45861456
0.45300002 36051.56706624  4664.71248378
0.45400002 36130.15318014  2712.47137855
0.45500002 36205.44719605  2724.09797613
0.45600002 36277.25115179  2735.48625275
0.45700002 36346.03737121  2746.67017432
0.45800002 36411.01078315  3008.27785348
0.45900002 36473.13204281  3523.30472232
0.46000002 36532.91793716  2778.87653459
0.46100002 36588.13618249  3042.66954914
0.46200002 36641.04608596  3562.60907979
0.46300002 36690.27935619  3575.10098991
0.46400002 36735.85896963  3074.79154149
0.46500002 36779.14780314  3342.12131927
0.46600002 36818.48100091  3610.78860290
0.46700002 36854.53832928  2845.90758467
0.46800002 36887.97614730  3892.60386744
0.46900002 36917.48537444  4164.29254761
0.47000002 36943.43684748  3132.06472438
0.47100002 36966.69120892  2878.96604780
0.47200002 36986.48713400  3149.02966384
0.47300002 37003.50803980  3157.13945560
0.47400002 37015.97315942  3956.08231892
0.47500002 37026.35556675  3172.41829532
0.47600002 37033.75739828  3444.69510767
0.47700002 37036.84470409  3452.20445850
