# SAXS profile: number of points = 501, q_min = 0, q_max = 0.5, delta_q = 0.001
#    q    intensity    error
0.00000000 1682732.95097188 277.65093691
0.00100000 1682663.78613012 807.67863652
0.00200000 1682456.23960746 832.81586498
0.00300000 1682110.46981856 1211.11958141
0.00400000 1681626.36157755 1513.46378293
0.00500000 1681004.37420604 1512.90399667
0.00600000 1680244.22608894 2822.81041475
0.00700000 1679346.55741934 2216.73754792
0.00800000 1678310.88610160 2265.71979190
0.00900000 1677138.46338769 3270.42014341
0.01000000 1675828.56398898 3871.16414997
0.01100000 1674382.34712566 3315.27719165
0.01200000 1672799.31244079 3588.15468250
0.01300000 1671080.84058379 4211.12390400
0.01400000 1669226.21557274 4131.33506669
0.01500000 1667237.14611348 5601.91706039
0.01600000 1665112.54467611 5095.24461448
0.01700000 1662854.54183094 5836.61970365
0.01800000 1660462.63864737 7571.70997294
0.01900000 1657937.64894748 5471.19448840
0.02000000 1655280.12953899 6256.95917270
0.02100000 1652491.76066874 6543.86766894
0.02200000 1649570.78646423 6829.22336623
0.02300000 1646519.97096580 6520.21938181
0.02400000 1643339.25669452 6778.77474296
0.02500000 1640030.04666617 7675.34096894
0.02600000 1636592.45050221 7291.01970047
0.02700000 1633027.60564289 8230.45950940
0.02800000 1629335.35782429 11340.17461051
0.02900000 1625518.15264445 8046.31522503
0.03000000 1621576.47876274 8294.36407012
0.03100000 1617510.43621285 10093.26558639
0.03200000 1613321.06448998 9583.12756445
0.03300000 1609011.35919429 12308.93746528
0.03400000 1604579.07976019 9266.44461317
0.03500000 1600027.78622461 10368.18053352
0.03600000 1595356.95496940 12395.92411297
0.03700000 1590568.55172692 9972.86528055
0.03800000 1585664.05452514 12058.97569275
0.03900000 1580644.44502472 9483.86710935
0.04000000 1575508.81721253 9689.37967485
0.04100000 1570261.09545090 10881.90989603
0.04200000 1564901.56182691 12112.33865047
0.04300000 1559430.40790952 12350.68940394
0.04400000 1553851.13009307 16781.59298438
0.04500000 1548163.31436449 14955.25831166
0.04600000 1542367.68216955 14135.80046421
0.04700000 1536467.10648955 14381.33278559
0.04800000 1530461.96134688 12373.78553322
0.04900000 1524354.81783241 13719.19399909
0.05000000 1518145.35503725 13936.57500821
0.05100000 1511836.78689876 17688.49123072
0.05200000 1505427.55490913 16755.40946696
0.05300000 1498922.76497762 14569.52995478
0.05400000 1492321.01997634 13542.81388784
0.05500000 1485626.43009352 12479.26259493
0.05600000 1478837.03895739 13908.46300042
0.05700000 1471958.14461470 14086.64010151
0.05800000 1464988.48479100 15558.17843493
0.05900000 1457929.70919564 15745.64159473
0.06000000 1450784.96148990 18584.55622493
0.06100000 1443555.60612160 13425.06776430
0.06200000 1436241.89589326 16286.98386074
0.06300000 1428847.31897886 16460.32188424
0.06400000 1421370.06472896 20787.53816883
0.06500000 1413816.05770791 15396.45758865
0.06600000 1406183.32917475 22611.42899109
0.06700000 1398474.75873523 17117.33184799
0.06800000 1390693.74526126 17272.41712465
0.06900000 1382840.49662629 17423.79107325
0.07000000 1374914.72301266 19035.69523152
0.07100000 1366921.50297523 20667.85409302
0.07200000 1358859.57527629 19343.36696023
0.07300000 1350733.85139912 14993.14645304
0.07400000 1342543.44014341 16613.97585037
0.07500000 1334290.76288694 22816.37311483
0.07600000 1325976.15281075 15315.02528294
0.07700000 1317604.97319417 21582.37047289
0.07800000 1309175.55447113 21719.22346723
0.07900000 1300689.74523624 20290.76097740
0.08000000 1292152.05392128 21979.50746828
0.08100000 1283562.08519752 22102.94014413
0.08200000 1274920.58872840 15872.76207450
0.08300000 1266231.27743634 23931.77226671
0.08400000 1257494.41201009 16033.05450570
0.08500000 1248713.80749668 19330.09064750
0.08600000 1239889.13730385 29124.99720273
0.08700000 1231023.24802106 22749.31069168
0.08800000 1222115.48765485 21209.81528434
0.08900000 1213171.82993535 21291.16661541
0.09000000 1204190.82976323 24655.80839762
0.09100000 1195174.98782960 19792.09872831
0.09200000 1186125.69472664 18201.09964079
0.09300000 1177046.09940495 18255.98585966
0.09400000 1167934.73847756 23300.29912768
0.09500000 1158795.92471172 21692.66073022
0.09600000 1149630.31099063 21745.25835458
0.09700000 1140441.44385849 25146.73501930
0.09800000 1131229.99445180 23518.27269043
0.09900000 1121997.53447856 23561.94933199
0.10000000 1112743.95852933 20229.68611741
0.10100000 1103472.42076285 18571.44171489
0.10200000 1094185.04508133 18595.67571583
0.10300000 1084882.29361780 23693.83040719
0.10400000 1075567.28880798 22022.24127438
0.10500000 1066242.67032096 16953.25925574
0.10600001 1056904.65605341 18659.65258063
0.10700001 1047560.76912528 23758.67936179
0.10800001 1038208.75190507 22067.12806026
0.10900001 1028852.45277852 16976.06626984
0.11000001 1019492.34168832 22066.91277452
0.11100001 1010130.24065486 20364.22661021
0.11200001 1000768.41169862 18659.32791455
0.11300001 991406.14691107 20343.65509241
0.11400001 982048.15099600 23716.46396323
0.11500001 972693.70832783 22002.33271842
0.11600001 963344.95281872 21978.71613357
0.11700001 954004.13296594 25328.81092310
0.11800001 944669.86281908 20234.82941461
0.11900001 935346.27783619 16836.23379407
0.12000001 926033.53549778 20169.01135320
0.12100001 916735.42008852 20131.51077350
0.12200001 907449.78862473 16742.44938888
0.12300001 898180.71892313 18376.77837498
0.12400001 888927.44261574 16667.39033437
0.12500001 879692.75016235 21614.05188995
0.12600001 870478.96201717 21557.41251021
0.12700001 861285.77290693 19844.02514295
0.12800001 852113.62172966 19786.07922907
0.12900001 842965.42062650 21369.17442006
0.13000001 833842.11133024 19661.99791193
0.13100001 824743.64620966 17962.91746118
0.13200001 815673.45251209 24409.02921707
0.13300001 806632.59954761 19455.97921830
0.13400001 797619.89063886 25842.88567508
0.13500001 788638.57568184 32176.45540488
0.13600001 779688.24600671 22431.63189528
0.13700001 770772.00943593 20741.47575195
0.13800001 761888.03109756 17473.90281722
0.13900001 753041.79006307 23720.81750562
0.14000001 744230.32652814 22036.66100776
0.14100001 735456.65327043 17231.75019883
0.14200001 726720.20144916 17146.96396193
0.14300001 718025.65759078 18611.22592260
0.14400001 709367.35421731 16971.61475020
0.14500001 700753.94372240 16881.16330059
0.14600001 692180.70602067 16788.84381653
0.14700001 683653.14633288 21247.94079043
0.14800001 675167.34823577 18107.98913399
0.14900001 666726.16949039 19501.74137770
0.15000001 658331.60742110 16402.33277281
0.15100001 649983.66276383 25193.36795747
0.15200001 641683.99945946 16199.31333075
0.15300001 633432.48438949 20485.20751183
0.15400001 625227.82983975 17443.85727572
0.15500001 617075.26794538 15883.51814650
0.15600001 608971.16127581 15775.39867737
0.15700001 600921.78162874 19938.58565548
0.15800001 592919.77089910 21211.70580508
0.15900001 584973.38309559 18251.17041405
0.16000001 577077.88469774 20904.64735993
0.16100001 569239.67341699 16599.02966038
0.16200001 561453.31312979 17845.79440026
0.16300001 553723.68477017 16345.92394607
0.16400001 546048.95460830 16217.65471750
0.16500001 538431.03472955 13406.93339772
0.16600001 530869.23060400 15957.92982538
0.16700001 523364.54730490 14507.66593627
0.16800001 515916.72797849 15694.18760613
0.16900001 508529.12140237 19451.23981209
0.17000001 501199.39487200 16712.49461117
0.17100001 493928.78483351 12743.36325046
0.17200001 486717.55193245 16419.41738981
0.17300001 479566.38339725 17523.35647687
0.17400001 472476.67542716 19844.02130510
0.17500001 465446.59972773 15974.12805708
0.17600001 458475.88336136 15824.29586158
0.17700001 451568.79972018 13262.57627418
0.17800001 444722.46916097 14328.95863315
0.17900001 437937.75389630 11824.31991370
0.18000001 431215.92198571 18732.02053587
0.18100001 424557.63351257 15067.55112510
0.18200001 417958.89874915 11472.97231262
0.18300001 411425.79968917 14761.95839019
0.18400001 404954.16376153 14608.72214782
0.18500001 398546.71845185 15567.23555816
0.18600001 392202.30337913 13201.53015543
0.18700001 385921.16014818 10882.97723034
0.18800001 379703.00140328 11841.03865820
0.18900001 373550.63715605 11710.81302815
0.19000001 367458.16430797 13685.97997630
0.19100001 361434.27314514 13532.09982595
0.19200001 355470.87974286 14407.23543674
0.19300001 349573.97782155 14241.64452940
0.19400001 343739.94834859 12065.27275717
0.19500001 337970.50656283 9936.33336249
0.19600001 332263.76073795 13745.75243130
0.19700001 326621.76443036 10670.73354821
0.19800001 321044.00481506 13416.42959527
0.19900001 315531.00664578 13252.30290543
0.20000001 310079.69477219 14023.35485883
0.20100001 304694.09066996 10155.45452200
0.20200001 299370.69488622 10027.42189914
0.20300001 294112.10589023 9899.81395218
0.20400001 288916.69429870 10661.02652352
0.20500001 283784.01490413 10522.71177002
0.20600001 278715.10792351 11250.33586311
0.20700001 273708.87849539 9393.68915399
0.20800001 268765.41940114 10110.95555582
0.20900001 263886.98161549 9143.68434521
0.21000001 259068.68473926 9019.47668557
0.21100001 254312.90312294 8895.86577178
0.21200001 249619.18786106 8772.86677211
0.21300001 244987.15783267 12582.54102113
0.21400001 240417.86183319 9304.17169281
0.21500001 235910.42519344 10700.89739269
0.21600001 231462.62490444 7534.10879684
0.21700001 227076.42068308 11138.09896111
0.21800001 222751.08761237 8780.84828884
0.21900001 218484.72148955 7930.99576506
0.22000001 214278.28096974 7813.65788501
0.22100001 210134.05897809 11195.94319174
0.22200001 206047.86076501 8270.76152219
0.22300001 202020.71779723 7466.68608285
0.22400001 198050.76156767 7352.63487088
0.22500001 194142.31138942 9213.99453425
0.22600001 190290.12709747 7127.31704747
0.22700001 186496.69602210 8929.46222780
0.22800001 182759.86668402 6277.80171747
0.22900001 179079.70864234 6796.07526437
0.23000001 175456.53289350 7903.43989796
0.23100001 171890.98594270 8374.52923118
0.23200001 168379.35057738 8827.28787149
0.23300001 164924.45784600 8104.38824184
0.23400001 161524.68360727 7971.24351302
0.23500001 158178.16035104 6159.45785539
0.23600001 154887.09743865 7158.10754668
0.23700001 151649.40904773 5955.27257498
0.23800001 148465.44982587 7983.72994201
0.23900001 145334.36441196 7848.05604946
0.24000001 142255.74391291 6171.05446284
0.24100001 139230.36562914 7075.68751596
0.24200001 136256.08728724 5959.84153986
0.24300001 133333.14026338 7319.98974672
0.24400001 130460.46823866 5753.30692148
0.24500001 127638.70436214 6593.81577926
0.24600001 124866.88499716 4626.31830799
0.24700001 122145.25924266 8633.22733167
0.24800001 119471.66394847 4908.49354553
0.24900001 116846.48790252 4819.91785400
0.25000001 114270.02621766 5162.72002875
0.25100001 111740.70921174 5068.55880963
0.25200001 109259.58385246 5390.32182438
0.25300001 106825.10885556 5291.04789194
0.25400001 104436.27566570 5193.09405317
0.25500001 102093.19898593 4312.41692919
0.25600001 99795.95721665  5385.98806581
0.25700001 97543.15614605  4529.90438575
0.25800001 95334.87149169  4074.13592596
0.25900001 93170.52435450  5813.84099480
0.26000001 91050.13166597  4633.99667040
0.26100001 88970.71187140  4545.51388459
0.26200001 86936.10112671  4115.55522207
0.26300001 84942.18257148  3363.71058899
0.26400001 82989.46944758  4288.48103663
0.26500001 81078.73956434  3235.04186170
0.26600001 79207.64619065  3489.49301805
0.26700001 77377.58584924  3421.63700817
0.26800001 75586.95707505  3964.91402099
0.26900001 73834.71643277  2990.30615703
0.27000001 72121.83422266  3811.27850985
0.27100001 70446.95764102  4311.35401166
0.27200001 68810.06469086  4226.65842366
0.27300001 67209.73022001  3591.01605560
0.27400001 65645.10677719  3249.43293925
0.27500001 64119.02688561  2919.98062256
0.27600001 62626.63043487  3642.99126480
0.27700001 61171.09860868  3826.25239906
0.27800001 59749.39806856  2500.51242751
0.27900001 58362.58694450  3186.59739798
0.28000001 57009.43734733  3844.71663667
0.28100001 55689.49653449  2826.79897788
0.28200001 54402.95114321  2540.34592387
0.28300001 53148.83496110  2716.96857181
0.28400001 51926.90753856  2441.86294258
0.28500001 50736.71457400  2611.92618990
0.28600001 49577.00221874  2347.71905119
0.28700001 48448.28449136  2092.96598909
0.28800001 47349.28697851  3078.88753151
0.28900001 46281.51053248  2214.57038380
0.29000001 45241.60706920  2369.75549046
0.29100001 44231.88457527  2324.82796332
0.29200001 43249.95559024  2090.91920198
0.29300001 42295.98328564  3357.45531214
0.29400001 41369.54384724  2196.72288227
0.29500001 40471.15993575  1976.61154483
0.29600001 39598.54445203  2998.99590604
0.29700001 38751.93760963  2251.87520110
0.29800001 37931.81059108  1871.36596410
0.29900001 37137.09752955  1671.16946794
0.30000001 36367.21539652  1641.97985288
0.30100001 35622.78949544  1775.08368459
0.30200001 34901.42472495  1903.52379461
0.30300001 34204.28984904  1559.71569095
0.30400001 33531.37358398  1687.46645550
0.30500001 32880.05672544  1811.03361018
0.30600001 32251.69437674  2524.82401382
0.30700001 31645.96305363  1608.24791853
0.30800001 31061.85759017  1871.63231771
0.30900001 30499.04935332  2127.30879311
0.31000001 29958.05073138  1537.29744606
0.31100001 29436.14701278  1515.37291996
0.31200001 28935.57874969  1766.08313260
0.31300001 28454.18654228  1608.23069951
0.31400001 27993.93256046  1454.98471372
0.31500001 27551.65785218  2350.70755925
0.31600002 27128.24005121  1676.93223816
0.31700002 26722.84430060  1529.61568019
0.31800002 26336.03930896  1764.25135684
0.31900002 25967.05268458  1495.70230545
0.32000002 25615.17556233  1356.70783790
0.32100002 25280.74308369  1221.05994876
0.32200002 24962.92876456  1814.18093387
0.32300002 24660.68461145  2397.01865773
0.32400002 24374.96256969  2020.07511862
0.32500002 24104.37660875  1178.70407198
0.32600002 23849.69652563  1520.77597097
0.32700002 23609.71754085  2090.87668443
0.32800002 23385.08909734  1154.05420160
0.32900002 23173.64819811  1261.80520414
0.33000002 22977.89631541  1369.02312730
0.33100002 22793.36249093  1475.64235754
0.33200002 22624.78030801  1130.10782990
0.33300002 22467.97019333  1350.77443199
0.33400002 22324.75370926  1121.81892701
0.33500002 22193.42528671  1901.53276861
0.33600002 22074.42182299  1227.44828359
0.33700002 21966.57427207  1225.07590517
0.33800002 21871.74954485  1668.26777554
0.33900002 21787.10725323  1888.94228831
0.34000002 21714.01353528  1666.00776739
0.34100002 21651.60875218  1443.94585607
0.34200002 21600.61369986  1444.75711574
0.34300002 21558.36335747  1223.65276212
0.34400002 21527.22746436  1114.03407404
0.34500002 21505.10795450  1227.72667127
0.34600002 21493.73963502  1230.62412109
0.34700002 21489.42944643  1233.92309725
0.34800002 21495.56817743  2250.58609477
0.34900002 21510.03389346  1129.27683289
0.35000002 21533.09290951  1700.57609307
0.35100002 21564.28968650  1594.03236912
0.35200002 21602.71072084  1601.40902158
0.35300002 21649.29588086  1494.45096544
0.35400002 21703.74134844  1271.29670970
0.35500002 21765.13941662  2208.29114980
0.35600002 21833.06307532  1286.07664137
0.35700002 21907.95995780  1176.45750546
0.35800002 21990.06006692  1302.58126976
0.35900002 22077.93884497  1430.65050492
0.36000002 22172.73226811  1921.04561470
0.36100002 22272.46064006  1693.15253806
0.36200002 22379.26477878  1705.97143489
0.36300002 22489.67035906  1596.31687770
0.36400002 22606.35046963  1732.77684557
0.36500002 22727.50124554  1871.60981622
0.36600002 22854.23499733  1635.56340506
0.36700002 22985.24561233  2030.05698864
0.36800002 23122.05316901  1407.78627388
0.36900002 23262.23497345  1678.37033284
0.37000002 23405.69836157  1432.77989307
0.37100002 23553.50031757  1708.57099397
0.37200002 23705.71444824  1326.33478621
0.37300002 23860.77420781  1606.30739576
0.37400002 24020.35624632  1891.60314400
0.37500002 24181.99515623  1773.02396884
0.37600002 24347.87425781  1514.55958995
0.37700002 24515.34104851  2363.03383561
0.37800002 24686.59939678  1684.11989063
0.37900002 24860.27022131  1558.73901672
0.38000002 25036.34113780  2003.15774933
0.38100002 25214.21799208  2456.11709096
0.38200002 25394.54173432  1604.80814093
0.38300002 25576.60489069  1620.53376264
0.38400002 25761.25723596  1934.02647861
0.38500002 25946.45271686  2253.44952522
0.38600002 26134.32805928  1820.51737886
0.38700002 26322.53472020  2144.76023061
0.38800002 26512.06482700  2011.07277273
0.38900002 26702.90522562  2811.81605347
0.39000002 26895.41599695  1735.15784525
0.39100002 27087.82756177  1592.76433609
0.39200002 27281.64431756  1769.07830959
0.39300002 27475.65133986  1948.57328534
0.39400002 27671.02051899  1803.45884777
0.39500002 27865.78599394  1820.75054311
0.39600002 28060.83307855  2172.32949570
0.39700002 28255.78837827  1686.87064610
0.39800002 28451.86664314  2383.98201898
0.39900002 28646.83609628  2062.57229665
0.40000002 28841.61398668  1908.30547984
0.40100002 29036.07673408  2101.05061202
0.40200002 29231.18165772  2473.83502090
0.40300002 29424.68233927  2496.39016794
0.40400002 29617.66440682  1799.27319796
0.40500002 29810.07358282  2178.52028065
0.40600002 30001.86372859  1831.61386741
0.40700002 30192.60022113  2217.34466530
0.40800002 30382.58788668  2236.76622620
0.40900002 30570.81238582  1880.10505081
0.41000002 30758.62668319  2465.15025233
0.41100002 30944.97975237  2294.87980717
0.41200002 31129.26281952  2506.99529996
0.41300002 31312.68961400  2138.96992888
0.41400002 31494.52378284  2548.69445789
0.41500002 31675.18175801  2371.83772243
0.41600002 31853.05212212  2789.37190650
0.41700002 32030.10180297  4016.57495641
0.41800002 32206.09484095  2024.15315667
0.41900002 32378.31002253  2243.81699088
0.42000002 32549.42808344  2466.59577704
0.42100002 32718.97530963  2485.33348229
0.42200002 32886.43649244  2712.63784262
0.42300002 33051.22137254  3363.29244624
0.42400002 33213.87487490  2540.86154833
0.42500002 33374.70782408  2985.70150342
0.42600002 33531.93260925  2147.72038539
0.42700002 33688.17857411  3027.89363372
0.42800002 33841.41798075  2395.46488528
0.42900002 33992.80042453  3288.80359692
0.43000002 34141.67370454  2648.71117151
0.43100002 34286.61741316  2443.95020502
0.43200002 34429.83889309  2236.21814208
0.43300002 34570.09698819  2700.61610469
0.43400002 34708.06621673  2264.70142796
0.43500002 34842.70954709  2278.71331236
0.43600002 34975.70384051  2751.18899447
0.43700002 35104.93180852  2998.31236785
0.43800002 35230.52853216  2783.91649654
0.43900002 35354.41336360  2800.06967109
0.44000002 35474.63748602  2581.31211900
0.44100002 35592.52664494  2595.76309123
0.44200002 35707.18532644  2610.01683513
0.44300002 35819.12556740  2624.10926343
0.44400002 35927.31934931  2877.77841626
0.44500002 36031.83908561  2651.58316397
0.44600002 36134.04712995  2665.06677237
0.44700002 36233.40809792  2678.37365353
0.44800002 36328.39392178  2446.71744659
0.44900002 36421.74336862  2704.31457328
0.45000002 36511.48070599  3705.00268023
0.45100002 36596.83861299  2977.51893066
0.45200002 36679.89031162  3240.11826423
0.45300002 36759.06046369  3254.27977708
0.45400002 36835.65259649  2514.03340886
0.45500002 36908.77065502  2777.01603570
0.45600002 36978.30536220  3802.29442907
0.45700002 37044.56875953  4326.43539047
0.45800002 37106.93329809  3576.73747012
0.45900002 37166.30294369  2820.92252712
0.46000002 37223.05044576  3088.76887238
0.46100002 37275.12925553  2841.48323782
0.46200002 37324.82980527  3369.87241868
0.46300002 37370.66545146  3381.29797031
0.46400002 37412.71531141  4436.21292831
0.46500002 37452.33016081  3926.87700348
0.46600002 37487.68732308  3413.81640788
0.46700002 37519.76018066  3687.44220533
0.46800002 37549.06994593  2905.73491549
0.46900002 37574.30370052  2913.88739008
0.47000002 37595.77818804  2921.75604036
0.47100002 37614.46459582  2929.41464157
0.47200002 37629.49975565  2669.81313420
0.47300002 37641.79860890  3211.59840953
0.47400002 37649.19052894  2950.75544756
0.47500002 37654.50305984  2957.38481049
0.47600002 37656.61638127  3233.19723574
0.47700002 37654.22734524  3509.75069721
