# SAXS profile: number of points = 501, q_min = 0, q_max = 0.5, delta_q = 0.001
#    q    intensity    error
0.00000000 1664650.74656090 374.54641798
0.00100000 1664582.18022305 649.18706570
0.00200000 1664376.43072715 898.76330105
0.00300000 1664033.65086038 1098.26224869
0.00400000 1663553.73075291 1497.19841457
0.00500000 1662937.12182930 1795.97216266
0.00600000 1662183.56487790 1919.82209559
0.00700000 1661293.66646083 2591.61822739
0.00800000 1660266.94248100 3586.17674717
0.00900000 1659104.67500781 3732.98567834
0.01000000 1657806.12282930 3555.99428701
0.01100000 1656372.43186885 3279.61755789
0.01200000 1654803.10424956 3226.86619476
0.01300000 1653099.54012212 4860.11286231
0.01400000 1651260.96414777 5201.47226765
0.01500000 1649289.13906564 4354.12352102
0.01600000 1647182.97924710 5460.41182030
0.01700000 1644944.54396221 4885.48551472
0.01800000 1642573.42425079 6553.86825767
0.01900000 1640070.35986652 7872.33808258
0.02000000 1637435.90016774 6189.50798262
0.02100000 1634671.71934256 8091.62537761
0.02200000 1631776.09945042 7881.47891842
0.02300000 1628751.83706244 6449.85756835
0.02400000 1625598.84751898 8534.39433862
0.02500000 1622318.40629524 6959.74628086
0.02600000 1618910.72154902 9834.88308324
0.02700000 1615376.95557537 9498.41693382
0.02800000 1611716.87923984 9815.35624470
0.02900000 1607932.90329736 7959.26823677
0.03000000 1604025.68751018 8950.46374772
0.03100000 1599995.15894077 11519.96567444
0.03200000 1595842.37558604 8689.36213528
0.03300000 1591570.39004127 9740.41123609
0.03400000 1587176.79884331 9165.94643624
0.03500000 1582665.34057122 12819.58985061
0.03600000 1578035.44328977 10509.71653800
0.03700000 1573288.97450132 13451.62135409
0.03800000 1568427.54630844 11927.89204169
0.03900000 1563451.98285304 9380.71233154
0.04000000 1558361.44302753 14375.88497809
0.04100000 1553159.93400248 10763.39884170
0.04200000 1547847.52440488 13977.06379381
0.04300000 1542424.51875519 16288.00367411
0.04400000 1536894.46450599 15561.05717581
0.04500000 1531256.86371253 11622.24013560
0.04600000 1525512.32223781 12905.83484608
0.04700000 1519663.96864495 13129.89729974
0.04800000 1513711.93559659 14463.51821759
0.04900000 1507658.84347593 12438.18603764
0.05000000 1501504.39174170 13783.81095805
0.05100000 1495251.81754531 12829.26119218
0.05200000 1488899.43491857 18938.80169474
0.05300000 1482452.48076531 14409.43878478
0.05400000 1475909.53078845 23134.88297398
0.05500000 1469274.55531624 14810.28820848
0.05600000 1462545.63582896 16256.19550082
0.05700000 1455728.23084236 13931.31981945
0.05800000 1448820.77343232 19233.09666535
0.05900000 1441825.26361871 16869.35637224
0.06000000 1434744.47788486 18379.07762035
0.06100000 1427579.96907654 15931.79319941
0.06200000 1420331.99185026 16106.56554046
0.06300000 1413003.76224285 18990.77145246
0.06400000 1405593.71756525 19186.35514205
0.06500000 1398107.94992237 19377.77709237
0.06600000 1390544.02517833 15372.46491760
0.06700000 1382905.15348894 18337.32319343
0.06800000 1375194.49200929 19926.56912196
0.06900000 1367412.30999485 14357.82992716
0.07000000 1359558.52529979 18823.08866423
0.07100000 1351637.94403750 18976.99762313
0.07200000 1343649.26873572 22069.44027287
0.07300000 1335597.47731132 14825.13269280
0.07400000 1327481.76054476 17921.00460721
0.07500000 1319304.55690209 21056.10171511
0.07600000 1311065.94951298 16657.09366946
0.07700000 1302771.49168281 16766.66988412
0.07800000 1294419.41766552 18406.64498241
0.07900000 1286011.63465885 15432.14033973
0.08000000 1277552.44407536 18626.71550842
0.08100000 1269041.49648549 17170.13225304
0.08200000 1260479.88389278 23539.46293629
0.08300000 1251870.83805737 20505.64528975
0.08400000 1243215.00541116 17436.09126932
0.08500000 1234515.71835269 20702.82956867
0.08600000 1225773.01166920 28793.40939600
0.08700000 1216989.58210317 19277.11588572
0.08800000 1208164.98487913 17741.90363618
0.08900000 1199304.71945265 19428.73736769
0.09000000 1190407.68827017 22748.69199147
0.09100000 1181476.44348254 22826.12596048
0.09200000 1172512.09841847 21263.50790392
0.09300000 1163517.78656417 26248.96249838
0.09400000 1154492.19883028 26322.42337042
0.09500000 1145439.53798893 24741.49518348
0.09600000 1136360.66041864 19840.85806358
0.09700000 1127258.77903633 23198.98676322
0.09800000 1118134.59979049 26566.87934014
0.09900000 1108990.04370496 16634.85143779
0.10000000 1099824.53262121 23327.27943391
0.10100000 1090641.37013481 20024.17649745
0.10200000 1081442.74900837 18379.12038388
0.10300000 1072229.12094781 21744.80759571
0.10400000 1063003.45165281 23439.22721165
0.10500000 1053768.46752514 21781.39524855
0.10600001 1044520.41701154 23470.37487461
0.10700001 1035266.87494883 18448.45657973
0.10800001 1026005.21091769 18452.70458677
0.10900001 1016739.60452744 16776.20426429
0.11000001 1007470.20808356 25161.56963123
0.11100001 998199.18259785 16769.74705705
0.11200001 988928.75544132 21791.04615201
0.11300001 979658.16262444 25128.23305437
0.11400001 970391.56862837 20087.10641640
0.11500001 961129.09240259 20068.37639435
0.11600001 951872.20868168 18375.89385395
0.11700001 942623.43009089 25026.65324754
0.11800001 933381.40330375 16660.85883367
0.11900001 924150.09916792 18298.17282540
0.12000001 914929.73914233 19927.17065719
0.12100001 905723.98594874 18232.22469603
0.12200001 896530.80970327 18195.09364012
0.12300001 887354.26621735 24757.18519388
0.12400001 878193.61370710 23052.58344599
0.12500001 869051.51245303 18067.58179525
0.12600001 859930.40197443 18019.84242253
0.12700001 850829.84771919 26137.49415370
0.12800001 841750.30197756 22803.01675526
0.12900001 832694.88385511 16237.55100048
0.13000001 823663.96008807 17803.49733647
0.13100001 814658.08953418 22582.32330636
0.13200001 805680.42124784 22502.65522623
0.13300001 796732.06514393 19217.17831723
0.13400001 787811.60841375 22334.46015150
0.13500001 778922.67773564 20657.03038749
0.13600001 770064.56776257 15824.82761367
0.13700001 761240.14758619 17333.43897787
0.13800001 752448.27925011 18826.25683460
0.13900001 743693.78526584 18741.08427249
0.14000001 734973.81395524 24871.51503720
0.14100001 726291.55120728 17017.01184736
0.14200001 717646.54739766 21550.92683481
0.14300001 709042.95499871 16846.86140540
0.14400001 700475.65241773 16758.88077461
0.14500001 691952.97134802 15153.77078736
0.14600001 683470.11285362 19591.67170917
0.14700001 675033.01522304 20980.02710290
0.14800001 666637.27764163 17879.21262987
0.14900001 658285.94421762 16292.57788808
0.15000001 649980.82570916 20610.89295572
0.15100001 641722.31556188 17557.52338222
0.15200001 633511.58051556 18900.81889655
0.15300001 625348.85941207 17334.67120091
0.15400001 617232.72951585 15785.72780231
0.15500001 609168.41155605 18530.90395406
0.15600001 601152.01817723 22651.40911395
0.15700001 593190.20255227 16870.33015681
0.15800001 585275.41212968 15354.70116194
0.15900001 577416.04427508 16629.58286005
0.16000001 569607.02060107 20634.01529525
0.16100001 561854.91303253 15018.38253429
0.16200001 554154.51170902 18968.70983124
0.16300001 546510.31836983 14788.56991322
0.16400001 538920.76190579 16005.94738424
0.16500001 531387.40631555 15877.85645032
0.16600001 523910.13588130 14436.34447579
0.16700001 516489.26862226 13015.53018381
0.16800001 509124.76031888 18068.83859686
0.16900001 501820.28175187 14076.05956778
0.17000001 494573.24275243 17760.12598587
0.17100001 487384.83231567 15089.43512104
0.17200001 480255.62053976 14955.16072983
0.17300001 473185.76253464 17290.20857954
0.17400001 466176.81238792 15908.28447402
0.17500001 459227.26935305 16973.04067688
0.17600001 452336.51376461 14411.44200918
0.17700001 445509.01983537 13084.60053056
0.17800001 438741.70513887 15314.27994120
0.17900001 432035.59846090 17497.44256413
0.18000001 425391.82764096 17324.08299898
0.18100001 418811.09047069 16006.96063390
0.18200001 412289.51209596 12449.08240581
0.18300001 405833.10883757 17921.59093287
0.18400001 399437.34713392 12192.82559726
0.18500001 393105.47842345 14257.93637599
0.18600001 386836.22435545 11935.83226638
0.18700001 380629.59110764 13953.88146925
0.18800001 374485.52691036 12739.99822741
0.18900001 368406.57332747 16799.34053746
0.19000001 362387.03220551 12458.86675589
0.19100001 356435.66016284 11291.88224750
0.19200001 350544.04062100 10148.25045550
0.19300001 344718.36523690 11034.43539264
0.19400001 338955.16040971 9914.43891048
0.19500001 333255.99742288 9797.72678723
0.19600001 327618.89917155 12585.48060642
0.19700001 322045.99245018 10521.24307056
0.19800001 316536.67533214 12283.20626675
0.19900001 311091.69368742 15865.67712787
0.20000001 305707.78581197 13825.63526676
0.20100001 300388.94129016 11832.32095664
0.20200001 295131.88077705 11682.79605273
0.20300001 289938.80793815 13308.19191337
0.20400001 284808.46863814 14012.57731931
0.20500001 279740.17698123 10372.76625275
0.20600001 274735.31761929 12795.79802295
0.20700001 269792.31632759 10101.02480077
0.20800001 264911.63438452 13287.96820885
0.20900001 260095.44396412 9831.60824660
0.21000001 255338.54037418 9697.75822185
0.21100001 250643.72346135 8767.51786115
0.21200001 246010.36758810 11790.04742403
0.21300001 241438.13697524 8525.18101963
0.21400001 236927.90509142 9933.20289057
0.21500001 232479.01392582 9792.01652950
0.21600001 228089.17907239 7424.30312982
0.21700001 223760.52691695 7316.96957613
0.21800001 219491.83398833 10094.42992239
0.21900001 215281.55491033 7814.72081274
0.22000001 211130.81151864 8398.78407933
0.22100001 207041.34981573 8962.82045732
0.22200001 203009.65838729 9506.94275181
0.22300001 199036.25469530 8025.14216879
0.22400001 195119.52151955 8560.86941148
0.22500001 191263.66883193 9725.75802001
0.22600001 187463.34661123 7659.75270475
0.22700001 183721.26004971 6283.26739083
0.22800001 180035.21262903 6802.63083088
0.22900001 176405.23112326 6694.57883772
0.23000001 172831.50720969 8384.05681124
0.23100001 169314.96297824 6481.37708933
0.23200001 165851.73537807 8694.77763840
0.23300001 162444.59145489 7982.52760162
0.23400001 159092.02498924 7851.19180454
0.23500001 155792.08474623 6066.54406694
0.23600001 152546.96292816 5965.34926745
0.23700001 149354.92957733 6398.36548572
0.23800001 146215.59368770 5241.82928164
0.23900001 143128.89861031 5152.64059369
0.24000001 140093.82867826 5570.83136089
0.24100001 137111.58795674 6968.01122956
0.24200001 134179.81704077 5379.94001873
0.24300001 131298.88180974 6247.20109202
0.24400001 128467.53185162 6137.53662454
0.24500001 125686.53527137 5565.40004508
0.24600001 122954.90103636 6377.67101845
0.24700001 120272.94063870 5368.98432410
0.24800001 117638.27244915 5272.54762060
0.24900001 115051.73913086 6040.21659012
0.25000001 112513.31497908 6354.18976405
0.25100001 110021.29141764 4574.68551357
0.25200001 107577.08249434 4899.06056857
0.25300001 105178.88560870 7213.16831630
0.25400001 102825.81485776 3933.08760439
0.25500001 100517.85380225 4631.86292235
0.25600001 98255.38225811  4924.06871484
0.25700001 96036.63645937  4088.27980751
0.25800001 93861.84863378  4740.49288954
0.25900001 91730.65205403  3577.49559938
0.26000001 89642.82992128  4913.32374046
0.26100001 87595.38186999  4130.99840445
0.26200001 85592.25854332  4051.93771117
0.26300001 83629.17954272  3974.05879991
0.26400001 81707.02692658  3572.63992142
0.26500001 79826.30533652  4459.09762710
0.26600001 77984.46506557  3435.60577104
0.26700001 76183.41641861  3368.83083344
0.26800001 74421.19311818  4204.05339819
0.26900001 72696.92609027  4416.33846897
0.27000001 71011.55755051  3175.28194613
0.27100001 69363.50046948  3113.03404839
0.27200001 67753.03797516  2774.48703638
0.27300001 66178.74930068  3263.93606997
0.27400001 64639.75792427  2933.02915462
0.27500001 63138.62966444  3398.12120936
0.27600001 61670.65178257  3074.89884340
0.27700001 60239.35226677  3014.37733009
0.27800001 58841.27510647  2708.75822772
0.27900001 57477.81215475  3862.50915960
0.28000001 56147.28523313  2603.26900304
0.28100001 54849.74771536  3016.18776962
0.28200001 53585.01104368  2502.15220911
0.28300001 52352.25295228  2230.20608132
0.28400001 51151.30487250  3061.40574152
0.28500001 49981.71900978  2358.63743171
0.28600001 48842.06664914  2733.44638940
0.28700001 47733.19642802  2886.90385661
0.28800001 46653.41651271  2629.15341202
0.28900001 45604.42389115  2380.55103980
0.29000001 44583.05706535  2529.86569292
0.29100001 43591.44992273  2100.23615669
0.29200001 42627.12779222  2060.80859066
0.29300001 41690.40880020  1838.54711512
0.29400001 40780.84452109  3248.19441986
0.29500001 39899.09616762  2480.12793518
0.29600001 39042.42548494  2435.07619277
0.29700001 38211.62502523  1708.05971948
0.29800001 37406.89654579  2181.00920635
0.29900001 36627.20941074  1977.86940181
0.30000001 35872.02338721  2267.47070565
0.30100001 35141.80974190  1751.11646234
0.30200001 34434.26560283  2191.05242403
0.30300001 33750.78723350  2000.74676192
0.30400001 33091.13636806  1968.09542866
0.30500001 32452.73378298  2085.41277162
0.30600001 31836.95741030  1905.91954560
0.30700001 31243.59177211  2165.18101231
0.30800001 30671.21779533  1848.09431575
0.30900001 30120.03664924  1960.81447870
0.31000001 29590.36969822  1656.46897413
0.31100001 29079.37120016  1633.09756392
0.31200001 28589.51695209  1476.50567290
0.31300001 28118.39871142  1589.25197041
0.31400001 27668.10123881  1307.31784543
0.31500001 27235.75853902  1678.26752064
0.31600002 26821.71604801  1275.37265847
0.31700002 26425.50737613  1512.59611383
0.31800002 26047.66111219  1495.65677188
0.31900002 25687.26381713  1356.28759376
0.32000002 25343.63831776  1342.32586706
0.32100002 25017.28905120  1208.33511839
0.32200002 24707.30391150  1197.06893119
0.32300002 24412.62957892  1661.03539520
0.32400002 24134.13795212  1176.53928088
0.32500002 23870.66441480  1634.18576322
0.32600002 23622.83209622  1506.30995994
0.32700002 23389.38427723  1611.06086530
0.32800002 23171.08621497  1600.89042240
0.32900002 22965.74748402  1818.88728687
0.33000002 22775.74766121  1356.97910991
0.33100002 22596.91850336  1350.39191371
0.33200002 22433.76386169  1344.67986955
0.33300002 22282.07001714  1116.33176072
0.33400002 22143.80987169  1446.54444837
0.33500002 22017.33850616  1664.51086989
0.33600002 21902.83791883  1217.90736015
0.33700002 21799.36639411  1657.84189278
0.33800002 21708.72420041  1214.27754566
0.33900002 21627.97460835  1323.63210872
0.34000002 21558.69172600  1323.27256081
0.34100002 21499.90823777  1654.41801725
0.34200002 21452.21786106  1214.08832734
0.34300002 21413.34866520  1546.90038083
0.34400002 21385.13728002  1217.34899732
0.34500002 21365.94869364  1330.67134766
0.34600002 21357.28097217  1556.30513815
0.34700002 21355.50042792  1672.13576270
0.34800002 21364.06871782  1901.29538559
0.34900002 21380.76760377  1122.49035236
0.35000002 21405.79364948  1915.92565134
0.35100002 21439.03873483  1358.37755857
0.35200002 21479.22632309  1137.32508767
0.35300002 21527.45830562  1257.41889919
0.35400002 21583.40978724  1264.24828817
0.35500002 21646.20304455  1618.27021626
0.35600002 21715.26925214  1744.27908529
0.35700002 21791.36210161  1287.21582031
0.35800002 21874.32643744  1649.10554823
0.35900002 21963.08084259  1897.61027468
0.36000002 22058.62182643  1791.71164272
0.36100002 22159.01031465  1684.52804391
0.36200002 22266.25823740  1697.35694584
0.36300002 22377.05807535  1466.14491454
0.36400002 22494.01061118  1847.32070895
0.36500002 22615.36973047  1365.74224272
0.36600002 22742.17388835  2003.13077097
0.36700002 22873.10531322  1388.85502041
0.36800002 23009.84947698  1528.31427466
0.36900002 23149.89311653  1798.74678036
0.37000002 23293.03993001  1296.25773351
0.37100002 23440.53802242  1961.97312541
0.37200002 23592.13493098  1451.97801311
0.37300002 23746.76188674  1865.07076693
0.37400002 23905.67890256  1613.63340236
0.37500002 24066.68533123  1900.30556377
0.37600002 24231.73058311  1507.33487233
0.37700002 24398.45576354  1798.41025952
0.37800002 24568.78239128  1676.08241413
0.37900002 24741.42194641  1833.33945308
0.38000002 24916.53495003  1423.98003985
0.38100002 25093.31535190  1437.84703778
0.38200002 25272.53355299  1597.09783354
0.38300002 25453.42008661  2199.17559967
0.38400002 25636.68214730  1776.62215697
0.38500002 25820.53788516  1495.00921438
0.38600002 26007.07790803  2113.59532172
0.38700002 26193.94340085  1676.93633597
0.38800002 26382.04115163  2463.02747860
0.38900002 26571.35089302  1709.86651097
0.39000002 26762.35543790  1726.57344287
0.39100002 26953.24237500  1901.82087208
0.39200002 27145.33670503  1920.26120949
0.39300002 27337.77186687  1615.66239388
0.39400002 27531.48873635  1794.36486340
0.39500002 27724.59915302  1811.52539448
0.39600002 27917.99103678  1995.01973401
0.39700002 28111.14671403  1846.05909217
0.39800002 28305.42520217  2202.30371220
0.39900002 28498.69407759  1709.92172567
0.40000002 28691.77241169  2761.29630773
0.40100002 28884.28598548  1915.89478019
0.40200002 29077.65283056  2109.29303627
0.40300002 29269.23382749  2837.94504637
0.40400002 29460.42053737  1968.69269569
0.40500002 29650.87397385  2347.45980373
0.40600002 29840.86365692  2003.96329383
0.40700002 30029.69580886  2572.94445881
0.40800002 30217.85714929  2224.63874874
0.40900002 30404.04732262  2056.83389883
0.41000002 30590.05517141  2451.64008788
0.41100002 30774.49795083  2472.42328252
0.41200002 30956.96357420  2876.67597644
0.41300002 31138.49469327  2320.44073449
0.41400002 31318.41890593  2339.48600312
0.41500002 31497.24363436  2358.51371510
0.41600002 31673.20906494  1981.15932089
0.41700002 31848.42366869  3195.03401384
0.41800002 32022.60543642  2817.66918586
0.41900002 32192.90925533  2839.41473086
0.42000002 32362.15277490  2043.67004457
0.42100002 32529.92999585  2676.88806620
0.42200002 32695.63106501  2904.35304513
0.42300002 32858.53622204  2089.80300275
0.42400002 33019.50561039  2315.49294065
0.42500002 33178.57220820  2332.12195102
0.42600002 33334.11020689  2348.55484592
0.42700002 33488.63179407  2579.96431567
0.42800002 33640.15027841  2381.21815030
0.42900002 33789.92562543  2615.34036734
0.43000002 33937.13076457  2632.84272948
0.43100002 34080.41523994  2650.09321464
0.43200002 34222.10004833  2889.54315451
0.43300002 34360.81474848  3355.33371919
0.43400002 34497.19914071  2476.03658566
0.43500002 34630.45716626  3170.76480840
0.43600002 34761.91261478  2962.23652385
0.43700002 34889.59954549  2750.69615852
0.43800002 35013.89311170  2766.79796480
0.43900002 35136.35576213  3710.39934431
0.44000002 35255.17076578  2798.55558801
0.44100002 35371.81382002  3048.69677763
0.44200002 35485.18102204  2357.99039066
0.44300002 35595.87887055  2607.75420964
0.44400002 35702.92650472  3336.43863998
0.44500002 35806.22212907  3353.61092354
0.44600002 35907.28880895  3129.85897736
0.44700002 36005.46533441  3145.43760068
0.44800002 36099.47957308  2431.30006447
0.44900002 36191.78227372  2442.94541925
0.45000002 36280.54733378  3436.13080083
0.45100002 36364.87219887  3205.19998751
0.45200002 36447.05420902  2724.23519596
0.45300002 36525.35711106  2984.85232458
0.45400002 36601.16527448  3247.43854288
0.45500002 36673.51541297  3762.70285970
0.45600002 36742.25453531  2518.68166776
0.45700002 36807.87329126  2781.57111645
0.45800002 36869.54949859  4061.54976526
0.45900002 36928.23900220  2802.85347311
0.46000002 36984.50139886  3068.97407153
0.46100002 37036.11413781  2566.60283139
0.46200002 37085.26255557  2833.12876721
0.46300002 37130.65465492  2842.72305511
0.46400002 37172.31889525  2592.76936583
0.46500002 37211.57816171  2861.19838046
0.46600002 37246.67395503  3913.69445132
0.46700002 37278.46983026  3663.72818856
0.46800002 37307.62689845  2887.05084437
0.46900002 37332.65018390  3158.34235525
0.47000002 37354.05979670  3430.78378464
0.47100002 37372.65154984  2910.58224065
0.47200002 37387.70478334  3183.18933613
0.47300002 37399.89723391  3988.69922905
0.47400002 37407.44524962  3464.86478047
0.47500002 37412.80468017  3739.78413309
0.47600002 37415.10639741  3212.46118755
0.47700002 37412.98727373  2950.76244614
