# SAXS profile: number of points = 501, q_min = 0, q_max = 0.5, delta_q = 0.001
#    q    intensity    error
0.00000000 1664650.74656090 299.63713438
0.00100000 1664582.18861085 749.06200266
0.00200000 1664376.46371643 1048.55720534
0.00300000 1664033.73427566 1198.10433136
0.00400000 1663553.87401145 1372.43199821
0.00500000 1662937.34150675 1795.97239991
0.00600000 1662183.88157025 2443.41040538
0.00700000 1661294.09719705 2790.97419928
0.00800000 1660267.51065281 2241.36123401
0.00900000 1659105.38089993 2737.52399551
0.01000000 1657806.99939599 3008.91983383
0.01100000 1656373.48486134 3577.76688307
0.01200000 1654804.36992797 3872.24239541
0.01300000 1653101.03664449 3818.66356307
0.01400000 1651262.67630418 4086.87530503
0.01500000 1649291.11510623 3958.29885251
0.01600000 1647185.24053812 5040.38706137
0.01700000 1644947.07562920 5329.62876412
0.01800000 1642576.28075286 6085.74539403
0.01900000 1640073.54450176 6396.28711217
0.02000000 1637439.38721619 5673.72773336
0.02100000 1634675.58882468 8091.64453154
0.02200000 1631780.32261259 7318.53507942
0.02300000 1628756.42770558 6449.87574730
0.02400000 1625603.84465354 6705.61616496
0.02500000 1622323.86266745 7592.47602404
0.02600000 1618916.60714337 7867.93507058
0.02700000 1615383.31871671 8819.99332416
0.02800000 1611723.69444138 8413.19807081
0.02900000 1607940.26147746 9406.45096153
0.03000000 1604033.52194085 7458.75621987
0.03100000 1600003.54432815 10752.02431262
0.03200000 1595851.24601783 9479.35683795
0.03300000 1591579.83112126 9740.46901550
0.03400000 1587186.82464655 12499.09682080
0.03500000 1582675.96156206 10255.74070451
0.03600000 1578046.61743569 15764.68643673
0.03700000 1573300.80570188 12554.94101014
0.03800000 1568439.99412690 12845.52414638
0.03900000 1563465.08365330 10318.87002998
0.04000000 1558375.26628630 12459.21083131
0.04100000 1553174.35899085 12720.49858994
0.04200000 1547862.70265662 9983.71489531
0.04300000 1542440.40910969 16288.17147626
0.04400000 1536911.03370900 13486.39494713
0.04500000 1531274.20905777 12678.95104012
0.04600000 1525530.46319198 10754.99026547
0.04700000 1519682.80797312 10941.71672628
0.04800000 1513731.62561680 13351.11355914
0.04900000 1507679.26589184 13569.11402463
0.05000000 1501525.63950130 14932.67318020
0.05100000 1495273.91082255 11663.13704773
0.05200000 1488922.33159258 13020.62639655
0.05300000 1482476.25686635 15610.47571253
0.05400000 1475934.23280614 21917.62437927
0.05500000 1469300.05368835 16044.75733475
0.05600000 1462572.12761621 15005.99072958
0.05700000 1455755.63016152 13931.58203095
0.05800000 1448849.03357458 14104.54600042
0.05900000 1441854.54220130 15572.02978308
0.06000000 1434774.68692593 17066.64569832
0.06100000 1427611.13781280 15932.14104252
0.06200000 1420364.11433809 14764.68565870
0.06300000 1413036.87502660 18991.21648830
0.06400000 1405627.78853967 20557.30736879
0.06500000 1398143.06816542 23530.74893794
0.06600000 1390580.09520973 18167.92979397
0.06700000 1382942.30187307 18337.81578103
0.06800000 1375232.63623469 24197.21936720
0.06900000 1367451.52072710 20101.53829582
0.07000000 1359598.88198357 17375.67452543
0.07100000 1351679.29709377 17517.76451083
0.07200000 1343691.72888602 22070.13768087
0.07300000 1335641.02453172 17790.73928036
0.07400000 1327526.46794349 16428.14081069
0.07500000 1319350.32559340 16544.65385843
0.07600000 1311112.87740182 25743.70255466
0.07700000 1302819.52425956 16767.28806341
0.07800000 1294468.55066037 24543.12487150
0.07900000 1286061.98086298 24692.39119073
0.08000000 1277603.84965651 17075.17625167
0.08100000 1269094.16272610 15609.85893392
0.08200000 1260533.82050332 23540.47020254
0.08300000 1251925.87258902 18929.12008193
0.08400000 1243271.20114744 22192.39198216
0.08500000 1234573.16744933 19111.19352929
0.08600000 1225831.60720884 27195.07548278
0.08700000 1217049.62105589 20884.57247801
0.08800000 1208226.17213704 22581.74821777
0.08900000 1199367.00849904 22668.03752534
0.09000000 1190471.30662217 19499.92091849
0.09100000 1181541.27535057 19566.32443905
0.09200000 1172578.00309819 24536.19586771
0.09300000 1163585.07902731 16406.55038526
0.09400000 1154560.71074140 26323.98544206
0.09500000 1145509.34891257 23093.46955953
0.09600000 1136431.63779308 18188.58921788
0.09700000 1127331.12759274 21543.29886111
0.09800000 1118208.16423994 19926.47042365
0.09900000 1109064.91143146 18299.57189911
0.10000000 1099900.64604515 18329.84512834
0.10100000 1090718.88152561 20025.59960665
0.10200000 1081521.48224597 18380.45845532
0.10300000 1072309.15459949 25092.03539798
0.10400000 1063084.80898689 18417.94518217
0.10500000 1053851.04516914 20107.47888787
0.10600001 1044604.32839291 20119.08031152
0.10700001 1035352.08084730 20127.24539881
0.10800001 1026091.65138879 20131.91914769
0.10900001 1016827.42052468 18455.41855114
0.11000001 1007559.39859433 25163.79716434
0.11100001 998289.51523272 18448.39110993
0.11200001 989020.56250420 18440.28925601
0.11300001 979751.15533915 20104.49465410
0.11400001 970485.81284295 18414.96916575
0.11500001 961224.66824262 21742.90301948
0.11600001 951968.89430003 25060.58232259
0.11700001 942721.44321539 20023.40439690
0.11800001 933480.79458666 21661.42285860
0.11900001 924250.74458456 16636.51418613
0.12000001 915031.67402126 16607.82566580
0.12100001 905827.10845625 18234.30055221
0.12200001 896635.17258078 18197.21168482
0.12300001 887460.08350931 23109.46166337
0.12400001 878300.69327416 18114.95265231
0.12500001 869159.81217234 26283.39395858
0.12600001 860040.00355818 19660.51540781
0.12700001 850940.69732377 16338.06215857
0.12800001 841862.46264857 19548.04730398
0.12900001 832808.23653696 16239.76137788
0.13000001 823778.61367086 21043.42567810
0.13100001 814773.90471304 16132.52407377
0.13200001 805797.41925493 19290.79112634
0.13300001 796850.28368467 17618.36060285
0.13400001 787931.04755275 22337.84625125
0.13500001 779043.27692198 15892.48359851
0.13600001 770186.34708443 22158.26225040
0.13700001 761363.05933988 17336.23767863
0.13800001 752572.42184988 17260.24930905
0.13900001 743819.07503695 18744.24157488
0.14000001 735100.31357207 20211.58407485
0.14100001 726419.17426430 18567.27496988
0.14200001 717775.33941845 15396.28175670
0.14300001 709172.89124146 16849.94869067
0.14400001 700606.64687909 18285.83434608
0.14500001 692085.01141434 15156.66246495
0.14600001 683603.22418528 19595.48734568
0.14700001 675167.31430566 14988.71508470
0.14800001 666772.57788921 14902.36781890
0.14900001 658422.29515049 16295.95257383
0.15000001 650118.27077027 14725.17952772
0.15100001 641860.62180344 19024.74972794
0.15200001 633650.91523303 17450.74702897
0.15300001 625489.18129518 17338.56092369
0.15400001 617374.12946302 15789.34410613
0.15500001 609310.78120439 18535.23483897
0.15600001 601295.27813916 15576.55491533
0.15700001 593334.39287309 15468.22835225
0.15800001 585420.64003182 18150.96780089
0.15900001 577562.06620019 19406.08634031
0.16000001 569754.01641911 17887.42818981
0.16100001 562002.66723395 17753.66509597
0.16200001 554303.18820553 13552.71359140
0.16300001 546659.63433854 18826.95869540
0.16400001 539070.91001018 17344.60734841
0.16500001 531538.50786791 19852.96420615
0.16600001 524061.96626595 13127.75287476
0.16700001 516641.75283314 18227.12190054
0.16800001 509278.07026316 18074.27956704
0.16900001 501974.25098915 15360.41280556
0.17000001 494727.91742482 17765.68035362
0.17100001 487540.22799298 16352.10001905
0.17200001 480411.65832886 12466.68312235
0.17300001 473342.41927329 17295.93281704
0.17400001 466334.01108484 13465.39520599
0.17500001 459385.13834955 16978.87551527
0.17600001 452494.86447001 15617.86098480
0.17700001 445667.95387262 13089.26842345
0.17800001 438901.15771723 14141.39596958
0.17900001 432195.49391584 14003.13466429
0.18000001 425552.24724600 13864.49287016
0.18100001 418971.95753992 13725.52197735
0.18200001 412450.69064477 15850.48079022
0.18300001 405994.70581828 12325.99985091
0.18400001 399599.43180060 16633.32713447
0.18500001 393267.96512765 14263.82976903
0.18600001 386998.97857198 14111.91842032
0.18700001 380792.56772327 15033.69128398
0.18800001 374648.82899789 18056.20116664
0.18900001 368570.13868429 13655.52428344
0.19000001 362550.75160777 13503.20338164
0.19100001 356599.61449029 13351.09019736
0.19200001 350708.16365033 11168.30199916
0.19300001 344882.58080719 13046.90864844
0.19400001 339119.58401989 11903.09796157
0.19500001 333420.48798217 9802.56280990
0.19600001 327783.42876600 10654.60085554
0.19700001 322210.59722485 12440.55174676
0.19800001 316701.24919987 10398.88600892
0.19900001 311256.12093834 9337.68406945
0.20000001 305872.26009882 12910.86870895
0.20100001 300553.32325641 12749.47257511
0.20200001 295296.15484359 10790.12200796
0.20300001 290102.98256428 11540.29719185
0.20400001 284972.44163695 10515.48359343
0.20500001 279903.92094709 14703.35366233
0.20600001 274898.82601093 11096.29163643
0.20700001 269955.63487750 10107.13944757
0.20800001 265074.71599599 12465.13910894
0.20900001 260258.16293451 9017.94577197
0.21000001 255500.91691524 8086.60440264
0.21100001 250805.65470353 15153.67837355
0.21200001 246171.95587773 10224.75267075
0.21300001 241599.30697475 10081.93955669
0.21400001 237088.53535994 9175.32675221
0.21500001 232639.14074796 10552.51192322
0.21600001 228248.85516633 8915.40070430
0.21700001 223919.61568113 8786.60613475
0.21800001 219650.32921066 8658.61638687
0.21900001 215439.47132974 9242.35375704
0.22000001 211288.04454552 7704.61890865
0.22100001 207197.98776619 9659.57064640
0.22200001 203165.44638488 10193.82675437
0.22300001 199191.38097359 8031.39686062
0.22400001 195273.80632458 10544.78604015
0.22500001 191417.21221198 7137.94818092
0.22600001 187616.00167988 6388.32515929
0.22700001 183873.10438221 7546.15256070
0.22800001 180186.13956513 8665.15186146
0.22900001 176555.25504177 7309.38790440
0.23000001 172980.57020252 7791.91015327
0.23100001 169462.99051726 7076.77481868
0.23200001 165998.76384260 6381.82277775
0.23300001 162590.61765403 6848.31713948
0.23400001 159236.92993168 8419.65306835
0.23500001 155935.90853538 7176.17085020
0.23600001 152689.57696239 5970.92618952
0.23700001 149496.31822256 6938.12445687
0.23800001 146355.89331516 5771.54492587
0.23900001 143267.86116904 5673.40757064
0.24000001 140231.56005292 5576.30824927
0.24100001 137248.05212950 6974.94633914
0.24200001 134314.89705310 6364.51169792
0.24300001 131432.61226278 7215.65075455
0.24400001 128599.93592741 5671.25744267
0.24500001 125817.45446507 6499.73000513
0.24600001 123084.42430130 5928.36157691
0.24700001 120400.94208730 4478.91525753
0.24800001 117764.81837948 6597.77426183
0.24900001 115176.61184629 4751.03546342
0.25000001 112636.66190959 4664.84757367
0.25100001 110143.09015423 6661.45440767
0.25200001 107697.23460566 4904.53229597
0.25300001 105297.35340740 4011.82935462
0.25400001 102942.58061208 4331.30928417
0.25500001 100632.92893684 4637.16558480
0.25600001 98368.72951008  4929.74911264
0.25700001 96148.26061981  4093.03164824
0.25800001 93971.63938540  5111.11770800
0.25900001 91838.59783090  4656.21713033
0.26000001 89748.94107606  4216.40545125
0.26100001 87699.61806525  4480.57369896
0.26200001 85694.58281183  4732.91203264
0.26300001 83729.60765459  3978.83114401
0.26400001 81805.50043193  3902.12255524
0.26500001 79922.76348951  3188.91841413
0.26600001 78078.91641465  3439.76682542
0.26700001 76275.83606351  4906.06200776
0.26800001 74511.55907247  5712.42894661
0.26900001 72785.21523677  3832.14176356
0.27000001 71097.78549664  4335.18767581
0.27100001 69447.59412801  3400.15436941
0.27200001 67834.93810439  3611.19310088
0.27300001 66258.49119631  2995.54652875
0.27400001 64717.27733025  2669.58781621
0.27500001 63213.89443755  3140.46642428
0.27600001 61743.74268936  4104.72420825
0.27700001 60310.14952609  2514.93335426
0.27800001 58909.87191445  2465.37825630
0.27900001 57544.05951458  3141.90579820
0.28000001 56211.19703987  3553.95310105
0.28100001 54911.27027259  2555.02152671
0.28200001 53644.20066460  2732.63571119
0.28300001 52409.05901351  3125.67642750
0.28400001 51205.73468127  2407.94978736
0.28500001 50033.66052972  2361.08855215
0.28600001 48891.68497494  3157.18070669
0.28700001 47780.32616568  2064.11018806
0.28800001 46698.07080960  2024.36146542
0.28900001 45646.61254060  2382.75328740
0.29000001 44622.71789985  3116.45076564
0.29100001 43628.60414546  1910.93295202
0.29200001 42661.75626552  2624.97798727
0.29300001 41722.45919451  2207.95264509
0.29400001 40810.34511873  2528.20099978
0.29500001 39926.00318845  2127.25755058
0.29600001 39066.80357367  2958.72450871
0.29700001 38233.35201729  2050.83709929
0.29800001 37426.11933017  2182.12999084
0.29900001 36643.70812390  1813.86363800
0.30000001 35885.94001676  2592.40042953
0.30100001 35153.13292699  1910.92439637
0.30200001 34442.97281919  2504.69310199
0.30300001 33756.83210809  2001.10510210
0.30400001 33094.45844256  1968.29300905
0.30500001 32453.45946467  1936.49801793
0.30600001 31834.90282234  2638.79521987
0.30700001 31238.80712362  1587.55625318
0.30800001 30663.84926422  1563.39642875
0.30900001 30109.94144332  2100.16851510
0.31000001 29577.53254489  1379.79195854
0.31100001 29063.85706742  1496.20743267
0.31200001 28571.28097427  1341.42170525
0.31300001 28097.49455319  1323.39205611
0.31400001 27644.46423065  1567.44119609
0.31500001 27209.37510671  1547.66932935
0.31600002 26792.68171545  1401.39128348
0.31700002 26393.73338774  1510.77737065
0.31800002 26013.14673397  1742.62078222
0.31900002 25650.06131548  1354.32330158
0.32000002 25303.72864740  1827.56188809
0.32100002 24974.62409756  1326.90184113
0.32200002 24661.96952839  1433.84697627
0.32300002 24364.58105293  1894.58991239
0.32400002 24083.43393825  1526.28769811
0.32500002 23817.21393430  1164.66181654
0.32600002 23566.68185000  1155.94579948
0.32700002 23330.53327323  1147.86229140
0.32800002 23109.52441360  1596.63711734
0.32900002 22901.51162041  1360.34985467
0.33000002 22708.86852209  1465.74398817
0.33100002 22527.40724410  1234.05142727
0.33200002 22361.57686968  1452.04906279
0.33300002 22207.24245233  1112.58289955
0.33400002 22066.39229376  1219.71989180
0.33500002 21937.25030939  1105.63746795
0.33600002 21820.18029109  1544.21423233
0.33700002 21714.05824218  1210.99308552
0.33800002 21620.84559252  1209.36205549
0.33900002 21537.49886825  1208.25374373
0.34000002 21465.73340118  1646.95847320
0.34100002 21404.31720323  1207.84567698
0.34200002 21354.10485365  1098.66874675
0.34300002 21312.71772368  1099.73628662
0.34400002 21282.01100368  1101.34412160
0.34500002 21260.38128428  1434.43799319
0.34600002 21249.21752040  1437.82837161
0.34700002 21244.99901755  1663.48350186
0.34800002 21251.12700260  1557.49517179
0.34900002 21265.41557105  1228.07780739
0.35000002 21288.06182443  1457.06146058
0.35100002 21318.91222393  2026.14951373
0.35200002 21356.74828216  1583.17582514
0.35300002 21402.66270074  1250.12958756
0.35400002 21456.29841765  1599.56712280
0.35500002 21516.80258994  1723.49596909
0.35600002 21583.64577220  1502.54557160
0.35700002 21657.43532389  1395.60519837
0.35800002 21738.19351571  1287.66195389
0.35900002 21824.80088893  1296.39323421
0.36000002 21918.14274224  1186.86748571
0.36100002 22016.42664560  2151.88564227
0.36200002 22121.56251236  1324.97104944
0.36300002 22230.25268516  1335.14903951
0.36400002 22345.17715029  1468.07820831
0.36500002 22464.45969794  1726.61845417
0.36600002 22589.27027333  1740.95514243
0.36700002 22718.23029626  1254.04637176
0.36800002 22853.02086655  1517.89771786
0.36900002 22991.13191740  1658.81024642
0.37000002 23132.42804916  1416.05165011
0.37100002 23278.07231853  1558.69979628
0.37200002 23427.89087377  1441.86961213
0.37300002 23580.67141031  1322.87572878
0.37400002 23737.84721648  1468.77936610
0.37500002 23897.13688121  1886.91801753
0.37600002 24060.45051795  1496.68039537
0.37700002 24225.50984873  1510.94512084
0.37800002 24394.21768346  2080.21701150
0.37900002 24565.28640495  1400.22139141
0.38000002 24738.84211669  1696.58987273
0.38100002 24914.08508443  1570.33485726
0.38200002 25091.84880977  1873.98481713
0.38300002 25271.21007730  2183.43265412
0.38400002 25453.08014081  2057.88162688
0.38500002 25635.56306398  1929.58892324
0.38600002 25820.80431912  2248.34664260
0.38700002 26006.33771708  1816.28271221
0.38800002 26193.18106771  2139.72106279
0.38900002 26381.27310368  2623.61773446
0.39000002 26571.08917579  2337.59168099
0.39100002 26760.79090943  1730.88803802
0.39200002 26951.83021615  1747.69151317
0.39300002 27143.20246076  1604.16334143
0.39400002 27335.83575850  2267.50768360
0.39500002 27527.96648293  2125.70967252
0.39600002 27720.37259812  1980.89791971
0.39700002 27912.61690509  1999.65996982
0.39800002 28106.04784346  2018.57645175
0.39900002 28298.46210315  2037.48936796
0.40000002 28490.73700729  1885.08970340
0.40100002 28682.53233994  2075.46813845
0.40200002 28875.16449998  1920.05415440
0.40300002 29066.10926432  2113.68756585
0.40400002 29256.63275271  1955.07457633
0.40500002 29446.54308124  2331.28292620
0.40600002 29635.92666962  2532.98277247
0.40700002 29824.26984989  3102.91718220
0.40800002 30011.97631147  2025.35831734
0.40900002 30197.78908129  2228.59693979
0.41000002 30383.36092737  2435.07457690
0.41100002 30567.46155549  2077.97613500
0.41200002 30749.62686761  2095.43342218
0.41300002 30930.95127567  2689.13703133
0.41400002 31110.68529630  1936.64025146
0.41500002 31289.34719742  2342.94642916
0.41600002 31465.21660612  2558.59420956
0.41700002 31640.29089521  2579.00023307
0.41800002 31814.46099967  2199.49286543
0.41900002 31984.78277555  2015.04141034
0.42000002 32154.06579360  2842.74109151
0.42100002 32321.95874503  2250.57809406
0.42200002 32487.78546825  2061.35008564
0.42300002 32650.93444252  2491.91943473
0.42400002 32812.04604985  2719.29844524
0.42500002 32971.38948796  2949.62064336
0.42600002 33127.23599821  2546.15947947
0.42700002 33282.11443296  2777.72540220
0.42800002 33434.03034371  2366.62795003
0.42900002 33584.24020920  2382.80195576
0.43000002 33731.91961771  2398.84557729
0.43100002 33875.70990721  2414.66071661
0.43200002 34017.97083023  3093.25423418
0.43300002 34157.25186628  3113.09208262
0.43400002 34294.27631915  2237.70163587
0.43500002 34428.22812323  3377.40933894
0.43600002 34560.40613994  2491.97820281
0.43700002 34688.91435230  2962.78031523
0.43800002 34813.95886557  2521.74922993
0.43900002 34937.32557386  2767.03631658
0.44000002 35057.03042391  2782.82720693
0.44100002 35174.54776035  2332.07262703
0.44200002 35288.89959266  2579.44223797
0.44300002 35400.59037060  3300.75120258
0.44400002 35508.69414269  3081.26708026
0.44500002 35613.09301536  2382.51603564
0.44600002 35715.25403044  2873.64947547
0.44700002 35814.62618266  3369.44019095
0.44800002 35909.84235071  3385.93919571
0.44900002 36003.34932342  3645.33929176
0.45000002 36093.38331368  2930.06099627
0.45100002 36179.00042638  2943.52361419
0.45200002 36262.55889229  2710.44509286
0.45300002 36342.26553099  2969.89007994
0.45400002 36419.44300284  4474.12878494
0.45500002 36493.28610499  2995.36906546
0.45600002 36563.50796803  3509.00002600
0.45700002 36630.63554200  4278.09212771
0.45800002 36693.86665094  3789.55925798
0.45900002 36754.16561131  3804.05632106
0.46000002 36812.04371857  3054.66353254
0.46100002 36865.30844537  2554.76599635
0.46200002 36916.18445114  2820.21204481
0.46300002 36963.25101208  2829.90663161
0.46400002 37006.68430065  3097.45962277
0.46500002 37047.71142474  3366.52569672
0.46600002 37084.65474257  3117.33622541
0.46700002 37118.30873861  2866.27593665
0.46800002 37149.31300971  3397.49058233
0.46900002 37176.24990350  3669.29603939
0.47000002 37199.59417788  2890.96659856
0.47100002 37220.11427140  3952.77632297
0.47200002 37237.12504916  2906.17156221
0.47300002 37251.34497684  3178.28490407
0.47400002 37260.98295814  4247.75225856
0.47500002 37268.39480524  2660.96351522
0.47600002 37272.78501735  2933.55468384
0.47700002 37272.80872767  2939.70656369
