# SAXS profile: number of points = 501, q_min = 0, q_max = 0.5, delta_q = 0.001
#    q    intensity    error
0.00000000 1646666.22097351 246.99993315
0.00100000 1646598.23088807 543.37742910
0.00200000 1646394.20462116 1037.22838176
0.00300000 1646054.31533608 1086.39588682
0.00400000 1645578.42646929 1357.60225342
0.00500000 1644966.97832786 1480.47033909
0.00600000 1644219.76600962 2071.71698952
0.00700000 1643337.35039993 2169.20539268
0.00800000 1642319.24293006 2660.55728588
0.00900000 1641166.73869137 3938.80034123
0.01000000 1639879.11231378 2976.38071737
0.01100000 1638457.46706853 2949.22356913
0.01200000 1636901.35182553 4149.54510881
0.01300000 1635212.12618015 3777.34017807
0.01400000 1633389.02492546 4042.63801590
0.01500000 1631433.79161947 5481.61778393
0.01600000 1629345.39131905 6232.24640040
0.01700000 1627125.80802757 5711.21184237
0.01800000 1624774.71806742 6019.79060132
0.01900000 1622292.76730464 5353.56637367
0.02000000 1619680.53866079 6632.59210585
0.02100000 1616939.72691937 5869.49147483
0.02200000 1614068.51803442 9466.51228836
0.02300000 1611069.84721204 7539.80722815
0.02400000 1607943.55560542 6029.78860846
0.02500000 1604690.85832943 8761.61248663
0.02600000 1601312.07439437 8430.90845730
0.02700000 1597808.25657670 7381.87448348
0.02800000 1594179.16995222 9015.08361951
0.02900000 1590427.39557599 9304.00069131
0.03000000 1586553.39674346 8115.22099736
0.03100000 1582557.13369039 9115.52950949
0.03200000 1578439.68471491 8594.60447912
0.03300000 1574204.14130980 8831.28563987
0.03400000 1569847.95589055 9065.87236357
0.03500000 1565375.02537170 10143.63063282
0.03600000 1560784.71598635 10394.82668885
0.03700000 1556078.80924875 9756.61458521
0.03800000 1551259.03893302 9982.35237751
0.03900000 1546326.09372823 14844.73118725
0.04000000 1541279.24126375 14218.30165952
0.04100000 1536122.37914492 9677.57143733
0.04200000 1530855.60285191 14811.02864472
0.04300000 1525479.31291441 11074.98032584
0.04400000 1519996.90438268 10259.97958108
0.04500000 1514408.02371073 10449.41584914
0.04600000 1508713.10997071 12763.71350370
0.04700000 1502915.36884396 17313.58585430
0.04800000 1497014.83901155 12103.36553656
0.04900000 1491014.27653271 13419.12911342
0.05000000 1484913.20410625 13631.50384846
0.05100000 1478715.06176496 12687.37582097
0.05200000 1472417.90424689 12876.29517269
0.05300000 1466027.27323900 13062.30361350
0.05400000 1459541.46527494 18061.82647507
0.05500000 1452964.42028495 14645.88203969
0.05600000 1446294.52938971 12365.81880332
0.05700000 1439536.96301844 12523.97216286
0.05800000 1432690.15049423 15215.17010868
0.05900000 1425756.26757017 15398.16840894
0.06000000 1418737.92776313 12981.45264551
0.06100000 1411636.60593088 15753.86525839
0.06200000 1404452.71074220 18580.91023166
0.06300000 1397189.42262521 13413.01908433
0.06400000 1389845.05747740 13550.98994414
0.06500000 1382425.86649412 17791.82173404
0.06600000 1374929.31878691 15199.84433037
0.06700000 1367358.59136188 13947.05828460
0.06800000 1359716.74695713 14073.06898975
0.06900000 1352004.27535536 19874.46377822
0.07000000 1344220.87886143 20042.33424238
0.07100000 1336371.52645922 25979.06369117
0.07200000 1328454.78654961 23274.52895069
0.07300000 1320475.65241848 14657.28042862
0.07400000 1312433.27331809 22147.31252516
0.07500000 1304330.09562249 19330.17292318
0.07600000 1296166.28659622 16467.79344322
0.07700000 1287947.20823722 16575.88134723
0.07800000 1279671.25776392 21229.74716190
0.07900000 1271340.30262864 18307.30121653
0.08000000 1262958.35747836 16879.43923953
0.08100000 1254525.38567971 21602.92815498
0.08200000 1246042.52825598 18615.87624570
0.08300000 1237512.66011263 24948.25639874
0.08400000 1228936.75775735 17235.83883657
0.08500000 1220318.02056823 20464.73416565
0.08600000 1211656.29920666 20555.75008116
0.08700000 1202954.66141005 15879.00227625
0.08800000 1194212.07251276 19131.27830013
0.08900000 1185434.43953260 17603.70225390
0.09000000 1176620.77294841 28909.57374938
0.09100000 1167773.24048522 19338.32577097
0.09200000 1158893.03495395 17783.21445694
0.09300000 1149983.55416868 35672.49152664
0.09400000 1141043.06921918 19511.83740066
0.09500000 1132076.15989221 24452.84620302
0.09600000 1123083.50166391 16340.86571736
0.09700000 1114068.24179054 19652.16470909
0.09800000 1105030.98943594 18050.68206114
0.09900000 1095974.02816527 18083.57231506
0.10000000 1086896.41495379 18113.12960701
0.10100000 1077801.51846132 21437.47321044
0.10200000 1068691.47456839 21464.66927632
0.10300000 1059566.90063798 19835.09331300
0.10400000 1050430.51403384 26470.85019898
0.10500000 1041285.34130283 18212.08147625
0.10600001 1032127.23047224 18222.20711141
0.10700001 1022964.26432409 18229.22404808
0.10800001 1013793.23248206 21548.17617050
0.10900001 1004618.62197473 21549.07045558
0.11000001 995440.41199991 18231.49200393
0.11100001 986260.77876291 19883.01823582
0.11200001 977082.30864753 18217.70050237
0.11300001 967903.84388939 18206.27216073
0.11400001 958729.52459817 18191.89358581
0.11500001 949559.55564519 24783.50556934
0.11600001 940395.16021049 23105.51017444
0.11700001 931239.38851437 19779.52554356
0.11800001 922090.44295367 24688.97277289
0.11900001 912952.31084385 18076.45660614
0.12000001 903825.46790338 19685.31961821
0.12100001 894712.97405475 22922.54747512
0.12200001 885613.67217545 21241.44492784
0.12300001 876530.94682866 17933.82401706
0.12400001 867464.19742278 22770.93625526
0.12500001 858416.10271569 19468.87812697
0.12600001 849389.06691261 19417.03498462
0.12700001 840382.85360430 22589.49216944
0.12800001 831397.51695809 20913.80552473
0.12900001 822436.50493200 24056.26890308
0.13000001 813499.67228544 19182.32317665
0.13100001 804588.21194103 20710.10155159
0.13200001 795704.88360640 22224.03844678
0.13300001 786850.99036057 18978.84678222
0.13400001 778024.76265817 17330.50240527
0.13500001 769230.26151023 23538.44711201
0.13600001 760466.34713465 17190.34258752
0.13700001 751736.16596693 15560.93936926
0.13800001 743038.52786520 18590.82484385
0.13900001 734378.13613539 18506.32990334
0.14000001 725752.34499939 21489.52794889
0.14100001 717163.92836362 15275.59239459
0.14200001 708612.73351193 19759.66700595
0.14300001 700102.67666145 22683.32779375
0.14400001 691629.07952636 16547.22650820
0.14500001 683199.88880481 19450.70175180
0.14600001 674810.19658875 16367.52209039
0.14700001 666466.44893178 16275.11145072
0.14800001 658163.62174807 25006.92798811
0.14900001 649905.09132726 14622.86524478
0.15000001 641692.53976033 18894.63772475
0.15100001 633526.36888490 15888.84208135
0.15200001 625407.71907223 15788.41861299
0.15300001 617336.99358260 14260.48522470
0.15400001 609312.63421368 14166.51941400
0.15500001 601339.74611891 19699.89101255
0.15600001 593414.35590463 19564.87223754
0.15700001 585543.72200580 18040.60292646
0.15800001 577719.57182808 15156.47368228
0.15900001 569950.68376837 20518.22558413
0.16000001 562231.70836135 17651.26531719
0.16100001 554569.15495514 17518.84043200
0.16200001 546958.35257110 14710.44558682
0.16300001 539403.15354349 15923.18184430
0.16400001 531902.49608981 17113.96361963
0.16500001 524457.55339223 18282.59117440
0.16600001 517068.56583045 15543.08182270
0.16700001 509735.30011832 16698.92922031
0.16800001 502458.17573078 14011.04689180
0.16900001 495240.63506886 15154.36414867
0.17000001 488080.12757159 13771.18144970
0.17100001 480977.97442810 14891.07879147
0.17200001 473934.45797398 20907.61960084
0.17300001 466950.13890010 12187.39920084
0.17400001 460025.98671592 14490.81926590
0.17500001 453160.97683202 14356.14042404
0.17600001 446354.18929946 20146.19728552
0.17700001 439610.50347632 15258.88129635
0.17800001 432926.12156008 15111.28698679
0.17900001 426302.86408772 16114.24902365
0.18000001 419741.30219981 12535.57458232
0.18100001 413242.27742049 12409.66617713
0.18200001 406801.96048657 17866.74294856
0.18300001 400426.37419400 13262.12213980
0.18400001 394110.95908620 10936.57963129
0.18500001 387858.78530020 14067.63880742
0.18600001 381668.75191598 11776.38989672
0.18700001 375540.67675094 11649.27234318
0.18800001 369475.06113978 11522.08032602
0.18900001 363473.78681867 11394.90375515
0.19000001 357531.30367171 13316.25403443
0.19100001 351656.64559040 15191.56780731
0.19200001 345840.77544995 14016.92729131
0.19300001 340090.59374227 15834.61879287
0.19400001 334402.41963886 12715.65260763
0.19500001 328777.59482967 14499.09261714
0.19600001 323214.11543273 10506.07531862
0.19700001 317714.57483764 10379.73565047
0.19800001 312277.78531383 10253.64156535
0.19900001 306904.70559146 11048.56992345
0.20000001 301592.26418826 10911.60863403
0.20100001 296344.33411746 10775.08049777
0.20200001 291157.47445585 10638.89461945
0.20300001 286033.93335444 10503.16652920
0.20400001 280972.52575097 12095.86780530
0.20500001 275972.65029080 11938.57741588
0.20600001 271035.47119122 10940.34731176
0.20700001 266159.59792850 9134.59783269
0.20800001 261345.55900610 9012.50202835
0.20900001 256595.12054930 11315.84535114
0.21000001 251903.37285494 11959.11319162
0.21100001 247273.12952398 10222.27165776
0.21200001 242703.62534642 8529.81931604
0.21300001 238194.78061119 9175.26338291
0.21400001 233747.04492402 12815.18234382
0.21500001 229360.18843360 10403.77863921
0.21600001 225031.80961590 8789.74289916
0.21700001 220763.75013797 7218.97497082
0.21800001 216555.05945667 7825.21744345
0.21900001 212404.22889516 7710.27387345
0.22000001 208312.10824226 8286.65605769
0.22100001 204280.58811993 8843.30707785
0.22200001 200306.25855151 7370.26913190
0.22300001 196389.48417104 8578.29307422
0.22400001 192528.78573182 9096.98555599
0.22500001 188728.36516620 8317.25944618
0.22600001 184982.50441299 8188.25094505
0.22700001 181294.45248057 6820.29762484
0.22800001 177661.70069348 6712.94767816
0.22900001 174084.41557433 8408.27766988
0.23000001 170562.59147107 5909.99407397
0.23100001 167097.33743033 6977.98514110
0.23200001 163684.73381679 9153.25074792
0.23300001 160327.42969664 7878.49026790
0.23400001 157024.10188646 6642.11982394
0.23500001 153772.78795749 6532.26834139
0.23600001 150575.45656987 6423.54928109
0.23700001 147430.70714807 6842.25944237
0.23800001 144337.71585199 5691.95809385
0.23900001 141296.91784182 6104.02713948
0.24000001 138306.89996602 6999.71253837
0.24100001 135369.29563772 6388.07736331
0.24200001 132481.32989956 5794.73364391
0.24300001 129643.49302191 7591.92331048
0.24400001 126854.50998894 5128.09380888
0.24500001 124115.27449182 4579.85384540
0.24600001 121424.88624242 5848.42992253
0.24700001 118783.28302072 5302.48600488
0.24800001 116188.38907897 5641.52749861
0.24900001 113640.89684076 4687.68721644
0.25000001 111140.93137109 5021.34751690
0.25100001 108686.55135456 4519.18701912
0.25200001 106279.50563811 6856.62263063
0.25300001 103917.77239273 5147.04751012
0.25400001 101600.32395143 4663.45509000
0.25500001 99327.67888217  4958.43796439
0.25600001 97099.52446449  5240.46158329
0.25700001 94914.60549158  5142.47356884
0.25800001 92772.97212967  4325.07616532
0.25900001 90674.30629918  6365.33660338
0.26000001 88618.41032975  3816.35202142
0.26100001 86602.24532567  3743.81524257
0.26200001 84629.62493997  4006.36663423
0.26300001 82696.48680994  4257.21534242
0.26400001 80803.72550426  3533.14306486
0.26500001 78951.72635145  3465.19143353
0.26600001 77137.87944933  3398.30943995
0.26700001 75364.39265367  4544.47309206
0.26800001 73628.93866750  4159.29894215
0.26900001 71930.94287723  3495.84398926
0.27000001 70271.21236267  3142.17740949
0.27100001 68648.11043834  2800.84303843
0.27200001 67062.12131042  2746.19399762
0.27300001 65511.65352037  3231.03490453
0.27400001 63995.90359698  4487.71295212
0.27500001 62517.36896987  2847.04111763
0.27600001 61071.43768414  2537.51835587
0.27700001 59661.72797993  3483.05184431
0.27800001 58284.54352822  3902.73321935
0.27900001 56941.41644494  2869.84752465
0.28000001 55630.59903572  2579.31284637
0.28100001 54352.21228918  3218.73816410
0.28200001 53106.19174852  2930.66533035
0.28300001 51891.51442595  2652.69434301
0.28400001 50708.22432050  2167.77669230
0.28500001 49555.59153937  2338.52847543
0.28600001 48432.44706747  2293.51863944
0.28700001 47339.51481255  3067.60070505
0.28800001 46275.10819427  2407.23124221
0.28900001 45240.93476001  2361.57690625
0.29000001 44234.00227200  3282.38429396
0.29100001 43256.34248200  2084.09067943
0.29200001 42305.28927758  2231.18106211
0.29300001 41381.43741473  2007.41362401
0.29400001 40484.24810510  2149.71367614
0.29500001 39614.52412812  2814.21592728
0.29600001 38769.13329077  1727.16496986
0.29700001 37949.34762411  1696.33591910
0.29800001 37155.04553644  1833.04425831
0.29900001 36385.38946964  1637.34260364
0.30000001 35639.69067166  1609.13211000
0.30100001 34918.50396715  1898.16996551
0.30200001 34219.63836305  1866.33916467
0.30300001 33544.39078439  1988.51157984
0.30400001 32892.38174823  2257.23980433
0.30500001 32261.39089077  1628.87770319
0.30600001 31652.51771707  1749.11821185
0.30700001 31065.62573166  1865.80156978
0.30800001 30499.31206687  1696.37181747
0.30900001 29953.78177455  1532.13601031
0.31000001 29429.46874060  1647.46173810
0.31100001 28923.25366988  1624.33000300
0.31200001 28437.96244526  2002.74360003
0.31300001 27970.89317971  1976.14369671
0.31400001 27524.23884904  1560.62441663
0.31500001 27095.40284470  2311.77988017
0.31600002 26684.30600489  1776.37433485
0.31700002 26290.77551544  1254.07005146
0.31800002 25915.18370434  1736.05823855
0.31900002 25556.73088499  1472.06776868
0.32000002 25214.70509911  1456.90572961
0.32100002 24889.58163005  1322.38353462
0.32200002 24580.67233857  1429.12035743
0.32300002 24286.66642097  1298.36524834
0.32400002 24008.47555449  1755.61985805
0.32500002 23745.08820203  1509.47532848
0.32600002 23496.94845182  1498.28298898
0.32700002 23262.94727430  1258.99076610
0.32800002 23043.79522766  1137.21134834
0.32900002 22837.36637389  1469.58459575
0.33000002 22645.89433155  1236.80557749
0.33100002 22465.52457964  1230.66149475
0.33200002 22300.36041963  1336.68366685
0.33300002 22146.55838865  1553.35967894
0.33400002 22005.88531285  1658.69368400
0.33500002 21876.74377468  1212.84673230
0.33600002 21759.38135986  1539.91149176
0.33700002 21652.77407697  1317.35483723
0.33800002 21558.74990603  1315.51498157
0.33900002 21474.38058037  1314.23215376
0.34000002 21401.45217243  1204.15276351
0.34100002 21338.66029130  1532.54265470
0.34200002 21286.77939074  1533.28679213
0.34300002 21243.58786568  1315.40302294
0.34400002 21210.78864037  1207.42420054
0.34500002 21186.86573210  1209.55822193
0.34600002 21173.29602644  1873.51918763
0.34700002 21166.46461055  1436.35635650
0.34800002 21169.85653900  1219.06624654
0.34900002 21181.19099777  1445.61635406
0.35000002 21200.62108581  1451.07657894
0.35100002 21228.19627718  1120.84881652
0.35200002 21262.64278194  1351.02838635
0.35300002 21304.89452491  1357.54794343
0.35400002 21354.80575495  1250.85780634
0.35500002 21411.42111108  1372.04392978
0.35600002 21474.21423455  1379.93307207
0.35700002 21543.84611803  1272.59505047
0.35800002 21620.33855542  1164.25528635
0.35900002 21702.50273958  1406.32224414
0.36000002 21791.39372588  1180.00402615
0.36100002 21884.97551811  1544.86049500
0.36200002 21985.35544570  1556.23345894
0.36300002 22089.19184418  1326.67692500
0.36400002 22199.11307842  1336.94164848
0.36500002 22313.47561425  1347.51085617
0.36600002 22433.13995438  1481.93329558
0.36700002 22556.86305637  1494.16667963
0.36800002 22686.35688484  1506.82789567
0.36900002 22819.18732916  1519.75794811
0.37000002 22955.01066961  1277.44640428
0.37100002 23095.26929726  1675.33091418
0.37200002 23239.45594377  2080.39619463
0.37300002 23386.66990974  1311.99224409
0.37400002 23538.19623556  1986.03540146
0.37500002 23691.81489456  1469.84026569
0.37600002 23849.37303987  1348.68210929
0.37700002 24008.69909240  1769.68129393
0.37800002 24171.65205666  1923.82187832
0.37900002 24336.78928299  1387.19705485
0.38000002 24504.53694851  2100.65152943
0.38100002 24673.93158607  1979.34288560
0.38200002 24845.74306600  1712.86560811
0.38300002 25019.28127053  2017.55493723
0.38400002 25195.20442284  1746.02774922
0.38500002 25371.68319256  1469.02052644
0.38600002 25551.06124990  2076.53484615
0.38700002 25730.71925155  1946.78631080
0.38800002 25911.63241457  1663.13820532
0.38900002 26093.79950314  1831.78481190
0.39000002 26277.77342755  1695.31063300
0.39100002 26461.59654050  2178.31873041
0.39200002 26646.76277555  2042.07476205
0.39300002 26832.34563495  1744.37087237
0.39400002 27019.18652866  2401.33031650
0.39500002 27205.55650547  1777.61114629
0.39600002 27392.27081298  1631.20980420
0.39700002 27578.85019504  2140.39466504
0.39800002 27766.50090173  2160.37270501
0.39900002 27953.32747153  2180.35964608
0.40000002 28140.15161497  2031.15623980
0.40100002 28326.34323856  2049.69429385
0.40200002 28513.51474223  1896.00625262
0.40300002 28699.08867570  1913.08134176
0.40400002 28884.23233198  2105.66063677
0.40500002 29068.87418200  2124.35342587
0.40600002 29253.04176588  2321.66776975
0.40700002 29436.19438917  1801.49518197
0.40800002 29618.88614707  2725.67812683
0.40900002 29799.56520208  3482.07935885
0.41000002 29980.23478157  2217.93787423
0.41100002 30159.45321579  2050.23972675
0.41200002 30336.89976564  2255.24523544
0.41300002 30513.46682572  3600.28412136
0.41400002 30688.52286934  3247.61308653
0.41500002 30862.68143674  2888.74711936
0.41600002 31034.03764868  2911.76872036
0.41700002 31204.79243387  2347.84869397
0.41800002 31374.64042689  1971.89624427
0.41900002 31540.76489739  2185.77511096
0.42000002 31705.88133838  2402.67180167
0.42100002 31869.79485834  2219.09392114
0.42200002 32031.72801490  2235.65456274
0.42300002 32191.01192246  2866.28783740
0.42400002 32348.46271671  2474.65751509
0.42500002 32504.20224135  2700.12420814
0.42600002 32656.56480716  2509.98369002
0.42700002 32808.02707116  2316.90298156
0.42800002 32956.61816002  2332.83432700
0.42900002 33103.67884914  2135.18738695
0.43000002 33248.24365613  2579.39886507
0.43100002 33389.02674152  2596.33084245
0.43200002 33528.45719007  3048.74275677
0.43300002 33664.98502059  3068.22688017
0.43400002 33799.37519702  2205.40933612
0.43500002 33930.84810189  2884.80084233
0.43600002 34060.61536553  3572.27750882
0.43700002 34186.76318634  2470.67749256
0.43800002 34309.67197153  2937.07960831
0.43900002 34430.94649034  2499.68683366
0.44000002 34548.67642696  2971.01357013
0.44100002 34664.42324900  2757.90164439
0.44200002 34777.04848959  2542.02847981
0.44300002 34887.15248458  2555.83291214
0.44400002 34993.80593590  3036.58765399
0.44500002 35096.83500396  3052.37188495
0.44600002 35197.74484346  2360.00890360
0.44700002 35295.94984246  3557.83191273
0.44800002 35390.27845212  2621.88890338
0.44900002 35482.88387948  2874.11373045
0.45000002 35572.18254533  2647.10408956
0.45100002 35657.12667611  2901.06396386
0.45200002 35740.14814444  3642.81477226
0.45300002 35819.51911116  3415.03311391
0.45400002 35896.43492068  2939.91815934
0.45500002 35970.14035451  2460.35771685
0.45600002 36040.26721078  3705.84065158
0.45700002 36107.53121248  3224.76376542
0.45800002 36171.00211708  2988.44833655
0.45900002 36231.60002036  2999.97662387
0.46000002 36289.97740616  3262.28767354
0.46100002 36343.90345723  3274.22241764
0.46200002 36395.42798904  2780.42885300
0.46300002 36443.25126154  2536.45040802
0.46400002 36487.62159911  2799.51289988
0.46500002 36529.69861427  3574.79647582
0.46600002 36567.80805459  2817.73258320
0.46700002 36602.76440616  3597.31985634
0.46800002 36635.13454469  4381.37912353
0.46900002 36663.59601177  3101.74036961
0.47000002 36688.61614508  3369.66610956
0.47100002 36710.86111354  2599.12909003
0.47200002 36729.77534022  4169.56429425
0.47300002 36745.87282374  3135.15801792
0.47400002 36757.59723292  3928.46839047
0.47500002 36767.20079479  3150.21391341
0.47600002 36773.83442649  4999.21915806
0.47700002 36776.31285385  2900.54793226
