# SAXS profile: number of points = 501, q_min = 0, q_max = 0.5, delta_q = 0.001
#    q    intensity    error
0.00000000 1682732.95097188 302.89193117
0.00100000 1682663.53165969 605.75888578
0.00200000 1682455.21690075 757.10487158
0.00300000 1682108.17409657 1412.97091658
0.00400000 1681622.29383845 1765.70347562
0.00500000 1680998.01762293 1815.47793089
0.00600000 1680235.06793206 1940.67158247
0.00700000 1679334.09341275 2418.24119502
0.00800000 1678294.60305003 2265.69780978
0.00900000 1677117.90352832 4528.21853310
0.01000000 1675803.18015645 3041.58290332
0.01100000 1674351.67999286 5424.89967937
0.01200000 1672762.84732245 3914.26523435
0.01300000 1671038.08831185 3509.18014023
0.01400000 1669176.66842480 4131.21243749
0.01500000 1667180.38224524 5601.72633378
0.01600000 1665048.01692987 7217.98347606
0.01700000 1662781.77308958 4938.46208761
0.01800000 1660381.20879919 5678.50398961
0.01900000 1657847.03829406 7957.66614288
0.02000000 1655179.87992241 5735.19854337
0.02100000 1652381.42217999 5998.14483446
0.02200000 1649449.88304850 9674.02400359
0.02300000 1646388.12636770 8890.49628707
0.02400000 1643195.98441151 7394.38226702
0.02500000 1639874.89284949 7674.61484904
0.02600000 1636425.05789073 7290.27396635
0.02700000 1632847.45834678 8915.34753091
0.02800000 1629142.00251700 8504.12164313
0.02900000 1625311.29623560 9508.07151953
0.03000000 1621355.61844661 10555.02556125
0.03100000 1617275.23903939 8539.21365504
0.03200000 1613071.17058961 9581.64319461
0.03300000 1608746.20326394 10665.98781935
0.03400000 1604298.44747918 8422.56723789
0.03500000 1599731.19692640 12957.82329347
0.03600000 1595044.14328673 8852.49540435
0.03700000 1590239.19476505 15409.41850992
0.03800000 1585317.68598904 10201.51978146
0.03900000 1580280.71863432 12326.19017617
0.04000000 1575127.58421903 11624.44211020
0.04100000 1569861.87814821 14835.19543636
0.04200000 1564484.07767499 10090.92276915
0.04300000 1558994.39918273 12347.23621466
0.04400000 1553396.19567326 11533.96728853
0.04500000 1547689.41244572 17086.49190732
0.04600000 1541874.29587129 13044.25714946
0.04700000 1535954.02833319 18800.07818115
0.04800000 1529928.99715756 13493.97438278
0.04900000 1523801.61694646 13714.21519088
0.05000000 1517571.75090658 13931.30932205
0.05100000 1511242.55129812 18860.30791879
0.05200000 1504812.41005109 17944.88882611
0.05300000 1498286.64573562 12136.12239622
0.05400000 1491663.63362936 15998.09321673
0.05500000 1484947.54055012 16215.62789925
0.05600000 1478136.57579983 18957.10246925
0.05700000 1471235.97885968 16639.67969762
0.05800000 1464244.35669702 18141.98842657
0.05900000 1457163.50291727 17048.81378041
0.06000000 1449996.53500228 14594.21580662
0.06100000 1442744.79252223 16101.03263697
0.06200000 1435408.75588645 16277.53605262
0.06300000 1427991.74134203 16450.46562941
0.06400000 1420491.67429698 16619.75336653
0.06500000 1412914.95899748 15386.64462324
0.06600000 1405259.48556259 16947.43018883
0.06700000 1397528.30555586 21382.18407567
0.06800000 1389724.31428328 20137.10625656
0.06900000 1381848.10879686 18862.22756819
0.07000000 1373899.55290156 16095.23401596
0.07100000 1365883.43601763 20652.15851989
0.07200000 1357798.55763334 16354.68439286
0.07300000 1349649.59684629 16479.22234964
0.07400000 1341436.45658520 18109.39301258
0.07500000 1333160.93217595 19757.44594093
0.07600000 1324823.47199028 15301.71181884
0.07700000 1316429.61300815 20022.89535270
0.07800000 1307977.60492355 18599.44241426
0.07900000 1299469.03550581 21831.08082046
0.08000000 1290908.74673381 17252.99620945
0.08100000 1282296.32890113 23658.36837823
0.08200000 1273632.55486701 23785.08907826
0.08300000 1264920.82499799 15938.00314298
0.08400000 1256161.94667863 17617.67212912
0.08500000 1247359.58301964 25745.50300215
0.08600000 1238512.69851968 25860.14635926
0.08700000 1229625.55875927 19477.26976535
0.08800000 1220696.53493069 24444.44925999
0.08900000 1211731.34048763 19630.04863792
0.09000000 1202729.16119640 22984.15535016
0.09100000 1193692.45764361 16472.95668940
0.09200000 1184622.38444990 16525.48303955
0.09300000 1175522.42970407 21547.32714903
0.09400000 1166390.72669408 21607.38922750
0.09500000 1157231.95683241 18330.55505781
0.09600000 1148046.60377165 20044.89464412
0.09700000 1138838.27272754 23437.29275459
0.09800000 1129607.54523048 21807.07468599
0.09900000 1120356.11781937 18485.87681327
0.10000000 1111083.97962184 30299.26154918
0.10100000 1101794.00687203 18543.19400778
0.10200000 1092488.42117365 27006.31504169
0.10300000 1083167.75302343 27035.86838725
0.10400000 1073835.35458984 21986.77991960
0.10500000 1064493.56977522 20310.53826691
0.10600001 1055138.76968954 22015.47146548
0.10700001 1045778.42195457 22024.09460277
0.10800001 1036410.13125051 23723.42902079
0.10900001 1027038.15951982 25419.19564449
0.11000001 1017662.59529254 18638.49131009
0.11100001 1008285.33902645 25408.79173954
0.11200001 998909.29253356 23704.11862774
0.11300001 989532.38201523 21997.30588785
0.11400001 980160.43834184 16907.76835749
0.11500001 970792.55553265 18580.97038784
0.11600001 961430.69433192 21935.04232414
0.11700001 952077.03927761 18536.94082773
0.11800001 942730.51063506 25241.61061109
0.11900001 933395.12857669 23521.55834804
0.12000001 924070.87735379 16771.88721401
0.12100001 914761.51931899 18414.15025135
0.12200001 905465.43589538 18376.42188723
0.12300001 896186.04677415 20002.87350642
0.12400001 886923.14195469 24944.71454281
0.12500001 877679.07488801 21564.57588613
0.12600001 868456.35954243 21507.32275757
0.12700001 859254.74925806 18147.46115955
0.12800001 850074.55531911 23028.52078891
0.12900001 840919.06141975 18037.71471761
0.13000001 831788.59467232 21248.04065243
0.13100001 822683.41456633 21175.87208912
0.13200001 813607.34175212 25970.34757298
0.13300001 804560.71598567 17788.83826906
0.13400001 795542.69874697 17720.71445004
0.13500001 786556.70261263 16045.75748983
0.13600001 777602.06898724 20773.64025249
0.13700001 768681.80122966 25458.74245719
0.13800001 759794.71622920 19010.06469649
0.13900001 750945.54015357 20500.81421297
0.14000001 742131.71295591 17265.69511618
0.14100001 733356.10508525 20306.63150753
0.14200001 724618.31883078 20205.98277362
0.14300001 715922.70932539 23195.89687624
0.14400001 707263.81762569 23074.48313846
0.14500001 698650.51155926 19890.58100237
0.14600001 690077.80525233 21302.70285308
0.14700001 681551.07465396 24208.69531379
0.14800001 673066.72887915 21060.25894022
0.14900001 664627.40269663 19440.35244609
0.15000001 656235.22619527 19322.84714703
0.15100001 647889.98945727 20680.64943929
0.15200001 639593.67840497 16146.54317324
0.15300001 631345.76552940 20417.72302071
0.15400001 623145.47976780 17385.75970597
0.15500001 614997.44845766 17269.12916767
0.15600001 606898.54395100 15721.70752304
0.15700001 598854.66414184 18450.71307303
0.15800001 590858.71792706 15501.17919645
0.15900001 582918.89314879 19586.07573427
0.16000001 575030.24932427 15275.67929435
0.16100001 567199.43136963 16539.53619947
0.16200001 559420.88062274 13677.84117690
0.16300001 551699.47805325 17643.35014105
0.16400001 544033.41682750 18850.75878301
0.16500001 536424.49316287 14692.66756139
0.16600001 528872.40387860 17222.73064544
0.16700001 521377.40596083 17080.32462572
0.16800001 513939.89991769 14331.21478587
0.16900001 506563.21671223 12917.36263609
0.17000001 499244.50057823 15366.74645341
0.17100001 491985.34972021 15231.86714661
0.17200001 484786.31930535 17612.28781207
0.17300001 477647.22835577 14959.91189858
0.17400001 470570.10271061 16058.20551337
0.17500001 463553.08373130 14685.36238616
0.17600001 456595.92782433 16971.67143879
0.17700001 449702.68238528 14408.47462415
0.17800001 442870.47075588 13080.17997158
0.17900001 436100.22425758 11774.70661112
0.18000001 429393.38273578 12823.83398114
0.18100001 422750.14039515 13849.29525354
0.18200001 416167.04422426 13708.54308431
0.18300001 409649.71303975 13567.59913680
0.18400001 403194.21959000 11188.64012218
0.18500001 396803.37412276 11070.81466103
0.18600001 390475.61846441 12048.12577691
0.18700001 384211.46806415 16252.14586694
0.18800001 378010.68204936 15003.24467938
0.18900001 371876.14118974 13778.01168206
0.19000001 365801.42240717 15720.31687071
0.19100001 359795.85338684 11398.33317387
0.19200001 353850.87818806 12292.78008910
0.19300001 347972.66849533 10126.00513169
0.19400001 342157.46814031 12009.72769923
0.19500001 336407.05817164 10879.40477538
0.19600001 330719.90643906 17590.99265478
0.19700001 325097.76904363 10620.94461658
0.19800001 319539.68126491 12399.73791748
0.19900001 314046.46921748 10363.53397396
0.20000001 308615.57809759 12096.18815521
0.20100001 303250.42225112 9188.48822848
0.20200001 297947.64987491 9979.75700424
0.20300001 292709.80474601 9852.61249343
0.20400001 287535.50692372 10610.06070698
0.20500001 282423.83786461 8726.89700251
0.20600001 277376.33760669 10335.04282774
0.20700001 272391.47338749 11048.19868283
0.20800001 267469.68507889 10062.21002831
0.20900001 262612.93721924 9926.76949614
0.21000001 257816.36064449 10607.85466018
0.21100001 253082.51122657 10462.43150870
0.21200001 248410.88442685 10317.74657244
0.21300001 243801.15554978 7826.01746313
0.21400001 239253.85233065 8487.53081269
0.21500001 234768.76834603 11409.76268104
0.21600001 230343.38995374 8997.21323697
0.21700001 225979.67819674 7389.53582641
0.21800001 221676.74045377 8738.49752185
0.21900001 217432.99013992 8610.34681665
0.22000001 213249.24766362 7776.13418373
0.22100001 209127.55457046 8356.73747577
0.22200001 205064.13913494 8917.21451193
0.22300001 201059.73143280 6755.60729558
0.22400001 197112.39989957 7983.05257342
0.22500001 193226.66285312 10480.61468875
0.22600001 189397.15893264 8383.66563660
0.22700001 185626.41766901 6348.42378449
0.22800001 181912.34521413 6873.55828897
0.22900001 178254.85288334 8609.70980143
0.23000001 174654.33155359 7262.12744944
0.23100001 171111.40192915 6550.14477562
0.23200001 167622.42715214 7615.92533784
0.23300001 164190.04671814 6915.68509484
0.23400001 160812.78040714 6235.51585520
0.23500001 157488.60710240 7805.13573715
0.23600001 154219.81327407 6579.01754544
0.23700001 151004.56113974 6469.03570520
0.23800001 147842.60392522 6890.20488183
0.23900001 144733.70535569 5731.45500318
0.24000001 141677.15575736 5633.79236517
0.24100001 138673.77113845 5033.85813043
0.24200001 135721.30778778 4947.04190287
0.24300001 132820.10077436 5833.45910195
0.24400001 129969.04708608 7642.18033016
0.24500001 127168.68689685 6569.53467586
0.24600001 124418.19760245 4609.69443923
0.24700001 121717.80005550 4980.69261389
0.24800001 119065.39525961 6670.63908499
0.24900001 116461.03918669 4804.01809372
0.25000001 113905.42194123 5146.24720676
0.25100001 111396.72333375 5052.95560947
0.25200001 108936.14446050 4547.53956565
0.25300001 106522.06220052 4870.18891422
0.25400001 104153.31804737 5577.41044531
0.25500001 101830.28860210 5865.42490099
0.25600001 99552.78742819  4221.53615062
0.25700001 97319.83765795  4142.90568511
0.25800001 95130.92803469  5913.33876642
0.25900001 92985.94650895  4351.74250252
0.26000001 90884.71753544  5337.20528980
0.26100001 88824.17084721  5934.34313509
0.26200001 86808.30256882  5136.88154757
0.26300001 84832.90960129  4367.19839292
0.26400001 82898.57714086  3954.26231673
0.26500001 81005.93283114  3232.13687290
0.26600001 79152.78149535  4755.10357334
0.26700001 77340.39757824  6218.16825954
0.26800001 75567.35245891  3049.14281601
0.26900001 73832.47627274  3887.28005971
0.27000001 72136.61031070  4398.53002184
0.27100001 70478.56251761  3163.07803548
0.27200001 68858.21608708  3947.64171509
0.27300001 67274.36106498  3041.47400768
0.27400001 65725.97799151  3795.67540864
0.27500001 64215.83806419  2658.53582167
0.27600001 62739.12750433  3649.53521964
0.27700001 61299.11240401  3323.02504069
0.27800001 59892.77843876  3258.46676517
0.27900001 58521.07827710  2949.46248476
0.28000001 57182.70094113  3856.40153399
0.28100001 55877.34518000  3072.69535688
0.28200001 54605.13679556  3013.38461669
0.28300001 53365.18735517  3182.69992450
0.28400001 52157.15893099  2452.69051482
0.28500001 50980.53851597  3280.59780878
0.28600001 49834.26840026  2788.97496303
0.28700001 48718.71213896  2315.11331042
0.28800001 47632.57627535  2684.33396306
0.28900001 46577.53272376  2633.95960020
0.29000001 45550.08175593  2783.56562786
0.29100001 44552.64579952  2731.96836974
0.29200001 43582.66261132  2107.00392368
0.29300001 42640.42312809  2632.61984855
0.29400001 41725.41576420  2215.61968196
0.29500001 40838.41277028  2357.19329668
0.29600001 39976.78740008  2137.15915558
0.29700001 39140.94331850  2099.52029899
0.29800001 38331.54113315  1891.08667133
0.29900001 37547.06784844  1858.57994648
0.30000001 36787.28309841  1660.94591052
0.30100001 36052.73792137  2123.14583670
0.30200001 35341.04145893  1606.25041035
0.30300001 34653.25472434  1738.20733926
0.30400001 33989.47414172  1555.01851560
0.30500001 33347.19849528  1836.76378008
0.30600001 32727.58622049  1808.52650017
0.30700001 32130.27899873  1781.30275202
0.30800001 31554.46216800  2632.58890331
0.30900001 30999.71586530  1441.48685598
0.31000001 30466.54409077  1563.39078404
0.31100001 29952.23958491  1822.29434262
0.31200001 29459.08636439  1521.41458732
0.31300001 28984.86370134  1365.18714497
0.31400001 28531.52378199  1752.54893129
0.31500001 28096.04010565  1598.10283688
0.31600002 27679.25741214  2237.45287885
0.31700002 27280.25534137  1431.39506554
0.31800002 26899.41641743  1544.56456382
0.31900002 26536.46241821  1783.25035894
0.32000002 26190.34214842  1261.06503416
0.32100002 25861.44521765  1748.75100842
0.32200002 25548.94158824  1732.98478999
0.32300002 25251.93096423  1227.24390297
0.32400002 24971.08844912  1582.54280540
0.32500002 24705.31947270  1449.70821530
0.32600002 24455.20150069  1799.29153561
0.32700002 24219.64567450  1429.92794833
0.32800002 23999.26007893  1421.23624917
0.32900002 23791.83280459  1295.46535755
0.33000002 23599.90586170  1757.60307228
0.33100002 23419.06819081  1516.15054647
0.33200002 23254.07090535  1510.00316574
0.33300002 23100.53623640  1273.07061227
0.33400002 22960.60462453  1153.77043702
0.33500002 22832.21391466  1150.74363579
0.33600002 22716.05034864  1263.12603945
0.33700002 22610.83827454  1375.64346577
0.33800002 22518.58729852  1259.57724019
0.33900002 22436.28027205  1487.52545248
0.34000002 22365.48415935  2059.19022407
0.34100002 22305.11103680  1258.67747542
0.34200002 22256.07095805  1374.08988603
0.34300002 22215.65262793  1490.22604886
0.34400002 22186.02588256  1607.37765132
0.34500002 22165.49811168  1380.46728777
0.34600002 22155.50477738  1499.15230176
0.34700002 22152.40032473  1271.99088689
0.34800002 22159.67796348  1740.08879450
0.34900002 22175.07995298  1280.61092794
0.35000002 22198.98905588  1519.40987789
0.35100002 22230.90859282  1291.17123222
0.35200002 22269.95328423  1415.03289870
0.35300002 22317.00959786  1303.53659235
0.35400002 22371.80238298  1906.07765331
0.35500002 22433.43922522  1197.94571137
0.35600002 22501.49322283  1325.45052107
0.35700002 22576.40945651  1212.35324524
0.35800002 22658.36285037  1586.19876647
0.35900002 22746.14367910  1473.95018022
0.36000002 22840.58571005  1484.18132974
0.36100002 22939.91512155  1370.20119511
0.36200002 23046.22601283  2007.78730534
0.36300002 23156.05701925  1770.04908239
0.36400002 23271.96689184  1528.96829722
0.36500002 23392.29841079  1797.93214102
0.36600002 23518.23555787  2071.48628606
0.36700002 23648.21693577  1827.53429136
0.36800002 23784.04333384  1843.02560524
0.36900002 23922.98049430  1858.81567246
0.37000002 24065.27032911  1607.07882870
0.37100002 24211.79626253  1756.32378408
0.37200002 24362.56041992  1499.39385207
0.37300002 24516.17890548  1512.89347192
0.37400002 24674.23250369  1526.71820849
0.37500002 24834.20692146  1680.77920406
0.37600002 24998.39115993  1555.02499577
0.37700002 25164.10249492  2282.88748648
0.37800002 25333.47984185  1584.22923696
0.37900002 25505.25681293  2471.45950225
0.38000002 25679.35187638  2054.60504096
0.38100002 25855.19742187  1481.50288246
0.38200002 26033.42652604  2392.99267964
0.38300002 26213.35581838  1811.86724000
0.38400002 26395.74969990  1524.35461738
0.38500002 26578.58150330  1538.89994195
0.38600002 26764.16768765  1709.02600866
0.38700002 26949.97149750  2352.73262319
0.38800002 27136.95777859  1741.78571754
0.38900002 27325.31132789  1598.53078841
0.39000002 27515.18249231  2259.27174148
0.39100002 27704.98750738  2280.67467966
0.39200002 27896.14930666  2302.26931135
0.39300002 28087.38187376  1991.95721686
0.39400002 28279.93654239  1843.14495147
0.39500002 28471.85177350  1860.35088302
0.39600002 28664.11684745  2048.33788696
0.39700002 28856.02125450  1894.97500556
0.39800002 29049.17255816  1912.45236598
0.39900002 29241.07227484  2982.58951335
0.40000002 29432.77051494  1770.38123035
0.40100002 29624.09891872  2679.49987415
0.40200002 29815.99712713  3424.51651229
0.40300002 30006.32084877  1818.38312959
0.40400002 30196.02414371  1834.40855365
0.40500002 30385.08407345  2035.49687852
0.40600002 30573.57268660  1866.51670095
0.40700002 30760.89636632  2070.82364150
0.40800002 30947.46878884  2468.21549020
0.40900002 31132.20505420  2106.09377171
0.41000002 31316.51948130  2316.79622100
0.41100002 31499.28336798  2530.65254569
0.41200002 31680.01785510  2943.86579867
0.41300002 31859.77780087  2967.73844277
0.41400002 32037.91424488  2393.23230749
0.41500002 32214.90307526  3417.35708015
0.41600002 32389.05103083  3038.90285696
0.41700002 32562.29176510  2654.15252754
0.41800002 32734.48249122  2468.83478647
0.41900002 32902.76617279  2694.73667724
0.42000002 33070.00039686  2923.71887363
0.42100002 33235.68528081  2103.81897796
0.42200002 33399.06054064  2543.00459006
0.42300002 33559.91795427  2347.85197133
0.42400002 33718.47394538  2579.46337905
0.42500002 33875.25282081  2597.55450939
0.42600002 34028.33711250  2397.46660487
0.42700002 34180.42909936  2633.26038260
0.42800002 34329.53505193  3313.65852791
0.42900002 34476.65389265  2446.11870960
0.43000002 34621.26034470  2909.74396356
0.43100002 34761.88658021  2477.82739286
0.43200002 34900.76774895  2946.84646453
0.43300002 35036.64813094  2508.97449155
0.43400002 35170.20276716  3671.76934289
0.43500002 35300.45126144  2539.51458409
0.43600002 35428.97855152  2554.60661952
0.43700002 35553.65574290  3036.63788090
0.43800002 35674.72941424  2819.01725190
0.43900002 35794.04262323  2362.40692509
0.44000002 35909.68465922  2612.96832806
0.44100002 36022.90495606  3582.47806765
0.44200002 36132.83787421  3361.43806674
0.44300002 36240.10594675  3137.66852157
0.44400002 36343.57096226  2911.12017204
0.44500002 36443.28331678  2925.66692332
0.44600002 36540.74046350  3185.07379345
0.44700002 36635.21967836  3200.45294278
0.44800002 36725.32299283  4204.86605534
0.44900002 36813.73489675  2733.41994563
0.45000002 36898.56551817  3245.04449829
0.45100002 36978.94243475  3008.60689908
0.45200002 37056.96025420  4784.23908036
0.45300002 37131.11910259  3034.35519687
0.45400002 37202.65538334  3554.71389035
0.45500002 37270.64459923  3823.96831711
0.45600002 37335.10861092  2815.25399823
0.45700002 37396.23189497  3853.68187942
0.45800002 37453.38443223  2578.66564037
0.45900002 37507.52149080  3623.22674773
0.46000002 37559.00878904  2856.92613894
0.46100002 37605.82418571  2606.08373958
0.46200002 37650.20772469  2876.28775545
0.46300002 37690.66581987  2885.59751193
0.46400002 37727.46093292  2894.63957727
0.46500002 37761.65153577  4223.26330792
0.46600002 37791.64523309  3176.76584886
0.46700002 37818.26459711  2920.32653060
0.46800002 37842.13473012  3460.85259577
0.46900002 37861.91429646  2669.26508441
0.47000002 37877.86643868  3211.28566888
0.47100002 37891.05602429  4292.29902987
0.47200002 37900.48147916  3226.84714608
0.47300002 37907.17303267  2964.72014340
0.47400002 37909.11707703  3511.33213569
0.47500002 37908.77074644  5142.70408321
0.47600002 37905.21136460  3254.54160202
0.47700002 37897.20610507  3260.67576783
