# SAXS profile: number of points = 501, q_min = 0, q_max = 0.5, delta_q = 0.001
#    q    intensity    error
0.00000000 1682732.95097189 328.13292544
0.00100000 1682663.46458539 706.71867191
0.00200000 1682454.95036897 908.52570197
0.00300000 1682107.57497939 1211.11749713
0.00400000 1681621.22107881 1891.82394560
0.00500000 1680996.33565140 2118.05546676
0.00600000 1680232.64946272 1940.66878914
0.00700000 1679330.83170212 2216.71678997
0.00800000 1678290.31191963 2718.83042010
0.00900000 1677112.49695849 2515.66885298
0.01000000 1675796.49833449 3594.58364414
0.01100000 1674343.58560175 3616.58230236
0.01200000 1672753.25011226 3588.05587880
0.01300000 1671026.83123695 3860.07215040
0.01400000 1669163.58548113 4506.74188059
0.01500000 1667165.40410872 4401.31686283
0.01600000 1665031.03563843 6368.74399602
0.01700000 1662762.62945699 5387.35116111
0.01800000 1660359.75280631 5205.22805927
0.01900000 1657823.13729471 8454.89838171
0.02000000 1655153.43964835 6256.48028489
0.02100000 1652352.36400331 6543.31565812
0.02200000 1649418.00067413 5690.49236086
0.02300000 1646353.33057227 5926.87225984
0.02400000 1643158.17145244 8626.58079348
0.02500000 1639833.94547728 9593.02901916
0.02600000 1636380.86292325 9278.27991715
0.02700000 1632799.93377782 10286.64005394
0.02800000 1629090.93601926 10629.81884501
0.02900000 1625256.63633953 8045.02071926
0.03000000 1621297.27634677 7539.03268155
0.03100000 1617213.06788267 8538.88539132
0.03200000 1613005.08804480 14371.87599642
0.03300000 1608676.15686118 11485.94828950
0.03400000 1604224.22257570 9264.39531284
0.03500000 1599652.77145383 10365.75043769
0.03600000 1594961.41139011 9737.23986653
0.03700000 1590152.05412340 12689.41397876
0.03800000 1585225.97218763 14837.71578636
0.03900000 1580184.43768014 11377.32847818
0.04000000 1575026.61716209 10655.05555885
0.04100000 1569756.10534957 11867.35670669
0.04200000 1564373.36366009 18162.37559470
0.04300000 1558878.71586551 13375.18000297
0.04400000 1553275.50944508 12581.53221082
0.04500000 1547563.70874341 13881.64711244
0.04600000 1541743.37316479 14130.07867192
0.04700000 1535817.91493737 14375.25635238
0.04800000 1529787.51119090 11243.93873041
0.04900000 1523654.72280802 15998.37533417
0.05000000 1517419.36870630 18573.21393785
0.05100000 1511084.60617757 12965.10652497
0.05200000 1504648.81353803 15550.54621259
0.05300000 1498117.45493631 13348.22714575
0.05400000 1491488.77237991 18457.17441893
0.05500000 1484766.83943280 18708.06304957
0.05600000 1477950.04061398 13900.12078061
0.05700000 1471043.65106258 16637.50447013
0.05800000 1464046.05612101 15548.16984199
0.05900000 1456959.36196313 13112.63487010
0.06000000 1449786.29955843 15918.65431285
0.06100000 1442528.47318247 17440.17005578
0.06200000 1435186.47401156 16275.01537604
0.06300000 1427763.34108005 16447.83445827
0.06400000 1420257.01597823 18001.75851941
0.06500000 1412674.15053739 15384.02221898
0.06600000 1405012.53806633 18356.48966871
0.06700000 1397275.16373836 22803.53173939
0.06800000 1389464.85931579 15819.05816379
0.06900000 1381582.48762029 17407.94015904
0.07000000 1373627.65849725 17554.96229767
0.07100000 1365605.22858632 17698.24459142
0.07200000 1357514.07784985 14864.77984882
0.07300000 1349359.01264281 23964.61718741
0.07400000 1341139.45553576 16596.60154004
0.07500000 1332857.65567416 15194.57798689
0.07600000 1324513.99979440 16827.95115629
0.07700000 1316113.90669652 26177.50683162
0.07800000 1307655.53078306 18594.86251976
0.07900000 1299140.80298758 18707.62844048
0.08000000 1290574.30945488 17248.52645501
0.08100000 1281955.49869947 20498.46938596
0.08200000 1273285.61306888 17437.64728924
0.08300000 1264567.93671077 15933.55675035
0.08400000 1255802.71353719 25618.37655865
0.08500000 1246994.39348050 17694.85127418
0.08600000 1238141.62875820 27468.17332367
0.08700000 1229248.27835942 17848.68583991
0.08800000 1220313.10779676 17920.29882960
0.08900000 1211341.93895104 21259.05202712
0.09000000 1202333.99487314 16411.85980097
0.09100000 1193291.41051039 27994.61780579
0.09200000 1184215.64323622 19823.77079923
0.09300000 1175109.97462849 19882.86170505
0.09400000 1165972.37002487 18276.61775909
0.09500000 1156807.93887554 24987.05265417
0.09600000 1147616.99447138 18367.61085994
0.09700000 1138403.25151988 21754.88715930
0.09800000 1129166.97009953 18444.94332381
0.09900000 1119910.21370882 23518.11559377
0.10000000 1110632.85467865 20191.30624760
0.10100000 1101337.72466946 20220.56157594
0.10200000 1092026.81615396 20246.17812380
0.10300000 1082701.24246592 21957.18223009
0.10400000 1073363.81032923 16905.48080801
0.10500000 1064017.14143580 20301.44801377
0.10600001 1054657.34762784 16927.25122591
0.10700001 1045292.36508302 18627.11082233
0.10800001 1035919.37545944 28793.38039596
0.10900001 1026542.86543926 25406.93711542
0.11000001 1017162.84348772 18629.33835535
0.11100001 1007781.29635262 18623.79923328
0.11200001 998400.76939515 16922.89383793
0.11300001 989019.85488797 32133.25659817
0.11400001 979643.69780543 16898.85458282
0.11500001 970272.01411560 25324.10076088
0.11600001 960906.02388407 25295.85226997
0.11700001 951548.84962350 18526.65697468
0.11800001 942198.54543567 18500.06931095
0.11900001 932859.70493180 16791.47547968
0.12000001 923532.21238520 20114.53253324
0.12100001 914219.57401439 23422.30658963
0.12200001 904920.29297013 21704.51424942
0.12300001 895637.77569277 24988.29511914
0.12400001 886371.91270072 19943.36897545
0.12500001 877124.93963789 23208.72699642
0.12600001 867899.64429704 19840.18680357
0.12700001 858695.47349609 18135.64925490
0.12800001 849512.86327472 21369.49708280
0.12900001 840354.88199566 18025.61306839
0.13000001 831222.43464451 22866.93025490
0.13100001 822115.10455672 19533.45580503
0.13200001 813037.11595043 19464.10947340
0.13300001 803988.69627280 17776.19091261
0.13400001 794969.03081105 17707.93599617
0.13500001 785981.56563494 19240.82963391
0.13600001 777025.56382165 20758.23891626
0.13700001 768104.22354226 17489.73399476
0.13800001 759215.94886242 17412.61860826
0.13900001 750365.86578766 22060.75749450
0.14000001 741551.22769731 15683.80920546
0.14100001 732774.89698077 20290.53785436
0.14200001 724036.40848754 15530.58169456
0.14300001 715340.63155974 24722.17339279
0.14400001 706681.38619094 18444.38504960
0.14500001 698068.09474740 18345.23039535
0.14600001 689495.13750965 19764.37904909
0.14700001 680968.71383138 18141.00739230
0.14800001 672484.59933829 18036.03780517
0.14900001 664045.77363610 16435.13367292
0.15000001 655654.24535065 16335.62629367
0.15100001 647309.65022237 14758.66072146
0.15200001 639014.16655082 17598.45097723
0.15300001 630767.39701924 17484.87307047
0.15400001 622568.20942726 21712.06732839
0.15500001 614421.58353666 15815.21230660
0.15600001 606323.99347648 17134.71686432
0.15700001 598281.71218758 17015.13269768
0.15800001 590287.51883263 18301.86538523
0.15900001 582349.55533852 19566.94598295
0.16000001 574462.92218940 20809.92033859
0.16100001 566634.24199005 19276.89782245
0.16200001 558858.08235674 20496.12113797
0.16300001 551138.97758707 18981.22728416
0.16400001 543475.51871607 14796.12169556
0.16500001 535869.42358884 20014.72391596
0.16600001 528320.00709651 14557.85848286
0.16700001 520828.24570793 18374.82137614
0.16800001 513393.76219096 15617.43898325
0.16900001 506020.23712780 19355.27498406
0.17000001 498704.86143773 16629.31438987
0.17100001 491449.33898516 15215.27225347
0.17200001 484253.87155156 15079.66627222
0.17300001 477118.65615429 14943.35701644
0.17400001 470045.43304763 12338.69320021
0.17500001 463032.49235308 14668.87005052
0.17600001 456079.40187514 13319.79956085
0.17700001 449190.50177198 11993.38696377
0.17800001 442362.58156758 11877.43587609
0.17900001 435596.99713444 15289.45532159
0.18000001 428894.72806035 15137.84014193
0.18100001 422256.30751235 12680.35751357
0.18200001 415678.02315996 12551.39850222
0.18300001 409165.73471865 14680.86725522
0.18400001 402715.32380001 17880.56122141
0.18500001 396329.64956470 14374.87706881
0.18600001 390007.25661585 16409.55609736
0.18700001 383748.57196025 18396.90740893
0.18800001 377553.36749243 14985.09386376
0.18900001 371424.39189473 11644.15523606
0.19000001 365355.41652399 10467.43317799
0.19100001 359355.73650227 12419.33484033
0.19200001 353416.82916258 12277.70122525
0.19300001 347544.64314668 15170.32439019
0.19400001 341735.64186049 13994.07519546
0.19500001 335991.44359131 11853.77869005
0.19600001 330310.58443605 15617.08517014
0.19700001 324694.85543751 14465.15649333
0.19800001 319143.33170211 11431.71468182
0.19900001 313656.80205540 10350.67495700
0.20000001 308232.38871551 13010.48974257
0.20100001 302874.08169961 13765.62766384
0.20200001 297578.27313627 14498.01415243
0.20300001 292347.22935580 9840.40820522
0.20400001 287179.86024442 11480.01545588
0.20500001 282075.30214513 9587.73997310
0.20600001 277034.82966494 9462.12505446
0.20700001 272057.28465752 11034.64398731
0.20800001 267142.71884347 9212.41709479
0.20900001 262293.31293651 9088.46372287
0.21000001 257504.08861142 11410.00670575
0.21100001 252777.69345607 12057.49654785
0.21200001 248113.51483352 10305.39532579
0.21300001 243511.20084690 9380.05190007
0.21400001 238971.52612307 7706.83208182
0.21500001 234494.05518631 9876.89007140
0.21600001 230076.29808802 7488.98385683
0.21700001 225720.35281609 10333.47824048
0.21800001 221425.10841957 9455.95970214
0.21900001 217189.17483227 7883.96741918
0.22000001 213013.11907305 7767.52375427
0.22100001 208899.42360004 6956.35113480
0.22200001 204843.74018837 8907.63046328
0.22300001 200847.24269616 6748.46767370
0.22400001 196907.83411809 8639.33163045
0.22500001 193030.03225137 8506.83392358
0.22600001 189208.44841255 7086.80277041
0.22700001 185445.72978391 6976.46868438
0.22800001 181739.57533979 8115.58112058
0.22900001 178090.06028410 7372.92884443
0.23000001 174497.44365824 8464.87139218
0.23100001 170962.61755258 8329.29912108
0.23200001 167481.43947156 6438.82424500
0.23300001 164057.13011815 6334.24609344
0.23400001 160687.81821984 7929.94420420
0.23500001 157371.53361075 6128.04780864
0.23600001 154110.78360000 5478.63861610
0.23700001 150903.45503323 7542.15503929
0.23800001 147749.42549773 6885.86230101
0.23900001 144648.49108752 6248.81511055
0.24000001 141599.80190286 5630.71638900
0.24100001 138604.21732230 6037.59999214
0.24200001 135659.50104558 5439.26795171
0.24300001 132766.12211505 6802.93641897
0.24400001 129922.91622824 5729.60087670
0.24500001 127130.30394229 6098.44096859
0.24600001 124387.55254002 6912.83855942
0.24700001 121694.77371233 5432.45495551
0.24800001 119049.85015568 4891.16332503
0.24900001 116453.23867790 6113.79531982
0.25000001 113905.18846806 4717.38360358
0.25100001 111403.88886505 5895.49407765
0.25200001 108950.69089252 4961.61469798
0.25300001 106544.00471713 5277.12480330
0.25400001 104182.54989696 5578.97581093
0.25500001 101866.82369638 5085.19207951
0.25600001 99596.66950219  3839.45179096
0.25700001 97370.82245282  4145.07610793
0.25800001 95188.92885521  4437.70807320
0.25900001 93050.96405509  5443.48165478
0.26000001 90956.62295322  3560.95195711
0.26100001 88902.90889650  4192.66138194
0.26200001 86893.91679690  3770.76169782
0.26300001 84925.29456623  4708.25855353
0.26400001 82997.59105473  6268.39336102
0.26500001 81111.52703137  5825.43014705
0.26600001 79264.82841261  5396.74609784
0.26700001 77458.89730567  5604.92607426
0.26800001 75692.14042942  3665.01361302
0.26900001 73963.51327700  3295.07467242
0.27000001 72273.78059570  3525.51518429
0.27100001 70621.84584638  3169.50859158
0.27200001 69007.54042273  4238.78837106
0.27300001 67429.55938832  4711.30353742
0.27400001 65886.93011026  2989.61959524
0.27500001 64382.45277599  3731.60713950
0.27600001 62911.40226742  2875.36577671
0.27700001 61476.90627804  5127.17422624
0.27800001 60075.95592758  3519.85042438
0.27900001 58709.48605418  3205.53809027
0.28000001 57376.23370251  3385.77171103
0.28100001 56076.03284070  3320.82282200
0.28200001 54808.83040905  2326.63496098
0.28300001 53573.71535610  2282.24038219
0.28400001 52370.46244925  2686.60485081
0.28500001 51198.49357450  2635.69857397
0.28600001 50056.70143114  2154.94109861
0.28700001 48945.71955616  2325.90070340
0.28800001 47863.87485158  2904.85870224
0.28900001 46813.08876925  2850.91724099
0.29000001 45789.68114769  2398.46361205
0.29100001 44796.24240600  2158.28306128
0.29200001 43830.15809539  2504.23620132
0.29300001 42891.65775760  2080.67441631
0.29400001 41980.29108088  2414.91635874
0.29500001 41096.79218850  2737.04648932
0.29600001 40238.58135757  1971.89177277
0.29700001 39406.08045038  1761.45187952
0.29800001 38599.74582149  1904.31855025
0.29900001 37818.32945818  1701.82490618
0.30000001 37061.50125263  1673.32686077
0.30100001 36329.81206795  2139.46273396
0.30200001 35620.72176934  2266.54663348
0.30300001 34935.53012761  1752.36627416
0.30400001 34274.22548983  1724.85047943
0.30500001 33634.17044036  1852.57019556
0.30600001 33016.76585349  1672.46435349
0.30700001 32421.65440889  2097.03270645
0.30800001 31847.76363689  1623.75830590
0.30900001 31294.79070268  2328.33253851
0.31000001 30763.34769694  2439.68740461
0.31100001 30250.66909668  1698.87765690
0.31200001 29758.95690898  1676.61971163
0.31300001 29286.12735698  1655.25199659
0.31400001 28833.99897834  1634.88781948
0.31500001 28399.62001349  1884.59887333
0.31600002 27983.81633491  1463.69358270
0.31700002 27585.62987402  1447.41806802
0.31800002 27205.67182911  1562.14975039
0.31900002 26843.33495351  1417.32815265
0.32000002 26497.68290695  1403.44984162
0.32100002 26169.10244501  1895.95156191
0.32200002 25856.90540562  1378.04383884
0.32300002 25560.04688750  2111.77117384
0.32400002 25279.23024012  1602.07129233
0.32500002 25013.35677394  1467.78384500
0.32600002 24763.10573283  1700.48255120
0.32700002 24527.18022426  1448.08478901
0.32800002 24306.41921427  1559.37839853
0.32900002 24098.41638392  1312.15883424
0.33000002 23905.86725277  1305.61900184
0.33100002 23724.29658889  1654.05803650
0.33200002 23558.46187874  1176.74522657
0.33300002 23403.96642416  1172.53877338
0.33400002 23262.91309783  1402.75372623
0.33500002 23133.38807421  1399.10737698
0.33600002 23015.90495093  1279.79945540
0.33700002 22909.29099544  1277.65121932
0.33800002 22815.55075290  1856.27329716
0.33900002 22731.63675546  1275.24488237
0.34000002 22659.12495170  1970.32430349
0.34100002 22596.94292469  1275.14554963
0.34200002 22546.02484441  1739.98954977
0.34300002 22503.62511312  1393.42453300
0.34400002 22471.88133444  1511.79588837
0.34500002 22449.18091028  1631.15756219
0.34600002 22436.87079525  1401.40701624
0.34700002 22431.42430721  1522.19652558
0.34800002 22436.22897342  1291.99030662
0.34900002 22449.12337570  1414.29483965
0.35000002 22470.30967087  1301.36804622
0.35100002 22499.54142963  1781.96376562
0.35200002 22535.73596001  1431.92073072
0.35300002 22579.90669354  1558.69103288
0.35400002 22631.79396665  1566.68601155
0.35500002 22690.28783457  1332.82757053
0.35600002 22755.23297987  1462.25134055
0.35700002 22826.98208227  1348.38989547
0.35800002 22905.70360539  1603.51385685
0.35900002 22990.06825978  1489.75649380
0.36000002 23081.06772006  1999.74380199
0.36100002 23176.97829322  1636.06297521
0.36200002 23279.68261860  1521.09453435
0.36300002 23385.87128186  1532.24235897
0.36400002 23498.09454078  1286.52073705
0.36500002 23614.75811619  1555.74033839
0.36600002 23736.81526601  1306.71174229
0.36700002 23862.97183393  1712.40693992
0.36800002 23994.85379585  1593.73826461
0.36900002 24129.84917120  1607.04803093
0.37000002 24268.02164553  1620.61856226
0.37100002 24410.53690977  2043.16203613
0.37200002 24557.18490329  1648.76947251
0.37300002 24706.57486660  1663.24669881
0.37400002 24860.43422685  1678.07938980
0.37500002 25016.09174281  2116.36146170
0.37600002 25176.01007683  1566.07378102
0.37700002 25337.34893694  1580.29052806
0.37800002 25502.35441922  2029.73248438
0.37900002 25669.73743653  1902.12763416
0.38000002 25839.33575493  2362.74897336
0.38100002 26010.69365867  1639.45409897
0.38200002 26184.42270530  1504.29515568
0.38300002 26359.78129110  2277.48521144
0.38400002 26537.56352590  1685.79880285
0.38500002 26715.84220117  1701.53207040
0.38600002 26896.74234087  1717.49156354
0.38700002 27077.92700516  1575.93542636
0.38800002 27260.28170748  1908.76501559
0.38900002 27443.90578550  2568.74970322
0.39000002 27629.10600719  1620.44714409
0.39100002 27814.20542803  1799.02289232
0.39200002 28000.65927621  2310.89451955
0.39300002 28187.12508900  2332.20284036
0.39400002 28374.91969412  3194.30673590
0.39500002 28562.16177235  2375.22948552
0.39600002 28749.57980419  1712.03755845
0.39700002 28936.79993991  1727.52703826
0.39800002 29125.18191528  1743.14222022
0.39900002 29312.25811311  2110.48268414
0.40000002 29499.26932789  2129.25736097
0.40100002 29685.80755525  1969.05970843
0.40200002 29873.00868622  1986.40580670
0.40300002 30058.55766277  2185.85841680
0.40400002 30243.56558074  3858.32306177
0.40500002 30427.90296228  2779.58906730
0.40600002 30611.66993192  2429.49529926
0.40700002 30794.33129457  1884.61316452
0.40800002 30976.22124503  2660.54776880
0.40900002 31156.24199571  2107.71987088
0.41000002 31335.97877792  2704.60845647
0.41100002 31514.08824654  2531.84196969
0.41200002 31690.19732100  2552.17016217
0.41300002 31865.40461141  2374.61006416
0.41400002 32039.06589630  1994.43194655
0.41500002 32211.53465434  2210.99984344
0.41600002 32381.15930574  2633.07409371
0.41700002 32549.91983088  2653.14409113
0.41800002 32717.62775750  2056.30300199
0.41900002 32881.52997297  2692.99743239
0.42000002 33044.41297220  2295.43025588
0.42100002 33205.75616983  2312.11691166
0.42200002 33364.86865903  2328.70111840
0.42300002 33521.41002730  2558.35413451
0.42400002 33675.77963226  3005.56347460
0.42500002 33828.37188590  3026.28629232
0.42600002 33977.31097729  2393.87155834
0.42700002 34125.30498281  2629.01362046
0.42800002 34270.34981262  2866.88624943
0.42900002 34413.43666777  2663.60012431
0.43000002 34554.03589432  2233.91852643
0.43100002 34690.78916146  3821.53751512
0.43200002 34825.81978455  4071.48678395
0.43300002 34957.85094260  2958.48306547
0.43400002 35087.66737698  2747.36448581
0.43500002 35214.18347609  2763.60925017
0.43600002 35339.03915746  2548.12153920
0.43700002 35460.10141013  2795.67452766
0.43800002 35577.57387207  2577.06168555
0.43900002 35693.40390947  2355.76476966
0.44000002 35805.52703461  3079.09644326
0.44100002 35915.44191349  2619.31330288
0.44200002 36022.04492752  3111.76449853
0.44300002 36125.97094174  3127.78671236
0.44400002 36226.21839209  3385.34026917
0.44500002 36322.76741779  2915.99190649
0.44600002 36417.06129492  3662.64611331
0.44700002 36508.49819050  3189.38255307
0.44800002 36595.68568609  2957.66345732
0.44900002 36681.13091393  3466.36703564
0.45000002 36763.10054337  2984.42864355
0.45100002 36840.61263560  3247.13175159
0.45200002 36916.00242863  3010.13098069
0.45300002 36987.45333989  2770.73026100
0.45400002 37056.35630824  2782.00608169
0.45500002 37121.80543820  2793.04477354
0.45600002 37183.73541277  3568.52325669
0.45700002 37242.44236018  3070.26709368
0.45800002 37297.25806410  2824.70797336
0.45900002 37349.06548119  2834.79420438
0.46000002 37398.38492762  3361.92797241
0.46100002 37443.03172447  3892.20333223
0.46200002 37485.33535126  3124.02799624
0.46300002 37523.79504757  3917.48438864
0.46400002 37558.56456848  3143.65200338
0.46500002 37590.88958120  2627.60330626
0.46600002 37619.02225452  3162.25516059
0.46700002 37643.91291319  3699.64393646
0.46800002 37666.09750183  3709.73411878
0.46900002 37684.21417737  3985.10583814
0.47000002 37698.62799961  3462.43065273
0.47100002 37710.28801132  2936.87736952
0.47200002 37718.29163752  2943.72421037
0.47300002 37723.65257418  3755.01255521
0.47400002 37724.24438712  3225.42304798
0.47500002 37722.68386839  2693.39975586
0.47600002 37717.99948321  2698.72299094
0.47700002 37708.87721983  2974.09928729
