# SAXS profile: number of points = 501, q_min = 0, q_max = 0.5, delta_q = 0.001
#    q    intensity    error
0.00000000 1700912.83420644 306.16431016
0.00100000 1700842.66811359 510.25281255
0.00200000 1700632.11530877 841.81292373
0.00300000 1700281.34717249 1224.20261357
0.00400000 1699790.22384166 1784.77980285
0.00500000 1699159.24889512 1835.09206144
0.00600000 1698388.07533086 2139.96906204
0.00700000 1697477.41845578 2036.97298680
0.00800000 1696426.74481056 2748.21144262
0.00900000 1695237.39949074 2797.14182873
0.01000000 1693908.51207877 3353.93899874
0.01100000 1692441.42108387 5178.87097400
0.01200000 1690835.47591563 3626.84225485
0.01300000 1689092.18640908 4256.51249748
0.01400000 1687210.72130597 4175.84672035
0.01500000 1685192.98482634 4448.90967805
0.01600000 1683037.66515719 6008.44473321
0.01700000 1680747.03558125 4991.81891960
0.01800000 1678320.63513307 6218.17823297
0.01900000 1675759.17504659 6535.46107758
0.02000000 1673063.34832121 6851.19472129
0.02100000 1670234.81314841 9370.01772658
0.02200000 1667271.68533848 6902.50509090
0.02300000 1664176.95564197 8387.45223822
0.02400000 1660950.47054936 7474.27745828
0.02500000 1657593.74104191 6464.61588531
0.02600000 1654106.67645099 8038.95881524
0.02700000 1650490.67089403 9011.67947583
0.02800000 1646745.31249133 8596.01092541
0.02900000 1642873.33015055 7392.93032512
0.03000000 1638875.07259123 9907.00026919
0.03100000 1634750.79381951 7846.80417139
0.03200000 1630501.41898798 9685.17887487
0.03300000 1626129.90529314 10781.24176911
0.03400000 1621634.32522294 8513.58060024
0.03500000 1617017.87559064 9605.08662455
0.03600000 1612280.30236748 14317.04974667
0.03700000 1607423.70829289 14659.70489761
0.03800000 1602449.06961085 12186.62573838
0.03900000 1597357.92970775 9584.14802209
0.04000000 1592149.24891534 13708.40566839
0.04100000 1586826.87254654 12996.11268874
0.04200000 1581391.16538921 12239.96818796
0.04300000 1575842.28019259 17680.95120447
0.04400000 1570183.77851275 13778.36329634
0.04500000 1564415.61039400 10794.46821328
0.04600000 1558537.85424602 10987.69238322
0.04700000 1552553.73897587 13414.06492861
0.04800000 1546463.73216269 14776.46164834
0.04900000 1540270.34584167 15017.63657099
0.05000000 1533973.33505797 19949.32415139
0.05100000 1527575.91483331 13106.60195983
0.05200000 1521076.54370499 12092.55908598
0.05300000 1514480.37024979 17174.20819926
0.05400000 1507786.12619210 12439.23612117
0.05500000 1500997.53353140 15130.05584380
0.05600000 1494113.17216139 20439.46914896
0.05700000 1487138.19079211 16819.53372297
0.05800000 1480071.15136396 20957.80848188
0.05900000 1472913.96108481 13256.22626891
0.06000000 1465669.63117886 24139.57995329
0.06100000 1458339.79825111 21700.09721205
0.06200000 1450924.70133785 15082.36297541
0.06300000 1443427.62048170 13856.90580451
0.06400000 1435846.89216648 16799.40942400
0.06500000 1428188.26392716 14139.06447427
0.06600000 1420450.17532353 17130.62991592
0.06700000 1412635.47274109 18731.54724516
0.06800000 1404747.36389047 15993.04948651
0.06900000 1396786.39455706 20532.76096131
0.07000000 1388752.01156349 17748.25153890
0.07100000 1380649.34418091 14911.01361555
0.07200000 1372477.14305372 18034.35050458
0.07300000 1364240.46772860 24228.91184212
0.07400000 1355938.55789830 21356.03328773
0.07500000 1347573.96653069 19971.04712008
0.07600000 1339146.40982544 17013.85593445
0.07700000 1330661.94922983 15568.74553598
0.07800000 1322118.56150135 20367.23739507
0.07900000 1313518.36239680 26795.77584972
0.08000000 1304865.52891591 19024.94030407
0.08100000 1296160.34804532 20725.60493765
0.08200000 1287402.93920996 20836.61754888
0.08300000 1278597.48075200 17721.36191492
0.08400000 1269743.81837434 22664.92822184
0.08500000 1260846.42565332 17891.41161994
0.08600000 1251904.19582349 19604.82062707
0.08700000 1242921.14847646 19687.87191636
0.08800000 1233895.72750709 23061.51223016
0.08900000 1224833.79552103 24802.88552428
0.09000000 1215734.34732194 18254.25208254
0.09100000 1206600.07001688 21646.40627308
0.09200000 1197432.09092786 20045.01414398
0.09300000 1188233.99806646 20104.92019206
0.09400000 1179003.75542980 25201.20645671
0.09500000 1169746.02922210 21897.64669629
0.09600000 1160461.59053458 25327.07540399
0.09700000 1151154.02087059 20306.35788282
0.09800000 1141823.72432046 18651.69141373
0.09900000 1132472.34391685 16987.08595753
0.10000000 1123100.20177950 18716.46574284
0.10100000 1113709.99055190 17039.76365685
0.10200000 1104304.01569392 25592.24676747
0.10300000 1094882.94332611 18788.19219129
0.10400000 1085449.94107497 20515.00485145
0.10500000 1076007.26320819 22241.07117694
0.10600001 1066551.72270484 22253.60274135
0.10700001 1057090.35920058 27399.78339985
0.10800001 1047620.99603670 18841.46450043
0.10900001 1038148.09009398 20555.33315131
0.11000001 1028671.55917076 22265.59694628
0.11100001 1019193.16802399 18834.69063170
0.11200001 1009715.89271203 20537.62222461
0.11300001 1000238.16729000 23945.70285231
0.11400001 990765.11716006 23926.97870600
0.11500001 981296.43982607 17074.55885698
0.11600001 971833.50887284 18761.24677229
0.11700001 962379.49595653 22144.35324485
0.11800001 952932.20081004 22112.79276127
0.11900001 943496.37888226 22077.81630575
0.12000001 934071.78660826 22039.42484319
0.12100001 924662.46743235 18613.45634626
0.12200001 915266.27791222 16886.66362303
0.12300001 905887.06826492 20219.40031630
0.12400001 896524.66019185 20171.80580476
0.12500001 887181.28103493 26828.36320266
0.12600001 877859.51717694 20067.86950833
0.12700001 868558.87799912 18343.96436783
0.12800001 859280.13703327 23277.90000930
0.12900001 850026.31119834 19890.61661953
0.13000001 840798.05922738 24782.52396385
0.13100001 831595.13604330 16465.58446981
0.13200001 822421.71354340 19688.77675036
0.13300001 813278.03261546 16346.88922621
0.13400001 804163.40772443 17912.74075157
0.13500001 795081.04771523 22707.51579337
0.13600001 786030.64572213 22614.10274370
0.13700001 777014.85420946 20909.47071273
0.13800001 768032.65250925 17614.82971594
0.13900001 759088.84823139 19129.03987752
0.14000001 750180.68406956 17452.95443797
0.14100001 741311.37933791 18947.91974952
0.14200001 732480.24963244 21996.38293393
0.14300001 723692.06778518 18758.09928177
0.14400001 714940.68214293 20214.94874113
0.14500001 706235.55586353 20106.52722390
0.14600001 697571.40183738 16919.59514974
0.14700001 688953.83278578 21412.68613316
0.14800001 680379.29244195 15206.47790350
0.14900001 671849.95953246 16628.28728296
0.15000001 663368.73462811 19532.89331274
0.15100001 654934.53839888 16425.75899809
0.15200001 646550.13843113 16322.15901489
0.15300001 638214.82295075 20639.86834820
0.15400001 629927.64163921 16110.40019519
0.15500001 621693.11656311 14547.61961412
0.15600001 613508.49368672 14448.12570820
0.15700001 605379.54168388 20086.49414109
0.15800001 597298.84686751 14245.57817016
0.15900001 589275.04676603 16971.12214791
0.16000001 581303.26212814 16846.16933165
0.16100001 573389.61555378 13933.36831567
0.16200001 565529.20209708 13827.18964400
0.16300001 557726.32207117 19208.09543890
0.16400001 549979.68101613 16334.39729732
0.16500001 542290.72832384 14853.34375004
0.16600001 534659.04319112 14732.53063070
0.16700001 527085.64672591 18595.58249448
0.16800001 519569.88868359 17122.42649003
0.16900001 512116.04331338 16976.64763744
0.17000001 504720.66219765 20713.73695469
0.17100001 497385.55649220 16682.31235251
0.17200001 490111.34828210 15262.06810622
0.17300001 482897.87231843 15124.36207525
0.17400001 475746.81121056 13737.18982246
0.17500001 468656.85777026 16084.30411830
0.17600001 461627.17713753 13481.82234504
0.17700001 454662.19466151 16995.27363914
0.17800001 447759.27767061 14426.80460796
0.17900001 440918.87769441 11904.81026006
0.18000001 434142.43210819 12965.66434734
0.18100001 427430.50306454 15169.50927031
0.18200001 420779.33538858 13860.47196244
0.18300001 414194.93765118 11431.78081920
0.18400001 407672.88425167 13575.50768690
0.18500001 401216.30855452 13432.72264500
0.18600001 394823.51071956 13289.75999867
0.18700001 388495.21031829 16433.34817285
0.18800001 382230.65293351 14087.11137943
0.18900001 376033.42218507 15003.73425407
0.19000001 369896.64373681 10597.53934378
0.19100001 363829.65564428 15717.44186648
0.19200001 357824.52318640 12430.82452287
0.19300001 351886.44654793 12287.87529409
0.19400001 346012.09622151 11132.93972200
0.19500001 340203.41689730 11002.17902237
0.19600001 334458.72277180 12848.23244244
0.19700001 328779.69315421 11717.70881777
0.19800001 323165.54062192 12540.43939648
0.19900001 317617.09887981 13339.91878340
0.20000001 312131.48644858 13175.07066566
0.20100001 306712.53046133 13940.08516831
0.20200001 301356.70039322 11011.57435281
0.20300001 296066.52001092 14495.41750486
0.20400001 290840.55122744 11626.35158485
0.20500001 285678.04345497 11475.68754801
0.20600001 280580.20634968 9583.21740085
0.20700001 275546.13883075 12035.85591305
0.20800001 270575.42010739 10179.04778561
0.20900001 265670.65695627 11716.07652561
0.21000001 260826.86094288 9906.20464690
0.21100001 256046.47712070 8956.50619309
0.21200001 251328.98226752 9635.95363567
0.21300001 246673.98530555 10293.70589344
0.21400001 242082.36558866 7807.15665933
0.21500001 237553.53796779 8466.40849344
0.21600001 233084.80315511 9862.98391182
0.21700001 228678.94275606 11216.70267251
0.21800001 224334.11901353 7369.37615802
0.21900001 220049.43814933 7987.79498250
0.22000001 215825.22765652 11447.37061616
0.22100001 211664.01300329 7753.25316291
0.22200001 207561.56084758 9720.10835410
0.22300001 203518.99255584 6838.23847323
0.22400001 199533.95330587 11448.26111227
0.22500001 195611.06091744 10609.94444588
0.22600001 191745.23654023 7834.71073552
0.22700001 187938.75727128 8355.75754342
0.22800001 184189.55323569 8224.98488870
0.22900001 180497.48824535 6849.88000285
0.23000001 176863.24044217 6741.14272825
0.23100001 173286.88869243 7236.46081403
0.23200001 169765.24032251 8899.94314482
0.23300001 166300.98855477 7004.59796921
0.23400001 162892.20732673 6890.34069580
0.23500001 159537.31085857 6777.14528581
0.23600001 156238.16756039 5554.26711947
0.23700001 152993.23717692 7100.41647322
0.23800001 149802.24822171 9129.69844970
0.23900001 146664.90774450 6335.92431425
0.24000001 143580.49913315 5709.47881809
0.24100001 140549.60114884 5612.14583933
0.24200001 137570.25587972 6518.76688321
0.24300001 134642.74747382 5913.50974878
0.24400001 131765.92951991 5810.87776670
0.24500001 128940.27288862 5233.68592413
0.24600001 126164.92779171 7479.05727329
0.24700001 123440.54047528 6887.98248436
0.24800001 120764.25148846 4961.59950712
0.24900001 118136.82066835 6202.18337850
0.25000001 115558.52726693 4785.85663317
0.25100001 113027.62912637 5554.17795803
0.25200001 110545.28160413 5453.75172596
0.25300001 108109.89439292 7414.17690823
0.25400001 105720.40977908 5256.94762498
0.25500001 103376.98224023 5954.51445876
0.25600001 101079.75931250 4675.94988703
0.25700001 98827.41364410  4589.54530678
0.25800001 96619.35412455  4129.02829387
0.25900001 94455.90016691  3683.78028081
0.26000001 92336.52241550  4699.46753069
0.26100001 90258.15084452  3901.86004563
0.26200001 88225.10747667  4872.67291650
0.26300001 86232.79319326  3756.30064924
0.26400001 84281.97264768  4690.29199978
0.26500001 82373.23458259  3944.03065844
0.26600001 80504.34221832  4836.29858762
0.26700001 78676.69001051  4111.64401451
0.26800001 76888.62147372  3722.94722793
0.26900001 75139.17848633  3347.45055997
0.27000001 73429.02003965  3283.37878645
0.27100001 71757.12550101  3805.99811668
0.27200001 70123.23371332  4020.16517903
0.27300001 68526.23281577  3379.71396242
0.27400001 66964.88699112  4419.68275057
0.27500001 65442.23973443  3251.17062387
0.27600001 63953.26970238  3454.43602646
0.27700001 62501.31644487  3127.56602292
0.27800001 61083.42962198  2811.97581573
0.27900001 59700.29780974  3259.63641468
0.28000001 58350.83717890  3197.33427454
0.28100001 57034.75970796  3377.59862976
0.28200001 55752.02122919  3313.34277847
0.28300001 54501.82992697  2321.77806478
0.28400001 53283.81977786  2733.46008398
0.28500001 52097.66853862  2681.98810331
0.28600001 50941.82690374  2193.04575201
0.28700001 49817.20988584  2797.73463961
0.28800001 48722.07984456  2112.10226123
0.28900001 47658.44381034  3109.71360582
0.29000001 46622.46448276  3459.62014070
0.29100001 45616.71537228  2397.61467346
0.29200001 44638.75954180  2354.24828967
0.29300001 43688.73508578  2119.34063933
0.29400001 42766.05685797  2270.87772665
0.29500001 41871.55132562  2416.82605692
0.29600001 41002.70575194  2009.33769049
0.29700001 40159.95688986  2154.18018955
0.29800001 39343.69117058  1941.02109579
0.29900001 38552.42768442  2255.31712630
0.30000001 37786.15081146  2388.46270586
0.30100001 37045.43990731  2517.23776087
0.30200001 36327.51278611  2146.41119458
0.30300001 35633.76261252  2274.85951288
0.30400001 34964.13847617  1919.53129322
0.30500001 34316.12381236  2047.64320482
0.30600001 33690.85850684  1706.61051846
0.30700001 33088.22134389  1681.54348831
0.30800001 32507.08902476  2109.38510668
0.30900001 31947.29084539  1782.65891357
0.31000001 31408.97178419  1611.75146341
0.31100001 30889.78066254  1445.64180345
0.31200001 30391.77158385  1569.58311776
0.31300001 29913.03937027  1972.46590946
0.31400001 29455.12213915  2087.63188045
0.31500001 29015.08602413  1787.90968546
0.31600002 28594.01178226  1495.60985708
0.31700002 28190.77472203  1344.70001791
0.31800002 27805.76815202  1729.65788979
0.31900002 27438.59974559  1317.05285015
0.32000002 27088.54691550  1304.31359574
0.32100002 26755.67073591  2067.67833238
0.32200002 26439.31765447  1409.08350112
0.32300002 26138.55854991  1524.40080681
0.32400002 25854.02565585  1764.53733456
0.32500002 25584.64749499  1376.19825392
0.32600002 25330.85591106  1490.97424953
0.32700002 25091.81261399  1604.87241079
0.32800002 24868.03911486  1349.96156727
0.32900002 24657.16902391  1464.63590938
0.33000002 24461.93196171  1578.89547324
0.33100002 24277.78155852  1329.93693675
0.33200002 24109.53410723  1445.12554282
0.33300002 23952.71208140  1680.04330495
0.33400002 23809.51379425  1435.71374978
0.33500002 23678.06675191  1312.71208289
0.33600002 23558.70110813  1190.89239741
0.33700002 23450.52772216  1188.94181182
0.33800002 23355.14688545  1306.37020290
0.33900002 23269.79865589  1424.11174518
0.34000002 23195.99716859  1661.06543591
0.34100002 23132.62467010  1186.70370178
0.34200002 23080.59597456  1899.99475061
0.34300002 23037.28915754  1545.34142987
0.34400002 23004.79346326  2261.94642440
0.34500002 22981.27078541  1192.72801025
0.34600002 22968.34550518  1315.05268418
0.34700002 22962.30407997  1558.22202867
0.34800002 22966.82468305  1563.00732783
0.34900002 22979.27051626  1327.05293517
0.35000002 23000.25158586  1332.05963368
0.35100002 23029.34743934  1459.13952287
0.35200002 23065.37377090  1831.96739852
0.35300002 23109.63689869  1472.54613293
0.35400002 23161.54875252  1480.02303539
0.35500002 23220.22362623  1363.95600041
0.35600002 23285.39569539  1870.39949782
0.35700002 23357.39523376  1505.15062015
0.35800002 23436.47837429  1514.46530428
0.35900002 23521.28308208  1905.22401989
0.36000002 23612.75587287  1534.35694930
0.36100002 23709.32418842  1544.89963729
0.36200002 23812.53055750  1555.91082033
0.36300002 23919.39904496  1697.79902463
0.36400002 24032.28870763  1447.34465597
0.36500002 24149.64480741  1325.81556273
0.36600002 24272.48785255  1870.68072741
0.36700002 24399.47299262  1750.90626489
0.36800002 24532.28294313  1357.86192522
0.36900002 24668.12107458  1505.98886294
0.37000002 24807.23606142  1380.52275221
0.37100002 24950.63120109  1949.14340176
0.37200002 25098.25863627  1965.94669211
0.37300002 25248.68420477  1416.45125099
0.37400002 25403.57914302  1857.63681283
0.37500002 25560.36129115  1585.76488962
0.37600002 25721.20684465  1599.98774757
0.37700002 25883.73756146  2054.65118496
0.37800002 26049.72537910  1629.01965375
0.37900002 26218.15921227  1643.87866048
0.38000002 26388.94922949  1508.12851991
0.38100002 26561.39690098  1978.55854888
0.38200002 26736.24732426  1689.59722970
0.38300002 26912.68708231  1550.17084938
0.38400002 27091.49233954  1720.98713240
0.38500002 27271.01094296  2368.48741260
0.38600002 27452.99503990  1912.37572508
0.38700002 27635.23918292  1930.04519597
0.38800002 27818.69039310  1785.54272747
0.38900002 28003.38134192  1802.01767472
0.39000002 28189.61437053  1818.65305727
0.39100002 28375.72564597  1668.49274703
0.39200002 28563.24968364  1683.80364862
0.39300002 28750.69971706  1869.08307716
0.39400002 28939.48928258  1886.13130335
0.39500002 29127.52933779  2249.22792203
0.39600002 29315.97977784  1745.76667848
0.39700002 29504.03334957  1937.52996186
0.39800002 29693.37089158  3198.86699771
0.39900002 29881.38825782  1792.88338041
0.40000002 30069.01247395  2351.24654180
0.40100002 30256.41113568  2006.90784572
0.40200002 30444.30788838  2208.43019886
0.40300002 30630.48320080  2041.82810691
0.40400002 30816.25366782  2246.50499882
0.40500002 31001.17192059  2076.76860536
0.40600002 31185.59144525  2475.04458232
0.40700002 31368.61758298  1919.75948704
0.40800002 31550.97710870  2129.21779107
0.40900002 31731.44414246  1951.48390723
0.41000002 31911.59839857  2951.02520173
0.41100002 32090.01919793  2578.11226452
0.41200002 32266.40593053  2798.46551895
0.41300002 32441.95220438  2619.03892556
0.41400002 32615.53324490  2639.41215291
0.41500002 32788.23880140  2250.58481797
0.41600002 32957.95856286  2061.52040579
0.41700002 33126.65999890  2907.85835249
0.41800002 33294.42034218  2511.06530119
0.41900002 33458.21836635  2529.44142835
0.42000002 33620.80534571  2547.78474982
0.42100002 33781.92003900  2352.23520378
0.42200002 33940.76786736  2368.89600555
0.42300002 34096.90582483  3035.98863850
0.42400002 34250.78663327  2620.18530160
0.42500002 34402.85613521  2638.01113345
0.42600002 34551.23348380  3540.81057521
0.42700002 34698.50690003  3341.46637281
0.42800002 34842.86159305  2690.56589971
0.42900002 34985.18480150  2482.19897929
0.43000002 35124.93549113  2952.07534324
0.43100002 35260.71674310  2513.38400855
0.43200002 35394.74301747  2758.66640151
0.43300002 35525.71226611  2312.72397812
0.43400002 35654.31522915  3257.02185053
0.43500002 35779.60391083  2573.98482732
0.43600002 35903.13530250  2824.14075673
0.43700002 36022.84412466  3076.71126249
0.43800002 36138.86960211  2379.74467607
0.43900002 36253.13839209  3110.51942145
0.44000002 36363.68851254  2646.00392001
0.44100002 36471.74526814  2418.07682587
0.44200002 36576.63252871  3402.72428540
0.44300002 36678.65241319  2442.79836648
0.44400002 36777.01097216  2454.86559873
0.44500002 36871.48475022  3453.38342536
0.44600002 36963.72374908  3221.94313328
0.44700002 37052.96412173  2489.95930698
0.44800002 37137.74087396  3001.47235968
0.44900002 37220.95243831  2512.41440865
0.45000002 37300.53482336  3532.73382054
0.45100002 37375.50931051  3547.68351189
0.45200002 37448.23632998  3307.99011298
0.45300002 37516.91670744  3576.86300841
0.45400002 37583.11926673  3847.57201728
0.45500002 37645.74149709  4119.95014470
0.45600002 37704.86714754  3360.06939510
0.45700002 37760.50291234  3372.39067493
0.45800002 37812.13822624  2603.36584026
0.45900002 37860.83178708  2873.63726883
0.46000002 37906.78992810  3145.50557731
0.46100002 37948.10263508  4470.66618332
0.46200002 37986.93325553  2902.01190360
0.46300002 38021.99396062  2646.33090508
0.46400002 38053.13492316  2919.62691536
0.46500002 38081.82976690  2928.11202956
0.46600002 38106.21540952  4270.94482552
0.46700002 38127.21302530  2944.18352936
0.46800002 38145.49348939  3220.24271300
0.46900002 38159.71989942  3228.31245650
0.47000002 38169.96726170  3775.39164080
0.47100002 38177.43857733  2702.96277939
0.47200002 38181.19414642  3250.74702370
0.47300002 38182.36069649  2986.24257161
0.47400002 38178.50056073  2992.24012327
0.47500002 38172.45174506  3815.71845729
0.47600002 38163.36276296  3276.70648214
0.47700002 38149.53513922  3555.91833887
