# SAXS profile: number of points = 501, q_min = 0, q_max = 0.5, delta_q = 0.001
#    q    intensity    error
0.00000000 1682732.95097188 302.89193117
0.00100000 1682663.35868192 555.27892155
0.00200000 1682454.52501459 832.81501625
0.00300000 1682106.62068800 1110.19040920
0.00400000 1681619.51952807 1261.21468757
0.00500000 1680993.69089674 1966.76269620
0.00600000 1680228.84596106 1764.24036009
0.00700000 1679325.63892788 2015.19085047
0.00800000 1678283.54650272 2718.81946012
0.00900000 1677103.91809147 2515.65598468
0.01000000 1675785.92015953 3318.05626519
0.01100000 1674330.83839418 3917.93433243
0.01200000 1672738.04051660 4240.39111862
0.01300000 1671009.02787555 3860.03102464
0.01400000 1669142.99013236 4882.24346257
0.01500000 1667141.76098867 4401.25444499
0.01600000 1665004.14074125 4670.33682356
0.01700000 1662732.31825151 4938.31520673
0.01800000 1660325.84174562 6624.70040666
0.01900000 1657785.40784951 5968.02773755
0.02000000 1655111.74653713 5213.60223743
0.02100000 1652306.45141938 7088.39499797
0.02200000 1649367.68806140 6259.35066057
0.02300000 1646298.47653805 8890.01217796
0.02400000 1643098.57175291 8626.26789504
0.02500000 1639769.42268662 7674.12124866
0.02600000 1636311.18905699 9277.88486631
0.02700000 1632724.97398361 8914.67876625
0.02800000 1629010.53127901 8503.43536324
0.02900000 1625170.59721304 8775.92162789
0.03000000 1621205.45432926 9046.32685097
0.03100000 1617115.26748350 7762.15364108
0.03200000 1612901.11436366 13572.56350250
0.03300000 1608565.91849170 11485.16118750
0.03400000 1604107.57444554 11790.19121618
0.03500000 1599529.50280793 8637.45971402
0.03600000 1594831.40490567 10621.57764753
0.03700000 1590015.16268713 10875.70421575
0.03800000 1585082.04833000 11127.27649424
0.03900000 1580033.37363444 9480.20068083
0.04000000 1574868.16388309 11622.52758803
0.04100000 1569590.31801695 9888.41946200
0.04200000 1564200.09248420 14124.72749042
0.04300000 1558697.69933514 13373.62688107
0.04400000 1553086.72091605 13628.33660896
0.04500000 1547366.97876407 12812.19917948
0.04600000 1541538.65560891 11954.63282998
0.04700000 1535605.02858444 12161.99239202
0.04800000 1529566.32200563 12366.54428881
0.04900000 1523425.31236476 11425.69037457
0.05000000 1517181.45240133 12767.08251647
0.05100000 1510838.26550686 14141.44682391
0.05200000 1504393.88455613 13155.92513353
0.05300000 1497853.85672117 13345.87848554
0.05400000 1491216.45848436 17223.55089869
0.05500000 1484485.75876428 12469.68095532
0.05600000 1477660.03036905 21477.78954366
0.05700000 1470744.70737713 19193.21932718
0.05800000 1463738.08273718 16840.30742821
0.05900000 1456642.27823044 18353.69356293
0.06000000 1449460.11658141 13262.56068633
0.06100000 1442193.23660118 14753.63749989
0.06200000 1434842.05160652 17627.03542794
0.06300000 1427409.65487906 16443.75999304
0.06400000 1419894.33368477 20765.95560130
0.06500000 1412302.05803089 15379.97013140
0.06600000 1404631.10962678 23998.12363081
0.06700000 1396884.36129703 17097.86538244
0.06800000 1389064.80739679 17252.18571543
0.06900000 1381173.17987169 27554.40622851
0.07000000 1373208.99694542 16087.14415255
0.07100000 1365177.27161384 17692.69826880
0.07200000 1357076.80583805 16345.99089208
0.07300000 1348912.44602600 19464.80750819
0.07400000 1340683.61395408 19607.49877297
0.07500000 1332392.76402457 16708.20604402
0.07600000 1324039.72907306 21409.72342281
0.07700000 1315630.45673178 23089.31559827
0.07800000 1307163.00797314 17038.87060799
0.07900000 1298639.21047297 24933.87401057
0.08000000 1290063.53537540 20376.55449714
0.08100000 1281435.83793882 22066.32616462
0.08200000 1272756.98258494 19014.99021210
0.08300000 1264030.46743740 20704.82002834
0.08400000 1255256.36757303 20805.87526912
0.08500000 1246439.28195855 17686.97424131
0.08600000 1237577.82817209 22610.54798230
0.08700000 1228676.10005260 19462.23033873
0.08800000 1219732.43036830 19540.11445218
0.08900000 1210753.00569281 17979.68297904
0.09000000 1201736.60305307 21324.81702292
0.09100000 1192685.78758516 23042.69049872
0.09200000 1183601.86446285 18162.37146357
0.09300000 1174488.15747676 26496.45407780
0.09400000 1165342.74637061 23248.58888272
0.09500000 1156170.53258090 18313.74209688
0.09600000 1146972.08447865 20026.13353638
0.09700000 1137750.69368413 18397.42958179
0.09800000 1128507.17406207 20109.99878731
0.09900000 1119243.05938543 26861.83468836
0.10000000 1109958.70760893 21860.63777440
0.10100000 1100656.46148957 20208.05358337
0.10200000 1091338.76536553 21919.54013338
0.10300000 1082006.38557684 20255.16049082
0.10400000 1072662.42069965 18583.87731290
0.10500000 1063309.31491388 25359.92835386
0.10600001 1053943.44676318 28756.84829805
0.10700001 1044572.34253090 25383.10911797
0.10800001 1035193.48203210 20310.49707332
0.10900001 1025811.21328419 22003.65156056
0.11000001 1016425.60061500 20308.18445618
0.11100001 1007038.57469187 18610.07373634
0.11200001 997652.93629218 18601.23987286
0.11300001 988267.07762156 23659.11495215
0.11400001 978886.00919245 23640.09823508
0.11500001 969509.66360549 23617.25651752
0.11600001 960139.23401809 18535.48878558
0.11700001 950777.88751788 16828.76940162
0.11800001 941423.38830052 16804.40827262
0.11900001 932080.64639961 23488.43339561
0.12000001 922749.34162199 20097.48160722
0.12100001 913433.19023291 18387.41098558
0.12200001 904130.64565051 20017.45343775
0.12300001 894844.96451008 16644.11712407
0.12400001 885576.32062595 21585.92383233
0.12500001 876326.81844129 18218.83541387
0.12600001 867098.93124320 19821.88250230
0.12700001 857892.40460992 23060.14892266
0.12800001 848707.70209355 19706.99377139
0.12900001 839548.03518604 31105.25616970
0.13000001 830413.83732106 16317.63267249
0.13100001 821305.30134529 16261.84573318
0.13200001 812226.07845303 25926.25764639
0.13300001 803176.67128056 25830.16296609
0.13400001 794156.20006710 19297.99657145
0.13500001 785168.20132801 25627.89129966
0.13600001 776211.97312696 23926.73519980
0.13700001 767290.41613208 20647.78607172
0.13800001 758402.20722625 18975.22411959
0.13900001 749552.53132799 22036.84546026
0.14000001 740738.42661859 18799.94215420
0.14100001 731962.91272331 20268.05400921
0.14200001 723225.60012728 17064.50883986
0.14300001 714530.89947057 16977.25497220
0.14400001 705873.12155714 16888.01522986
0.14500001 697261.58067508 22905.04400566
0.14600001 688690.62947685 16704.19200597
0.14700001 680166.23043883 18119.62923371
0.14800001 671684.68219434 22518.23003295
0.14900001 663248.28326740 17907.70449312
0.15000001 654859.51676857 20765.59625651
0.15100001 646517.90585631 19162.79163378
0.15200001 638225.73693808 16112.00948928
0.15300001 629982.44017551 24739.41159312
0.15400001 621786.94869500 20239.16613513
0.15500001 613644.13413709 15795.20075811
0.15600001 605550.56464608 21391.07470567
0.15700001 597512.80087372 21241.58107360
0.15800001 589522.99674881 15466.13654969
0.15900001 581589.89108190 15353.97384928
0.16000001 573708.13052362 20782.57800921
0.16100001 565884.56718274 15126.09519481
0.16200001 558113.73655918 24562.58670547
0.16300001 550400.25582794 14893.83162581
0.16400001 542742.64360066 13432.88106328
0.16500001 535142.37598458 15990.05494933
0.16600001 527599.09833298 18502.90125212
0.16700001 520113.71850033 14417.55295755
0.16800001 512685.69565810 12996.58299858
0.16900001 505318.95583696 14174.19738050
0.17000001 498010.46778595 14051.36601208
0.17100001 490761.96367489 24057.15259535
0.17200001 483573.87082859 15058.49104871
0.17300001 476446.13388929 12435.24468176
0.17400001 469380.43853818 17249.73193091
0.17500001 462375.35199726 17089.39381691
0.17600001 455430.16016027 13300.83845567
0.17700001 448549.34337298 19162.02885393
0.17800001 441729.83732442 14232.53603083
0.17900001 434972.69726273 14093.11605698
0.18000001 428279.09725363 13953.33364761
0.18100001 421649.38234070 14964.33728613
0.18200001 415080.10122579 19369.71383869
0.18300001 408576.89080988 12404.39499096
0.18400001 402135.77157871 15622.97546387
0.18500001 395759.43272797 13250.02643369
0.18600001 389446.57371936 13108.77229070
0.18700001 383197.52979382 11886.78793579
0.18800001 377011.97893607 21376.58021564
0.18900001 370893.07440487 10570.45311997
0.19000001 364834.02104428 15678.74279518
0.19100001 358844.54500574 11368.19572293
0.19200001 352915.91341368 13281.99102892
0.19300001 347054.08936172 16158.83916423
0.19400001 341255.41485729 10979.89349188
0.19500001 335521.87817944 14796.51552692
0.19600001 329851.67972937 13645.96463526
0.19700001 324246.82462402 10593.14426107
0.19800001 318706.13708870 14270.06796253
0.19900001 313230.53876462 11276.29992844
0.20000001 307817.24871455 12992.96668230
0.20100001 302469.96443567 10997.80842666
0.20200001 297185.30602370 13573.93949418
0.20300001 291965.65137775 10720.97922531
0.20400001 286809.61558756 12347.15453464
0.20500001 281716.45515729 10446.04665098
0.20600001 276687.51156247 9450.26240411
0.20700001 271721.47444759 8477.71040350
0.20800001 266818.51216607 8364.76075181
0.20900001 261980.57127500 11553.34373937
0.21000001 257203.14231874 8140.47983921
0.21100001 252488.34613457 8832.04276531
0.21200001 247835.96346079 8710.19534760
0.21300001 243245.41815399 9369.81395025
0.21400001 238717.66358093 12317.83202312
0.21500001 234252.03218561 9107.71944197
0.21600001 229846.02894812 8229.63745557
0.21700001 225501.97423636 9586.08937801
0.21800001 221218.58367642 9447.14006257
0.21900001 216994.49312002 7876.90047269
0.22000001 212830.36539707 8466.39233581
0.22100001 208728.40085661 9730.91850805
0.22200001 204684.72392237 12324.06781010
0.22300001 200700.06316595 6743.52244125
0.22400001 196772.49857403 7969.28656909
0.22500001 192906.57131310 7193.48638443
0.22600001 189096.77919432 6438.74563604
0.22700001 185345.78441652 7606.59135216
0.22800001 181651.47469504 8735.61983119
0.22900001 178013.64553190 7369.76527354
0.23000001 174432.73440995 6044.09453314
0.23100001 170909.43518420 7731.94321340
0.23200001 167439.99718620 6437.23099626
0.23300001 164027.15274564 6333.08866703
0.23400001 160669.34299735 6229.95406937
0.23500001 157364.63318791 7241.92076182
0.23600001 154115.17451760 6026.67418455
0.23700001 150919.17834274 6465.37790600
0.23800001 147776.31660961 5297.78120103
0.23900001 144686.61452291 5729.59020611
0.24000001 141649.04907434 7168.85871274
0.24100001 138664.52820076 6040.22713413
0.24200001 135730.85773971 5442.12899850
0.24300001 132848.27130056 5834.69635152
0.24400001 130015.79626704 6211.50496048
0.24500001 127233.88770968 5164.42374644
0.24600001 124501.75003308 5074.06906263
0.24700001 121819.53729092 6797.53050240
0.24800001 119185.03043830 4896.71720720
0.24900001 116598.66036714 6995.91995299
0.25000001 114060.84579890 5582.70836174
0.25100001 111569.69045402 5060.80139842
0.25200001 109126.44694964 4555.48374343
0.25300001 106729.66186481 4473.04034038
0.25400001 104378.00721940 5988.68844755
0.25500001 102071.90998138 5879.34229309
0.25600001 99811.19521453  5771.58263635
0.25700001 97594.85856560  5665.38180778
0.25800001 95422.15453717  4448.58105500
0.25900001 93293.36911198  5457.66235128
0.26000001 91208.09690069  4642.03631140
0.26100001 89163.28752092  3854.52910191
0.26200001 87162.96950047  3782.43724045
0.26300001 85202.97071678  3711.44158004
0.26400001 83283.76919905  4634.74197523
0.26500001 81406.08834716  4222.53400237
0.26600001 79567.60895955  3186.68288962
0.26700001 77769.75102837  4689.51620892
0.26800001 76010.85305622  4600.55709893
0.26900001 74290.03540441  4513.11986439
0.27000001 72607.89412467  2951.51103584
0.27100001 70963.40261854  3184.83766024
0.27200001 69356.41645306  3408.17446579
0.27300001 67785.61964157  3064.58800902
0.27400001 66250.01870073  3006.09474081
0.27500001 64752.41190830  2680.74997987
0.27600001 63288.05138519  2892.58052545
0.27700001 61860.14172434  3869.35204798
0.27800001 60465.54869298  2783.53166582
0.27900001 59105.38039307  2978.91131280
0.28000001 57778.20279042  2678.88649917
0.28100001 56483.82434615  2628.19247122
0.28200001 55222.37114727  2578.60874277
0.28300001 53992.89869669  2760.11711201
0.28400001 52795.01937012  2256.98718490
0.28500001 51628.39986615  3543.77353454
0.28600001 50491.71588207  2173.66847161
0.28700001 49385.65218398  2346.80630286
0.28800001 48308.63851156  2931.85141004
0.28900001 47262.41324186  3083.87261000
0.29000001 46243.49749574  2220.38163736
0.29100001 45254.34865986  2180.35462164
0.29200001 44292.35967842  1946.64930001
0.29300001 43357.87738125  2103.29073133
0.29400001 42450.28344771  2817.63769722
0.29500001 41570.44488143  2030.30062412
0.29600001 40715.66366820  2539.43606320
0.29700001 39886.50745997  2674.39045179
0.29800001 39083.36414743  2454.04455099
0.29900001 38304.93941980  2413.21129769
0.30000001 37550.85869581  2034.50562045
0.30100001 36821.83753819  1834.83225139
0.30200001 36115.25570538  2133.86998437
0.30300001 35432.46842004  1615.72063644
0.30400001 34773.37479007  2386.32295794
0.30500001 34135.33887504  1880.17455425
0.30600001 33519.83469996  2161.02384542
0.30700001 32926.37621537  1673.31851849
0.30800001 32354.10587045  1499.61287809
0.30900001 31802.55291452  1774.58253665
0.31000001 31272.35196285  1750.62634576
0.31100001 30760.77870697  2015.44631630
0.31200001 30270.02976427  1847.53135414
0.31300001 29798.04895074  1964.88344084
0.31400001 29346.58389091  1802.61400085
0.31500001 28912.69509453  1370.46181237
0.31600002 28497.32882474  1761.56246471
0.31700002 28099.40988799  2546.64963873
0.31800002 27719.43451405  1856.92500602
0.31900002 27357.03097128  2101.02007808
0.32000002 27011.20381633  1820.82533547
0.32100002 26682.24896925  1288.75268624
0.32200002 26369.67300306  1660.89393274
0.32300002 26072.23198210  1773.95474806
0.32400002 25790.70624537  2011.67518239
0.32500002 25524.01501405  1497.74927195
0.32600002 25272.65776299  1487.54870637
0.32700002 25035.70287202  1601.28363152
0.32800002 24813.68724255  1591.92218043
0.32900002 24604.36041999  1461.49907815
0.33000002 24410.30886083  1211.97189233
0.33100002 24227.15707030  1327.16372716
0.33200002 24059.52453581  1321.95063822
0.33300002 23903.24896806  1796.32924502
0.33400002 23760.17359226  1910.31804728
0.33500002 23628.60898939  1786.32292419
0.33600002 23508.92434799  1188.37618207
0.33700002 23400.09746976  1423.66199748
0.33800002 23303.98709877  1303.50858010
0.33900002 23217.52417856  1776.14068377
0.34000002 23142.48956964  1302.11223730
0.34100002 23077.55585520  1539.04227287
0.34200002 23023.85297765  1776.86593770
0.34300002 22978.58678481  1541.40367453
0.34400002 22943.92435883  1662.28739852
0.34500002 22918.09749652  1427.33917968
0.34600002 22902.66247357  1788.12545731
0.34700002 22893.96548093  1673.09107659
0.34800002 22895.51574638  1318.43833670
0.34900002 22904.97348325  1563.26451427
0.35000002 22922.70738397  1810.32090139
0.35100002 22948.38051164  1332.84200324
0.35200002 22980.90127188  1825.25816997
0.35300002 23021.41707906  1589.16849624
0.35400002 23069.48193052  1596.98496228
0.35500002 23124.16666015  1481.79666977
0.35600002 23185.21471212  1489.88196797
0.35700002 23252.94531505  1373.55154482
0.35800002 23327.66254410  2009.91150000
0.35900002 23407.93902881  1769.64027440
0.36000002 23494.87872865  1781.14684078
0.36100002 23586.52529890  1536.89806127
0.36200002 23684.98589191  1418.61229719
0.36300002 23786.80186001  1688.38727600
0.36400002 23894.67414041  1439.05681827
0.36500002 24006.89103037  1581.57405600
0.36600002 24124.55815262  1460.86268813
0.36700002 24246.15437882  1472.22656362
0.36800002 24373.56413799  2158.52294231
0.36900002 24503.93981529  1631.96246900
0.37000002 24637.57484709  1645.29732623
0.37100002 24775.43487157  1520.71626445
0.37200002 24917.39247208  1672.95380982
0.37300002 25062.08351774  1546.58124714
0.37400002 25211.22282634  1843.57075651
0.37500002 25362.17399726  1716.51201745
0.37600002 25517.21707528  1442.99869396
0.37700002 25673.81044850  1746.84614567
0.37800002 25833.95722172  1762.39264515
0.37900002 25996.44484253  2667.23536720
0.38000002 26161.22829400  1794.13712140
0.38100002 26327.71715383  1961.15174369
0.38200002 26496.51727974  1978.89248678
0.38300002 26667.02953426  2611.23565570
0.38400002 26839.86922682  2015.00327766
0.38500002 27013.19376737  1564.06399323
0.38600002 27189.25600098  1736.17002419
0.38700002 27365.48945226  1592.67156157
0.38800002 27542.90623331  1607.12865485
0.38900002 27721.57044625  1946.05433752
0.39000002 27901.87278916  1800.08940827
0.39100002 28082.05319162  1651.22480590
0.39200002 28263.57101007  2665.82014397
0.39300002 28445.10084064  2185.43720113
0.39400002 28627.99423848  1865.82961289
0.39500002 28810.25939010  2053.59538662
0.39600002 28992.86460174  2762.44027013
0.39700002 29175.23394451  1915.93770391
0.39800002 29358.68619417  2635.67617796
0.39900002 29540.94042419  2481.43911320
0.40000002 29723.09088538  1787.84400146
0.40100002 29904.83328755  1803.26153268
0.40200002 30087.16736187  2364.40015916
0.40300002 30267.91331103  2201.08276027
0.40400002 30448.16841887  3144.53474245
0.40500002 30627.74444594  2424.79864267
0.40600002 30806.79955157  1880.75520173
0.40700002 30984.68064368  2085.88879976
0.40800002 31161.91554229  2676.49705274
0.40900002 31337.28227448  3276.31301703
0.41000002 31512.39529429  2331.28711433
0.41100002 31685.87908292  2741.46238815
0.41200002 31857.44835949  2170.92592132
0.41300002 32028.16963985  2784.52920043
0.41400002 32197.16025612  2204.70065300
0.41500002 32365.16381795  2423.50358152
0.41600002 32530.35402172  2238.25111452
0.41700002 32694.64128136  2049.95410548
0.41800002 32858.03325202  2684.66573407
0.41900002 33017.59798845  3120.16315776
0.42000002 33176.07610096  2933.09702707
0.42100002 33333.11266952  2320.98474516
0.42200002 33488.03759726  2974.74252072
0.42300002 33640.33632361  2567.43058988
0.42400002 33790.45488611  3015.79824149
0.42500002 33938.92459269  2602.43686109
0.42600002 34083.79061104  2401.37358129
0.42700002 34227.64127302  2417.15614124
0.42800002 34368.65564215  2211.62309537
0.42900002 34507.71432400  2670.89721524
0.43000002 34644.39014955  2911.68790810
0.43100002 34777.18655775  2253.56179573
0.43200002 34908.36858564  2947.48824120
0.43300002 35036.58945841  2737.05849819
0.43400002 35162.53891526  2982.66250483
0.43500002 35285.32615021  2538.42648354
0.43600002 35406.44370492  3249.24949278
0.43700002 35523.83257976  3734.26545775
0.43800002 35637.68159777  3285.43802219
0.43900002 35749.89503415  2595.44250248
0.44000002 35858.50249097  2846.44806263
0.44100002 35964.82865986  3099.80872909
0.44200002 36067.97756782  3115.73238985
0.44300002 36168.46698369  2890.58401832
0.44400002 36265.37998533  2904.85707449
0.44500002 36358.53722653  2918.86350687
0.44600002 36449.53655878  2688.33569630
0.44700002 36537.67010377  3191.93101154
0.44800002 36621.61978614  3699.69931423
0.44900002 36703.93001282  2725.26693261
0.45000002 36782.72187841  3732.52687950
0.45100002 36857.18269864  2498.91710540
0.45200002 36929.42648749  2509.35464875
0.45300002 36997.85352915  2771.50933922
0.45400002 37063.80311295  2529.60468234
0.45500002 37126.32972938  3301.27339600
0.45600002 37185.37503219  3058.86909512
0.45700002 37241.24853146  3326.01606398
0.45800002 37293.23474942  3081.16720103
0.45900002 37342.30023909  2834.28072248
0.46000002 37388.79585624  3102.52242719
0.46100002 37430.81308894  4150.32875200
0.46200002 37470.41596266  3383.01666553
0.46300002 37506.29363761  4437.74487353
0.46400002 37538.46857480  3141.96996863
0.46500002 37568.30896787  3676.43488984
0.46600002 37593.94423847  4213.52946995
0.46700002 37616.32417022  2904.73269010
0.46800002 37636.07949974  2912.46815013
0.46900002 37651.83455624  3981.68169304
0.47000002 37663.92643154  4257.53044561
0.47100002 37673.24840130  3467.44594720
0.47200002 37678.96674492  3207.98738071
0.47300002 37682.12771247  2947.11934808
0.47400002 37680.53688418  4027.10757037
0.47500002 37676.76587810  2690.12121120
0.47600002 37670.00717596  2964.81805531
0.47700002 37658.76744987  2970.14712955
