# SAXS profile: number of points = 501, q_min = 0, q_max = 0.5, delta_q = 0.001
#    q    intensity    error
0.00000000 1719190.39626458 257.87855944
0.00100000 1719119.57226832 722.03023750
0.00200000 1718907.04861844 773.50819637
0.00300000 1718552.98143440 1237.35819071
0.00400000 1718057.25260249 1546.25158610
0.00500000 1717420.35086745 1545.67837696
0.00600000 1716641.94893212 1982.72153174
0.00700000 1715722.75824397 2470.64087455
0.00800000 1714662.20155318 2314.79406983
0.00900000 1713461.72776924 2570.19270152
0.01000000 1712120.36751382 3672.49834689
0.01100000 1710639.46794952 3079.15117637
0.01200000 1709018.48981847 3665.84482139
0.01300000 1707258.79905172 4302.29236336
0.01400000 1705359.65292328 3837.05938918
0.01500000 1703322.94804280 5314.36783454
0.01600000 1701147.40055657 5205.51127841
0.01700000 1698835.26304344 5504.22649917
0.01800000 1696385.96708804 5318.17024613
0.01900000 1693800.40997375 5589.54160513
0.02000000 1691079.22790611 6924.96975153
0.02100000 1688224.04323861 5571.13959527
0.02200000 1685233.09109746 6395.45987128
0.02300000 1682109.19030461 7266.71203288
0.02400000 1678852.24166877 7554.83543199
0.02500000 1675463.84630138 9148.03301860
0.02600000 1671943.91900413 8125.64781801
0.02700000 1668293.78067294 9108.88445967
0.02800000 1664513.10667549 7240.63234609
0.02900000 1660604.45574838 8219.99243337
0.03000000 1656568.47500998 10013.95689173
0.03100000 1652405.11112672 11897.31734755
0.03200000 1648115.66198977 8158.17290260
0.03300000 1643702.74330053 10059.46125275
0.03400000 1639164.51296519 12908.42113520
0.03500000 1634504.32791740 10591.58853400
0.03600000 1629721.92710246 9949.45282476
0.03700000 1624819.22659885 10187.61702193
0.03800000 1619797.23736790 11370.97713257
0.03900000 1614657.80090186 12594.33143028
0.04000000 1609399.58400917 10887.58869034
0.04100000 1604026.58146515 11115.90472496
0.04200000 1598539.07813977 12372.69303881
0.04300000 1592937.30140584 14718.74134820
0.04400000 1587224.87657020 10713.76841442
0.04500000 1581401.56893954 20732.17553212
0.04600000 1575467.70242090 13328.45738208
0.04700000 1569426.46540596 11299.87107646
0.04800000 1563278.14129568 12639.10436045
0.04900000 1557025.53482964 19852.07649314
0.05000000 1550668.26749331 13048.87407859
0.05100000 1544209.39911542 14453.80064904
0.05200000 1537647.67572300 17114.01942833
0.05300000 1530988.00729819 14881.20412467
0.05400000 1524229.46702112 12574.89368934
0.05500000 1517375.51040407 19118.93232298
0.05600000 1510424.76567812 16788.37205393
0.05700000 1503382.63834609 15695.31547697
0.05800000 1496247.35140812 14565.96864608
0.05900000 1489020.93042009 20101.78349954
0.06000000 1481706.58880580 14913.37751307
0.06100000 1474305.75686889 13711.04417962
0.06200000 1466818.91856092 19406.01519967
0.06300000 1459249.06599625 19612.30836397
0.06400000 1451594.56246905 14153.04764596
0.06500000 1443861.47419266 15723.65218948
0.06600000 1436048.13156687 15875.51283726
0.06700000 1428157.35132555 16023.92623178
0.06800000 1420192.33561415 19108.68877015
0.06900000 1412153.49115393 14827.61235133
0.07000000 1404040.58871943 14953.03297009
0.07100000 1395858.58007112 21105.38271920
0.07200000 1387606.24210403 18233.14687541
0.07300000 1379288.89749553 18372.12897548
0.07400000 1370905.22293218 15422.68448076
0.07500000 1362458.36665725 18638.43132950
0.07600000 1353947.95291482 17201.90954822
0.07700000 1345379.88927479 15740.94544258
0.07800000 1336752.05145823 15840.51255264
0.07900000 1328066.72517114 17530.48159450
0.08000000 1319328.36541135 28853.71270510
0.08100000 1310536.75468331 17731.56312280
0.08200000 1301692.43608742 24309.10738464
0.08300000 1292799.55247970 17918.20263831
0.08400000 1283857.81015837 18006.10663265
0.08500000 1274871.75680752 16445.84643487
0.08600000 1265840.32945724 16519.21707502
0.08700000 1256767.24041869 21566.12685828
0.08800000 1247651.58324362 18321.76436039
0.08900000 1238498.86180448 21735.65604559
0.09000000 1229308.05177569 20136.06683399
0.09100000 1220082.04241869 20204.55957169
0.09200000 1210821.97679810 21958.25758098
0.09300000 1201531.09533750 25412.38386057
0.09400000 1192207.67395344 20386.75218273
0.09500000 1182856.31491623 23846.38442956
0.09600000 1173477.97366338 18781.51585136
0.09700000 1164075.88420096 20534.29956268
0.09800000 1154650.99862777 25719.85220372
0.09900000 1145204.43642773 20613.68082501
0.10000000 1135736.98623466 22368.34099581
0.10100000 1126250.71777167 18954.80047158
0.10200000 1116748.67932336 22429.89827923
0.10300000 1107231.29269284 20727.37077424
0.10400000 1097701.60593121 22475.44143880
0.10500000 1088162.07184536 17301.77775638
0.10600001 1078609.27443671 17311.67966929
0.10700001 1069050.18938605 19050.47527133
0.10800001 1059483.35352221 25983.83046798
0.10900001 1049912.49179958 19055.91262304
0.11000001 1040337.90338809 19053.78959741
0.11100001 1030761.59340375 22511.83425965
0.11200001 1021185.54037455 17309.09572421
0.11300001 1011609.32945052 20758.22441764
0.11400001 1002037.45734139 22470.69103890
0.11500001 992470.20413376 18995.88060160
0.11600001 982908.49999531 18975.04948597
0.11700001 973355.34895098 18951.22953658
0.11800001 963808.86280191 24085.58461581
0.11900001 954274.09445346 20612.32141107
0.12000001 944750.23089219 18861.93924825
0.12100001 935241.98438262 17114.92912045
0.12200001 925746.49060580 18788.02591197
0.12300001 916267.95570421 25563.87716857
0.12400001 906806.29224483 23803.66629300
0.12500001 897363.71400561 25440.26249082
0.12600001 887942.86747911 16915.31242258
0.12700001 878543.21640271 16868.03054986
0.12800001 869165.19682051 20182.01682134
0.12900001 859812.63677736 25149.52081109
0.13000001 850485.49472581 18383.24483499
0.13100001 841183.86853775 18320.98552036
0.13200001 831912.05663807 18256.31094353
0.13300001 822669.76070320 21496.36186058
0.13400001 813456.84633988 26356.00306398
0.13500001 804276.46946138 18047.96482564
0.13600001 795128.09032675 19607.85963198
0.13700001 786014.62605061 17897.55387910
0.13800001 776934.86342035 21058.82046605
0.13900001 767893.57781326 25801.22543126
0.14000001 758888.30487122 19260.58608597
0.14100001 749922.33866854 15973.34656699
0.14200001 740994.51868351 22252.06644559
0.14300001 732110.00382652 20557.64987710
0.14400001 723262.52298789 20450.24880212
0.14500001 714461.63983036 17211.38171541
0.14600001 705702.21317690 21785.02834847
0.14700001 696989.31885911 20115.11269123
0.14800001 688319.98269514 24614.32374245
0.14900001 679696.39611059 15293.16963403
0.15000001 671121.02530573 21281.24871656
0.15100001 662592.93684240 19639.25557469
0.15200001 654115.32569714 19515.53166305
0.15300001 645686.96738124 17898.44358042
0.15400001 637307.01417204 19262.60541237
0.15500001 628980.26284126 17661.76661409
0.15600001 620704.19985337 17541.10151571
0.15700001 612483.61246605 20322.20722077
0.15800001 604311.94841208 17295.40877987
0.15900001 596197.84523569 18601.37364935
0.16000001 588135.99496476 14203.48494884
0.16100001 580132.98095987 15506.95531305
0.16200001 572183.45872473 15388.87484885
0.16300001 564292.02232230 22210.53504712
0.16400001 556457.27213518 24790.17264396
0.16500001 548680.79967945 24591.87460265
0.16600001 540961.99356989 17616.42815233
0.16700001 533302.27186389 13439.21788550
0.16800001 525700.25049480 19989.75296891
0.16900001 518161.09231006 18498.35186893
0.17000001 510680.61727610 15718.75014199
0.17100001 503261.31814771 15580.97114561
0.17200001 495903.15347510 16729.29367249
0.17300001 488606.65380058 14027.89769307
0.17400001 481372.97835801 13899.64540651
0.17500001 474200.77699119 15022.68132457
0.17600001 467089.79530097 14881.48158113
0.17700001 460043.91402919 13511.49039319
0.17800001 453060.69881266 14597.61640522
0.17900001 446140.69590918 21682.43884533
0.18000001 439285.20230176 13119.25318643
0.18100001 432494.86203641 11807.11029132
0.18200001 425766.04325690 14024.73412738
0.18300001 419104.47796923 17350.92620757
0.18400001 412505.88124788 13736.44649447
0.18500001 405973.54074790 13591.99478635
0.18600001 399505.62767410 12326.74672424
0.18700001 393102.65941072 11085.49551911
0.18800001 386764.28717179 10964.76805936
0.18900001 380493.76813690 13012.88748511
0.19000001 374284.60136201 15012.55606996
0.19100001 368145.77545675 10602.59883413
0.19200001 362069.75788120 16771.07197751
0.19300001 356061.07049583 13469.79093334
0.19400001 350117.01759022 11265.01557328
0.19500001 344239.07624601 10120.62931988
0.19600001 338426.13523557 11000.54204568
0.19700001 332679.35216678 10868.63494891
0.19800001 326998.34614951 9760.90109385
0.19900001 321383.73706277 11569.81508105
0.20000001 315832.35657466 10474.58060084
0.20100001 310348.63740417 11284.27698934
0.20200001 304928.81920286 12070.60787864
0.20300001 299575.13538074 11000.39949111
0.20400001 294286.64805251 11764.10931194
0.20500001 289062.33283606 9825.22915751
0.20600001 283903.06654404 14104.30501259
0.20700001 278808.51284701 10438.59121441
0.20800001 273778.00062262 12016.11701533
0.20900001 268814.18844082 11854.70627063
0.21000001 263912.15842930 10023.38425097
0.21100001 259074.29709359 9062.41934075
0.21200001 254299.96527286 10562.34955694
0.21300001 249588.78079865 10415.34031512
0.21400001 244942.02539181 11059.13296928
0.21500001 240358.52387780 9345.13985018
0.21600001 235835.85543126 12282.33193155
0.21700001 231376.76830426 9079.22481752
0.21800001 226979.48278381 8201.90399818
0.21900001 222643.10742527 11755.55662788
0.22000001 218368.00556882 11582.23956301
0.22100001 214156.70691079 8557.70241279
0.22200001 210004.67845677 8429.58819184
0.22300001 205913.35626154 8302.42691705
0.22400001 201880.19532253 9538.83968005
0.22500001 197909.98820310 10734.63826775
0.22600001 193997.78161746 7926.74973173
0.22700001 190145.39702776 6502.97288587
0.22800001 186351.13776065 8961.62663871
0.22900001 182614.59526499 8820.28536842
0.23000001 178936.59965130 8060.19951247
0.23100001 175317.58199275 7931.36778445
0.23200001 171753.66391724 7203.34900536
0.23300001 168247.83268807 8267.69888931
0.23400001 164798.26603027 7551.88089801
0.23500001 161403.24516344 6856.41017882
0.23600001 158064.74833870 6181.12227613
0.23700001 154781.17356162 7183.39460475
0.23800001 151552.18525916 6519.77531823
0.23900001 148377.61710386 7478.23225575
0.24000001 145256.54191847 7351.43393422
0.24100001 142189.67671397 5677.63405975
0.24200001 139175.27672054 8116.70252228
0.24300001 136213.21863432 5483.94444162
0.24400001 133302.53902046 5878.64224888
0.24500001 130443.79941683 5776.05171141
0.24600001 127635.92346456 5674.69342568
0.24700001 124879.70841122 5110.07790992
0.24800001 122172.37462074 5019.45224875
0.24900001 119514.60693227 7170.87675517
0.25000001 116906.40506535 6162.13690251
0.25100001 114346.36187728 9941.27317192
0.25200001 111835.40166019 5092.98443255
0.25300001 109372.09934737 7084.03120988
0.25400001 106955.40779166 4500.14899574
0.25500001 104585.39655860 5622.51118500
0.25600001 102262.26253978 3942.21040742
0.25700001 99984.55240357  4643.28283331
0.25800001 97751.77039945  4177.42210567
0.25900001 95564.19718841  4099.70425336
0.26000001 93421.19272362  4023.18385500
0.26100001 91319.96251351  4306.64963591
0.26200001 89264.63147149  4225.78785381
0.26300001 87250.75150897  4146.15590789
0.26400001 85278.65962039  4067.79225637
0.26500001 83349.35214736  5321.02289287
0.26600001 81460.66242635  3588.74965301
0.26700001 79613.40255096  3520.50482739
0.26800001 77806.56391171  4395.29300336
0.26900001 76038.93984281  4619.36581405
0.27000001 74310.92621160  3020.73929345
0.27100001 72621.81762417  3259.26732921
0.27200001 70971.44032168  3196.90868058
0.27300001 69358.24158459  3135.68625043
0.27400001 67781.33435267  3075.57819180
0.27500001 66243.59824916  2742.48509730
0.27600001 64740.23115194  3227.94807800
0.27700001 63274.07738598  3693.94081262
0.27800001 61842.74563514  3623.36663825
0.27900001 60446.40822609  3046.49911878
0.28000001 59084.52609975  2988.49547157
0.28100001 57756.30522196  3420.32855713
0.28200001 56462.04779396  3355.53965921
0.28300001 55200.74185239  3762.48274274
0.28400001 53971.98019153  2999.49294111
0.28500001 52775.72578222  2943.30236619
0.28600001 51609.99421038  2666.17242710
0.28700001 50476.06117907  3488.90551384
0.28800001 49372.06693083  2568.33504331
0.28900001 48300.16809594  2311.16315279
0.29000001 47256.06853141  2062.72748903
0.29100001 46242.62370587  2835.59781987
0.29200001 45257.58837232  2386.88532374
0.29300001 44300.77222941  1953.66414780
0.29400001 43371.68822524  1919.19729481
0.29500001 42471.14552265  2262.86274056
0.29600001 41596.71272764  2038.44700371
0.29700001 40748.70538016  2732.20082508
0.29800001 39927.42678070  2327.96872865
0.29900001 39131.83023279  1937.02568822
0.30000001 38361.30770089  2598.01968703
0.30100001 37616.74838341  1874.44266068
0.30200001 36895.43672533  2179.96698212
0.30300001 36198.43727751  1815.71369980
0.30400001 35526.00576941  2763.03522952
0.30500001 34875.38753128  1600.78036347
0.30600001 34248.07089224  2207.97323495
0.30700001 33643.63705650  1709.76971616
0.30800001 33060.84017941  1532.37001486
0.30900001 32499.71989834  1964.60816087
0.31000001 31960.52632359  1789.15034830
0.31100001 31440.56354078  1618.56028771
0.31200001 30941.98104075  2179.08911797
0.31300001 30463.21885891  1721.78121143
0.31400001 30005.39661650  2126.63258588
0.31500001 29565.54552431  2102.11038631
0.31600002 29145.11241121  1385.85016077
0.31700002 28742.69502493  1508.12927936
0.31800002 28358.74980980  1628.35949118
0.31900002 27992.89480944  1478.02491592
0.32000002 27644.37481844  1730.39972369
0.32100002 27313.18864960  1319.22707424
0.32200002 26998.72354504  1831.32350477
0.32300002 26700.04180069  1686.90872084
0.32400002 26417.81018156  1416.65513807
0.32500002 26150.95231218  1406.65979148
0.32600002 25899.82488534  2032.61835325
0.32700002 25663.62869525  1388.91565076
0.32800002 25442.87981384  1381.16679610
0.32900002 25235.24562127  1998.63154785
0.33000002 25043.31215228  1492.08060869
0.33100002 24862.66492479  1485.79292626
0.33200002 24698.03535053  1233.66692418
0.33300002 24544.99237891  1721.58584698
0.33400002 24405.63875664  1471.66008672
0.33500002 24278.29469773  1468.35133285
0.33600002 24162.99838709  1343.58358894
0.33700002 24059.11894171  1829.69608217
0.33800002 23968.07938878  1584.40996303
0.33900002 23887.31827220  1583.72927645
0.34000002 23817.96674145  1705.60467913
0.34100002 23759.31296294  1584.50865654
0.34200002 23712.14175140  1585.98667615
0.34300002 23673.52787654  1343.70950591
0.34400002 23646.02690146  1346.05014511
0.34500002 23627.31998374  1348.88376176
0.34600002 23619.48134943  1475.27287495
0.34700002 23618.54848662  1479.46594727
0.34800002 23628.24636249  1484.32650679
0.34900002 23645.89271286  1737.97319671
0.35000002 23672.14865662  1744.87416012
0.35100002 23706.58362209  1877.56151180
0.35200002 23747.81309411  1634.68079176
0.35300002 23797.38220417  1769.09747685
0.35400002 23854.71463752  1905.39542192
0.35500002 23918.60748766  1277.25370034
0.35600002 23989.32642312  1926.94273621
0.35700002 24066.71277203  1421.62079078
0.35800002 24151.26209324  2080.87284051
0.35900002 24241.37807225  1570.84137349
0.36000002 24338.25491178  1581.49987908
0.36100002 24440.19947371  1990.65434142
0.36200002 24548.76820213  1604.01659030
0.36300002 24661.04452441  1885.09033274
0.36400002 24779.22124299  1492.32867005
0.36500002 24902.02622869  1640.54556565
0.36600002 25030.12037803  1791.28064970
0.36700002 25162.33399164  1666.75308256
0.36800002 25300.34139586  2100.56094389
0.36900002 25441.36202601  1411.99565933
0.37000002 25585.54427495  1850.98628825
0.37100002 25734.05559339  1866.74848117
0.37200002 25886.71736796  1738.03428642
0.37300002 26042.09283324  1899.24992030
0.37400002 26201.90595777  1768.62873593
0.37500002 26363.44561122  1784.27808349
0.37600002 26529.15431788  1800.26849729
0.37700002 26696.38271899  1816.42196625
0.37800002 26866.99358296  1680.12752330
0.37900002 27039.97230301  1849.53419314
0.38000002 27215.20455950  1866.41881711
0.38100002 27392.05778550  1726.52148401
0.38200002 27571.21308098  1900.75951985
0.38300002 27751.95698633  1918.21535777
0.38400002 27934.86235703  2097.20989081
0.38500002 28118.45875021  1953.67060652
0.38600002 28304.23288049  1643.06079655
0.38700002 28490.40994562  2321.39871235
0.38800002 28677.48761655  2677.33037072
0.38900002 28865.79839428  1857.51421467
0.39000002 29055.60567287  2044.93362414
0.39100002 29245.08316520  1891.57206874
0.39200002 29436.03208311  2082.30500821
0.39300002 29626.54636105  1750.92897289
0.39400002 29818.48851534  1943.42008106
0.39500002 30009.41725431  2673.83920404
0.39600002 30200.71002201  1978.29760372
0.39700002 30391.47361645  2721.55659130
0.39800002 30583.40120481  2196.49997860
0.39900002 30773.90891502  1846.43462238
0.40000002 30963.81180655  2979.95738945
0.40100002 31153.48376481  1878.55516002
0.40200002 31343.43462348  2463.12392659
0.40300002 31531.52071964  2101.89127076
0.40400002 31719.14111245  2312.32549666
0.40500002 31905.72332158  2525.97623505
0.40600002 32091.73566471  2546.96072171
0.40700002 32276.16620839  2172.83161210
0.40800002 32459.70031358  3385.38460461
0.40900002 32641.30518392  2208.18440032
0.41000002 32822.46214070  2225.85537554
0.41100002 33001.76746738  2651.36212396
0.41200002 33178.78911826  2466.51129992
0.41300002 33354.91149348  3521.27817321
0.41400002 33528.86993778  2713.32392828
0.41500002 33701.81747232  2733.89156290
0.41600002 33871.64540845  2330.53867276
0.41700002 34040.42861700  2347.76847296
0.41800002 34207.95545554  2149.97010225
0.41900002 34371.46775603  2381.94282836
0.42000002 34533.64015468  2616.95937493
0.42100002 34694.13642810  2854.98062195
0.42200002 34852.17213110  3317.05563976
0.42300002 35007.37474986  2226.46913959
0.42400002 35160.26876425  2689.76068792
0.42500002 35311.15401712  2707.65941834
0.42600002 35458.12087578  2725.31129965
0.42700002 35603.91192917  2971.50263042
0.42800002 35746.64673360  3220.41555684
0.42900002 35887.07693236  3472.07485774
0.43000002 36024.91482203  2794.81302433
0.43100002 36158.65184647  3983.23727616
0.43200002 36290.32144182  4478.40732975
0.43300002 36418.92816813  2845.04680332
0.43400002 36545.10052104  3099.93829860
0.43500002 36667.58180714  2877.67195659
0.43600002 36788.30257685  3134.91535265
0.43700002 36905.04896826  3394.52656496
0.43800002 37017.91868043  2925.15607275
0.43900002 37128.90206777  2695.55841786
0.44000002 37236.02192204  2709.47926356
0.44100002 37340.62380951  2970.82017107
0.44200002 37441.76566584  2985.60653568
0.44300002 37539.91524372  2750.17432109
0.44400002 37634.32803391  3014.50981838
0.44500002 37724.61842758  3028.53251089
0.44600002 37812.59989027  2788.86843708
0.44700002 37897.49214503  3310.72507069
0.44800002 37977.61978845  3325.13065816
0.44900002 38056.13761694  3596.30517524
0.45000002 38130.96891923  2837.51618660
0.45100002 38201.00775867  3367.03698342
0.45200002 38268.64356202  3120.42534393
0.45300002 38332.10106897  3393.54106847
0.45400002 38392.92955715  3144.38107975
0.45500002 38450.05415824  3155.98059488
0.45600002 38503.65229457  3431.25313685
0.45700002 38553.50563097  3443.21375109
0.45800002 38599.31960766  3189.07593713
0.45900002 38641.99995972  3732.81737302
0.46000002 38681.83943358  3477.30412069
0.46100002 38716.91455643  3219.69876711
0.46200002 38749.34177673  2960.25610533
0.46300002 38778.02250674  3508.63564270
0.46400002 38802.51768377  2977.12331039
0.46500002 38824.68747617  3527.99951817
0.46600002 38842.13777793  4081.33782045
0.46700002 38856.21001443  3273.24728675
0.46800002 38867.47120625  3281.19207475
0.46900002 38874.53068197  3562.85090587
0.47000002 38877.52495698  3570.70644891
0.47100002 38877.65290777  3027.79175196
0.47200002 38874.02357168  3309.73452376
0.47300002 38867.70646901  2763.49406093
0.47400002 38856.01991185  4152.73732491
0.47500002 38842.32585256  3050.67641705
0.47600002 38825.38063672  3055.75172785
