# SAXS profile: number of points = 501, q_min = 0, q_max = 0.5, delta_q = 0.001
#    q    intensity    error
0.00000000 1719190.39626459 386.81783916
0.00100000 1719119.58040128 618.88306364
0.00200000 1718907.08059371 850.85903184
0.00300000 1718553.06247838 1649.81099875
0.00400000 1718057.38599232 1675.10601499
0.00500000 1717420.56094804 1854.81427924
0.00600000 1716642.24259306 1982.72187092
0.00700000 1715723.16328456 4117.73576302
0.00800000 1714662.73798212 2777.75375281
0.00900000 1713462.40582800 3341.25183420
0.01000000 1712121.19442378 3390.00011134
0.01100000 1710640.47057887 4002.89887544
0.01200000 1709019.67917999 4332.36507667
0.01300000 1707260.20791512 3943.77125422
0.01400000 1705361.27394136 4220.76934012
0.01500000 1703324.82530302 5314.37369159
0.01600000 1701149.53309345 5639.31095430
0.01700000 1698837.64919718 5504.23423031
0.01800000 1696388.66135265 6285.12027313
0.01900000 1693803.40980123 6097.69255043
0.02000000 1691082.54099310 7457.67434313
0.02100000 1688227.72176518 7242.49725474
0.02200000 1685237.07974667 5814.06818927
0.02300000 1682113.53334571 7266.73079482
0.02400000 1678856.98119619 6295.71396655
0.02500000 1675469.03382261 7187.76248337
0.02600000 1671949.48881630 8802.81446124
0.02700000 1668299.82544474 8408.23150535
0.02800000 1664519.55429148 7240.66039322
0.02900000 1660611.40680070 11956.40267793
0.03000000 1656575.87188896 7703.07815836
0.03100000 1652413.03842449 13483.69101397
0.03200000 1648124.06085671 12237.32171549
0.03300000 1643711.68502349 9221.22297808
0.03400000 1639174.00891070 10326.79673262
0.03500000 1634514.37442855 10591.65363540
0.03600000 1629732.48459358 12663.02199050
0.03700000 1624830.43686721 11113.84070216
0.03800000 1619809.02706442 12318.64822093
0.03900000 1614670.19713444 13563.23028404
0.04000000 1609412.63277244 11877.46578025
0.04100000 1604040.23330755 12126.54472607
0.04200000 1598553.42132195 15466.00506880
0.04300000 1592952.35874609 11564.83466131
0.04400000 1587240.55998861 16070.81141624
0.04500000 1581418.02205850 13094.14183106
0.04600000 1575484.88096629 14439.31960529
0.04700000 1569444.31490141 11299.99959283
0.04800000 1563296.79908681 14937.30161028
0.04900000 1557044.88392535 15181.18832492
0.05000000 1550688.37438090 11862.76661642
0.05100000 1544230.30736895 14453.99635030
0.05200000 1537669.35741886 12224.47196116
0.05300000 1531010.54049990 16121.54174302
0.05400000 1524252.85734066 17605.12132328
0.05500000 1517399.68218961 14020.77371749
0.05600000 1510449.87586447 14205.78174541
0.05700000 1503408.58090503 15695.58631730
0.05800000 1496274.14117555 15890.43212125
0.05900000 1489048.68748512 16081.72657595
0.06000000 1481735.21460212 18981.02898582
0.06100000 1474335.31795067 15082.45100746
0.06200000 1466849.36440652 16634.07256991
0.06300000 1459280.45363972 19612.73021392
0.06400000 1451626.93404171 16984.03592258
0.06500000 1443894.77583062 17153.47073927
0.06600000 1436082.37313994 17319.15423041
0.06700000 1428192.57737005 17481.07796511
0.06800000 1420228.51993890 17639.23904332
0.06900000 1412190.78524892 16310.80433328
0.07000000 1404078.87962666 20934.81707558
0.07100000 1395897.85375998 24121.11604275
0.07200000 1387646.56612416 24311.56897741
0.07300000 1379330.26625866 16841.62334014
0.07400000 1370947.68527298 16965.47840033
0.07500000 1362501.91369105 20192.27930736
0.07600000 1353992.52853568 18766.33732528
0.07700000 1345425.50958755 15741.47920027
0.07800000 1336798.71901794 19009.27867590
0.07900000 1328114.63537853 23906.06455810
0.08000000 1319377.30527885 22442.60901560
0.08100000 1310586.91077180 16120.21975883
0.08200000 1301743.68437587 19448.05155718
0.08300000 1292852.00516135 22805.91044137
0.08400000 1283911.30748884 18006.85693275
0.08500000 1274926.44803895 18091.20714697
0.08600000 1265896.18533126 19823.93519305
0.08700000 1256824.39069082 19908.09928338
0.08800000 1247709.81535592 23319.69754418
0.08900000 1238558.19954407 16720.53647920
0.09000000 1229368.63976009 28527.50062573
0.09100000 1220143.76717591 20205.58173371
0.09200000 1210884.81211894 16891.84392275
0.09300000 1201595.24510966 22025.24187787
0.09400000 1192273.03322937 27183.82643520
0.09500000 1182922.85802889 18737.49895189
0.09600000 1173545.63968572 18782.59884610
0.09700000 1164144.96229757 20535.51810036
0.09800000 1154721.17610389 20577.13232566
0.09900000 1145275.90016272 20614.96717230
0.10000000 1135809.61934235 20649.01985071
0.10100000 1126324.71428904 24125.87651475
0.10200000 1116823.87371692 18980.42262659
0.10300000 1107307.79572555 22456.20315367
0.10400000 1097779.35926031 20748.03086611
0.10500000 1088240.97491017 24224.24524124
0.10600001 1078689.47695037 17312.96691969
0.10700001 1069131.73573060 20783.92192065
0.10800001 1059566.00909811 31183.02911528
0.10900001 1049996.52403347 17324.94346196
0.11000001 1040423.24903695 20787.65749422
0.11100001 1030848.07008757 19050.07323197
0.11200001 1021273.31096633 22503.75846656
0.11300001 1011698.40213184 19030.04784005
0.11400001 1002127.76752155 19015.37528405
0.11500001 992561.72576559 20724.68980987
0.11600001 983001.08029435 22427.17070304
0.11700001 973449.33158999 17230.05398059
0.11800001 963904.12256845 20646.82727785
0.11900001 954370.57516225 22332.27251068
0.12000001 944848.01896932 18863.89158730
0.12100001 935340.94909456 18828.41419224
0.12200001 925846.70682319 18790.05980020
0.12300001 916369.52472512 18748.92135922
0.12400001 906909.09068833 20405.45550194
0.12500001 897467.71176800 16962.14055168
0.12600001 888048.17913974 20300.78233178
0.12700001 878649.69959004 18557.08252987
0.12800001 869273.03316852 16820.43398455
0.12900001 859921.61421604 18445.31949430
0.13000001 850595.77160597 23399.89077983
0.13100001 841295.26735774 18323.41178677
0.13200001 832024.57966571 19918.66937617
0.13300001 822783.51513471 18191.74437724
0.13400001 813571.78687962 16474.82946103
0.13500001 804392.55377727 19691.53064489
0.13600001 795245.36845468 29416.12756613
0.13700001 786133.07481887 21154.84204090
0.13800001 777054.49007663 17821.74557031
0.13900001 768014.42768154 20966.79486446
0.14000001 759010.30703863 20868.98937622
0.14100001 750045.40907042 22366.35515334
0.14200001 741118.67754008 22255.79493623
0.14300001 732235.44639662 26887.68685991
0.14400001 723389.05034755 20453.82636338
0.14500001 714589.24468514 20344.35675587
0.14600001 705830.79988935 24901.71179482
0.14700001 697119.11387071 24761.67209286
0.14800001 688450.78785438 15386.87583448
0.14900001 679828.16860460 16825.74796682
0.15000001 671253.95352969 16724.29304129
0.15100001 662726.82978811 16621.18967536
0.15200001 654250.20660225 16516.54724504
0.15300001 645822.89299801 17902.21143869
0.15400001 637444.02391531 16302.63168097
0.15500001 629118.23235936 22082.05099793
0.15600001 620843.04284951 19007.11065388
0.15700001 612623.53476148 15971.09630502
0.15800001 604452.82583892 17299.44069202
0.15900001 596339.51260853 17174.57877378
0.16000001 588278.64319935 15627.62289425
0.16100001 580276.44264965 14100.71822200
0.16200001 572327.84178143 15392.75803134
0.16300001 564437.17078856 18050.70157395
0.16400001 556603.28619321 15153.52518200
0.16500001 548827.76903468 28698.20539770
0.16600001 541109.63466978 16265.75638613
0.16700001 533450.73231793 14787.25499803
0.16800001 525849.54732907 21328.45864672
0.16900001 518311.07136895 14538.62623838
0.17000001 510831.43658731 15723.39236061
0.17100001 503412.81015775 12988.05111538
0.17200001 496055.29127303 18021.68958299
0.17300001 488759.47208338 14032.28510618
0.17400001 481526.42242466 13904.07610415
0.17500001 474354.99450214 12522.97244629
0.17600001 467244.46909226 17367.47773641
0.17700001 460199.22710186 13516.05193835
0.17800001 453216.60358454 15819.52629531
0.17900001 446297.14821363 16870.03299931
0.18000001 439442.17875523 15510.11243179
0.18100001 432652.39169963 14173.69302160
0.18200001 425923.95301718 11691.61306261
0.18300001 419262.91342875 12728.82265300
0.18400001 412664.75537798 14886.88175353
0.18500001 406132.84912269 12464.21772841
0.18600001 399665.30413032 15694.85723468
0.18700001 393262.75586183 15526.01433495
0.18800001 386924.67248319 10969.31498316
0.18900001 380654.49728085 11933.51905358
0.19000001 374445.61979394 12873.44101677
0.19100001 368307.02703899 13789.41574389
0.19200001 362231.25775111 11535.25494814
0.19300001 356222.81843820 11402.69295701
0.19400001 350278.98276479 15368.49109503
0.19500001 344401.25463598 11137.93710125
0.19600001 338588.42756135 15007.93276088
0.19700001 332841.72369872 11862.47959321
0.19800001 327160.79138058 10742.32509265
0.19900001 321546.29972226 11575.66733707
0.20000001 315994.95402296 10479.97314547
0.20100001 310511.31096362 11290.19180024
0.20200001 305091.45783305 10219.03886311
0.20300001 299737.77842283 10089.17409857
0.20400001 294449.14823743 14486.89877802
0.20500001 289224.72385835 10724.45326758
0.20600001 284065.32908158 10584.27466188
0.20700001 278970.71956859 9574.27554816
0.20800001 273940.00340718 12023.22731788
0.20900001 268975.99378970 14403.66514832
0.21000001 264073.73101005 12536.90097235
0.21100001 259235.61123409 8243.69282695
0.21200001 254461.01689373 8130.02987410
0.21300001 249749.50029520 8818.65527233
0.21400001 245102.35401030 8695.00641959
0.21500001 240518.51427668 11689.20034648
0.21600001 235995.39896375 10754.31083923
0.21700001 231535.85782302 10599.71207229
0.21800001 227138.18102426 8207.63855937
0.21900001 222801.35342281 8822.93401271
0.22000001 218525.66697118 8692.95144314
0.22100001 214313.87602757 8563.98289100
0.22200001 210161.18193559 10544.83780223
0.22300001 206069.31721917 6923.92938596
0.22400001 202035.56627672 9546.18095798
0.22500001 198064.67791088 8728.71076829
0.22600001 194151.71005174 7271.95264387
0.22700001 190298.69714877 7809.85890031
0.22800001 186503.60684102 7047.03911774
0.22900001 182766.29204900 7566.52484866
0.23000001 179087.57241996 6825.92314560
0.23100001 175467.64547841 9159.41152715
0.23200001 171902.83276057 6008.00428912
0.23300001 168396.19764639 6501.77749863
0.23400001 164945.60591819 6977.19946033
0.23500001 161549.66954812 7434.51614423
0.23600001 158210.18737126 7311.68415518
0.23700001 154925.51190314 6637.00924385
0.23800001 151695.58663730 5982.11574199
0.23900001 148519.85816308 5881.38666144
0.24000001 145397.78912399 6307.35639054
0.24100001 142329.76054498 5683.22760738
0.24200001 139314.12873240 5585.80025574
0.24300001 136350.89309256 4990.44292325
0.24400001 133439.05076007 5884.66241688
0.24500001 130579.02172288 5782.03935540
0.24600001 127769.89091950 4733.87468250
0.24700001 125012.35299384 5115.50572650
0.24800001 122303.66335962 5024.84624684
0.24900001 119644.49374185 6281.33621860
0.25000001 117034.91201878 4406.36464596
0.25100001 114473.42024399 4759.80503893
0.25200001 111961.06645479 5098.70720757
0.25300001 109496.28608624 5006.17043671
0.25400001 107078.08006717 5324.45778325
0.25500001 104706.53709366 5629.02370047
0.25600001 102381.86607835 4736.18534887
0.25700001 100102.56636228 4648.76340181
0.25800001 97868.16656418  3802.17845091
0.25900001 95678.97758480  4850.92439307
0.26000001 93534.28890174  4028.05434214
0.26100001 91431.37842986  3593.25334231
0.26200001 89374.35337810  4230.98208912
0.26300001 87358.68401799  3805.34445588
0.26400001 85384.84742271  4072.85741478
0.26500001 83453.73528161  3329.80419530
0.26600001 81563.21929268  3919.92850470
0.26700001 79714.20205683  5127.21771892
0.26800001 77905.48235073  3772.18363393
0.26900001 76135.92132069  4316.90694317
0.27000001 74405.99752546  4839.36630807
0.27100001 72715.03327149  4450.16024681
0.27200001 71062.67241934  4365.02485993
0.27300001 69447.51746803  3425.15172362
0.27400001 67868.54998072  2799.57781919
0.27500001 66328.86051591  3295.21794638
0.27600001 64823.42210892  3232.09597931
0.27700001 63355.26181859  3434.48890573
0.27800001 61921.79773235  3109.71282929
0.27900001 60523.38184759  2541.98215791
0.28000001 59159.35730985  2742.92373149
0.28100001 57828.95541234  2446.16492972
0.28200001 56532.58543583  2399.80836533
0.28300001 55269.09341857  3060.80253839
0.28400001 54038.14692299  2541.14397933
0.28500001 52839.66773793  2266.82185325
0.28600001 51671.75633503  2891.80998017
0.28700001 50535.55290559  2401.44958774
0.28800001 49429.35742177  2785.59156935
0.28900001 48355.12084648  2313.79264202
0.29000001 47308.76850929  2478.03341181
0.29100001 46292.96944030  2230.39537321
0.29200001 45305.62882199  2588.53722527
0.29300001 44346.48279320  1955.67998375
0.29400001 43415.04293080  2305.33888875
0.29500001 42512.10618135  2642.55264532
0.29600001 41635.36606502  2225.82677520
0.29700001 40784.96108600  2005.39663153
0.29800001 39961.29694741  1971.49067823
0.29900001 39163.23523124  1938.58023572
0.30000001 38390.31167849  1906.65491977
0.30100001 37643.38054315  1875.76974126
0.30200001 36919.58981413  1845.79498014
0.30300001 36220.17594138  2312.29614156
0.30400001 35545.27469970  2764.53387065
0.30500001 34892.21097689  2402.32883949
0.30600001 34262.35821287  2208.89433856
0.30700001 33655.42964339  1710.36901545
0.30800001 33070.22144877  2299.20725508
0.30900001 32506.60743925  1662.71304924
0.31000001 31964.84532809  1491.16010515
0.31100001 31442.41957531  2354.40848927
0.31200001 30941.35995834  1452.69691882
0.31300001 30460.09121542  1434.67036417
0.31400001 29999.77927007  1842.73652891
0.31500001 29557.37693252  1681.22367952
0.31600002 29134.47856739  1662.41342577
0.31700002 28729.47569986  1644.47526692
0.31800002 28343.06197765  1491.83713783
0.31900002 27974.69352977  1477.06388831
0.32000002 27623.65830072  2261.13465727
0.32100002 27289.95739021  1713.53650567
0.32200002 26972.98773876  1437.52544960
0.32300002 26671.78811110  1425.87385994
0.32400002 26387.08794479  1800.91883751
0.32500002 26117.68505759  1532.58583175
0.32600002 25864.06979704  1776.08575706
0.32700002 25625.34434921  1765.07380235
0.32800002 25402.15073256  1378.95581781
0.32900002 25191.98188385  1745.80442722
0.33000002 24997.64473481  1737.58636780
0.33100002 24814.49006080  1606.49016261
0.33200002 24647.42608808  1723.59458796
0.33300002 24491.95630740  1717.86589675
0.33400002 24350.13970181  1713.03240914
0.33500002 24220.31909860  1220.70414038
0.33600002 24102.66722353  1949.42381736
0.33700002 23996.33751615  1703.26011756
0.33800002 23902.88765555  1701.64665278
0.33900002 23819.73996980  1214.80679599
0.34000002 23748.01760780  1336.18227398
0.34100002 23686.95099337  1215.14064351
0.34200002 23637.44066833  1337.76101798
0.34300002 23596.50274360  1339.33755916
0.34400002 23566.65255204  2317.19122192
0.34500002 23545.71880156  1588.62972278
0.34600002 23535.54098958  1347.52746318
0.34700002 23532.33131825  1351.22652829
0.34800002 23539.76427110  1232.30671796
0.34900002 23555.17055456  3215.28093298
0.35000002 23579.22386395  1365.59081476
0.35100002 23611.39465534  2119.35888464
0.35200002 23650.46613675  1502.75068950
0.35300002 23697.87237838  2013.37133263
0.35400002 23753.07371081  1391.33635851
0.35500002 23814.84097447  2034.74010923
0.35600002 23883.46300832  1534.75140561
0.35700002 23958.73645817  1543.90105049
0.35800002 24041.24630880  1941.93176257
0.35900002 24129.33233974  2084.77441290
0.36000002 24224.18771607  1442.91380965
0.36100002 24324.18018785  2113.28487482
0.36200002 24430.77125163  1463.28111343
0.36300002 24541.09009644  1339.94358273
0.36400002 24657.40379708  1484.99221402
0.36500002 24778.25790471  1904.45699277
0.36600002 24904.48344271  1919.38862985
0.36700002 25034.91637820  1520.12019449
0.36800002 25171.09510592  2229.15228817
0.36900002 25310.28008005  1545.19267208
0.37000002 25452.75556145  1699.73509691
0.37100002 25599.51098197  1714.14333655
0.37200002 25750.57422218  1440.74469598
0.37300002 25904.23995669  2325.16468866
0.37400002 26062.43942268  1759.21474437
0.37500002 26222.36249726  1774.72957789
0.37600002 26386.48831080  1939.80278006
0.37700002 26552.14854888  1656.05758344
0.37800002 26721.27185714  1822.92525245
0.37900002 26892.79943342  1839.46756839
0.38000002 27066.59306863  2010.91262730
0.38100002 27241.99077431  2341.44921797
0.38200002 27419.80769937  2047.84843504
0.38300002 27599.15587185  1907.65374423
0.38400002 27780.75561380  2246.07419778
0.38500002 27963.10043110  2266.68902833
0.38600002 28147.68990172  1633.97347620
0.38700002 28332.55732440  2473.43237160
0.38800002 28518.55267642  1664.05762750
0.38900002 28705.75656026  2015.14420600
0.39000002 28894.43248259  2880.91952716
0.39100002 29082.83448645  2052.08489858
0.39200002 29272.76358532  2243.31834364
0.39300002 29462.31365128  2785.95651085
0.39400002 29653.26325692  2284.04271058
0.39500002 29843.29648473  1949.96108470
0.39600002 30033.68898407  2325.05814286
0.39700002 30223.61561705  1984.78493161
0.39800002 30414.80256146  2002.35862150
0.39900002 30604.51332985  3121.66050754
0.40000002 30793.67676072  2222.68769390
0.40100002 30982.69896979  2055.08252003
0.40200002 31171.96440742  2449.64893902
0.40300002 31359.47483713  2660.53797124
0.40400002 31546.49462546  1916.44963930
0.40500002 31732.62155318  2125.76841857
0.40600002 31918.07641891  2338.31838924
0.40700002 32102.10634387  2357.57880160
0.40800002 32285.17809165  2574.90450070
0.40900002 32466.46739101  1996.68783915
0.41000002 32647.27090303  3421.59738911
0.41100002 32826.28429134  2231.53091186
0.41200002 33003.03500807  2453.44573875
0.41300002 33178.97691431  2884.58038961
0.41400002 33352.78787518  3114.31671541
0.41500002 33525.62447562  2091.99906640
0.41600002 33695.35076837  2107.64429043
0.41700002 33864.04422728  2760.25837576
0.41800002 34031.59684042  2566.66315532
0.41900002 34195.12515772  2585.15158442
0.42000002 34357.38823993  3688.43758927
0.42100002 34517.96138031  2184.98705891
0.42200002 34676.17321611  3520.32527171
0.42300002 34831.59534129  2879.87643928
0.42400002 34984.69796311  2899.35698108
0.42500002 35135.84888388  3143.25319010
0.42600002 35283.12099407  2485.87240743
0.42700002 35429.25900855  3866.74951142
0.42800002 35572.36772104  2746.89836559
0.42900002 35713.29442985  3224.91063983
0.43000002 35851.57076467  2549.58457575
0.43100002 35985.82759835  2331.88173888
0.43200002 36118.07719227  4222.56460465
0.43300002 36247.24124119  3775.51282660
0.43400002 36374.03258645  2848.08688649
0.43500002 36497.21945939  2625.61009233
0.43600002 36618.62288153  2400.35084363
0.43700002 36736.15898839  3137.63548789
0.43800002 36849.77778683  2669.21378048
0.43900002 36961.58357494  2927.35755786
0.44000002 37069.58333934  2452.15305410
0.44100002 37175.04207379  2711.17594692
0.44200002 37277.14329601  2477.06628941
0.44300002 37376.25178925  3236.03603327
0.44400002 37471.59873366  2501.22933401
0.44500002 37563.02644052  2512.96658796
0.44600002 37652.04984057  3281.94107989
0.44700002 37738.07915786  2535.99903959
0.44800002 37819.37870492  3056.56233179
0.44900002 37899.06279970  3837.28029033
0.45000002 37975.08883497  2825.91636958
0.45100002 38046.39422588  3353.40934600
0.45200002 38115.33744834  2848.93103259
0.45300002 38180.12638785  3640.09342233
0.45400002 38242.28875713  3654.05086392
0.45500002 38300.83046110  3667.68769878
0.45600002 38355.82760671  2629.29210705
0.45700002 38407.13571228  2902.42738333
0.45800002 38454.41944836  3177.10428540
0.45900002 38498.67886817  3984.61345170
0.46000002 38540.05532479  2931.54944722
0.46100002 38576.67329545  2940.69994469
0.46200002 38610.73537838  2949.66726903
0.46300002 38641.06060439  2958.35974008
0.46400002 38667.22649815  2966.74309368
0.46500002 38691.05450995  3245.40580611
0.46600002 38710.26428581  2711.65414174
0.46700002 38726.08786832  2990.42864693
0.46800002 38739.12654529  3270.35721796
0.46900002 38748.02246523  4643.95071256
0.47000002 38752.81682435  3833.04129377
0.47100002 38754.82520495  4664.53098275
0.47200002 38753.03675935  3024.48089723
0.47300002 38748.68055960  3306.03758204
0.47400002 38738.93348428  3588.19388405
0.47500002 38727.19384080  3871.17047981
0.47600002 38712.24916882  3877.80618304
