# SAXS profile: number of points = 501, q_min = 0, q_max = 0.5, delta_q = 0.001
#    q    intensity    error
0.00000000 1700912.83420644 331.67800267
0.00100000 1700842.62737280 561.27808036
0.00200000 1700631.94673170 918.34128031
0.00300000 1700280.96841225 1122.18547913
0.00400000 1699789.55139774 1912.26331798
0.00500000 1699158.19072349 2140.93940505
0.00600000 1698386.56394923 2139.96715770
0.00700000 1697475.37580199 3055.45580343
0.00800000 1696424.06824206 2748.20710658
0.00900000 1695234.01619417 2797.13624629
0.01000000 1693904.33587565 3074.43650237
0.01100000 1692436.37135356 3655.66272129
0.01200000 1690829.47457889 3626.82938199
0.01300000 1689085.14921277 3547.07896979
0.01400000 1687202.57011487 4175.82654615
0.01500000 1685183.61992850 4853.32904151
0.01600000 1683027.04902497 6008.40683362
0.01700000 1680735.07896538 4537.98491677
0.01800000 1678307.23209556 5261.49340937
0.01900000 1675744.26066918 7038.12621239
0.02000000 1673046.86714572 7378.13701787
0.02100000 1670216.69363486 8267.57300833
0.02200000 1667251.84508594 6327.22103956
0.02300000 1664155.31556641 8387.34317223
0.02400000 1660926.94822113 9342.71450975
0.02500000 1657568.23240772 8403.87132212
0.02600000 1654079.17550670 8038.82516064
0.02700000 1650461.08296013 9704.71161229
0.02800000 1646713.57341939 10028.48612203
0.02900000 1642839.39892291 7392.77763459
0.03000000 1638838.88540419 11430.90175112
0.03100000 1634712.23555659 10200.60481924
0.03200000 1630460.47653184 10492.01364972
0.03300000 1626086.47281519 10780.95381177
0.03400000 1621588.30061181 8513.33897102
0.03500000 1616969.35839890 8731.63493856
0.03600000 1612229.18336364 10737.44685742
0.03700000 1607369.86421611 10994.41037970
0.03800000 1602392.47193763 11248.79567359
0.03900000 1597298.57499254 10542.17108316
0.04000000 1592087.02900981 10770.46925034
0.04100000 1586761.78535718 13995.23959576
0.04200000 1581323.12217119 11219.48807231
0.04300000 1575771.24468712 11440.09976745
0.04400000 1570109.76341435 13777.71381382
0.04500000 1564338.42498194 12952.72276070
0.04600000 1558457.58738704 12085.83915202
0.04700000 1552470.43166412 17884.46020454
0.04800000 1546377.17583721 13639.04732548
0.04900000 1540180.61391077 11551.35514202
0.05000000 1533880.28606037 15254.44015521
0.05100000 1527479.58656371 15488.64372928
0.05200000 1520976.96486342 14510.12092099
0.05300000 1514377.41811442 15946.39495613
0.05400000 1507679.84176759 18657.53891195
0.05500000 1500887.87601229 15128.95049596
0.05600000 1494000.07843765 20437.92202675
0.05700000 1487021.68109586 18111.92492119
0.05800000 1479951.20760079 15717.08255859
0.05900000 1472790.61377549 15906.13937168
0.06000000 1465542.77560393 14750.68872559
0.06100000 1458209.42071497 16273.61789567
0.06200000 1450790.79327647 16451.96836478
0.06300000 1443290.33325429 16626.70541648
0.06400000 1435706.05374752 15397.94814655
0.06500000 1428043.97384381 18378.92680310
0.06600000 1420302.44711997 19983.65636598
0.06700000 1412484.22139053 14407.33973243
0.06800000 1404592.57821137 15991.28725147
0.06900000 1396628.17527996 21996.89479053
0.07000000 1388590.30031588 20703.88234724
0.07100000 1380484.15271114 14909.22954760
0.07200000 1372308.53921909 15026.77920841
0.07300000 1364068.49275943 15141.16097908
0.07400000 1355763.16143478 18302.80353711
0.07500000 1347395.02831639 19968.39525562
0.07600000 1338964.23620433 21651.05271444
0.07700000 1330476.47266863 23349.86319017
0.07800000 1321929.66580862 17231.35400190
0.07900000 1313326.09087174 25215.86212746
0.08000000 1304670.12889626 22192.43993360
0.08100000 1295961.61527105 23910.49292359
0.08200000 1287201.01074514 20833.34933652
0.08300000 1278392.50269140 24161.61943482
0.08400000 1269535.64665514 16186.58025463
0.08500000 1260635.14954657 17888.41361184
0.08600000 1251689.91053948 21234.92032931
0.08700000 1242703.75690274 16403.69036140
0.08800000 1233675.22246011 23057.39099064
0.08900000 1224610.63830424 23145.14215107
0.09000000 1215508.29077850 16591.68894853
0.09100000 1206371.29549861 19977.50959202
0.09200000 1197200.51453451 20041.13755498
0.09300000 1187999.77500105 23451.11666054
0.09400000 1178766.75084071 16797.42698892
0.09500000 1169506.58988437 21893.16439167
0.09600000 1160219.64879426 25321.79502526
0.09700000 1150909.44256678 33836.73920222
0.09800000 1141576.82192311 22038.14158341
0.09900000 1132223.11166335 25475.02121032
0.10000000 1122848.79592395 18712.27606406
0.10100000 1113456.30783207 27257.41169769
0.10200000 1104048.18002942 22174.80873891
0.10300000 1094625.10157438 18783.76762662
0.10400000 1085190.17404384 22219.26985886
0.10500000 1075745.55222979 23946.09711928
0.10600001 1066288.09904112 18825.31727437
0.10700001 1056825.06248193 22256.73686322
0.10800001 1047354.15703929 20549.08952819
0.10900001 1037879.55488953 17125.01346168
0.11000001 1028401.50593066 23972.04023160
0.11100001 1018921.79647927 25676.83047997
0.11200001 1009443.12295215 17110.06173953
0.11300001 999964.14857551 23939.14284397
0.11400001 990490.03477219 20503.14468516
0.11500001 981020.24834532 23897.65437498
0.11600001 971556.30640613 20460.97677645
0.11700001 962101.47357172 20435.03626105
0.11800001 952653.31178683 20405.83489955
0.11900001 943216.74216947 20373.48259048
0.12000001 933791.55600839 16948.31753990
0.12100001 924381.77071449 21991.04336125
0.12200001 914985.27097108 21945.92275814
0.12300001 905605.70473574 23581.97366237
0.12400001 896243.04407310 25206.83680224
0.12500001 886899.49150647 23467.36165105
0.12600001 877577.79379818 20061.42931159
0.12700001 868277.25532041 21672.20131413
0.12800001 858998.56085566 16621.62293592
0.12900001 849744.97541768 21541.03614211
0.13000001 840517.13755414 16516.16253143
0.13100001 831314.76614375 18106.03646009
0.13200001 822141.93355909 18041.90558246
0.13300001 812998.83039437 22877.78816582
0.13400001 803885.08181225 19534.40840900
0.13500001 794803.57835109 25942.39002052
0.13600001 785754.22825926 16147.25015208
0.13700001 776739.72506301 22509.91829374
0.13800001 767758.49045358 17608.54180890
0.13900001 758816.02071501 17528.65090514
0.14000001 749909.27877784 15860.58199415
0.14100001 741041.61652427 17362.60589404
0.14200001 732211.95287232 20417.73126885
0.14300001 723425.52450375 20313.78968622
0.14400001 714675.91169432 20207.46235634
0.14500001 705972.70498159 21645.12415578
0.14600001 697310.65395631 16913.27070958
0.14700001 688695.16524247 15289.03338967
0.14800001 680122.81084085 18240.89464733
0.14900001 671595.91843051 19644.18154092
0.15000001 663117.07809810 19525.48328587
0.15100001 654685.53977920 22390.24651693
0.15200001 646303.79126474 17799.20725132
0.15300001 637971.20016580 20631.98958697
0.15400001 629686.71051156 20496.30339439
0.15500001 621455.06673056 17450.45909733
0.15600001 613273.49749472 15886.85070238
0.15700001 605147.66152135 15776.20028045
0.15800001 597070.19423343 19936.17472642
0.15900001 589049.75239527 22619.51155963
0.16000001 581081.34551123 15436.42667214
0.16100001 573171.27853152 15320.86899836
0.16200001 565314.44684081 16586.32665328
0.16300001 557515.19063976 17829.33663834
0.16400001 549772.29263936 17688.92435076
0.16500001 542087.22589094 14847.76981814
0.16600001 534459.48852340 14727.03190157
0.16700001 526890.24349174 14605.39823918
0.16800001 519378.60877442 17116.12286032
0.16900001 511928.94034207 18275.86403316
0.17000001 504537.81831132 14235.53521585
0.17100001 497207.17689441 16676.32950052
0.17200001 489937.30271334 13985.26096638
0.17300001 482728.37915824 18898.81693653
0.17400001 475582.04424684 13732.43217616
0.17500001 468496.73004813 18552.47138609
0.17600001 461471.80237981 12252.07693184
0.17700001 454511.65864363 14562.55423074
0.17800001 447613.56240309 13220.26719000
0.17900001 440778.11158627 17851.51436243
0.18000001 434006.76637600 11783.28426369
0.18100001 427299.98633955 15164.87723153
0.18200001 420653.93535310 16165.73149925
0.18300001 414074.74428809 17142.69522334
0.18400001 407558.11176132 12440.71194922
0.18500001 401106.65455494 12309.96380984
0.18600001 394719.41163808 13286.25602343
0.18700001 388396.59977759 16429.17694679
0.18800001 382137.52987646 17333.75917415
0.18900001 375945.82201298 13928.79336368
0.19000001 369814.64418926 13773.74707362
0.19100001 363753.30777244 12571.31491061
0.19200001 357753.83881224 11392.67153529
0.19300001 351821.53402631 10238.00712394
0.19400001 345953.07266237 11131.04063890
0.19500001 340150.15649108 13000.53959543
0.19600001 334411.26945074 13834.59487095
0.19700001 328738.16029073 10739.87620424
0.19800001 323129.90827160 12539.05668306
0.19900001 317587.50297483 12385.91320138
0.20000001 312107.86611314 10351.05786885
0.20100001 306694.82834641 10222.13911191
0.20200001 301345.06409069 14681.53221640
0.20300001 296060.92451561 10871.35766204
0.20400001 290841.08518591 11626.37292984
0.20500001 285684.68256473 10593.18853021
0.20600001 280592.89150392 10454.89163162
0.20700001 275564.96580507 10317.15280742
0.20800001 270600.33789595 10179.98519286
0.20900001 265701.66951553 10880.48388100
0.21000001 260864.09226833 14035.79314800
0.21100001 256089.87568913 8958.02427508
0.21200001 251378.50613883 10441.00674607
0.21300001 246729.48945326 11880.02547881
0.21400001 242144.11463721 8590.06287286
0.21500001 237621.39209867 9238.72016158
0.21600001 233158.79587176 8348.25108088
0.21700001 228759.07476286 8228.46430826
0.21800001 224420.39623906 9583.87347452
0.21900001 220141.78817621 7264.67935330
0.22000001 215923.66156552 9305.23063514
0.22100001 211768.54329231 11283.02852012
0.22200001 207672.05642397 8335.95673902
0.22300001 203635.40823971 9579.01005654
0.22400001 199656.33717736 9433.76237772
0.22500001 195739.45812348 10616.90871066
0.22600001 191879.55147405 7840.19884398
0.22700001 188078.96570608 9005.22130386
0.22800001 184335.66727530 6965.12351738
0.22900001 180649.38884935 8725.36589405
0.23000001 177020.90666568 11040.79447088
0.23100001 173450.37503938 7846.89533788
0.23200001 169934.38510614 6533.12774438
0.23300001 166475.71738224 6427.62775212
0.23400001 163072.61478815 5748.30994315
0.23500001 159723.24069028 7350.46388422
0.23600001 156429.64229725 6673.28885603
0.23700001 153190.01671983 6015.77224112
0.23800001 150004.53433547 5915.42909131
0.23900001 146872.49227882 5287.40997213
0.24000001 143793.41726504 6757.57196401
0.24100001 140767.63521674 7664.79810011
0.24200001 137793.56305465 7533.86341638
0.24300001 134871.06310225 5429.90925735
0.24400001 131999.27369833 4850.97353788
0.24500001 129178.58952319 5243.35919678
0.24600001 126408.12672403 5620.10558001
0.24700001 123688.50754827 5981.57650800
0.24800001 121016.99213813 7231.97579230
0.24900001 118394.26747214 5327.74228829
0.25000001 115820.57316753 4796.70926466
0.25100001 113294.17259036 5567.27590447
0.25200001 110816.25931601 4205.47724000
0.25300001 108385.18407085 4955.37085016
0.25400001 105999.98555127 5270.84953091
0.25500001 103660.74037532 5970.85892811
0.25600001 101367.61687379 4689.26617844
0.25700001 99119.26712681  4603.09898316
0.25800001 96915.13661133  4518.18388259
0.25900001 94755.49652134  4434.55744702
0.26000001 92639.81041858  3626.84874949
0.26100001 90565.12246623  3915.13042946
0.26200001 88535.60263698  3842.00265822
0.26300001 86546.75686826  3769.97690757
0.26400001 84599.34831109  4371.67153084
0.26500001 82693.85745641  4619.27909609
0.26600001 80828.12740467  3884.59998689
0.26700001 79003.58456298  4446.32194961
0.26800001 77218.45809882  3738.91791807
0.26900001 75471.87813252  3362.27232991
0.27000001 73764.44941532  5097.49251807
0.27100001 72095.14653631  3235.63032967
0.27200001 70463.93646240  3462.59800162
0.27300001 68869.30843824  2830.52871076
0.27400001 67310.36066608  3054.20775976
0.27500001 65789.92621865  4902.66553383
0.27600001 64303.10753326  3206.15309334
0.27700001 62853.16996330  3145.17277381
0.27800001 61437.21109539  2828.26214663
0.27900001 60055.89301595  2522.34762605
0.28000001 58708.17281168  2722.00456124
0.28100001 57393.63349822  3156.07605544
0.28200001 56112.41322541  3811.15528665
0.28300001 54863.59877930  2337.18941862
0.28400001 53646.79347826  2293.40052974
0.28500001 52461.84693494  2925.79734204
0.28600001 51307.05301386  3092.27623151
0.28700001 50183.33607605  2818.29628743
0.28800001 49089.11392044  2979.21846485
0.28900001 48026.08690099  2924.78883071
0.29000001 46990.75944734  2871.60544575
0.29100001 45985.47563042  2618.41310634
0.29200001 45007.97009715  3362.77064499
0.29300001 44058.20364916  2914.45030935
0.29400001 43135.69317388  2099.62996463
0.29500001 42241.22192209  1875.51034212
0.29600001 41372.35085342  2580.39364488
0.29700001 40529.40764476  1992.83106823
0.29800001 39712.78846659  2315.45424115
0.29900001 38921.24538536  3152.62102546
0.30000001 38154.42375550  2067.20677693
0.30100001 37413.07739668  2372.73748082
0.30200001 36694.45894678  2501.64485713
0.30300001 35999.89389100  1805.75476306
0.30400001 35329.39622751  2262.84793550
0.30500001 34680.27993142  1910.18990906
0.30600001 34053.88098872  2665.90819941
0.30700001 33450.07336076  1699.93280867
0.30800001 32867.59448758  1828.09569195
0.30900001 32306.29264642  1652.46694710
0.31000001 31766.51474309  2074.67117610
0.31100001 31245.63945014  2193.44399325
0.31200001 30745.90089070  1732.22413820
0.31300001 30265.31565629  1425.49643490
0.31400001 29805.47530206  2253.29403952
0.31500001 29363.38064482  1531.00673931
0.31600002 28940.14783857  1788.93532334
0.31700002 28534.64969281  1497.21314027
0.31800002 28147.37247070  1750.90738744
0.31900002 27777.76080468  1466.66583993
0.32000002 27425.19090572  1980.78450695
0.32100002 27089.71147582  1439.27643886
0.32200002 26770.69354932  1686.15221304
0.32300002 26467.15105650  1286.30360225
0.32400002 26179.72130711  1276.26147415
0.32500002 25907.44848727  1646.93657832
0.32600002 25650.62806339  1887.24504913
0.32700002 25408.43201319  1375.10440567
0.32800002 25181.44489567  1366.97480089
0.32900002 24967.32528944  1359.47092639
0.33000002 24768.73283525  1352.74440785
0.33100002 24581.11414097  1346.55349641
0.33200002 24409.38077620  2072.72266676
0.33300002 24248.99146694  1579.33688903
0.33400002 24102.11603713  1816.69708233
0.33500002 23966.96613222  1570.31569535
0.33600002 23843.80188706  1566.89551521
0.33700002 23731.79449443  1203.20203785
0.33800002 23632.50956895  1442.05580219
0.33900002 23543.18923006  1200.70270760
0.34000002 23465.29726177  1320.27501296
0.34100002 23397.81022624  1440.36926574
0.34200002 23341.65329684  1561.20655470
0.34300002 23294.07698507  1442.36931523
0.34400002 23257.32347901  1805.34982056
0.34500002 23229.41238046  1326.16721561
0.34600002 23212.18180944  1570.65235652
0.34700002 23201.68195539  1453.35342652
0.34800002 23201.71375244  1700.45368145
0.34900002 23209.62285217  1218.50525745
0.35000002 23226.02938982  1345.13555582
0.35100002 23250.50119712  1350.38917349
0.35200002 23281.90142407  1849.16510819
0.35300002 23321.47376679  1486.04437880
0.35400002 23368.65632420  1742.13341148
0.35500002 23422.53260805  1500.91596061
0.35600002 23482.88042697  1257.50830643
0.35700002 23550.08628957  1644.03160174
0.35800002 23624.32439582  1272.16992897
0.35900002 23704.19198427  1536.03171334
0.36000002 23790.82017157  1545.92756797
0.36100002 23882.37587248  1945.21960695
0.36200002 23980.64352752  1828.04454269
0.36300002 24082.55547623  1314.90759129
0.36400002 24190.48048807  1456.87175640
0.36500002 24302.80879469  1601.06911923
0.36600002 24420.59762538  1478.78935925
0.36700002 24542.57821804  1354.75038181
0.36800002 24670.31687446  1502.05231405
0.36900002 24801.08411627  1376.46023365
0.37000002 24935.14510133  1665.16906875
0.37100002 25073.46375788  1958.73908155
0.37200002 25216.03147881  1693.00443368
0.37300002 25361.40029047  1422.77462369
0.37400002 25511.17078514  2009.00479450
0.37500002 25662.91199202  2315.82128786
0.37600002 25818.74669877  1606.05521448
0.37700002 25976.18894007  2356.55997228
0.37800002 26137.16856193  1485.89810314
0.37900002 26300.54229436  1649.04407998
0.38000002 26466.29243725  1966.31328978
0.38100002 26633.70185443  1526.11118856
0.38200002 26803.59057789  1693.85298681
0.38300002 26975.06262121  1709.14004865
0.38400002 27148.93102791  2351.77626171
0.38500002 27323.47284158  1898.43498297
0.38600002 27500.51866889  2075.32673967
0.38700002 27677.87839965  2094.10837893
0.38800002 27856.47882452  1625.42561642
0.38900002 28036.30221715  1640.12375740
0.39000002 28217.76777204  2151.46380571
0.39100002 28399.07431328  2003.83877848
0.39200002 28581.83631237  1684.89933044
0.39300002 28764.56613679  1869.98453315
0.39400002 28948.79204696  1715.21601004
0.39500002 29132.12530883  1903.49315786
0.39600002 29315.97541419  2444.07298608
0.39700002 29499.49377784  1937.23184817
0.39800002 29684.25987642  2487.24425289
0.39900002 29867.81407970  2150.48271563
0.40000002 30051.08501211  2169.08741894
0.40100002 30234.05065871  2370.04734343
0.40200002 30417.55554617  2390.36371585
0.40300002 30599.42347464  1854.32515042
0.40400002 30780.93955478  1869.94216655
0.40500002 30961.71160190  2451.23882366
0.40600002 31141.97238985  2091.33925493
0.40700002 31321.00205290  2875.26812469
0.40800002 31499.23523339  2125.72599045
0.40900002 31675.74590630  2922.08769831
0.41000002 31851.96790258  2945.51087135
0.41100002 32026.57717186  2177.16681930
0.41200002 32199.12919666  2792.63060755
0.41300002 32370.91995207  2412.28106913
0.41400002 32540.86163289  2633.36935242
0.41500002 32709.87588492  2245.20598713
0.41600002 32876.02259412  2673.31390391
0.41700002 33041.28378166  2278.85745040
0.41800002 33205.59506235  2921.76044798
0.41900002 33366.04105595  3363.29709781
0.42000002 33525.35691267  2117.12638935
0.42100002 33683.21732633  3198.22163668
0.42200002 33838.88232484  2576.49262230
0.42300002 33991.93369068  2378.07579369
0.42400002 34142.80161546  3047.24518858
0.42500002 34291.92184958  2629.50469203
0.42600002 34437.42084671  2205.71690975
0.42700002 34581.87559606  2886.20347401
0.42800002 34723.43577074  2681.34383728
0.42900002 34863.11291593  3373.00633445
0.43000002 35000.27660314  3167.87518547
0.43100002 35133.57069871  2504.32103808
0.43200002 35265.13132342  3664.75262079
0.43300002 35393.71835604  3225.78364383
0.43400002 35520.04510328  2549.45135810
0.43500002 35643.11246694  3030.37756554
0.43600002 35764.48628666  2578.79840591
0.43700002 35882.10099517  3064.69039123
0.43800002 35996.16586327  3081.45192475
0.43900002 36108.47232918  2621.47521533
0.44000002 36217.18409646  2395.76684152
0.44100002 36323.49705861  2889.89756294
0.44200002 36426.72212733  3146.72254009
0.44300002 36527.16003167  2675.97987074
0.44400002 36623.92774844  2933.57675167
0.44500002 36716.98402548  2456.36634771
0.44600002 36807.77861798  2714.75784062
0.44700002 36895.75721821  2975.27400308
0.44800002 36979.29952736  2739.61153532
0.44900002 37061.36964029  2751.80682620
0.45000002 37139.84062774  3768.76550631
0.45100002 37213.88470236  3280.03195311
0.45200002 37285.66857978  3040.27356008
0.45300002 37353.49353188  3052.52763609
0.45400002 37418.95172978  2809.22793425
0.45500002 37480.83598065  2820.05823284
0.45600002 37539.35156070  2573.32267144
0.45700002 37594.48341487  2841.01524631
0.45800002 37645.63624543  2851.09239617
0.45900002 37693.94513678  2860.97057148
0.46000002 37739.60844663  3653.57166688
0.46100002 37780.66890792  2880.02052735
0.46200002 37819.30532230  3677.17123077
0.46300002 37854.29618146  3161.59096692
0.46400002 37885.37989812  2906.75591045
0.46500002 37914.15264057  3180.23927422
0.46600002 37938.66430879  3454.88462903
0.46700002 37959.85653760  3197.73846629
0.46800002 37978.41198554  2671.78140981
0.46900002 37992.91469267  3214.20073534
0.47000002 38003.58643618  2684.95350897
0.47100002 38011.57042846  3767.70703945
0.47200002 38015.87072275  4315.56184899
0.47300002 38017.64292933  3784.27635655
0.47400002 38014.40977230  2979.37950712
0.47500002 38009.09103333  4070.77384262
0.47600002 38000.78497448  2990.85192318
