# SAXS profile: number of points = 501, q_min = 0, q_max = 0.5, delta_q = 0.001
#    q    intensity    error
0.00000000 1700912.83420645 280.65061764
0.00100000 1700842.65031265 612.30336865
0.00200000 1700632.04599250 994.86977841
0.00300000 1700281.18706425 1224.20249830
0.00400000 1699789.94392179 1529.81100766
0.00500000 1699158.79380166 1682.16727245
0.00600000 1698387.43811309 2674.96032393
0.00700000 1697476.57274072 2036.97197195
0.00800000 1696425.61691063 2290.17467952
0.00900000 1695235.98079707 2797.13948789
0.01000000 1693906.76833534 3353.93554613
0.01100000 1692439.28464076 3655.66901399
0.01200000 1690832.96043947 4286.26174264
0.01300000 1689089.21871371 4965.92252204
0.01400000 1687207.27504153 6833.18976684
0.01500000 1685189.03262553 5257.79001592
0.01600000 1683033.20094064 4720.90833968
0.01700000 1680741.98364045 5445.60427128
0.01800000 1678314.98494121 6218.15729901
0.01900000 1675752.87190757 5529.98472682
0.02000000 1673056.38770573 7378.17900354
0.02100000 1670227.15596303 6614.09983749
0.02200000 1667263.27916686 7477.67614679
0.02300000 1664167.74973845 8387.40584046
0.02400000 1660940.49201629 9965.64340651
0.02500000 1657582.90933024 7111.03100579
0.02600000 1654094.95551426 9378.71882673
0.02700000 1650478.09164953 6932.00830242
0.02800000 1646731.80963418 7163.28370041
0.02900000 1642858.84066686 8871.43814693
0.03000000 1638859.62682273 8382.76737651
0.03100000 1634734.30084207 8631.39750560
0.03200000 1630483.91632409 10492.16448480
0.03300000 1626111.35068431 8293.16827081
0.03400000 1621614.59077383 11918.86779213
0.03500000 1616997.02178963 14844.03334550
0.03600000 1612258.29298108 14316.85430331
0.03700000 1607400.54150649 10994.62021238
0.03800000 1602424.66968876 11249.02170181
0.03900000 1597332.33635453 9583.99446196
0.04000000 1592122.36171313 14687.32946740
0.04100000 1586798.69217814 13995.56511394
0.04200000 1581361.69103499 11219.76171841
0.04300000 1575811.47484253 16640.56994676
0.04400000 1570151.60389857 15897.78572780
0.04500000 1564381.96331447 14032.50686295
0.04600000 1558502.81316982 16481.16801543
0.04700000 1552517.34330496 12295.93793083
0.04800000 1546425.88563130 12502.85386706
0.04900000 1540230.99964493 19637.94615957
0.05000000 1533932.48166946 11734.58403121
0.05100000 1527533.51051996 14297.71432451
0.05200000 1521032.58681645 12092.20962870
0.05300000 1514434.81017390 15946.99929455
0.05400000 1507739.10533105 16170.50265877
0.05500000 1500948.84208401 13868.76794782
0.05600000 1494062.91515305 15329.08622479
0.05700000 1487086.28423275 14231.41640441
0.05800000 1480017.56524236 15717.78727678
0.05900000 1472858.72756423 18558.02083408
0.06000000 1465612.73153262 14751.39283204
0.06100000 1458281.20661899 16274.41902639
0.06200000 1450864.46563176 19194.93777755
0.06300000 1443365.58448051 13856.31025887
0.06400000 1435782.95903585 16798.66140634
0.06500000 1428122.72854481 15552.25724135
0.06600000 1420382.88565560 17129.81840249
0.06700000 1412566.46049446 15848.99642846
0.06800000 1404676.52450517 20353.76379282
0.06900000 1396713.72061961 17598.59370375
0.07000000 1388677.56867412 17747.30015873
0.07100000 1380573.02261291 19383.24614535
0.07200000 1372399.07242575 16530.54760177
0.07300000 1364160.60538240 21199.05680094
0.07400000 1355856.75447671 24405.42272432
0.07500000 1347490.35169830 18433.66887526
0.07600000 1339060.99230800 18559.38622346
0.07700000 1330574.68665775 17124.49702023
0.07800000 1322029.34811858 25065.67761581
0.07900000 1313427.46593324 17337.24336350
0.08000000 1304772.71734577 19023.58711132
0.08100000 1296065.54513458 25506.57112497
0.08200000 1287306.29960540 22437.74985502
0.08300000 1278499.03198927 20941.81512683
0.08400000 1269643.59375689 22663.13921234
0.08500000 1260744.25901456 19516.32204574
0.08600000 1251800.27781645 26137.59102801
0.08700000 1242815.24051790 21326.71052874
0.08800000 1233787.91101318 24706.60407835
0.08900000 1224724.15599538 19840.53225903
0.09000000 1215622.90309585 18252.57874741
0.09100000 1206486.80795385 23309.32622477
0.09200000 1197316.99761427 18372.83019167
0.09300000 1188116.99651353 18427.69548188
0.09400000 1178884.98167941 20158.93413414
0.09500000 1169625.35619022 16842.60592079
0.09600000 1160339.19697200 18571.22972053
0.09700000 1151029.76703047 18612.15220789
0.09800000 1141697.64636462 22040.47409936
0.09900000 1132344.55809088 25477.75375507
0.10000000 1122970.65485209 20415.60746530
0.10100000 1113578.68375029 18741.53012897
0.10200000 1104170.84801330 22177.27252548
0.10300000 1094748.22787243 25617.10973726
0.10400000 1085313.46313681 22221.79420315
0.10500000 1075868.95523675 27370.10750897
0.10600001 1066411.77748643 29097.04671784
0.10700001 1056948.70663889 17122.56985330
0.10800001 1047477.71697697 18838.88762642
0.10900001 1038003.14248378 23977.87371991
0.11000001 1028524.90397343 22262.42259439
0.11100001 1019045.04939967 22255.94492655
0.11200001 1009566.01044776 20534.57361922
0.11300001 1000086.92409727 23942.08209010
0.11400001 990612.11843331 20505.67181707
0.11500001 981142.07652505 18779.06022896
0.11600001 971677.52354617 18758.23547541
0.11700001 962222.06280620 22140.73070789
0.11800001 952773.29887688 23809.80586033
0.11900001 943335.93370922 22074.06188852
0.12000001 933909.97539462 18645.51353705
0.12100001 924499.19272973 21993.83683113
0.12200001 915101.70724191 23637.07821163
0.12300001 905721.12789713 18531.05514985
0.12400001 896357.33413809 18487.37088768
0.12500001 887012.52607501 16764.53753277
0.12600001 877689.63157250 21735.98475017
0.12700001 868387.72174014 16673.04504315
0.12800001 859107.74606407 21610.85637075
0.12900001 849852.75464602 18229.34244634
0.13000001 840623.21137248 18170.07157026
0.13100001 831419.21598995 19754.52150310
0.13200001 822244.56815275 18044.15789872
0.13300001 813099.81314926 19611.96841773
0.13400001 803984.11627706 21164.88285883
0.13500001 794900.73155216 19459.17082586
0.13600001 785849.37035013 25838.72851543
0.13700001 776832.57058761 19296.52196329
0.13800001 767849.50488409 20812.56181131
0.13900001 758904.71863556 20718.09979578
0.14000001 749995.66308446 23793.61353348
0.14100001 741125.54696123 15785.97489479
0.14200001 732293.58933680 20420.00770177
0.14300001 723504.65302795 18753.24149103
0.14400001 714752.40690481 18655.03870017
0.14500001 706046.59299036 17008.66322747
0.14600001 697381.69559725 15377.26711333
0.14700001 688763.53752510 19877.71663074
0.14800001 680188.41309045 21283.09644971
0.14900001 671658.52965898 22668.47644551
0.15000001 663176.68843504 16523.04797196
0.15100001 654741.94275231 16420.92869905
0.15200001 646357.14092520 17800.67650104
0.15300001 638021.36884400 22107.44147367
0.15400001 629733.71597194 16105.44054601
0.15500001 621498.78230835 17451.68663082
0.15600001 613313.90058097 24554.02316858
0.15700001 605184.54283757 22948.59894750
0.15800001 597103.56644918 15665.01280516
0.15900001 589079.53174562 15551.70037213
0.16000001 581107.63293135 16840.49999726
0.16100001 573193.79934330 15321.47097968
0.16200001 565333.27073841 19351.35877088
0.16300001 557530.22500234 17829.81743728
0.16400001 549783.54526160 16328.57206513
0.16500001 542094.71144994 13498.15895237
0.16600001 534463.04284186 20082.44978294
0.16700001 526889.85357548 14605.38743070
0.16800001 519374.03379386 15799.35885400
0.16900001 511920.18964268 20886.34472363
0.17000001 504525.13455823 19411.60546874
0.17100001 497190.17924144 16675.75939921
0.17200001 489916.08949504 19069.98468413
0.17300001 482703.12291159 18897.82815443
0.17400001 475552.35124411 16228.22475260
0.17500001 468462.72398542 16077.64144649
0.17600001 461433.47294316 13476.16521377
0.17700001 454468.85395190 21841.77415253
0.17800001 447566.34558248 13218.87264113
0.17900001 440726.52385313 17849.42505914
0.18000001 433950.68550626 17672.64250201
0.18100001 427239.30659391 16329.08706935
0.18200001 420588.78367121 23090.32531429
0.18300001 414005.00481964 15997.15414193
0.18400001 407483.61741956 13569.20510109
0.18500001 401027.81243565 12307.54414508
0.18600001 394635.79551186 15497.34842190
0.18700001 388308.20721984 10950.29196094
0.18800001 382044.66433294 11914.06342012
0.18900001 375848.06484006 16067.50553106
0.19000001 369712.33792108 15888.38847287
0.19100001 363646.31008965 11520.31564798
0.19200001 357642.16661918 10353.74121285
0.19300001 351704.97527808 11258.07679062
0.19400001 345831.83020272 13150.25596486
0.19500001 340024.19273233 12995.72526034
0.19600001 334280.55929263 11853.58919267
0.19700001 328602.67412582 11711.39985930
0.19800001 322989.72812411 14461.86576021
0.19900001 317442.59255144 10475.60604927
0.20000001 311958.17059995 14108.30893216
0.20100001 306540.50177820 11145.81317143
0.20200001 301186.01581455 11922.44899952
0.20300001 295897.15758701 9959.89879513
0.20400001 290672.52785357 8938.18065397
0.20500001 285511.49603204 11468.99733771
0.20600001 280414.94217981 10448.26123949
0.20700001 275382.47601832 11169.51375528
0.20800001 270413.24306853 8477.45557093
0.20900001 265509.99459533 9199.92174762
0.21000001 260667.84609252 11550.19280636
0.21100001 255888.96703767 8950.99649012
0.21200001 251173.11752828 9629.97778129
0.21300001 246519.67925940 10287.26670183
0.21400001 241929.95937500 10923.13818219
0.21500001 237402.73178252 7691.84887341
0.21600001 232935.74126162 9856.67635750
0.21700001 228531.56739279 9714.87738918
0.21800001 224188.62577238 11783.35472772
0.21900001 219905.71582071 10159.64455128
0.22000001 215683.36960198 7864.89444441
0.22100001 211524.02520253 11974.37563291
0.22200001 207423.34727815 6938.31129453
0.22300001 203382.63452388 8883.75389608
0.22400001 199399.57750157 8075.68327068
0.22500001 195478.72530418 8614.74783152
0.22600001 191614.90238354 8481.83405510
0.22700001 187810.43545465 10276.98751407
0.22800001 184063.25831776 9483.85983331
0.22900001 180373.20058937 8089.73842900
0.23000001 176740.95834856 8573.70429496
0.23100001 173166.81024853 7834.06686614
0.23200001 169647.28723026 5929.17296911
0.23300001 166185.11204081 6416.40747936
0.23400001 162778.41878047 5737.93953339
0.23500001 159425.75749529 6772.40649871
0.23600001 156128.78298285 7215.49204682
0.23700001 152886.06600774 6549.63937756
0.23800001 149697.30056664 6976.64302289
0.23900001 146562.14724169 8441.98008042
0.24000001 143479.92105584 6742.83920896
0.24100001 140451.24483581 5608.21847157
0.24200001 137474.31072256 5512.03274915
0.24300001 134549.01397999 4924.49414461
0.24400001 131674.50527092 7258.55744642
0.24500001 128851.15750470 4754.60793684
0.24600001 126078.19514011 7006.79602637
0.24700001 123356.07236047 4588.84610889
0.24800001 120682.16565290 6310.47074052
0.24900001 118057.16474307 5755.28705349
0.25000001 115481.21572180 5652.22837090
0.25100001 112952.65789525 5550.49387156
0.25200001 110472.66508664 5030.92540606
0.25300001 108039.66304061 4939.57362791
0.25400001 105652.57099383 4849.45323805
0.25500001 103311.55001737 5157.31282087
0.25600001 101016.81734469 8567.23668434
0.25700001 98766.86730249  5733.41691818
0.25800001 96561.20491722  6002.24478165
0.25900001 94400.20348760  4049.76892123
0.26000001 92283.20616562  4335.46523080
0.26100001 90207.36398638  4963.20940137
0.26200001 88176.73064436  4870.00106392
0.26300001 86186.87563257  3754.30048020
0.26400001 84238.42499739  3683.32530730
0.26500001 82332.13597143  3942.06285685
0.26600001 80465.73206831  4189.44853838
0.26700001 78640.52517907  3477.48418797
0.26800001 76854.83392304  4031.42050420
0.26900001 75107.84989112  3346.05487099
0.27000001 73400.17273663  3282.08887923
0.27100001 71730.70683953  2926.61297755
0.27200001 70099.26973610  3157.62175469
0.27300001 68504.71774834  3097.09843597
0.27400001 66945.76272946  4418.42054924
0.27500001 65425.54041759  3521.20275192
0.27600001 63939.09400809  3719.33727447
0.27700001 62489.49529705  3908.71811582
0.27800001 61074.00685088  3322.73149998
0.27900001 59693.22915922  3259.25046635
0.28000001 58346.18042600  3443.00826989
0.28100001 57032.41784568  3859.95422248
0.28200001 55752.12101201  2603.34541387
0.28300001 54504.31681495  2554.07240683
0.28400001 53288.59078425  2733.70483662
0.28500001 52104.82008598  2905.88595373
0.28600001 50951.29113209  2193.45318706
0.28700001 49829.04094994  3659.44494057
0.28800001 48736.26144820  3169.07555067
0.28900001 47674.91856715  2903.40267817
0.29000001 46641.18797041  2443.06554153
0.29100001 45637.67803481  3398.18166732
0.29200001 44662.00281285  2748.05316315
0.29300001 43714.23411688  2891.69672371
0.29400001 42793.82578712  2840.44032108
0.29500001 41901.56646303  2046.47260293
0.29600001 41034.90019965  2376.53635756
0.29700001 40194.31024184  2695.02862929
0.29800001 39380.21891526  2119.44348235
0.29900001 38591.17270191  2257.58370993
0.30000001 37826.95578718  1707.88713464
0.30100001 37088.36755286  1848.11344265
0.30200001 36372.53699644  1818.44507322
0.30300001 35680.94961361  1789.75651735
0.30400001 35013.35192163  1762.04701887
0.30500001 34367.33551593  1892.95292983
0.30600001 33744.10266325  2486.26560193
0.30700001 33143.53305011  1684.35442935
0.30800001 32564.34770148  2264.03638113
0.30900001 32006.47998709  2232.45208479
0.31000001 31470.16544824  2495.74158903
0.31100001 30952.89040347  1448.59533947
0.31200001 30456.71840513  1858.92589587
0.31300001 29979.90584915  1694.46435882
0.31400001 29523.82031543  1534.50063355
0.31500001 29085.61311386  2205.85300300
0.31600002 28666.32226099  1908.31716327
0.31700002 28264.84744716  1617.87994448
0.31800002 27881.66793773  1467.55166139
0.31900002 27516.26072808  1717.01475073
0.32000002 27167.87517208  1700.57322692
0.32100002 26836.64801038  1296.21016028
0.32200002 26522.00549550  1798.98771794
0.32300002 26222.87766250  1274.43191474
0.32400002 25939.91257784  1896.85619707
0.32500002 25672.08184153  1255.36486149
0.32600002 25419.86478375  1745.58219736
0.32700002 25182.33215567  1362.86788080
0.32800002 24960.05214764  1354.95649500
0.32900002 24750.66117397  1347.67356474
0.33000002 24556.89445688  1341.17485427
0.33100002 24374.15887914  1820.74975449
0.33200002 24207.21896724  1571.89583807
0.33300002 24051.88528577  1325.49946087
0.33400002 23909.96745904  1321.62351388
0.33500002 23779.83467023  1558.05484138
0.33600002 23661.72868993  1913.76070707
0.33700002 23554.79869702  1671.91969069
0.33800002 23460.61586690  1312.26961066
0.33900002 23376.48679040  1192.20088277
0.34000002 23303.80274239  1311.18852340
0.34100002 23241.53896716  1549.97830712
0.34200002 23190.67167598  1670.42415993
0.34300002 23148.39750402  1313.90310455
0.34400002 23116.93392687  1435.56166485
0.34500002 23094.42764507  1318.46093670
0.34600002 23082.44203969  1441.72939808
0.34700002 23077.38691322  1806.95948088
0.34800002 23082.78216003  1450.06044397
0.34900002 23096.20619765  1818.82632421
0.35000002 23117.98939422  1338.87841918
0.35100002 23147.92785906  1711.09490838
0.35200002 23184.69416216  1841.44442105
0.35300002 23229.70540937  1356.84715723
0.35400002 23282.34886210  1363.76364919
0.35500002 23341.72409653  1371.09293837
0.35600002 23407.61997218  1378.82591977
0.35700002 23480.23176777  1639.15505735
0.35800002 23559.94337244  2029.92481712
0.35900002 23645.28713286  1532.21467878
0.36000002 23737.28785589  1542.44903794
0.36100002 23834.38271166  2588.41408509
0.36200002 23938.07515695  1824.79955565
0.36300002 24045.39388655  2231.89356627
0.36400002 24158.73281001  2380.84323120
0.36500002 24276.49012653  1466.05730818
0.36600002 24399.65678140  1746.16152027
0.36700002 24526.97093146  1895.44440337
0.36800002 24660.03044175  1364.93274961
0.36900002 24796.14515862  1926.66057009
0.37000002 24935.49784241  1942.72472893
0.37100002 25079.10583793  1819.23842366
0.37200002 25226.93150888  1693.73626174
0.37300002 25377.47743835  1566.04420690
0.37400002 25532.49612431  1579.82327253
0.37500002 25689.32505608  2028.42920252
0.37600002 25850.24005655  1754.19737334
0.37700002 26012.78756581  2212.38768728
0.37800002 26178.73575181  1934.73955739
0.37900002 26347.16068112  1802.14587596
0.38000002 26517.89111379  1515.49754895
0.38100002 26690.23129063  1988.15542302
0.38200002 26864.92823373  1852.06824017
0.38300002 27041.25301729  2180.60674662
0.38400002 27219.86176057  1886.33650937
0.38500002 27399.16602832  1745.05296701
0.38600002 27580.87235255  2241.49760228
0.38700002 27762.83936824  3231.59465556
0.38800002 27946.01558160  2119.84511237
0.38900002 28130.34239128  1645.62510785
0.39000002 28316.25845705  1992.89836462
0.39100002 28502.00405353  2513.87687662
0.39200002 28689.10782146  2536.83447930
0.39300002 28876.08363604  2218.54961086
0.39400002 29064.43167517  1722.06765834
0.39500002 29251.99362602  2085.08220445
0.39600002 29439.86650577  1928.45854683
0.39700002 29627.42279926  2653.13583737
0.39800002 29816.13969074  2319.84485855
0.39900002 30003.57678670  2880.34350799
0.40000002 30190.57959194  2179.15613819
0.40100002 30377.36537280  2564.45730627
0.40200002 30564.54936182  3140.96606399
0.40300002 30750.04186317  2236.14315024
0.40400002 30935.03773256  1879.30363129
0.40500002 31119.25957333  2084.67929759
0.40600002 31302.84972866  2675.45469307
0.40700002 31485.13259282  1926.89020598
0.40800002 31666.62598209  2719.84663447
0.40900002 31846.28778294  2350.25614974
0.41000002 32025.52877072  2369.24873072
0.41100002 32203.10102329  2985.22760631
0.41200002 32378.53787444  2206.43556800
0.41300002 32553.12722870  2223.70422636
0.41400002 32725.80424618  3259.49025736
0.41500002 32897.51062818  2258.08523651
0.41600002 33066.19576577  2275.11970747
0.41700002 33233.89857157  2708.89520093
0.41800002 33400.61511825  2309.15163562
0.41900002 33563.36696031  2325.94144056
0.42000002 33724.88781674  2129.72676654
0.42100002 33884.85352339  2359.40246263
0.42200002 34042.62824779  2592.00583761
0.42300002 34197.58340473  2609.95968912
0.42400002 34350.34228294  2408.81786673
0.42500002 34501.22263017  2425.09105359
0.42600002 34648.42352999  2885.00112193
0.42700002 34794.48028100  3350.70860984
0.42800002 34937.61196106  2697.88252348
0.42900002 35078.67902487  2941.34737562
0.43000002 35217.18049509  2504.46990959
0.43100002 35351.68511775  2519.86823460
0.43200002 35484.39211757  2996.12479043
0.43300002 35614.08555928  3245.86791169
0.43400002 35741.39475341  3264.97656545
0.43500002 35865.31548173  2345.59174366
0.43600002 35987.47771927  4953.85648020
0.43700002 36105.86855867  3321.01794741
0.43800002 36220.47301663  3339.16556564
0.43900002 36333.34144154  2398.00064878
0.44000002 36442.45285394  2651.73520758
0.44100002 36549.19130916  3392.49609809
0.44200002 36652.62211809  3896.90696827
0.44300002 36753.19086108  2447.76262735
0.44400002 36850.07205713  2951.69091166
0.44500002 36943.10118111  3212.94166199
0.44600002 37033.83375334  2731.43053792
0.44700002 37121.65012052  3242.94750822
0.44800002 37204.93482237  3006.90297485
0.44900002 37286.62843058  4278.64081518
0.45000002 37364.66158445  2527.71947598
0.45100002 37438.12970321  2538.30531417
0.45200002 37509.35682567  3823.14137565
0.45300002 37576.53225520  3070.75436143
0.45400002 37641.12995901  2825.90796560
0.45500002 37702.23243804  3868.24923147
0.45600002 37759.76549148  3882.64807067
0.45700002 37813.84137547  3117.37323074
0.45800002 37863.94138444  3649.70548302
0.45900002 37911.06805361  3400.62296558
0.46000002 37955.46215517  3936.93049863
0.46100002 37995.16707769  3422.98476426
0.46200002 38032.41599088  3697.89198205
0.46300002 38065.86440772  4768.89171902
0.46400002 38095.41582359  3188.58645556
0.46500002 38122.53748909  3464.19514582
0.46600002 38145.29320100  2939.28570691
0.46700002 38164.71003129  2679.16277118
0.46800002 38181.35997897  2954.66468201
0.46900002 38193.94662228  3500.47537384
0.47000002 38202.61487131  4048.52230287
0.47100002 38208.46672216  3516.70744379
0.47200002 38210.64943893  2982.15027681
0.47300002 38210.22208063  2716.74691870
0.47400002 38204.70508667  3538.71097638
0.47500002 38197.07006017  3545.45221103
0.47600002 38186.37133029  4644.79949691
0.47700002 38170.90742383  3557.91044961
