# SAXS profile: number of points = 501, q_min = 0, q_max = 0.5, delta_q = 0.001
#    q    intensity    error
0.00000000 1682732.95097189 328.13292544
0.00100000 1682663.34695458 605.75881929
0.00200000 1682454.47917422 757.10453960
0.00300000 1682106.51617443 1211.11673479
0.00400000 1681619.33179007 1387.33600144
0.00500000 1680993.38966286 1512.89411058
0.00600000 1680228.41354379 2293.51187786
0.00700000 1679325.06948126 2619.74721727
0.00800000 1678282.78553383 2945.38641297
0.00900000 1677102.97720988 3521.91640269
0.01000000 1675784.75539724 3318.05395896
0.01100000 1674329.42159437 3315.17239910
0.01200000 1672736.34881773 4240.38683017
0.01300000 1671007.03935058 4210.93792489
0.01400000 1669140.68013065 4506.68003614
0.01500000 1667139.12230319 4801.36088603
0.01600000 1665001.15220138 5519.47906629
0.01700000 1662728.92867697 5387.24197058
0.01800000 1660322.03735606 5205.10982133
0.01900000 1657781.18474054 7460.01566795
0.02000000 1655107.07550780 6777.66378080
0.02100000 1652301.31532193 8178.89188166
0.02200000 1649362.06508030 6259.32932136
0.02300000 1646292.30682063 9482.64411892
0.02400000 1643091.87934195 7393.91379418
0.02500000 1639762.18471054 8313.59465617
0.02600000 1636303.33951729 7289.73171097
0.02700000 1632716.53464000 9600.37366339
0.02800000 1629001.50406236 7086.15686764
0.02900000 1625160.91486998 8775.86934323
0.03000000 1621195.10346887 9800.12485093
0.03100000 1617104.24184972 8538.31078984
0.03200000 1612889.43612379 10378.94399949
0.03300000 1608553.48657540 9023.98547570
0.03400000 1604094.36887924 10105.79499022
0.03500000 1599515.56853494 12092.33825653
0.03600000 1594816.69057050 8851.23304171
0.03700000 1589999.66223417 9969.29834326
0.03800000 1585065.73162768 9272.63495916
0.03900000 1580016.26813154 10428.10785259
0.04000000 1574850.17096304 10653.86190025
0.04100000 1569571.48602943 12854.79106661
0.04200000 1564180.43586825 11097.86070735
0.04300000 1558677.09410474 11315.99622847
0.04400000 1553065.20035219 10483.19058924
0.04500000 1547344.50072786 10676.67755111
0.04600000 1541515.22783875 11954.45114761
0.04700000 1535580.72236182 13267.41805825
0.04800000 1529541.04852799 15738.97812166
0.04900000 1523399.01780826 17138.23974809
0.05000000 1517154.16061918 13927.47584303
0.05100000 1510809.91070999 14141.18142300
0.05200000 1504364.56589230 14351.63862742
0.05300000 1497823.44159352 21838.26679649
0.05400000 1491185.04761770 17223.18810317
0.05500000 1484453.23970587 19951.05247235
0.05600000 1477626.51742760 15160.44877626
0.05700000 1470710.06197143 16633.73157734
0.05800000 1463702.28675992 15544.51901120
0.05900000 1456605.46450434 19664.17468924
0.06000000 1449422.14020182 13262.21320244
0.06100000 1442154.11213887 17435.64403055
0.06200000 1434801.80436184 17626.54099051
0.06300000 1427368.27049849 16443.28324495
0.06400000 1419851.69953609 17996.62113326
0.06500000 1412258.40139440 15379.49471060
0.06600000 1404586.30007064 14116.09297618
0.06700000 1396838.36142735 17097.30234401
0.06800000 1389017.55693859 18689.23210343
0.06900000 1381124.81516069 15951.99236196
0.07000000 1373159.43702637 16086.56355807
0.07100000 1365126.46003623 17692.03975073
0.07200000 1357024.81495603 17831.30690386
0.07300000 1348859.32627282 17966.80706780
0.07400000 1340629.21980166 22623.11914437
0.07500000 1332337.10723713 18226.37248132
0.07600000 1323982.88806205 18350.40368882
0.07700000 1315572.43518253 20009.85767736
0.07800000 1307103.60026647 21684.84974536
0.07900000 1298578.70810580 20257.82879662
0.08000000 1290001.82616145 20375.57980006
0.08100000 1281372.87094724 20489.15316776
0.08200000 1272692.70333837 20598.53237012
0.08300000 1263965.11047431 17518.55725335
0.08400000 1255189.82600461 20804.77234257
0.08500000 1246371.40349462 17686.01104586
0.08600000 1237508.78835113 19379.38853547
0.08700000 1228605.74105131 17839.35619776
0.08800000 1219660.78507708 19538.96669456
0.08900000 1210680.29911692 21247.44024749
0.09000000 1201662.59684025 24604.04282609
0.09100000 1192610.69050713 21395.43679288
0.09200000 1183525.49095161 21463.23578689
0.09300000 1174410.62121354 21526.94769844
0.09400000 1165263.98831245 16605.01261385
0.09500000 1156090.54157030 18312.47503921
0.09600000 1146891.04560328 18355.99204775
0.09700000 1137668.37605461 18396.09850565
0.09800000 1128423.71503353 18432.80225174
0.09900000 1119158.50588138 21823.59189089
0.10000000 1109872.87513147 20177.48981878
0.10100000 1100569.53148765 25258.07193557
0.10200000 1091250.60246469 16859.82260110
0.10300000 1081917.23397804 20253.49157281
0.10400000 1072572.23886813 21960.91762398
0.10500000 1063217.85584366 18595.68117362
0.10600001 1053850.88069032 21988.59966025
0.10700001 1044478.75843081 21996.72368767
0.10800001 1035098.86306229 18616.25392829
0.10900001 1025715.45024796 20309.16687077
0.11000001 1016328.81779757 18614.06317412
0.11100001 1006940.82492207 21991.58865152
0.11200001 997553.94309950 20290.24815785
0.11300001 988167.30716175 18587.42792282
0.11400001 978785.12101666 20260.85295902
0.11500001 969407.87335027 18554.46756962
0.11600001 960036.35467082 18533.50269969
0.11700001 950674.12046195 21875.01254203
0.11800001 941318.63669677 20163.04614769
0.11900001 931974.85333681 16775.54815022
0.12000001 922642.65800824 23444.35104433
0.12100001 913325.72329010 20056.63382828
0.12200001 904022.36348602 20015.05607052
0.12300001 894735.76980320 23298.92054339
0.12400001 885466.26376848 21583.24119630
0.12500001 876215.77376634 21528.62257588
0.12600001 866987.22662592 21470.93967918
0.12700001 857779.85908778 16469.37407063
0.12800001 848594.35753646 19704.36191065
0.12900001 839433.98535837 16368.96348599
0.13000001 830298.95883250 16315.37531008
0.13100001 821189.82794797 21137.42716775
0.13200001 812109.74165384 25922.54417559
0.13300001 803059.64295084 17755.64954270
0.13400001 794038.55722635 25726.85046704
0.13500001 785049.88499418 16015.01840896
0.13600001 776093.10465459 17543.58545791
0.13700001 767170.94691080 26996.74689478
0.13800001 758282.14951670 20553.23863185
0.13900001 749431.87917440 18885.68424581
0.14000001 740617.20930733 23496.08207336
0.14100001 731841.26255423 20264.68551587
0.14200001 723103.33750184 20163.73751727
0.14300001 714408.31400981 18517.46437256
0.14400001 705750.01089344 23025.09519149
0.14500001 697138.03846722 18320.78851515
0.14600001 688566.65452974 21256.05362807
0.14700001 680041.84914071 15096.92976314
0.14800001 671559.93512866 21013.11136155
0.14900001 663123.23604787 22380.41027254
0.15000001 654734.15750762 16312.70230398
0.15100001 646392.27636360 19159.06797544
0.15200001 638099.82651629 19037.70922245
0.15300001 629856.27558853 16004.64871795
0.15400001 621660.57348722 14453.60901566
0.15500001 613517.48019365 20098.83359967
0.15600001 605423.82502763 15683.50492752
0.15700001 597385.81663753 16989.65342703
0.15800001 589395.85197674 19679.92842637
0.15900001 581462.57524516 15350.61271103
0.16000001 573580.86766053 19392.77005099
0.16100001 565757.14654668 15122.68924105
0.16200001 557986.35014146 23192.70373847
0.16300001 550272.77565498 16244.05310418
0.16400001 542615.16150537 17458.64364565
0.16500001 535015.00074146 14654.06156215
0.16600001 527471.77922135 18498.43617066
0.16700001 519986.62679920 15724.39633683
0.16800001 512558.54178843 12993.35964784
0.16900001 505191.98414049 19323.59430580
0.17000001 497883.66778607 22987.29002714
0.17100001 490635.30364571 15190.06971817
0.17200001 483447.34035274 13800.00498205
0.17300001 476319.93540237 14918.34108131
0.17400001 469254.46499866 19708.68846071
0.17500001 462249.73586608 20745.76912544
0.17600001 455304.82072300 13297.17791723
0.17700001 448424.27320132 20353.97872194
0.17800001 441605.08732025 14228.51658550
0.17900001 434848.27396491 16437.26553226
0.18000001 428155.12749806 11624.41226065
0.18100001 421525.86648407 17261.48504789
0.18200001 414956.98102207 15946.79753397
0.18300001 408454.24309226 15782.67269865
0.18400001 402013.67770758 14502.64410842
0.18500001 395637.73245908 12142.12258279
0.18600001 389325.48293323 12012.63834342
0.18700001 383076.99959286 11883.04908878
0.18800001 376892.09536124 10684.89140831
0.18900001 370773.62069848 14793.86816484
0.19000001 364715.29779678 13583.82190826
0.19100001 358726.39701940 11364.45279455
0.19200001 352798.48902057 13277.57176167
0.19300001 346937.31397690 11105.46394516
0.19400001 341139.46547264 10976.16282025
0.19500001 335406.58603424 10847.04950493
0.19600001 329737.16384935 10718.10701742
0.19700001 324133.01263595 14440.12639534
0.19800001 318593.10791026 15216.00755288
0.19900001 313118.42987797 14090.33001042
0.20000001 307705.88433240 11132.79942130
0.20100001 302359.50620279 10993.79216513
0.20200001 297075.70119651 9950.55108187
0.20300001 291856.94420019 12503.15208049
0.20400001 286701.81948691 8816.08136592
0.20500001 281609.65369529 11312.26032364
0.20600001 276581.50169661 12022.99844705
0.20700001 271616.56118356 11864.21195331
0.20800001 266714.45865397 9197.64854146
0.20900001 261877.60466126 9074.05943046
0.21000001 257101.21366781 9764.70455670
0.21100001 252387.51373448 12841.47730587
0.21200001 247736.15514349 11872.75579653
0.21300001 243146.58292376 8585.50624892
0.21400001 238620.01122456 12312.79316129
0.21500001 234155.47093019 8345.30137850
0.21600001 229750.57077957 7478.38143244
0.21700001 225407.67582863 8107.91448289
0.21800001 221125.45163925 10895.95714469
0.21900001 216902.55791726 10020.89864958
0.22000001 212739.54360489 7757.54782435
0.22100001 208638.81579602 9031.97476287
0.22200001 204596.32857580 8212.49701736
0.22300001 200612.92036651 7414.65388735
0.22400001 196686.61951978 8629.62583949
0.22500001 192821.91805819 8497.66233066
0.22600001 189013.41797149 8366.67934215
0.22700001 185263.67675718 9504.02706708
0.22800001 181570.63562913 6236.95162881
0.22900001 177934.12057925 7980.34568538
0.23000001 174354.52031826 6041.38441474
0.23100001 170832.55654288 7728.46522350
0.23200001 167364.44896182 7019.26532143
0.23300001 163952.92415959 6330.22270119
0.23400001 160596.42445074 7359.33149852
0.23500001 157293.12766277 10579.53626697
0.23600001 154045.02850089 6571.56122666
0.23700001 150850.42308563 6462.43243065
0.23800001 147708.97218590 5824.90359366
0.23900001 144620.69198655 6768.24870511
0.24000001 141584.53245073 6141.93730823
0.24100001 138601.37497610 5534.35316458
0.24200001 135669.19675639 5439.65670125
0.24300001 132787.96732189 6318.05178404
0.24400001 129956.93367457 9551.83507692
0.24500001 127176.44488918 5162.09214224
0.24600001 124445.69118849 5071.78438431
0.24700001 121765.00946343 5888.55613622
0.24800001 119131.88671118 7119.32188665
0.24900001 116547.10854779 6992.82684368
0.25000001 114010.74752733 5151.00581697
0.25100001 111521.00157809 5901.69168272
0.25200001 109079.25776201 4967.46963349
0.25300001 106683.91437124 4471.12306283
0.25400001 104333.70395340 4389.84080153
0.25500001 102029.03254727 4701.49804222
0.25600001 99769.87280496  6538.41892362
0.25700001 97554.99502087  4152.91633453
0.25800001 95383.70009568  4076.22261645
0.25900001 93256.47595150  4364.40328103
0.26000001 91172.67956692  4283.29268872
0.26100001 89129.32828192  4903.89587410
0.26200001 87130.49095926  5155.94704648
0.26300001 85171.92867363  4047.37024208
0.26400001 83254.24383093  4302.16325353
0.26500001 81378.03623640  3246.98379948
0.26600001 79541.02057121  3822.74162954
0.26700001 77744.64197831  4375.46865759
0.26800001 75987.22468438  4599.12699166
0.26900001 74267.85391365  3910.20269359
0.27000001 72587.19686755  4130.93756922
0.27100001 70944.10401087  3762.87545481
0.27200001 69338.64165513  2839.41751015
0.27300001 67769.25097581  3063.84798161
0.27400001 66235.08833922  3551.85678028
0.27500001 64739.02191512  2948.21519754
0.27600001 63276.03689656  3154.94334897
0.27700001 61849.56153889  2579.12683823
0.27800001 60456.39051612  3036.12007541
0.27900001 59097.59452750  3226.72881392
0.28000001 57771.82612396  2922.09910365
0.28100001 56478.85183840  2389.05554584
0.28200001 55218.82321760  2344.03915653
0.28300001 53990.71359337  2760.00540952
0.28400001 52794.18771685  2482.64679489
0.28500001 51628.99430104  2657.86075242
0.28600001 50493.58566287  2608.49875881
0.28700001 49388.92533666  2773.68217819
0.28800001 48313.26029212  2094.37993280
0.28900001 47268.31182120  2673.02316001
0.29000001 46250.72488461  2422.61308413
0.29100001 45262.90054404  2180.76665144
0.29200001 44302.19710338  1947.08165486
0.29300001 43369.05389221  1912.57536718
0.29400001 42462.68644435  2254.76875693
0.29500001 41584.21743532  2215.60720983
0.29600001 40730.63763013  2358.91499001
0.29700001 39902.74378015  2318.74855083
0.29800001 39100.78467535  2104.40433085
0.29900001 38323.63614278  2069.47644968
0.30000001 37570.70379575  2205.21256369
0.30100001 36842.86810690  2002.77840510
0.30200001 36137.48247243  2627.91784980
0.30300001 35455.90245821  2101.82599723
0.30400001 34797.91948659  2388.00733782
0.30500001 34161.02764642  2195.18774048
0.30600001 33546.64921091  2008.27025009
0.30700001 32954.37285977  2283.73814730
0.30800001 32383.14033109  2251.43793811
0.30900001 31832.72314935  1480.22169652
0.31000001 31303.64737006  1752.37826274
0.31100001 30793.06453889  1585.22703751
0.31200001 30303.35833632  1565.01701538
0.31300001 29832.38998750  1405.10563494
0.31400001 29381.90763352  1665.95424170
0.31500001 28949.10576546  1509.40644608
0.31600002 28534.61295532  1492.50300129
0.31700002 28137.69786345  1879.03555229
0.31800002 27758.73797384  1992.38351241
0.31900002 27397.18110110  1446.57123063
0.32000002 27052.28293370  1563.08098192
0.32100002 26724.20717240  1548.93512105
0.32200002 26412.53452160  1407.65609398
0.32300002 26115.96877784  1776.93059978
0.32400002 25835.24980759  1763.25588286
0.32500002 25569.42335074  1875.51729159
0.32600002 25318.85992102  1738.64619311
0.32700002 25082.72195813  1604.29097241
0.32800002 24861.48492817  1840.37150895
0.32900002 24652.95430493  1342.35342547
0.33000002 24459.64001082  1821.63177607
0.33100002 24277.17038678  1329.90345676
0.33200002 24110.22039185  1565.59723528
0.33300002 23954.68349400  1800.19454982
0.33400002 23812.26996254  1316.22328451
0.33500002 23681.39230906  1312.89645179
0.33600002 23562.32919933  2024.82885563
0.33700002 23454.10224760  1545.85995235
0.33800002 23358.60173369  1187.78495441
0.33900002 23272.68105493  1305.59746901
0.34000002 23198.24189553  1186.59012915
0.34100002 23133.91930093  1424.12413961
0.34200002 23080.71646602  2018.75496131
0.34300002 23035.96774889  1188.65599214
0.34400002 23001.77703668  1666.47882523
0.34500002 22976.38994902  1430.96963380
0.34600002 22961.45624669  1673.20139594
0.34700002 22953.17101029  1557.60225853
0.34800002 22955.17516381  1682.38486744
0.34900002 22965.07070294  1205.66626901
0.35000002 22983.13341372  1452.07443785
0.35100002 23009.20812839  1214.88624672
0.35200002 23042.07485584  2074.13246639
0.35300002 23082.89974652  1470.84244151
0.35400002 23131.29517316  1354.91567894
0.35500002 23186.24038372  1609.58888367
0.35600002 23247.58248889  1618.38053162
0.35700002 23315.57030291  1377.25080303
0.35800002 23390.53147033  2015.32828694
0.35900002 23470.99270172  1394.17703252
0.36000002 23558.13251864  1658.37481720
0.36100002 23650.01808647  1669.45485580
0.36200002 23748.58683884  1551.73273755
0.36300002 23850.61106512  1823.14079617
0.36400002 23958.59019143  1705.25273765
0.36500002 24070.97651406  1585.79600786
0.36600002 24188.71190958  1731.06524981
0.36700002 24310.38884424  1476.12688054
0.36800002 24437.84203699  1352.63462082
0.36900002 24568.31066758  2454.37435195
0.37000002 24701.91788109  1512.12797472
0.37100002 24839.80721392  1663.27356983
0.37200002 24981.73070477  1677.27347897
0.37300002 25126.41361515  1832.46943176
0.37400002 25275.49334563  1848.27053845
0.37500002 25426.45163909  1577.45713442
0.37600002 25581.42400468  1446.62959599
0.37700002 25737.95281172  1605.27619291
0.37800002 25897.96994848  2208.44949198
0.37900002 26060.31672628  2079.61337327
0.38000002 26225.01743722  2098.26374455
0.38100002 26391.37877306  1663.44868287
0.38200002 26559.99582530  1525.87183245
0.38300002 26730.31199011  1539.66604357
0.38400002 26902.92737462  1864.37295538
0.38500002 27076.05600290  1881.24446020
0.38600002 27251.83552041  2372.95369036
0.38700002 27427.85978179  2075.19196940
0.38800002 27605.06675778  1771.83129379
0.38900002 27783.39872302  2112.92757299
0.39000002 27963.48341947  2460.08757038
0.39100002 28143.33444967  2316.75940166
0.39200002 28324.55644154  2170.65248574
0.39300002 28505.71463589  2190.09415924
0.39400002 28688.35193677  2209.72041262
0.39500002 28870.20640008  2057.86840969
0.39600002 29052.43773520  2076.08729892
0.39700002 29234.45246961  2268.88596366
0.39800002 29417.48785775  2464.89142438
0.39900002 29599.37345886  2663.94373751
0.40000002 29781.11627615  2149.60107466
0.40100002 29962.41770206  1806.73387304
0.40200002 30144.31603467  2186.66878876
0.40300002 30324.60000812  1837.67084756
0.40400002 30504.36410939  1853.14020745
0.40500002 30683.50153228  2242.35039822
0.40600002 30862.06922636  2449.36824020
0.40700002 31039.44016212  2659.45935910
0.40800002 31216.15413513  2298.13337632
0.40900002 31390.96734939  2316.65350015
0.41000002 31565.58927153  2335.22240496
0.41100002 31738.54641505  1961.44226139
0.41200002 31909.49906755  1976.79356090
0.41300002 32079.66563578  2191.36206341
0.41400002 32248.10304791  2810.42231379
0.41500002 32415.54909195  2427.27643102
0.41600002 32580.13252766  2445.46486340
0.41700002 32743.82932273  2258.34201540
0.41800002 32906.60874387  2688.63459482
0.41900002 33065.57185581  2291.44423819
0.42000002 33223.39473742  3147.08621563
0.42100002 33379.82264527  3592.00288506
0.42200002 33534.10019313  2553.28650969
0.42300002 33685.69354521  2142.41021099
0.42400002 33835.19073157  3235.49026702
0.42500002 33982.93907356  2388.66090067
0.42600002 34127.14105407  2185.84348809
0.42700002 34270.33859134  2640.18701019
0.42800002 34410.67030563  3100.05743474
0.42900002 34549.06504233  3342.62220124
0.43000002 34685.00544740  3139.33999181
0.43100002 34817.10012623  2707.37783411
0.43200002 34947.52484765  2950.79440034
0.43300002 35075.07300149  2511.72609666
0.43400002 35200.32560895  2296.82135483
0.43500002 35322.36915449  2541.09135739
0.43600002 35442.71827252  2555.59732215
0.43700002 35559.35052492  2336.24944020
0.43800002 35672.48346433  2349.03314745
0.43900002 35783.94748511  3070.26283972
0.44000002 35891.74132582  2611.66268134
0.44100002 35997.35937023  2863.95004722
0.44200002 36099.76086894  2398.82922342
0.44300002 36199.44214664  3134.14784958
0.44400002 36295.60363686  2665.00482333
0.44500002 36387.97342335  2921.22664487
0.44600002 36478.16492844  2690.44718180
0.44700002 36565.56112841  2948.64698914
0.44800002 36648.70787068  2468.29059207
0.44900002 36730.24961743  2975.15036001
0.45000002 36808.26061253  3486.11052783
0.45100002 36881.91797947  2750.65357327
0.45200002 36953.37495907  3264.27653171
0.45300002 37020.98441761  2773.24207415
0.45400002 37086.13344574  3037.35447316
0.45500002 37147.87792749  3049.09796480
0.45600002 37206.13700451  3570.67313755
0.45700002 37261.19886352  3583.78227654
0.45800002 37312.36540759  3082.74777608
0.45900002 37360.63174860  3351.24882668
0.46000002 37406.31751000  3103.97637409
0.46100002 37447.56110467  4152.18577208
0.46200002 37486.32907343  2863.76824529
0.46300002 37521.44822648  3133.79150440
0.46400002 37552.78707950  3928.96053441
0.46500002 37581.84562774  3677.75958744
0.46600002 37606.67554515  2897.78252147
0.46700002 37628.27490899  2905.65552619
0.46800002 37647.20578219  3443.02536800
0.46900002 37662.18232895  2920.70237804
0.47000002 37673.46855984  2927.79374790
0.47100002 37681.97043682  2667.88363338
0.47200002 37686.94675640  3208.66679892
0.47300002 37689.31564230  3483.62360993
0.47400002 37686.86864382  3222.22742177
0.47500002 37682.31255814  3497.67241743
0.47600002 37674.83865554  3504.32528364
0.47700002 37662.76666096  2970.46254734
