# SAXS profile: number of points = 501, q_min = 0, q_max = 0.5, delta_q = 0.001
#    q    intensity    error
0.00000000 1700912.83420644 306.16431016
0.00100000 1700842.71957215 510.25282799
0.00200000 1700632.31966399 1071.39839531
0.00300000 1700281.80938413 1326.21985856
0.00400000 1699791.04609559 1529.81199962
0.00500000 1699160.52351858 2599.71570388
0.00600000 1698389.92173991 2139.97138852
0.00700000 1697479.92381131 2444.37119188
0.00800000 1696430.01943489 2519.19868522
0.00900000 1695241.54706806 3305.72115809
0.01000000 1693913.62646592 3074.45336479
0.01100000 1692447.56471268 3655.68689895
0.01200000 1690842.82516799 4945.71548046
0.01300000 1689100.81528096 5675.37898966
0.01400000 1687220.69228487 4555.49607112
0.01500000 1685204.42149620 5662.28710836
0.01600000 1683050.68483352 4720.95738200
0.01700000 1680761.74081120 4538.05690376
0.01800000 1678337.08568131 5739.91309131
0.01900000 1675777.53094694 7540.99922953
0.02000000 1673083.56705417 5797.23482208
0.02100000 1670257.11513113 6063.03360281
0.02200000 1667296.14624288 6327.38916246
0.02300000 1664203.63628028 7788.47337231
0.02400000 1660979.49138204 7474.40805203
0.02500000 1657625.11637010 7757.68589891
0.02600000 1654140.58544839 6699.26967748
0.02700000 1650527.20485247 9011.87895125
0.02800000 1646784.49314444 10745.26931054
0.02900000 1642915.33616843 10350.36709309
0.03000000 1638919.93263358 7620.97803705
0.03100000 1634798.60893180 8631.73705233
0.03200000 1630552.30579256 12106.85142813
0.03300000 1626183.91523070 9122.89218501
0.03400000 1621691.47819287 10216.65678402
0.03500000 1617078.35057956 10478.66819564
0.03600000 1612344.14078601 12527.91455287
0.03700000 1607490.98925299 12827.77868749
0.03800000 1602519.85784411 12187.16408292
0.03900000 1597432.29998925 11501.51309256
0.04000000 1592227.44936527 13709.07897430
0.04100000 1586908.71709403 12996.78299562
0.04200000 1581476.78430040 15300.78859795
0.04300000 1575931.91762607 11441.26625305
0.04400000 1570277.25841582 11659.30918522
0.04500000 1564513.18424186 11874.65562015
0.04600000 1558639.47338955 12087.24967803
0.04700000 1552659.56990243 13414.97930786
0.04800000 1546573.85047650 13640.78199588
0.04900000 1540384.70929248 15018.75161469
0.05000000 1534092.15114285 12909.38605301
0.05100000 1527699.11654510 16682.47512981
0.05200000 1521204.08683270 14512.28766468
0.05300000 1514612.56338610 18402.54350303
0.05400000 1507922.78990066 14928.43631619
0.05500000 1501138.88248342 17653.39408152
0.05600000 1494259.21581917 21719.05871543
0.05700000 1487289.07944215 12939.41559514
0.05800000 1480226.71149073 17030.00911087
0.05900000 1473074.39650514 19886.50528164
0.06000000 1465834.97283403 18777.34687926
0.06100000 1458510.06839648 14920.55869695
0.06200000 1451099.82380886 16455.47277118
0.06300000 1443607.80524698 16630.36269400
0.06400000 1436031.89734351 16801.57398467
0.06500000 1428378.51739223 16969.13758040
0.06600000 1420645.57045852 14277.48865113
0.06700000 1412836.01932822 18734.20649303
0.06800000 1404953.17229857 20357.77241953
0.06900000 1396997.15893085 14668.47085554
0.07000000 1388968.10572143 20709.51542610
0.07100000 1380870.61392735 25352.78565917
0.07200000 1372703.80736631 22546.66109223
0.07300000 1364472.37067926 16660.20842662
0.07400000 1356175.79795860 18308.37413045
0.07500000 1347816.46518514 19974.64095030
0.07600000 1339394.28653974 18564.00568173
0.07700000 1330915.07489303 17128.87781702
0.07800000 1322377.12188464 15670.16962920
0.07900000 1313782.30275495 22071.54372152
0.08000000 1305134.89556025 19028.86766993
0.08100000 1296435.18309166 17540.76885021
0.08200000 1287683.11043600 19237.98657266
0.08300000 1278883.04869660 22559.49803777
0.08400000 1270034.72447468 19431.53219655
0.08500000 1261142.83051238 21149.36626055
0.08600000 1252206.02593339 22877.80516795
0.08700000 1243228.15699338 18051.67368721
0.08800000 1234208.03808837 21419.68150697
0.08900000 1225151.39468396 21501.40798662
0.09000000 1216057.46303934 16599.18515024
0.09100000 1206928.40340288 18321.17402441
0.09200000 1197765.78886324 20050.60024768
0.09300000 1188573.05950983 23462.43329727
0.09400000 1179348.02786126 18486.28120553
0.09500000 1170095.55133843 20219.25207749
0.09600000 1160816.19255502 21956.83931432
0.09700000 1151513.94206576 18619.98131858
0.09800000 1142188.74661658 22049.95479017
0.09900000 1132842.71804403 18691.90572667
0.10000000 1123475.43228083 20424.78431939
0.10100000 1114090.37909624 28977.49212316
0.10200000 1104689.49376102 18774.19882954
0.10300000 1095273.50819031 22212.14779098
0.10400000 1085845.37761191 22232.68515254
0.10500000 1076407.60368746 17114.88170387
0.10600001 1066956.86280896 17124.65845386
0.10700001 1057500.35530217 17131.50656206
0.10800001 1048035.78540155 18848.92448751
0.10900001 1038567.57385086 18850.00235258
0.11000001 1029095.77959636 23988.22375151
0.11100001 1019622.05580990 17129.65134396
0.11200001 1010149.33987583 22258.64175204
0.11300001 1000676.04569907 18822.71730579
0.11400001 991207.44427168 17098.32921875
0.11500001 981743.17698752 18790.56529235
0.11600001 972284.51526181 20476.31285567
0.11700001 962834.59003407 18746.39035082
0.11800001 953391.82039238 20421.65375463
0.11900001 943959.96563904 23787.79225455
0.12000001 934539.61359551 23746.65270005
0.12100001 925134.10270079 16929.95487696
0.12200001 915741.81875215 18584.98108714
0.12300001 906366.72567889 18544.26408109
0.12400001 897008.08105024 25228.35346823
0.12500001 887668.22078843 16776.93016344
0.12600001 878350.11115654 18405.82744663
0.12700001 869053.32258126 23360.15441186
0.12800001 859778.06362681 28282.40073593
0.12900001 850527.60788885 18243.81804909
0.13000001 841302.64545261 24797.39664354
0.13100001 832102.89781181 19770.76578396
0.13200001 822932.46158257 16417.50338250
0.13300001 813792.05531366 19628.66529952
0.13400001 804680.35833061 16294.77802442
0.13500001 795601.02435135 17853.28782819
0.13600001 786553.29269789 22629.13929790
0.13700001 777540.29692570 16095.08490530
0.13800001 768560.78598022 19229.39177200
0.13900001 759619.55093267 17547.21245404
0.14000001 750713.84056332 19053.11817205
0.14100001 741846.89264573 20541.74142617
0.14200001 733017.82096449 22012.52620179
0.14300001 724231.96746828 21900.77572925
0.14400001 715482.71052994 17117.92465688
0.14500001 706779.42722588 27861.24633552
0.14600001 698117.06954803 20011.52674262
0.14700001 689501.41509543 18368.31856470
0.14800001 680928.39846635 15218.75042372
0.14900001 672400.66224673 16641.91717579
0.15000001 663920.97916259 21052.93524258
0.15100001 655488.15601110 22417.69599336
0.15200001 647104.95004086 16336.16523464
0.15300001 638770.78049975 22133.40858877
0.15400001 630484.55885957 14658.76668525
0.15500001 622251.10548648 21841.01483332
0.15600001 614067.22839129 15907.41230223
0.15700001 605938.96522609 15796.82956900
0.15800001 597859.08864307 15684.83393085
0.15900001 589835.79271209 14156.05969326
0.16000001 581864.27842368 16862.42758467
0.16100001 573950.98796319 19525.81353221
0.16200001 566090.69958018 15225.01008392
0.16300001 558287.97409046 21974.21569756
0.16400001 550541.18207153 13625.89489954
0.16500001 542852.31308716 17572.13020423
0.16600001 535220.24827458 14747.99463750
0.16700001 527646.42083514 13296.69043285
0.16800001 520130.46304363 14503.83864679
0.16900001 512675.92645514 13073.23674190
0.17000001 505279.91887755 15552.51663744
0.17100001 497944.18777782 16701.04884671
0.17200001 490668.73392048 16552.71052047
0.17300001 483454.26911109 15141.78842362
0.17400001 476302.28079169 17504.10964574
0.17500001 469211.07265160 13625.89019332
0.17600001 462180.09521740 13497.97031832
0.17700001 455213.76370795 17015.89129107
0.17800001 448309.08057116 14444.51925825
0.17900001 441467.06642968 11919.61135661
0.18000001 434688.84850053 17702.70419137
0.18100001 427975.15217105 15188.83886802
0.18200001 421321.95087517 11565.28809784
0.18300001 414735.44866757 12591.36881636
0.18400001 408211.14919992 13593.43191052
0.18500001 401752.41419075 12329.78217400
0.18600001 395357.23687823 11089.77101835
0.18700001 389026.27687265 15358.75813655
0.18800001 382759.19004981 18447.08003600
0.18900001 376559.18645341 13951.51851727
0.19000001 370419.66156698 13796.28094692
0.19100001 364349.78623949 10493.27433951
0.19200001 358341.45651052 12448.78278740
0.19300001 352400.31629476 15382.27453312
0.19400001 346522.82267822 12162.95165075
0.19500001 340710.85721527 13021.96957812
0.19600001 334962.71748529 9898.14876944
0.19700001 329279.98428226 9779.61599534
0.19800001 323662.36772467 10627.45434648
0.19900001 318110.32737218 9543.31027218
0.20000001 312620.83711869 10368.07055305
0.20100001 307198.09175544 11169.72314413
0.20200001 301838.29333628 11029.17175978
0.20300001 296544.00325331 9981.67162129
0.20400001 291313.76357964 9853.68851882
0.20500001 286147.08120929 10610.33427276
0.20600001 281044.94310979 8726.44589604
0.20700001 276006.37273628 12055.95893100
0.20800001 271031.17826955 11045.87619252
0.20900001 266121.81151797 11735.97244272
0.21000001 261273.23424213 10750.08773107
0.21100001 256488.20436843 9787.59034139
0.21200001 251765.86419049 10457.09566351
0.21300001 247105.98838104 11104.94364284
0.21400001 242509.27425581 10949.29425029
0.21500001 237975.36603355 7710.40222402
0.21600001 233501.59841929 10640.66834304
0.21700001 229090.27544745 8989.50283358
0.21800001 224740.39155963 7382.72221179
0.21900001 220450.24987749 7274.85858992
0.22000001 216220.60744724 12901.88425641
0.22100001 212053.99496572 8473.67803950
0.22200001 207945.79961220 9042.52352371
0.22300001 203897.51490711 9591.33955476
0.22400001 199906.88678871 8096.22929778
0.22500001 195978.18520833 7308.02687200
0.22600001 192106.49859224 10465.96253822
0.22700001 188294.21637524 7083.62875502
0.22800001 184539.01126087 8240.58993755
0.22900001 180840.99311629 8110.71892483
0.23000001 177200.61730873 7368.00201614
0.23100001 173618.40509505 6646.11286135
0.23200001 170090.41751077 7728.05848509
0.23300001 166620.03370659 6433.19980567
0.23400001 163204.91275011 8054.16282514
0.23500001 159843.58734733 5658.46325972
0.23600001 156538.28488728 6121.42992004
0.23700001 153286.89338745 6019.57658804
0.23800001 150089.55136102 5918.78173787
0.23900001 146945.69032060 5819.04961193
0.24000001 143854.68903398 5720.38198001
0.24100001 140817.22290761 5622.83197667
0.24200001 137831.28810643 6531.13589586
0.24300001 134897.19820421 5430.96145660
0.24400001 132013.76313633 6306.95783218
0.24500001 129181.46173929 6196.83501277
0.24600001 126399.43901078 4683.09943688
0.24700001 123668.22580540 7360.73314814
0.24800001 120985.21394047 5874.43734078
0.24900001 118351.09947485 5769.61637234
0.25000001 115765.91865767 4358.58704366
0.25100001 113228.16799409 5136.02994319
0.25200001 110739.05024697 5043.05658683
0.25300001 108296.77315185 4538.71797752
0.25400001 105900.41191678 4050.69094746
0.25500001 103550.23757115 5169.22810412
0.25600001 101246.08950992 5854.55540291
0.25700001 98986.66842530  4596.94109917
0.25800001 96771.95641248  6391.30416366
0.25900001 94601.50301972  4058.40467157
0.26000001 92475.11797813  3620.40104014
0.26100001 90389.91238617  3552.32372486
0.26200001 88349.98640061  4182.48855411
0.26300001 86350.84041413  4103.39213064
0.26400001 84393.02954874  4361.01000829
0.26500001 82477.41446691  4278.10369083
0.26600001 80601.66983466  3873.71643556
0.26700001 78767.04066726  3799.72222159
0.26800001 76972.23841607  3726.99596047
0.26900001 75215.86231595  3655.49108154
0.27000001 73498.79093440  3884.04379073
0.27100001 71820.11581498  3223.28695031
0.27200001 70179.42199075  4310.77119978
0.27300001 68575.60325617  3663.99465537
0.27400001 67007.49420230  4422.49482665
0.27500001 65478.18200936  3252.95623617
0.27600001 63982.46225996  3190.16571926
0.27700001 62523.81005014  3389.41590323
0.27800001 61099.12151245  2812.69819194
0.27900001 59709.37570649  3009.35267803
0.28000001 58353.35002695  2705.55320205
0.28100001 57030.68498031  2412.39808884
0.28200001 55741.50672956  3549.34060899
0.28300001 54484.71266168  2321.04886924
0.28400001 53260.28732116  2959.94060797
0.28500001 52067.62785748  2457.07147489
0.28600001 50905.44523444  2848.92337739
0.28700001 49774.39202298  2580.30460460
0.28800001 48672.98400553  2109.97395651
0.28900001 47603.06791574  3106.10032853
0.29000001 46560.90960866  2235.62218068
0.29100001 45548.91124531  2992.56361047
0.29200001 44564.85352005  3525.52572885
0.29300001 43608.68706516  2884.71478591
0.29400001 42679.99696724  2266.30794624
0.29500001 41779.50101109  2226.01191924
0.29600001 40904.82536460  2004.54106188
0.29700001 40056.16002869  2685.76565706
0.29800001 39233.93114765  2463.49865338
0.29900001 38437.00936157  1729.66550315
0.30000001 37665.04070584  2380.80733572
0.30100001 36918.66904050  2006.89894405
0.30200001 36195.14997037  1974.08357284
0.30300001 35495.78635510  1780.46872786
0.30400001 34820.69123535  1752.35136938
0.30500001 34167.31129031  1725.10762872
0.30600001 33536.71247138  1853.23881891
0.30700001 32928.79575458  2281.96565383
0.30800001 32342.44860284  1648.97982008
0.30900001 31777.48437597  1920.94902147
0.31000001 31234.16640326  1602.78132487
0.31100001 30709.91962731  2012.11402925
0.31200001 30206.99362317  2269.14946841
0.31300001 29723.38501467  2239.95440076
0.31400001 29260.69734964  2073.85202285
0.31500001 28815.93456664  1775.63797207
0.31600002 28390.24992584  1889.93902705
0.31700002 27982.24843317  2269.08063288
0.31800002 27592.84875096  1320.31787525
0.31900002 27221.30277120  1567.94711386
0.32000002 26866.92529615  1423.00676569
0.32100002 26529.76424508  1793.94274320
0.32200002 26209.18266777  1523.80195246
0.32300002 25904.23680271  1636.62975869
0.32400002 25615.74224769  1248.76749371
0.32500002 25342.38245599  1611.01532901
0.32600002 25084.78882161  1476.49073995
0.32700002 24841.87627089  1588.88648152
0.32800002 24614.37112356  1579.13505421
0.32900002 24399.87419483  1811.69074476
0.33000002 24201.13865339  1321.74525014
0.33100002 24013.48814620  1793.80764947
0.33200002 23841.88307717  1905.44338576
0.33300002 23681.79230766  1186.45785080
0.33400002 23535.34878828  1537.44673240
0.33500002 23400.75551578  1651.15738739
0.33600002 23278.45894375  1647.41661747
0.33700002 23167.19958778  2114.23873450
0.33800002 23068.95279505  1407.66756622
0.33900002 22980.93054356  1289.23026455
0.34000002 22904.25172422  1405.86303741
0.34100002 22838.37893504  1523.09156331
0.34200002 22783.87180812  1875.56841607
0.34300002 22738.04332289  1290.61140013
0.34400002 22703.13497037  1292.37601939
0.34500002 22677.41382791  1294.65361675
0.34600002 22662.28831528  1415.48659521
0.34700002 22654.10762763  1537.30781642
0.34800002 22656.58711687  1423.28687009
0.34900002 22667.13310795  1428.02945343
0.35000002 22686.31260803  1313.87785692
0.35100002 22713.62600290  1319.20746073
0.35200002 22747.99314713  1324.95692361
0.35300002 22790.57391198  1694.25134486
0.35400002 22841.09556764  1459.54607590
0.35500002 22898.33876153  1345.04848256
0.35600002 22962.23437601  1475.55325089
0.35700002 23033.01527968  1360.56027701
0.35800002 23110.92704865  1244.52348052
0.35900002 23194.64919804  1252.51111602
0.36000002 23285.14849019  1260.89085047
0.36100002 23380.74863877  1777.40459571
0.36200002 23483.13045688  1406.52216534
0.36300002 23589.33274981  1674.37091789
0.36400002 23701.53565244  1427.42505228
0.36500002 23818.36385693  1438.39106145
0.36600002 23940.73439828  1449.73124016
0.36700002 24067.31401292  1727.07053538
0.36800002 24199.76481466  1339.45704594
0.36900002 24335.40148062  1485.67633077
0.37000002 24474.36771627  1634.39835351
0.37100002 24617.64756073  1785.76423865
0.37200002 24765.39382216  1939.87338998
0.37300002 24915.89298793  1537.55982912
0.37400002 25070.91433075  1692.28679749
0.37500002 25227.89157317  1565.13846734
0.37600002 25389.17989783  2153.63728685
0.37700002 25552.04394764  1883.44124860
0.37800002 25718.53854272  2193.14847812
0.37900002 25887.57797103  1918.26961853
0.38000002 26058.97352065  2382.83265161
0.38100002 26232.12598007  1503.10088986
0.38200002 26407.76922691  1668.83905535
0.38300002 26585.10643682  2143.82308463
0.38400002 26764.85229329  1545.67029316
0.38500002 26945.36266158  1716.15022922
0.38600002 27128.43801524  2204.72826195
0.38700002 27311.79919470  1748.50146728
0.38800002 27496.47221239  1925.30307552
0.38900002 27682.55334140  1619.42944719
0.39000002 27870.14016962  1634.58379839
0.39100002 28057.59505623  1649.78666747
0.39200002 28246.58258806  2497.70418368
0.39300002 28435.67832502  1848.60353549
0.39400002 28626.07064363  2374.53267239
0.39500002 28815.88927686  2225.16307538
0.39600002 29006.01720538  2245.50092834
0.39700002 29195.95490562  2614.49788567
0.39800002 29387.15910041  1934.70371104
0.39900002 29577.07789308  2307.01218496
0.40000002 29766.78668446  1969.51953429
0.40100002 29956.25683297  2167.63484713
0.40200002 30146.27068654  2551.27900908
0.40300002 30334.74128016  2389.77103128
0.40400002 30522.65560080  2595.95198184
0.40500002 30709.92798144  1870.23470268
0.40600002 30896.64250412  2263.48813710
0.40700002 31082.15848579  2663.11946524
0.40800002 31266.96437335  1918.22835519
0.40900002 31449.95239769  2127.58938051
0.41000002 31632.68007422  2145.17030088
0.41100002 31813.79443625  1966.09258932
0.41200002 31992.77867444  2180.14800607
0.41300002 32171.06949666  2597.17056353
0.41400002 32347.51998032  2819.08649986
0.41500002 32522.98390599  2841.20800865
0.41600002 32695.55237194  2863.14965688
0.41700002 32867.19956494  2679.00556348
0.41800002 33037.88657642  2907.00377760
0.41900002 33204.64763573  2091.89290017
0.42000002 33370.42286161  2739.54499464
0.42100002 33534.55599408  2547.28499401
0.42200002 33696.51170761  3420.87003066
0.42300002 33855.84180544  2368.55480494
0.42400002 34012.96338143  2168.32651831
0.42500002 34168.29070069  2183.35387923
0.42600002 34319.86491274  2637.82494219
0.42700002 34470.53293038  2876.91081470
0.42800002 34618.20027311  2673.21755176
0.42900002 34763.98357927  2914.96016125
0.43000002 34907.10954829  2482.41921316
0.43100002 35046.38039334  4087.81000279
0.43200002 35183.88560691  2513.71282630
0.43300002 35318.32477173  2529.14535675
0.43400002 35450.56362911  3469.72407962
0.43500002 35579.34755638  2326.88944046
0.43600002 35706.51447259  3042.73077497
0.43700002 35829.81214850  2824.82252365
0.43800002 35949.52258799  2604.00379206
0.43900002 36067.41778735  2856.53962413
0.44000002 36181.67203012  2393.41771822
0.44100002 36293.49287634  3368.76216843
0.44200002 36402.08461553  3144.59422854
0.44300002 36507.86318525  3403.99332471
0.44400002 36609.95993871  4154.31540092
0.44500002 36708.30332506  2701.36416971
0.44600002 36804.27171547  2714.49918902
0.44700002 36897.42786587  2727.45799710
0.44800002 36986.07490866  2740.11348947
0.44900002 37073.06153743  3253.16130408
0.45000002 37156.48901347  2765.00026098
0.45100002 37235.40321614  2777.01650347
0.45200002 37312.05611412  3295.96063305
0.45300002 37384.66752360  3564.25437062
0.45400002 37454.71500145  3578.79818800
0.45500002 37521.28916184  3336.39319039
0.45600002 37584.31287795  3091.68572387
0.45700002 37643.86492464  3361.97373576
0.45800002 37699.49157758  3633.85416539
0.45900002 37752.18388329  2604.90081140
0.46000002 37802.07643631  3398.21782230
0.46100002 37847.24524358  2885.09564166
0.46200002 37890.11777503  2631.46880419
0.46300002 37929.12477073  3695.81409282
0.46400002 37964.20067299  2912.80343469
0.46500002 37996.88613511  3452.77720674
0.46600002 38025.17256827  3196.39615758
0.46700002 38050.13740270  2938.23174950
0.46800002 38072.42831033  2946.23500443
0.46900002 38090.55683588  2953.92282263
0.47000002 38104.72156556  3230.51844744
0.47100002 38116.17700932  3508.21309822
0.47200002 38123.88029195  2704.88943492
0.47300002 38128.99296300  2710.97152816
0.47400002 38128.98451648  3260.02833068
0.47500002 38126.88571856  4083.38965400
0.47600002 38121.65526876  3000.36502014
0.47700002 38111.69212085  3005.86930004
