# SAXS profile: number of points = 501, q_min = 0, q_max = 0.5, delta_q = 0.001
#    q    intensity    error
0.00000000 1700912.83420644 306.16431016
0.00100000 1700842.64914382 561.27808755
0.00200000 1700632.03803260 918.34132962
0.00300000 1700281.17252218 1020.16873985
0.00400000 1699789.91436826 1402.32673264
0.00500000 1699158.75191861 1988.01581843
0.00600000 1698387.37305254 1961.63749574
0.00700000 1697476.47765622 2240.66904363
0.00800000 1696425.50135649 3206.24433293
0.00900000 1695235.85567787 3305.71005988
0.01000000 1693906.59357747 2794.94600009
0.01100000 1692439.06250603 3351.02948966
0.01200000 1690832.70919388 3626.83632024
0.01300000 1689088.92940633 4256.50428984
0.01400000 1687206.92460715 4555.45889839
0.01500000 1685188.62249337 5662.23402371
0.01600000 1683032.76159542 5579.25385410
0.01700000 1680741.54421494 5899.40308483
0.01800000 1678314.41804784 5261.51593734
0.01900000 1675752.30923611 5027.25715455
0.02000000 1673055.71747305 5797.13832328
0.02100000 1670226.42961929 5511.74746764
0.02200000 1667262.53787070 6327.26161868
0.02300000 1664166.96013605 7788.30172795
0.02400000 1660939.59441562 8097.08089198
0.02500000 1657581.91097637 7757.48369766
0.02600000 1654093.98511822 6699.08094613
0.02700000 1650476.99581423 11091.20591986
0.02800000 1646730.62953837 10744.91785050
0.02900000 1642857.64872534 8132.14573457
0.03000000 1638858.36013475 7620.69172491
0.03100000 1634732.92723762 13339.42130005
0.03200000 1630482.59070729 8070.88919573
0.03300000 1626109.92890362 9951.79322367
0.03400000 1621613.10465844 8513.46919227
0.03500000 1616995.48284368 8731.77601057
0.03600000 1612256.76009258 12527.23560485
0.03700000 1607398.93486682 11910.82665821
0.03800000 1602422.98468682 9374.17489425
0.03900000 1597330.53943876 14375.97552070
0.04000000 1592120.60600171 10770.69639870
0.04100000 1586796.88281137 10996.50290775
0.04200000 1581359.77315361 12239.72521204
0.04300000 1575809.58752773 14560.48126462
0.04400000 1570149.64346577 14837.91481985
0.04500000 1564380.08628097 12953.06771627
0.04600000 1558500.86400532 12086.17476221
0.04700000 1552515.45795461 14531.54536229
0.04800000 1546423.95722334 11366.21661444
0.04900000 1540229.09973999 15017.23442148
0.05000000 1533930.73594865 14081.48481173
0.05100000 1527531.73953865 14297.69774813
0.05200000 1521030.77496157 18138.29283668
0.05300000 1514433.20147149 15946.98235491
0.05400000 1507737.29494177 13682.71658967
0.05500000 1500947.19682883 13868.75274567
0.05600000 1494061.32990714 15329.06996017
0.05700000 1487084.92144272 18112.69518865
0.05800000 1480016.19601570 18337.40152485
0.05900000 1472857.54225024 15906.86219925
0.06000000 1465611.59195064 17433.45070072
0.06100000 1458280.17049585 14918.20684132
0.06200000 1450863.45111248 17823.85833007
0.06300000 1443364.87881119 16627.56418133
0.06400000 1435782.37197401 13998.87878143
0.06500000 1428122.30484343 16966.09377518
0.06600000 1420382.73221219 15702.33183929
0.06700000 1412566.57795453 17289.81572331
0.06800000 1404676.92385469 18899.92889515
0.06900000 1396714.22438124 23464.80006820
0.07000000 1388678.35175856 17747.31016655
0.07100000 1380574.03476769 17892.24032862
0.07200000 1372400.45273582 22541.67849219
0.07300000 1364162.30401481 15142.20228406
0.07400000 1355858.76907830 18304.09424036
0.07500000 1347492.60473236 23042.12462096
0.07600000 1339063.63499922 18559.42285117
0.07700000 1330577.70969416 17124.53592671
0.07800000 1322032.86151639 17232.69915801
0.07900000 1313431.16548200 18913.40967005
0.08000000 1304777.10405633 26950.17234854
0.08100000 1296070.37467690 19129.99962778
0.08200000 1287311.50013523 16027.02892876
0.08300000 1278504.85985366 19330.99438823
0.08400000 1269649.73153478 22663.24877168
0.08500000 1260751.13115117 24395.53553303
0.08600000 1251807.73129254 17969.70082641
0.08700000 1242823.08523664 18045.79204502
0.08800000 1233796.19362381 18118.29795427
0.08900000 1224733.04970540 21494.06603190
0.09000000 1215632.52077230 19912.06162563
0.09100000 1206497.09957673 24974.49113457
0.09200000 1197328.14926983 16702.72846712
0.09300000 1188128.90122639 26804.18927125
0.09400000 1178897.43273649 16799.28920602
0.09500000 1169638.61971896 18527.07660717
0.09600000 1160353.15610475 16883.13921496
0.09700000 1151044.49413210 25380.53228882
0.09800000 1141713.23853911 22040.77510630
0.09900000 1132361.06762205 23779.58353824
0.10000000 1122987.89023131 17013.26733709
0.10100000 1113596.92405981 17038.03373944
0.10200000 1104189.99129781 17059.73616798
0.10300000 1094768.27452453 22201.90165175
0.10400000 1085334.43794789 20512.82184224
0.10500000 1075891.00340476 18817.33453489
0.10600001 1066434.49628842 25674.41170622
0.10700001 1056972.64045079 25684.43637160
0.10800001 1047502.70310336 23977.33800245
0.10900001 1038029.13833758 18840.22974755
0.11000001 1028552.12597229 17125.39370352
0.11100001 1019073.52443784 18832.47961812
0.11200001 1009595.44946945 17112.64367412
0.11300001 1000117.32449099 20522.40846477
0.11400001 990643.91093995 17088.60826832
0.11500001 981174.89492462 17072.44397560
0.11600001 971711.55045546 18758.89236493
0.11700001 962257.25326644 17031.95418493
0.11800001 952809.73822836 23810.71647977
0.11900001 943373.70476865 18678.80023422
0.12000001 933949.17269307 16951.17828286
0.12100001 924539.71441644 20302.89308502
0.12200001 915143.59762242 20261.28020590
0.12300001 905764.44362156 18531.94138962
0.12400001 896401.99438766 16807.53818670
0.12500001 887058.52283174 26824.65099442
0.12600001 877736.97288990 21737.15715795
0.12700001 868436.75853147 26678.37847934
0.12800001 859158.26987949 18287.18463625
0.12900001 849904.65264581 16573.14150772
0.13000001 840676.72932371 23127.01791378
0.13100001 831474.24256626 24694.78616827
0.13200001 822301.05344924 18045.39746861
0.13300001 813157.88326858 21247.81649149
0.13400001 804043.79934070 17910.07647470
0.13500001 794962.15362366 17838.95156839
0.13600001 785912.25142037 17765.54728102
0.13700001 776897.38298933 20906.30956204
0.13800001 767915.76234049 17612.14883979
0.13900001 758972.79974839 19126.11545561
0.14000001 750065.54806940 17450.27579880
0.14100001 741197.05200466 20523.74733797
0.14200001 732366.48135515 26705.74500220
0.14300001 723579.49885503 25006.90865995
0.14400001 714829.15079611 23321.30214479
0.14500001 706125.15738899 15464.14167630
0.14600001 697461.95643082 18454.84423775
0.14700001 688845.51268972 15292.37110315
0.14800001 680271.95694516 18244.89474604
0.14900001 671744.05689509 25694.21138851
0.15000001 663264.10945179 24036.69246065
0.15100001 654831.28296613 14930.15395611
0.15200001 646448.24539476 16319.58672506
0.15300001 638114.29548331 19162.57319763
0.15400001 629828.38621879 19036.56387182
0.15500001 621595.45227414 24727.06825841
0.15600001 613412.35019776 15890.44768182
0.15700001 605284.82064953 17214.30111173
0.15800001 597206.00790912 15667.70035699
0.15900001 589183.79271361 19796.57636959
0.16000001 581213.53263963 18247.19971853
0.16100001 573301.74478159 15324.35636139
0.16200001 565443.01811180 13825.08244546
0.16300001 557641.96748768 15089.79235257
0.16400001 549897.03559726 16331.94272826
0.16500001 542210.14616683 16201.23993235
0.16600001 534580.16792458 17408.60399038
0.16700001 527008.92050542 13280.62542378
0.16800001 519495.28788688 15803.04740368
0.16900001 512043.28556524 15668.52527813
0.17000001 504650.17136471 18121.98850942
0.17100001 497317.18735777 17963.09765560
0.17200001 490044.66985104 20346.65565304
0.17300001 482833.47282007 12601.95423572
0.17400001 475684.76719290 17481.41601992
0.17500001 468597.01533732 13608.05796807
0.17600001 461569.56020334 14705.60688261
0.17700001 454606.92269080 21848.40973643
0.17800001 447706.07591597 16829.27218856
0.17900001 440868.01992178 13093.78081014
0.18000001 434094.01411486 11785.65303991
0.18100001 427384.48691155 14001.11645259
0.18200001 420735.70031955 15013.95417513
0.18300001 414153.58283311 13716.76731140
0.18400001 407633.97320239 11311.84329075
0.18500001 401179.86182080 14550.79427565
0.18600001 394789.57762026 15503.38744558
0.18700001 388463.73918661 14241.08135140
0.18800001 382201.80541486 10835.42169544
0.18900001 376006.88801741 10716.19681481
0.19000001 369872.80595304 11656.54203037
0.19100001 363808.30435727 11525.44762662
0.19200001 357805.68082391 13466.01743410
0.19300001 351870.19212307 11263.36538208
0.19400001 345998.62022461 11132.50613178
0.19500001 340192.41589175 11001.82324983
0.19600001 334450.30352344 10871.30762977
0.19700001 328773.75278063 13670.41328665
0.19800001 323162.35877661 12540.31592497
0.19900001 317616.72515752 11434.20264605
0.20000001 312133.61455846 12234.07760082
0.20100001 306717.43086767 12081.60017288
0.20200001 301364.22159718 9176.54098135
0.20300001 296076.58555350 9965.93834077
0.20400001 290853.28835072 10732.48684742
0.20500001 285693.43880355 8827.92767630
0.20600001 280598.21219337 9583.83239047
0.20700001 275566.76098084 8597.68334901
0.20800001 270598.65853112 8483.26834596
0.20900001 265696.54552800 9206.38573774
0.21000001 260855.37980755 10732.89510955
0.21100001 256077.66194805 8143.27003491
0.21200001 251362.81993799 9637.25097202
0.21300001 246710.32674276 11087.16260797
0.21400001 242121.35846731 10150.93843364
0.21500001 237595.10736050 8467.89002667
0.21600001 233129.10119236 8347.18786284
0.21700001 228725.47124788 8227.25558977
0.21800001 224383.49437975 10319.39739443
0.21900001 220101.26429763 8716.01047829
0.22000001 215879.53710726 9303.32909152
0.22100001 211720.96047666 12690.55497102
0.22200001 207620.72867338 8333.89644301
0.22300001 203580.53580659 7524.33695920
0.22400001 199598.03187649 7410.07728381
0.22500001 195677.56570577 8623.51072844
0.22600001 191814.15662494 7837.52681032
0.22700001 188010.01272278 7072.93701310
0.22800001 184263.15580058 6962.38367118
0.22900001 180573.44389044 8098.71934148
0.23000001 176941.44199339 7357.22550602
0.23100001 173367.62077527 6033.19348831
0.23200001 169848.11583989 7717.04950815
0.23300001 166386.06191100 5840.15104928
0.23400001 162979.34251977 7468.52872419
0.23500001 159626.55720636 6215.85843160
0.23600001 156329.77578138 7780.53330864
0.23700001 153086.76971275 6558.23752469
0.23800001 149897.92743322 6985.99323845
0.23900001 146762.52261811 5283.45106416
0.24000001 143680.01510771 7271.64590855
0.24100001 140650.99337996 5616.19443131
0.24200001 137673.63910439 6021.84525927
0.24300001 134747.90482245 7397.66032468
0.24400001 131872.97496892 6784.86488310
0.24500001 129049.21873719 5238.10803633
0.24600001 126275.78841843 5146.37000044
0.24700001 123552.89258302 5055.78460367
0.24800001 120878.35177118 4514.80665223
0.24900001 118252.62215994 5764.81560302
0.25000001 115675.82720574 6097.27314047
0.25100001 113146.39530435 5987.70752278
0.25200001 110665.55667903 4199.75807466
0.25300001 108231.65504386 5773.07675317
0.25400001 105843.57585520 5263.07205840
0.25500001 103501.63749253 6756.58721518
0.25600001 101205.70783847 4291.62824394
0.25700001 98954.50569370  4595.44746184
0.25800001 96747.86602668  4134.52025027
0.25900001 94585.55010008  3688.83662844
0.26000001 92467.16928421  5430.13477314
0.26100001 90389.94500793  5683.72001103
0.26200001 88357.97181655  4531.43879903
0.26300001 86366.79010802  3420.12505011
0.26400001 84416.77660392  3355.56702879
0.26500001 82508.86293899  3621.31416575
0.26600001 80640.99267331  3552.63910033
0.26700001 78814.03151136  3485.15663835
0.26800001 77026.78537255  3729.63712423
0.26900001 75277.93254082  4268.25897705
0.27000001 73568.34885955  3289.60887493
0.27100001 71897.12165079  3226.74297239
0.27200001 70263.86471421  4028.22755470
0.27300001 68667.18951787  3386.66594729
0.27400001 67106.25582997  3321.75982078
0.27500001 65584.08774302  3529.73576938
0.27600001 64095.56581764  3195.80506291
0.27700001 62643.85854395  2612.24902491
0.27800001 61225.99867945  3587.23143240
0.27900001 59843.02933075  3016.08882101
0.28000001 58493.78352469  3451.71832916
0.28100001 57177.64890598  4353.50639375
0.28200001 55895.13008123  2372.74838425
0.28300001 54644.88008944  3026.23360259
0.28400001 53426.78167667  2740.79402974
0.28500001 52240.43520181  2465.22625386
0.28600001 51084.41143697  3078.85762303
0.28700001 49959.48616296  2805.72487571
0.28800001 48864.17366962  2330.08823173
0.28900001 47800.17559725  3742.75392642
0.29000001 46763.79166787  2245.36356322
0.29100001 45757.45672966  2605.42970951
0.29200001 44779.10259979  2952.06247863
0.29300001 43828.49779577  2126.12052871
0.29400001 42905.28202698  2278.27058348
0.29500001 42010.11695359  2424.82406535
0.29600001 41140.70720423  2382.66417052
0.29700001 40297.13388178  2341.66656072
0.29800001 39479.91787628  1947.74184063
0.29900001 38687.97099064  2263.24641009
0.30000001 37920.75850552  1883.33456033
0.30100001 37179.07768883  1852.63352894
0.30200001 36460.18424265  1657.11545228
0.30300001 35765.33674842  1630.89943294
0.30400001 35094.65581086  1766.13863729
0.30500001 34445.42754017  1581.04519894
0.30600001 33819.09596574  2024.58027584
0.30700001 33215.21456541  2608.72307547
0.30800001 32632.90685242  1815.04236506
0.30900001 32071.65426351  1938.73159202
0.31000001 31532.07727390  1470.97147447
0.31100001 31011.51812671  1741.60694045
0.31200001 30512.06406781  2005.55806613
0.31300001 30031.83058577  1980.29900259
0.31400001 29572.45416382  1397.29852540
0.31500001 29130.74159354  1380.79721691
0.31600002 28708.09353017  1365.06991199
0.31700002 28303.07326607  2160.09065394
0.31800002 27916.55050599  1335.80700496
0.31900002 27547.78910927  1322.29393985
0.32000002 27195.93948761  1571.38145800
0.32100002 26861.25817798  1686.61848086
0.32200002 26543.06798586  1414.61287529
0.32300002 26240.38784148  1657.86778233
0.32400002 25954.04349516  1897.88952045
0.32500002 25682.66449203  1507.05882375
0.32600002 25427.03252011  1870.79400625
0.32700002 25185.88410210  1486.97466780
0.32800002 24960.10235397  1601.31544235
0.32900002 24747.18790957  1224.98585953
0.33000002 24549.95761203  1340.79599847
0.33100002 24363.63916035  1455.97114517
0.33200002 24193.23351205  1691.83289961
0.33300002 24034.44132722  1324.53812427
0.33400002 23889.01650232  1440.50776331
0.33500002 23755.27810222  1436.71928766
0.33600002 23633.83128518  1314.15925085
0.33700002 23523.28050570  1431.15645374
0.33800002 23425.67570937  1548.55436610
0.33900002 23338.12052707  1428.29304390
0.34000002 23261.93625721  1903.75695345
0.34100002 23196.22123154  1427.95944664
0.34200002 23141.99791998  1190.65584937
0.34300002 23096.20708659  1549.29364474
0.34400002 23061.27519819  1193.42104803
0.34500002 23035.43810662  1554.20108266
0.34600002 23020.08806681  1557.65433281
0.34700002 23011.70076968  2402.42167414
0.34800002 23013.67193504  1204.76578286
0.34900002 23023.77052930  1813.12201506
0.35000002 23042.38316972  1819.77229702
0.35100002 23068.93816993  1339.84399237
0.35200002 23102.53908971  1590.26335356
0.35300002 23144.21332540  1720.54090010
0.35400002 23193.74923243  1605.58736666
0.35500002 23249.85798867  1614.00521802
0.35600002 23312.66900137  1373.23283257
0.35700002 23382.11379924  1255.61957049
0.35800002 23458.81479854  1389.58296041
0.35900002 23541.06995628  1271.21783785
0.36000002 23630.08191090  1919.35349412
0.36100002 23724.04180509  1932.32329655
0.36200002 23824.84045747  1297.26262436
0.36300002 23929.19983737  1567.84124761
0.36400002 24039.66442565  1842.64036551
0.36500002 24154.59029653  2121.73931215
0.36600002 24274.94047786  1870.86975125
0.36700002 24399.48712214  2559.01833059
0.36800002 24529.74698631  1765.03802801
0.36900002 24663.12851435  1505.68406712
0.37000002 24799.82945780  1518.12163217
0.37100002 24940.79009983  1391.69615349
0.37200002 25086.18122947  1684.28628753
0.37300002 25234.12713982  1981.88843944
0.37400002 25386.60937974  1999.19558336
0.37500002 25540.89393110  1872.65843174
0.37600002 25699.54250060  1889.30195643
0.37700002 25859.61052920  1759.48798376
0.37800002 26023.36053247  1479.42811635
0.37900002 26189.54469418  2239.20617743
0.38000002 26357.94425864  1656.99224432
0.38100002 26528.15063912  1520.06310363
0.38200002 26700.73232787  1687.35285940
0.38300002 26874.98303153  2012.39882474
0.38400002 27051.70839844  2343.35435103
0.38500002 27228.97408542  2207.18074393
0.38600002 27408.81731151  1591.08192031
0.38700002 27588.86043470  2087.37327938
0.38800002 27770.20790848  2106.50922069
0.38900002 27952.89107178  2943.43956931
0.39000002 28137.10428158  1650.24124430
0.39100002 28321.14517702  2164.86843990
0.39200002 28506.67798179  2016.56249597
0.39300002 28692.17520252  2034.84916177
0.39400002 28879.02735037  1882.19069673
0.39500002 29065.23308108  2417.06489754
0.39600002 29251.70249912  2787.10234616
0.39700002 29438.02572497  2284.68528476
0.39800002 29625.49558958  1950.39459455
0.39900002 29811.60196753  1967.56582308
0.40000002 29997.57854851  2165.22532222
0.40100002 30183.33331387  2184.06610207
0.40200002 30369.47884213  1835.83508299
0.40300002 30554.14903859  2777.37227920
0.40400002 30738.16104458  2054.07770913
0.40500002 30921.63949089  2071.44072764
0.40600002 31104.35837155  1898.92116856
0.40700002 31286.09127919  2297.65065241
0.40800002 31466.90380555  3088.79142390
0.40900002 31646.06375230  1946.23301298
0.41000002 31824.73359988  2354.39390327
0.41100002 32001.91027887  2373.26177873
0.41200002 32176.93306696  2790.70553713
0.41300002 32351.15882864  2611.70917599
0.41400002 32523.70923459  2834.44139410
0.41500002 32695.14385219  2040.17707305
0.41600002 32863.67402427  2466.74748914
0.41700002 33031.36142372  2899.49304316
0.41800002 33198.00004622  2712.44272230
0.41900002 33360.77193737  2522.07447797
0.42000002 33522.56447050  2116.95004662
0.42100002 33682.65136967  2345.32312600
0.42200002 33840.59179554  3006.05991164
0.42300002 33995.97144226  2378.35827480
0.42400002 34149.05818493  3265.50384367
0.42500002 34300.43037126  2191.79760458
0.42600002 34448.01158517  2206.39524658
0.42700002 34594.71396225  2443.07881578
0.42800002 34738.39620639  2458.95749199
0.42900002 34880.17614320  2474.74861463
0.43000002 35019.42382513  2716.80702910
0.43100002 35154.77770016  3417.04455438
0.43200002 35288.32219799  2521.17429891
0.43300002 35418.88166650  2766.92316691
0.43400002 35547.24430418  2783.34936092
0.43500002 35672.16247231  2566.25548987
0.43600002 35795.44534201  3284.94817471
0.43700002 35915.00274052  2595.57737106
0.43800002 36030.78786294  3084.41574118
0.43900002 36144.93943479  2624.12272732
0.44000002 36255.42362260  2398.29638629
0.44100002 36363.53789076  2893.08321169
0.44200002 36468.38688437  3150.32175030
0.44300002 36570.49169192  4384.07075179
0.44400002 36668.80429677  2447.64280280
0.44500002 36763.60381927  2705.43373327
0.44600002 36855.95188428  2965.43002914
0.44700002 36945.52395977  2731.01326053
0.44800002 37030.63565966  2494.01342987
0.44900002 37114.04737649  2755.71814830
0.45000002 37193.92962469  4025.87113337
0.45100002 37269.43665764  3284.92830269
0.45200002 37342.63746644  2791.17556971
0.45300002 37411.92047706  2547.75190523
0.45400002 37478.55405236  3069.49372236
0.45500002 37541.78290496  3595.00130136
0.45600002 37601.39888733  3866.36402383
0.45700002 37657.75257613  3363.21404197
0.45800002 37710.16050307  3634.88254316
0.45900002 37759.66129613  2865.95842821
0.46000002 37806.39564774  3137.17485953
0.46100002 37848.45913039  3147.47801046
0.46200002 37888.22965917  2631.33767454
0.46300002 37924.14604860  2903.47275909
0.46400002 37956.20555132  3441.67910148
0.46500002 37985.94806618  3982.82684351
0.46600002 38011.29649758  3461.49887961
0.46700002 38033.38836191  3737.92158537
0.46800002 38052.72608721  2944.71034783
0.46900002 38068.04121717  4294.07525282
0.47000002 38079.47615686  3497.40965339
0.47100002 38088.21964608  2966.31068663
0.47200002 38093.22799522  3513.52905067
0.47300002 38095.68267377  4604.62538302
0.47400002 38093.08312240  3256.95876134
0.47500002 38088.46056626  3263.41945600
0.47600002 38080.63863749  3814.53775312
0.47700002 38068.20735994  3275.38871650
