# SAXS profile: number of points = 501, q_min = 0, q_max = 0.5, delta_q = 0.001
#    q    intensity    error
0.00000000 1719190.39626458 283.66641538
0.00100000 1719119.63038066 567.30949150
0.00200000 1718907.27879698 928.20995994
0.00300000 1718553.51082743 1134.24535755
0.00400000 1718058.18327973 1546.25242371
0.00500000 1717421.80281719 1700.24765209
0.00600000 1716644.03229273 1982.72393802
0.00700000 1715725.59566707 2264.75788040
0.00800000 1714665.91796079 3009.23881307
0.00900000 1713466.43268593 3084.23971068
0.01000000 1712126.15681353 3390.00993687
0.01100000 1710646.44297338 3387.08010456
0.01200000 1709026.80931811 5332.16387885
0.01300000 1707268.58706727 5736.42270555
0.01400000 1705370.94531508 4604.50175647
0.01500000 1703335.93261790 5314.40834641
0.01600000 1701162.17489030 4771.76011388
0.01700000 1698851.92283151 4586.90039741
0.01800000 1696404.62829673 6285.17943066
0.01900000 1693821.22315700 5589.61028864
0.02000000 1691102.17017388 7457.76090782
0.02100000 1688249.38856096 7799.71252878
0.02200000 1685260.82583059 8721.22516990
0.02300000 1682139.41686700 6055.70217637
0.02400000 1678885.15260887 7554.98353123
0.02500000 1675499.50180038 6534.44835545
0.02600000 1671982.40377003 6771.52904499
0.02700000 1668335.29494090 8408.41027162
0.02800000 1664557.59236405 8688.99103061
0.02900000 1660652.17687257 8967.52216685
0.03000000 1656619.39473029 9243.93664750
0.03100000 1652459.44031605 13484.06965342
0.03200000 1648173.44178150 11421.84247761
0.03300000 1643764.08957344 9221.51696762
0.03400000 1639229.50181471 9466.55080977
0.03500000 1634573.05756666 13240.04237769
0.03600000 1629794.39941592 10854.43120173
0.03700000 1624895.73628407 11114.28735019
0.03800000 1619877.72859178 15162.05624131
0.03900000 1614742.34376965 11626.14541355
0.04000000 1609488.47925052 12867.86098789
0.04100000 1604119.60961567 10105.95400916
0.04200000 1598636.44241357 13404.56719151
0.04300000 1593039.31170228 13668.27792886
0.04400000 1587331.23146302 10714.48630998
0.04500000 1581512.66520609 10912.43789697
0.04600000 1575583.43757591 12218.65012641
0.04700000 1569546.94869927 14690.96012307
0.04800000 1563403.59111974 13789.22031526
0.04900000 1557155.76778497 12846.53568220
0.05000000 1550803.57746571 11863.64792006
0.05100000 1544349.74936099 13250.52146678
0.05200000 1537793.01951261 14670.54608982
0.05300000 1531138.73330723 13642.44674975
0.05400000 1524385.31175827 15091.41529018
0.05500000 1517536.66552903 14022.03944361
0.05600000 1510591.43889233 16790.22462679
0.05700000 1503554.77918894 17005.20534640
0.05800000 1496424.88302431 18540.70516638
0.05900000 1489204.15266928 22784.82460002
0.06000000 1481895.36083174 16271.21182210
0.06100000 1474500.27029293 15084.13847000
0.06200000 1467018.96768488 15249.66288191
0.06300000 1459454.96714973 15411.84517369
0.06400000 1451806.19655192 14155.11107837
0.06500000 1444079.06160292 21444.57506793
0.06600000 1436271.61323455 17321.43646605
0.06700000 1428386.80261267 20397.36449588
0.06800000 1420427.76539014 23522.28489592
0.06900000 1412394.87857998 23728.23507107
0.07000000 1404288.07595001 25424.63680567
0.07100000 1396112.04685783 22617.01621843
0.07200000 1387865.97221488 16716.84641846
0.07300000 1379554.71937194 15313.05810253
0.07400000 1371177.27476255 18510.89407679
0.07500000 1362736.62320689 24856.31717237
0.07600000 1354232.33705239 20333.79949410
0.07700000 1345670.39359574 17318.77877763
0.07800000 1337048.84316461 25350.44725524
0.07900000 1328369.95561365 17534.48423653
0.08000000 1319637.88617728 24050.40160381
0.08100000 1310852.71303213 20960.53586481
0.08200000 1302014.62847527 16210.08288518
0.08300000 1293128.16461483 21181.44033048
0.08400000 1284192.53428744 18010.80113878
0.08500000 1275212.99176464 16450.24836602
0.08600000 1266187.95123013 19828.50424724
0.08700000 1257121.13064089 18253.39967404
0.08800000 1248011.61542136 16660.95584834
0.08900000 1238865.09886691 18397.14758228
0.09000000 1229680.79408045 23499.20107876
0.09100000 1220460.93605463 18526.59787971
0.09200000 1211207.11605237 21965.24208168
0.09300000 1201922.71773553 16947.11111645
0.09400000 1192605.50019624 20393.55501180
0.09500000 1183260.33062728 22150.63443048
0.09600000 1173887.96388806 18788.07774521
0.09700000 1164492.40299759 25677.05869325
0.09800000 1155073.42768124 20583.40944906
0.09900000 1145633.29936607 20621.40035826
0.10000000 1136171.62663769 22376.90123895
0.10100000 1126691.76015850 17238.38474118
0.10200000 1117195.70356623 22438.87676157
0.10300000 1107684.48448673 22463.84240211
0.10400000 1098160.66763179 19025.63446178
0.10500000 1088626.95373334 22501.92019237
0.10600001 1079079.98260879 17319.23453580
0.10700001 1069526.96011207 29454.77386756
0.10800001 1059965.70267524 27728.70408694
0.10900001 1050400.72551863 20797.93534414
0.11000001 1040831.96958372 22528.80904206
0.11100001 1031261.19260344 24255.26439181
0.11200001 1021690.68097169 17317.65785774
0.11300001 1012119.97495661 20768.70286392
0.11400001 1002553.65364930 17294.05133973
0.11500001 992991.63167757 22461.47176621
0.11600001 983434.98113493 27614.85557069
0.11700001 973887.21229811 22409.14581034
0.11800001 964346.20357169 24099.01276228
0.11900001 954816.37823408 24061.37386483
0.12000001 945297.90910004 22304.30521586
0.12100001 935794.35140910 25687.55615627
0.12200001 926303.77245901 30762.54973263
0.12300001 916830.42504301 18758.35138017
0.12400001 907373.48634352 22117.22977173
0.12500001 897935.44792844 20365.17691863
0.12600001 888519.29263619 16926.29332234
0.12700001 879124.37057562 21942.94532366
0.12800001 869751.01913658 25244.52452019
0.12900001 860402.64517203 18455.63760879
0.13000001 851079.90501636 30102.69765932
0.13100001 841782.30660758 18334.01950214
0.13200001 832514.31750041 21591.25984219
0.13300001 823276.31556491 19857.42566756
0.13400001 814067.22448835 29672.75173154
0.13500001 804890.79118515 19703.72749721
0.13600001 795746.00240159 17987.83923243
0.13700001 786636.30293546 19540.04668629
0.13800001 777560.07120114 19454.55389885
0.13900001 768522.39718334 24208.45665290
0.14000001 759520.55424460 17670.24652784
0.14100001 750557.66678440 19184.25486780
0.14200001 741632.67774261 19089.62602546
0.14300001 732751.64570791 17410.17992322
0.14400001 723907.12007638 17319.47866479
0.14500001 715108.96153916 23491.33049470
0.14600001 706351.96881586 20247.58014127
0.14700001 697642.00698396 20133.94927141
0.14800001 688974.91762260 16938.44914889
0.14900001 680353.59032876 21431.13910649
0.15000001 671780.74579318 19780.58499319
0.15100001 663254.72422344 19658.87095359
0.15200001 654779.04952933 15027.17989579
0.15300001 646352.64544323 17916.89617717
0.15400001 637974.52997004 19282.78107832
0.15500001 629649.56795454 16207.18064401
0.15600001 621374.86123347 19023.39227447
0.15700001 613155.83739731 17438.15283860
0.15800001 604985.74488794 17314.69283592
0.15900001 596872.58690986 18622.42559058
0.16000001 588811.76520530 21329.70720138
0.16100001 580809.71736440 23993.25055691
0.16200001 572860.97194397 18208.38685279
0.16300001 564970.25810688 16677.92280664
0.16400001 557135.91155681 15168.02590821
0.16500001 549360.27140692 13679.07140384
0.16600001 541641.46056014 14924.93115039
0.16700001 533981.96383495 17493.24996117
0.16800001 526380.41128335 18681.24167851
0.16900001 518840.91338506 15876.53269924
0.17000001 511360.52230145 14428.03781802
0.17100001 503940.93982112 16902.17991974
0.17200001 496581.97293567 14174.93308683
0.17300001 489284.93069184 16601.43848237
0.17400001 482050.71292488 13919.21499306
0.17500001 474877.88328594 12536.77671083
0.17600001 467765.75376667 13661.09948396
0.17700001 460718.95267572 14761.43594092
0.17800001 453734.39526225 14619.32290585
0.17900001 446813.05486898 14476.74366154
0.18000001 439956.06312625 15528.24998152
0.18100001 433164.35501542 13007.92619556
0.18200001 426433.57776311 15217.28294131
0.18300001 419770.23616388 16219.92269159
0.18400001 413169.66005319 13758.55032973
0.18500001 406635.37660792 14748.66580633
0.18600001 400165.13287211 13469.55900882
0.18700001 393759.84084855 17766.44485846
0.18800001 387418.99368078 15376.66058568
0.18900001 381145.85848968 10862.65748019
0.19000001 374934.02983571 11816.04650857
0.19100001 368792.27001100 11683.33966599
0.19200001 362713.12395518 11550.59997813
0.19300001 356701.44021809 11418.01364091
0.19400001 350754.25253823 13337.43108301
0.19500001 344873.03986169 11153.19463617
0.19600001 339056.56253590 12022.94627568
0.19700001 333305.97776000 14848.78201093
0.19800001 327621.37985076 10757.44851578
0.19900001 322003.04979951 16422.15631589
0.20000001 316447.69544328 13357.25785594
0.20100001 310960.08845018 14133.13668803
0.20200001 305536.04665212 17676.78881452
0.20300001 300178.12659870 11022.54132968
0.20400001 294885.01949466 13601.57216708
0.20500001 289656.17406194 13425.56430236
0.20600001 284492.31317469 9716.83541578
0.20700001 279393.05662119 13075.59566794
0.20800001 274357.64986923 10321.33527597
0.20900001 269388.89354664 9334.32560264
0.21000001 264481.66968994 10882.09881382
0.21100001 259638.76033105 10733.46685949
0.21200001 254859.09010972 8957.02314534
0.21300001 250142.55839985 9635.49180509
0.21400001 245490.13098455 9500.46851825
0.21500001 240901.07387167 8585.71467870
0.21600001 236372.76168497 7693.93375660
0.21700001 231907.60940179 9100.05502317
0.21800001 227504.74214021 14947.06226532
0.21900001 223162.26762773 8837.22621590
0.22000001 218880.96808825 7255.90443520
0.22100001 214663.64496196 8577.95965828
0.22200001 210505.04551922 7041.39410557
0.22300001 206407.33982583 8322.34433530
0.22400001 202367.87230398 8878.89081719
0.22500001 198391.04812118 7398.00253427
0.22600001 194472.01550302 9932.65866151
0.22700001 190613.03463361 7822.75931129
0.22800001 186811.81411881 10908.87640135
0.22900001 183068.42430467 8210.61921835
0.23000001 179383.51415166 9945.02249489
0.23100001 175757.50899266 6116.36160220
0.23200001 172186.24398079 6619.70046291
0.23300001 168673.38681692 6512.47977301
0.23400001 165216.28440787 8153.42402115
0.23500001 161813.85060971 6301.03164076
0.23600001 158468.10274033 5633.54131887
0.23700001 155176.77901517 7755.73578201
0.23800001 151940.44394068 8170.59775937
0.23900001 148758.03719995 5890.81855175
0.24000001 145629.29701891 6843.84913712
0.24100001 142554.60440042 7244.62533831
0.24200001 139532.19493149 6103.13849499
0.24300001 136562.25654077 5997.81459098
0.24400001 133643.71254741 5893.68800213
0.24500001 130776.97292220 7238.50579366
0.24600001 127961.14290525 6163.24873958
0.24700001 125196.62406039 6985.97195305
0.24800001 122481.12353952 6404.53825286
0.24900001 119815.06441813 5391.67815388
0.25000001 117198.54228652 5295.03039100
0.25100001 114630.09714622 6932.82860339
0.25200001 112110.87473979 6807.37263625
0.25300001 109639.16247369 5012.70274545
0.25400001 107213.97589567 4511.02824923
0.25500001 104835.62697072 4428.25709275
0.25600001 102503.92426672 4741.83176093
0.25700001 100217.50324120 4266.25931483
0.25800001 97976.37631749  4948.29712004
0.25900001 95780.12660604  4108.96762581
0.26000001 93628.32163614  5131.76855169
0.26100001 91518.49778169  3956.34484630
0.26200001 89454.55343421  4940.57521994
0.26300001 87431.97159305  3808.53686280
0.26400001 85451.07632468  3736.34848909
0.26500001 83513.00305387  3332.16897952
0.26600001 81615.56957151  3268.70371601
0.26700001 79759.60115772  3526.96973009
0.26800001 77944.07628430  3774.05235228
0.26900001 76167.45746979  4010.21682555
0.27000001 74430.55573277  4538.40335057
0.27100001 72732.86327046  3857.75125042
0.27200001 71073.62672750  4365.69772834
0.27300001 69451.56113616  3139.90522756
0.27400001 67865.74570952  4199.19321450
0.27500001 66319.39707882  3294.74780280
0.27600001 64807.19394298  3231.28684292
0.27700001 63332.31738920  2905.05353613
0.27800001 61891.94341317  3626.24913620
0.27900001 60486.90134141  2794.49497423
0.28000001 59116.26239970  3239.27575150
0.28100001 57779.21495089  3666.09136215
0.28200001 56476.39779195  2637.16551971
0.28300001 55206.25882991  2586.96541121
0.28400001 53968.93193202  2537.88914422
0.28500001 52763.87725460  2489.92748550
0.28600001 51589.65167438  2887.21499261
0.28700001 50446.93808928  2397.23861147
0.28800001 49334.48020422  2780.24476351
0.28900001 48253.94122379  3148.56981389
0.29000001 47201.38426380  2060.34052064
0.29100001 46179.28360598  2427.18326122
0.29200001 45185.86417232  2184.51070682
0.29300001 44220.58027303  2730.17875529
0.29400001 43283.13215550  2489.86229511
0.29500001 42374.14755572  2445.83591269
0.29600001 41491.63653344  2587.83349309
0.29700001 40635.32657886  1998.03910247
0.29800001 39805.69561129  1963.81408595
0.29900001 39001.92095821  2808.13844193
0.30000001 38223.30747894  2416.09538012
0.30100001 37470.77430448  1867.16877198
0.30200001 36741.37904815  2337.85405951
0.30300001 36036.38495549  1807.58515494
0.30400001 35356.05092438  1779.29334700
0.30500001 34697.59514227  1592.61969243
0.30600001 34062.41082017  1725.43150178
0.30700001 33450.14699503  1699.93655077
0.30800001 32859.84817376  2284.58105244
0.30900001 32291.08215450  1501.53539127
0.31000001 31744.22578268  1628.95502316
0.31100001 31216.84910663  2191.42291104
0.31200001 30710.92843535  2018.62942163
0.31300001 30224.76785688  1850.66262350
0.31400001 29759.73334185  1546.76221368
0.31500001 29312.60212245  1389.41740639
0.31600002 28885.12097083  1648.18508063
0.31700002 28475.38448224  1901.58626576
0.31800002 28084.60678176  2015.77274720
0.31900002 27711.91149567  1463.18899625
0.32000002 27356.58140125  1580.66334821
0.32100002 27018.64343911  1435.50059389
0.32200002 26697.47365416  1422.84192577
0.32300002 26392.12323357  1539.18869986
0.32400002 26103.53797546  1527.05704387
0.32500002 25830.14135580  2273.56914979
0.32600002 25572.80160178  1630.64977135
0.32700002 25330.18562820  1370.86971111
0.32800002 25103.36031255  1362.73597910
0.32900002 24889.55719481  1724.84639528
0.33000002 24691.83495630  1716.32952909
0.33100002 24505.18525420  1342.39411179
0.33200002 24334.81368814  1458.62880154
0.33300002 24176.17867112  1453.47193054
0.33400002 24031.17602429  1690.59331337
0.33500002 23898.17438689  1204.46804614
0.33600002 23777.71763789  1201.96368352
0.33700002 23668.31785018  1319.98214902
0.33800002 23572.06838240  1318.50370741
0.33900002 23486.29244978  1557.14126316
0.34000002 23411.79925811  1197.51358876
0.34100002 23348.24135899  1197.76483844
0.34200002 23296.30406684  1797.89235150
0.34300002 23252.92591897  1559.80634452
0.34400002 23220.68482069  1201.67049638
0.34500002 23197.67664988  1805.93921272
0.34600002 23185.32712727  1327.47596754
0.34700002 23180.08915017  1573.00092423
0.34800002 23185.46674787  1335.13516591
0.34900002 23199.06926838  1461.54143313
0.35000002 23221.44317571  1467.13084933
0.35100002 23251.82457518  1227.69639572
0.35200002 23289.34131817  1849.75602181
0.35300002 23335.13643151  1363.00538352
0.35400002 23389.00448192  1619.10391195
0.35500002 23449.43625557  1377.41995089
0.35600002 23516.83399523  1511.19182411
0.35700002 23590.91572708  1520.19868146
0.35800002 23672.36034095  1529.70799769
0.35900002 23759.49489910  1411.31406385
0.36000002 23853.41525228  1420.82874680
0.36100002 23952.49991166  1560.74496817
0.36200002 24058.40273726  1440.97810020
0.36300002 24168.07273319  1319.57683374
0.36400002 24283.82820294  1595.44758851
0.36500002 24404.18777579  1339.78997235
0.36600002 24530.03328415  1620.45407551
0.36700002 24660.17875337  1633.49031800
0.36800002 24796.04605471  1509.70733555
0.36900002 24935.07290624  1522.28627304
0.37000002 25077.50718453  1814.23234320
0.37100002 25224.19324016  1548.26105442
0.37200002 25375.53916948  1561.73763217
0.37300002 25529.30418971  1718.63283946
0.37400002 25687.74000431  1589.42898806
0.37500002 25847.90278921  1603.60396501
0.37600002 26012.56397303  3089.12218095
0.37700002 26178.62211510  1632.76073867
0.37800002 26348.36486613  2097.06645904
0.37900002 26520.59043435  2116.34321692
0.38000002 26695.06383508  1525.62297045
0.38100002 26871.23463052  1693.69399900
0.38200002 27049.93657020  1554.01892958
0.38300002 27230.22451631  1568.46100644
0.38400002 27412.92343631  1899.71568413
0.38500002 27596.30834126  1917.39159439
0.38600002 27782.14041054  1612.75332724
0.38700002 27968.11697676  2116.06783071
0.38800002 28155.46976354  1642.87173853
0.38900002 28344.19501372  1658.13548686
0.39000002 28534.26866643  2008.24192389
0.39100002 28724.12685071  2195.67236049
0.39200002 28915.60830162  2045.49022816
0.39300002 29106.92158738  2064.26297678
0.39400002 29299.53435890  2430.39649022
0.39500002 29491.44276021  1926.97096125
0.39600002 29683.58375514  2121.18899564
0.39700002 29875.49740747  2853.70764757
0.39800002 30068.67916161  1979.57158639
0.39900002 30260.28727372  1815.61732244
0.40000002 30451.60478488  2564.32976043
0.40100002 30642.85843979  2217.31734176
0.40200002 30834.28191424  2050.32567303
0.40300002 31024.21743496  1880.06766564
0.40400002 31213.43576797  2085.83794402
0.40500002 31402.06259669  2486.10141357
0.40600002 31589.82222870  1928.55873844
0.40700002 31776.50706778  2139.19455716
0.40800002 31962.08002639  2156.96107278
0.40900002 32146.05564264  3163.17202511
0.41000002 32329.45897675  2391.73348842
0.41100002 32511.25292518  2210.11507857
0.41200002 32690.70801883  2632.74629504
0.41300002 32869.44114232  2449.43086999
0.41400002 33046.28102487  2262.84420040
0.41500002 33221.96420786  3938.79626312
0.41600002 33394.63078702  2088.83425470
0.41700002 33566.33751348  2735.99230037
0.41800002 33736.88175575  3180.54467823
0.41900002 33903.45531342  2776.69312174
0.42000002 34069.02304783  2796.89657964
0.42100002 34232.67208565  2600.31389484
0.42200002 34394.09116371  2400.53570652
0.42300002 34552.85177694  2197.56147715
0.42400002 34709.22863076  2433.98477307
0.42500002 34863.73829920  2450.57228117
0.42600002 35014.28251316  2466.93139136
0.42700002 35163.90799492  3386.28450038
0.42800002 35310.41925202  2726.67070385
0.42900002 35454.90210992  3201.57781224
0.43000002 35596.64984611  2301.32352160
0.43100002 35734.49126948  2778.71417279
0.43200002 35870.31455612  2795.73244899
0.43300002 36003.00956631  2812.55524060
0.43400002 36133.51645932  2357.71206070
0.43500002 36260.29848839  2608.56599687
0.43600002 36385.40167266  3100.58215047
0.43700002 36506.68942664  2398.48960899
0.43800002 36623.99262006  3135.19703681
0.43900002 36739.56481625  3394.73594990
0.44000002 36851.35903203  3656.57627324
0.44100002 36960.61529592  3185.63558332
0.44200002 37066.53644535  3448.30004893
0.44300002 37169.48998048  2723.03696502
0.44400002 37268.55392972  2736.44370197
0.44500002 37364.05433004  3499.51749440
0.44600002 37456.87832095  2762.63219149
0.44700002 37546.89141162  2775.46634468
0.44800002 37632.16579684  3294.88443249
0.44900002 37715.70482332  2800.39121585
0.45000002 37795.61825754  2812.56106593
0.45100002 37870.99541513  2824.41897192
0.45200002 37943.91958275  2836.11840362
0.45300002 38012.77277518  3106.40393841
0.45400002 38078.86074947  2858.77060625
0.45500002 38141.43397606  3652.42389065
0.45600002 38200.36877042  3666.08956465
0.45700002 38255.70954072  2890.98410701
0.45800002 38307.03993905  2901.18380728
0.45900002 38355.41625220  3440.48100088
0.46000002 38400.79950465  3452.04003508
0.46100002 38441.34008510  3196.78199299
0.46200002 38479.58635898  2939.64813922
0.46300002 38513.88699988  2948.62332846
0.46400002 38544.09211333  2957.29560756
0.46500002 38571.94070297  2965.79666122
0.46600002 38595.16008907  4055.38663857
0.46700002 38615.05570930  4337.24326284
0.46800002 38632.14426377  2989.54862554
0.46900002 38645.05820810  3541.81975264
0.47000002 38653.84058707  3003.98336360
0.47100002 38659.93735497  3284.54843336
0.47200002 38662.12029997  3291.69307836
0.47300002 38661.81423640  2748.85512250
0.47400002 38656.05776801  3580.51752047
0.47500002 38648.34367767  3035.44105632
0.47600002 38637.31154579  3317.39972656
0.47700002 38621.43973965  5261.39898511
