# SAXS profile: number of points = 501, q_min = 0, q_max = 0.5, delta_q = 0.001
#    q    intensity    error
0.00000000 1719190.39626458 309.45427133
0.00100000 1719119.62198432 618.88307861
0.00200000 1718907.24380044 850.85911262
0.00300000 1718553.42616316 1649.81134789
0.00400000 1718058.04776223 1546.25230174
0.00500000 1717421.58746770 1854.81538788
0.00600000 1716643.72464052 2343.21877953
0.00700000 1715725.17867192 2058.87029997
0.00800000 1714665.36999201 3472.19752083
0.00900000 1713465.72588685 2827.21856857
0.01000000 1712125.30216200 3955.00961877
0.01100000 1710645.41865309 3079.16188764
0.01200000 1709025.58047783 4332.38003646
0.01300000 1707267.12539748 4660.83945790
0.01400000 1705369.28360692 4220.78916404
0.01500000 1703333.98279142 4496.80191481
0.01600000 1701159.96541709 5205.54972688
0.01700000 1698849.44101025 5045.58306614
0.01800000 1696401.85191586 6768.64369372
0.01900000 1693818.10514512 5589.59999920
0.02000000 1691098.78283702 6392.35368829
0.02100000 1688245.58381972 8356.81601879
0.02200000 1685256.70157580 7558.37664996
0.02300000 1682134.91442147 9083.52895134
0.02400000 1678880.24707361 8184.54157768
0.02500000 1675494.16578369 7187.87029949
0.02600000 1671976.66331046 8125.80695535
0.02700000 1668329.04084553 9809.77520947
0.02800000 1664550.95656487 8688.95639174
0.02900000 1660645.02062605 7472.90293593
0.03000000 1656611.76507601 7703.24506169
0.03100000 1652451.26780981 11104.47303063
0.03200000 1648164.77665983 10605.94082630
0.03300000 1643754.85173216 14251.35522151
0.03400000 1639219.70221044 9466.49421705
0.03500000 1634562.68780567 10591.96670610
0.03600000 1629783.47834636 9045.29872284
0.03700000 1624884.14498005 12040.39207114
0.03800000 1619865.57174522 10423.83543659
0.03900000 1614729.55811413 12594.89113656
0.04000000 1609474.94792540 11877.92566610
0.04100000 1604105.53811220 12127.03843042
0.04200000 1598621.67529341 12373.33234081
0.04300000 1593023.77259765 10513.95738718
0.04400000 1587315.09054132 12857.25283050
0.04500000 1581495.68641168 14186.01696626
0.04600000 1575565.72950340 12218.51280030
0.04700000 1569528.54033682 14690.78782079
0.04800000 1563384.31987411 18385.40045716
0.04900000 1557135.75132991 12846.37054644
0.05000000 1550782.76418236 11863.48869843
0.05100000 1544328.13946607 14454.91205877
0.05200000 1537770.68918581 20782.97183286
0.05300000 1531115.44968882 17362.85000889
0.05400000 1524361.20863428 15091.17666924
0.05500000 1517511.73992472 20395.35873602
0.05600000 1510565.53396604 20664.53746895
0.05700000 1503527.97511318 15696.83279289
0.05800000 1496397.23994468 14567.42781105
0.05900000 1489175.46481769 16083.09577121
0.06000000 1481865.84499155 17626.79504968
0.06100000 1474469.78702305 19197.59752417
0.06200000 1466987.50650055 15249.33584288
0.06300000 1459422.51740268 15411.50250434
0.06400000 1451772.84297783 18401.22164531
0.06500000 1444044.70348468 17155.25187988
0.06600000 1436236.21705609 17321.00958812
0.06700000 1428350.38232518 14569.17458154
0.06800000 1420390.43644575 14701.04170536
0.06900000 1412356.39011106 14829.74279048
0.07000000 1404248.56442416 14955.24791145
0.07100000 1396071.55019749 21108.60282767
0.07200000 1387824.30206770 21275.34754738
0.07300000 1379511.95230432 24500.13342089
0.07400000 1371133.43968072 20052.82749509
0.07500000 1362691.59311238 26408.96431237
0.07600000 1354186.33886733 18769.02353660
0.07700000 1345623.30153096 17318.17270273
0.07800000 1337000.65564491 17427.80436363
0.07900000 1328320.46931551 15939.84637942
0.08000000 1319587.28351726 20842.88212092
0.08100000 1310800.90638517 16122.85190499
0.08200000 1301961.68464487 17830.36610790
0.08300000 1293073.92448030 17922.00543441
0.08400000 1284137.33597177 24559.12770323
0.08500000 1275156.47106175 18094.47117381
0.08600000 1266130.14995947 24784.49884913
0.08700000 1257062.11658017 19911.86486165
0.08800000 1247951.50896875 16660.15342716
0.08900000 1238803.85795632 21741.00872830
0.09000000 1229618.19837851 16784.28919632
0.09100000 1220397.19992778 20209.77858028
0.09200000 1211142.16918444 18584.97745938
0.09300000 1201856.35198443 20335.41043118
0.09400000 1192537.96452489 23791.13351039
0.09500000 1183191.61502724 20445.55206867
0.09600000 1173818.11243423 17079.05433877
0.09700000 1164421.05543767 18828.68935162
0.09800000 1155000.93947755 20582.11770921
0.09900000 1145559.42270818 18901.73136349
0.10000000 1136096.53161724 17211.86326343
0.10100000 1126615.27937351 18960.93604362
0.10200000 1117117.95985516 18985.42062074
0.10300000 1107605.32972584 19006.50835218
0.10400000 1098080.27271442 17294.76510889
0.10500000 1088545.31832537 20769.44565084
0.10600001 1078997.10122766 19049.69471853
0.10700001 1069442.66980604 19057.46927274
0.10800001 1059880.27318189 20794.85193847
0.10900001 1050313.82907181 24262.25059348
0.11000001 1040743.66716137 20794.05944865
0.11100001 1031171.75978461 22520.79229383
0.11200001 1021599.94883368 22510.95593230
0.11300001 1012027.89166573 20766.81331470
0.11400001 1002460.25106421 19021.68415957
0.11500001 992897.00063155 20731.69034940
0.11600001 983339.28376614 27612.16838845
0.11700001 973790.03435212 17236.08441976
0.11800001 964247.72569291 24096.55179997
0.11900001 954716.66699689 18903.39089692
0.12000001 945196.64790184 20586.38396102
0.12100001 935691.94862546 20547.79615978
0.12200001 926200.12874357 17088.39318038
0.12300001 916725.38769104 20461.31161729
0.12400001 907267.11842160 22114.63705351
0.12500001 897827.89987292 20362.73772862
0.12600001 888410.36936677 18616.64016736
0.12700001 879014.16323771 23627.90182133
0.12800001 869639.44024231 21875.78115028
0.12900001 860289.85046763 20130.78344975
0.13000001 850965.81405807 20065.77484129
0.13100001 841667.00604700 24997.51125792
0.13200001 832397.99576112 16606.34079826
0.13300001 823158.58545217 26472.78135615
0.13400001 813948.30013434 19778.94462575
0.13500001 804770.54344021 19700.78383227
0.13600001 795624.56642085 19620.10273304
0.13700001 786513.59437414 21165.08182261
0.13800001 777436.13141632 17830.49851484
0.13900001 768397.21144650 17749.97642147
0.14000001 759394.13670489 17667.30542364
0.14100001 750430.15056006 20779.41184903
0.14200001 741504.20835192 20676.84582512
0.14300001 732621.64525435 22154.47959747
0.14400001 723775.95891330 17316.34063381
0.14500001 714976.69302131 20355.38741052
0.14600001 706218.75401518 18686.54911277
0.14700001 697507.47708550 20130.06673835
0.14800001 688839.37485330 16935.11682974
0.14900001 680217.07729794 21426.83894582
0.15000001 671642.92379741 19776.52682433
0.15100001 663115.89529471 18142.85175133
0.15200001 654639.20300995 16526.36745982
0.15300001 646211.71483830 19405.73871233
0.15400001 637832.45911217 17795.52644902
0.15500001 629506.42877294 20622.63157985
0.15600001 621230.89657377 20481.98362668
0.15700001 613010.71773627 15981.19016565
0.15800001 604839.53091688 15867.96584255
0.15900001 596725.47035874 17185.69435751
0.16000001 588663.80296153 17059.47781507
0.16100001 580660.72746701 18343.07324655
0.16200001 572711.15532440 22404.46145392
0.16300001 564819.46336604 19452.38323663
0.16400001 556984.34048934 15163.89938570
0.16500001 549207.60284336 20512.90493464
0.16600001 541488.19041489 21702.84769649
0.16700001 533827.74661090 18833.44378965
0.16800001 526225.21634134 18675.73380975
0.16900001 518685.03660544 15871.76286956
0.17000001 511203.82718044 17046.09242224
0.17100001 503783.47531478 14297.37570457
0.17200001 496423.93252528 14170.42182310
0.17300001 489126.11006606 14042.81128316
0.17400001 481891.15560677 17709.50080490
0.17500001 474717.54276474 15039.05246505
0.17600001 467604.82086581 19863.85372853
0.17700001 460557.31894179 12296.88099653
0.17800001 453572.21201117 14614.09736125
0.17900001 446650.28878953 12059.55836693
0.18000001 439792.77179508 13134.41175006
0.18100001 433000.36208801 15367.18357639
0.18200001 426269.20650843 15211.41735281
0.18300001 419605.29561583 11581.10670608
0.18400001 413004.24529742 13753.04201811
0.18500001 406469.40560041 15876.69573280
0.18600001 399998.75843904 16829.94855643
0.18700001 393593.17249363 14429.12638532
0.18800001 387251.85563652 12076.44968859
0.18900001 380978.37585606 14115.24949238
0.19000001 374766.19067080 11810.75705703
0.19100001 368624.14364645 14862.92617410
0.19200001 362544.72407452 12594.80430947
0.19300001 356532.72349428 13487.63356711
0.19400001 350585.27020068 14356.46749312
0.19500001 344703.81890904 13174.58058127
0.19600001 338887.22111971 11015.52964305
0.19700001 333136.58796250 15830.65140810
0.19800001 327451.74024966 11729.32189006
0.19900001 321833.20036622 12551.49540747
0.20000001 316277.93022251 13350.09206563
0.20100001 310790.07193116 13183.71547441
0.20200001 305365.97704843 13947.59166090
0.20300001 300008.02654079 11016.29525526
0.20400001 294715.11789098 11781.23739454
0.20500001 289486.37129049 9839.64222525
0.20600001 284322.54629462 10593.85857569
0.20700001 279223.38296628 16552.36292466
0.20800001 274188.16659018 10314.95931471
0.20900001 269219.55653561 14416.70793398
0.21000001 264312.54499288 12548.23866672
0.21100001 259469.74941367 9901.36610570
0.21200001 254690.36031389 9764.82887606
0.21300001 249974.08460447 8826.58534466
0.21400001 245321.98701862 7911.63445539
0.21500001 240733.25757891 7799.75791431
0.21600001 236205.35563084 10763.87856500
0.21700001 231740.76386508 9851.30033767
0.21800001 227338.12729398 8214.86361817
0.21900001 222996.06371972 8830.64454083
0.22000001 218715.37935802 8700.49820224
0.22100001 214498.42397056 9285.63721274
0.22200001 210340.52071592 8443.06890076
0.22300001 206243.39772705 7622.75634044
0.22400001 202204.44202746 8871.72031347
0.22500001 198228.21105661 9407.91134162
0.22600001 194310.04686101 9924.38611273
0.22700001 190451.61302911 7816.13456833
0.22800001 186651.21942394 7693.76362849
0.22900001 182908.56802119 8834.48425321
0.23000001 179224.39790927 6831.13824937
0.23100001 175599.05811111 8555.18651577
0.23200001 172028.83731791 7816.13059319
0.23300001 168516.65739586 5914.93495434
0.23400001 165060.67657295 6400.22803682
0.23500001 161659.24005577 6867.28484237
0.23600001 158314.28589931 7316.49506888
0.23700001 155024.01280274 6641.22902259
0.23800001 151788.65112289 7618.27276019
0.23900001 148607.32109977 10164.74124401
0.24000001 145479.71458060 5785.00112393
0.24100001 142406.13613374 6203.21158341
0.24200001 139385.02419628 9145.05187010
0.24300001 136416.20212320 5492.11655727
0.24400001 133498.76993962 5396.68803009
0.24500001 130633.24754096 6266.47718097
0.24600001 127818.60299922 5209.24741166
0.24700001 125055.48764129 6047.68366842
0.24800001 122341.36969230 7311.12059868
0.24900001 119676.52977280 5385.44409455
0.25000001 117061.48289149 4407.36503937
0.25100001 114494.52874182 5193.47206943
0.25200001 111976.71708631 4674.46827592
0.25300001 109506.44076181 5423.85426754
0.25400001 107082.77238823 6143.87435645
0.25500001 104705.87440088 4824.84692067
0.25600001 102375.73050033 4341.24305726
0.25700001 100091.00592922 4260.87432400
0.25800001 97851.34374959  3801.52488454
0.25900001 95656.76844811  4103.67556059
0.26000001 93506.74412233  4026.86812616
0.26100001 91398.53022388  5747.13985241
0.26200001 89336.29051135  5638.90692389
0.26300001 87315.40333855  4149.22816298
0.26400001 85336.39785432  4070.54637026
0.26500001 83400.07848095  3993.19594662
0.26600001 81504.44141127  5222.80485278
0.26700001 79650.29801575  3842.33055810
0.26800001 77836.57737728  4396.98846411
0.26900001 76061.92332893  3388.55884466
0.27000001 74327.10166011  3625.67619056
0.27100001 72631.18818474  3259.68787999
0.27200001 70973.93909771  3487.65953231
0.27300001 69353.82236896  3135.48645768
0.27400001 67770.10208780  3634.17189644
0.27500001 66225.68625912  3015.91789497
0.27600001 64715.60610864  3495.61362939
0.27700001 63242.67739270  3955.82965813
0.27800001 61804.61701276  4655.74201991
0.27900001 60401.62251532  2790.55509228
0.28000001 59033.13800798  3483.54563872
0.28100001 57698.27616197  2440.63719716
0.28200001 56397.51792390  3112.29717393
0.28300001 55129.68551606  3757.63954262
0.28400001 53894.47872748  2764.78688958
0.28500001 52691.69721428  2260.47391748
0.28600001 51519.72742172  2439.71680753
0.28700001 50379.31810416  2394.02530962
0.28800001 49269.10716356  3203.72384495
0.28900001 48190.85659481  3354.08377776
0.29000001 47140.56216983  2263.45419972
0.29100001 46120.91578828  2626.12506929
0.29200001 45129.83387893  2181.80192215
0.29300001 44166.92470755  2532.08991334
0.29400001 43231.86352202  2295.61206169
0.29500001 42325.27202267  2255.09060012
0.29600001 41445.05908731  2584.92845764
0.29700001 40591.15108846  2177.30944745
0.29800001 39764.10889791  2318.44647904
0.29900001 38962.73957656  2103.98803674
0.30000001 38186.55114666  2413.77201225
0.30100001 37436.43008801  1695.87036327
0.30200001 36709.58629538  2669.52124178
0.30300001 36007.08578867  1806.11550866
0.30400001 35329.27936168  2262.84045024
0.30500001 34673.31386409  2228.10725439
0.30600001 34040.61378504  1881.08440682
0.30700001 33430.89830045  2316.76136190
0.30800001 32843.10322547  1674.50569723
0.30900001 32276.87872174  1801.04991794
0.31000001 31732.65198264  1776.39394209
0.31100001 31207.74831986  1752.62722862
0.31200001 30704.37077379  2018.19838651
0.31300001 30220.79603613  1850.41942890
0.31400001 29758.27140334  1827.90190750
0.31500001 29313.78658505  1528.42090491
0.31600002 28888.80497047  1648.39528966
0.31700002 28481.80225755  1494.44023521
0.31800002 28093.51684046  1881.98478225
0.31900002 27723.32259474  1463.79150231
0.32000002 27370.57827720  1449.68274709
0.32100002 27035.22629948  1566.96179051
0.32200002 26716.64919678  1423.86388636
0.32300002 26413.91293280  1412.08785225
0.32400002 26127.85809445  1273.73314242
0.32500002 25857.11100303  1643.73662430
0.32600002 25602.26391198  1506.94932522
0.32700002 25362.28312447  1372.60682769
0.32800002 25137.98922167  1984.89572293
0.32900002 24926.76636442  1357.26249281
0.33000002 24731.50184788  1964.67059983
0.33100002 24547.41651427  1466.95368036
0.33200002 24379.54812855  1339.53433536
0.33300002 24223.40116894  1456.31094724
0.33400002 24080.98691962  2178.12537003
0.33500002 23950.50695329  1207.10560761
0.33600002 23832.44420394  1927.56817850
0.33700002 23725.64349565  1443.46821863
0.33800002 23631.89088241  1442.01804993
0.33900002 23548.49310340  1561.26516669
0.34000002 23476.56481165  1320.90898168
0.34100002 23415.40901094  1201.21053915
0.34200002 23365.86085802  1442.60831769
0.34300002 23324.93652374  1203.56678163
0.34400002 23295.17290694  1326.07778053
0.34500002 23274.44293431  1811.91546825
0.34600002 23264.53521205  1210.91911514
0.34700002 23261.66113705  1457.11052264
0.34800002 23269.43661061  1218.15506426
0.34900002 23285.33503428  1589.22419136
0.35000002 23309.96619918  1472.72373422
0.35100002 23342.70749896  1355.74451575
0.35200002 23382.48640734  1361.91298530
0.35300002 23430.62086617  1741.83243769
0.35400002 23486.62084922  1625.86140529
0.35500002 23549.33395159  1383.28794183
0.35600002 23618.83914190  1517.74667515
0.35700002 23695.14995039  1526.91553513
0.35800002 23778.75703367  1792.68057768
0.35900002 23868.02304997  2062.19728919
0.36000002 23964.07970122  1297.65497729
0.36100002 24065.19461453  2221.45822009
0.36200002 24173.18830725  1711.09921538
0.36300002 24284.92241321  1723.74387454
0.36400002 24402.68482644  1469.65176329
0.36500002 24525.03949679  1346.42473215
0.36600002 24652.84459586  2307.13657079
0.36700002 24784.86272393  1368.12448717
0.36800002 24922.74168524  1517.42119938
0.36900002 25063.64944414  1669.23913205
0.37000002 25207.92145751  1683.38507467
0.37100002 25356.49920573  1839.36053951
0.37200002 25509.47471285  1712.70621335
0.37300002 25665.09805296  1583.79327587
0.37400002 25825.24005285  1743.20378614
0.37500002 25987.21432517  1905.38264458
0.37600002 26153.50446439  2070.57304653
0.37700002 26321.27855831  2238.62484743
0.37800002 26492.59383264  2259.15604610
0.37900002 26666.37066163  1671.98151969
0.38000002 26842.39271326  1687.44709786
0.38100002 27020.16865911  2632.03475377
0.38200002 27200.31828522  2187.72170332
0.38300002 27382.07161820  2050.36961990
0.38400002 27566.22025451  2069.53408365
0.38500002 27750.99023766  1767.46065197
0.38600002 27938.14279832  2757.07575267
0.38700002 28125.51357518  1800.59546439
0.38800002 28314.12665684  1652.12936870
0.38900002 28504.02583356  2167.73126734
0.39000002 28695.31598031  1682.98036198
0.39100002 28886.40978132  1868.37307317
0.39200002 29079.04804453  1885.63095978
0.39300002 29271.41892967  1902.93503477
0.39400002 29465.18953544  1920.39381896
0.39500002 29658.05073963  1937.85712714
0.39600002 29851.27164598  2666.46496611
0.39700002 30044.10921127  2152.36008587
0.39800002 30238.16565930  3257.55774081
0.39900002 30430.77480370  1825.84657473
0.40000002 30622.95331900  3131.35023999
0.40100002 30814.93819196  2415.58311932
0.40200002 31007.15609544  2249.25920973
0.40300002 31197.74675803  2268.70025173
0.40400002 31387.72391045  2478.84561328
0.40500002 31576.92661983  2307.64190671
0.40600002 31765.40428220  3102.84483730
0.40700002 31952.59984195  2737.69888417
0.40800002 32138.75122786  2563.22622563
0.40900002 32323.20936297  2385.45296401
0.41000002 32507.06284342  2004.06051925
0.41100002 32689.29028122  2626.25770563
0.41200002 32869.15442901  2036.24421336
0.41300002 33048.23466702  3078.44320510
0.41400002 33225.26424200  2895.58191589
0.41500002 33401.21522003  2292.65952134
0.41600002 33574.14958863  2940.08841879
0.41700002 33746.04824219  2750.64052256
0.41800002 33916.75009964  2558.00141372
0.41900002 34083.44966445  2576.70891673
0.42000002 34248.96426207  2811.66885432
0.42100002 34412.71325623  2396.15733757
0.42200002 34574.11133196  2632.47296156
0.42300002 34732.77025929  3092.60601043
0.42400002 34889.02533318  2446.59301742
0.42500002 35043.42775147  2687.13016731
0.42600002 35193.84054725  2254.16559387
0.42700002 35343.18485888  2495.93583301
0.42800002 35489.46209628  3197.24579176
0.42900002 35633.61313684  2987.87860311
0.43000002 35775.05083501  3006.71428991
0.43100002 35912.50058219  2559.84316280
0.43200002 36047.87010696  2575.44020184
0.43300002 36180.17540538  3061.92838966
0.43400002 36310.11869738  2606.15889301
0.43500002 36436.38688547  3097.82175980
0.43600002 36560.89920186  2636.22376188
0.43700002 36681.54114911  3132.97057801
0.43800002 36798.23413997  4604.01128260
0.43900002 36913.12723972  3167.14646726
0.44000002 37024.18187098  3183.89467088
0.44100002 37132.66119347  2954.27466456
0.44200002 37237.77788121  3464.23064046
0.44300002 37339.92721655  2984.20712457
0.44400002 37438.18385003  2748.89877946
0.44500002 37532.65619258  3515.30874559
0.44600002 37624.59071736  3279.54760530
0.44700002 37713.59770019  2787.78927412
0.44800002 37797.79586628  3563.95434113
0.44900002 37880.33167776  2556.92250943
0.45000002 37959.18985443  3595.11504149
0.45100002 38033.43901986  3610.13420286
0.45200002 38105.12510298  4660.63807223
0.45300002 38172.75757894  2599.56491433
0.45400002 38237.69660294  3653.61208357
0.45500002 38298.97499293  2881.61501504
0.45600002 38356.62462515  3944.02011400
0.45700002 38410.66087990  2638.81252751
0.45800002 38460.61164950  3177.61588508
0.45900002 38507.53261462  3454.12583924
0.46000002 38551.49352639  4798.50462665
0.46100002 38590.69633265  2674.33538260
0.46200002 38627.36700332  3487.47199518
0.46300002 38660.12653471  4036.11740152
0.46400002 38688.83649083  2698.54647313
0.46500002 38715.09976828  3247.42272248
0.46600002 38736.71861049  3798.91017418
0.46700002 38754.99271832  3536.78080310
0.46800002 38770.38270073  3000.24620750
0.46900002 38781.60162221  3280.92365274
0.47000002 38788.69935016  3014.46391287
0.47100002 38793.03048286  3021.20135720
0.47200002 38793.48331067  3302.87732562
0.47300002 38791.30850446  3585.48081501
0.47400002 38783.79685523  2763.34565691
0.47500002 38774.19595703  3322.17326706
0.47600002 38761.27722780  2773.36951710
0.47700002 38743.57099857  2777.91417227
