# SAXS profile: number of points = 501, q_min = 0, q_max = 0.5, delta_q = 0.001
#    q    intensity    error
0.00000000 1700912.83420644 255.13692513
0.00100000 1700842.67858751 663.32866040
0.00200000 1700632.15377810 1147.92674015
0.00300000 1700281.43313118 1122.18578584
0.00400000 1699790.38428594 1529.81140399
0.00500000 1699159.48067500 1682.16795245
0.00600000 1698388.43135951 1961.63871808
0.00700000 1697477.91038091 2648.06565025
0.00800000 1696427.38284695 2519.19476989
0.00900000 1695238.20658468 3305.71464415
0.01000000 1693909.50950103 3074.44589250
0.01100000 1692442.59051648 3351.03647512
0.01200000 1690836.91086147 3297.13212074
0.01300000 1689093.85341315 4965.93614806
0.01400000 1687212.65949496 5314.72011302
0.01500000 1685195.17916435 4448.91547110
0.01600000 1683040.19453196 4720.92795670
0.01700000 1680749.94112297 4991.82754906
0.01800000 1678323.85698694 5261.54552841
0.01900000 1675762.80684891 7540.93297109
0.02000000 1673067.33875510 8959.27600431
0.02100000 1670239.24352829 6062.96872889
0.02200000 1667276.58575198 6327.31493039
0.02300000 1664182.30818589 5991.05658217
0.02400000 1660956.29787779 7474.30368126
0.02500000 1657599.98086404 7111.10424268
0.02600000 1654113.49462791 8038.99195158
0.02700000 1650498.02355057 9704.92882297
0.02800000 1646753.22490897 8596.05222824
0.02900000 1642881.90496413 8871.56269414
0.03000000 1638884.27122966 9907.05587496
0.03100000 1634760.59667702 12554.96196017
0.03200000 1630511.95170639 9685.24143922
0.03300000 1626141.08969306 10781.31592169
0.03400000 1621646.16016507 9365.00700706
0.03500000 1617030.54076821 9605.16185571
0.03600000 1612293.75678935 11632.69999283
0.03700000 1607437.92712494 13743.59491253
0.03800000 1602464.11381620 10311.85704964
0.03900000 1597373.81925830 9584.24335940
0.04000000 1592166.11125893 9791.82203799
0.04100000 1586844.61898554 12996.25803208
0.04200000 1581409.75941967 10200.09342147
0.04300000 1575861.92106565 15601.03374272
0.04400000 1570204.39969307 11658.76820918
0.04500000 1564437.14273874 19430.31021564
0.04600000 1558560.42681317 10987.85151982
0.04700000 1552577.53526661 12296.41465119
0.04800000 1546488.54030169 11366.69130009
0.04900000 1540296.32474491 18483.55675730
0.05000000 1534000.55285400 16429.14668611
0.05100000 1527604.28364194 19064.50234795
0.05200000 1521106.09625002 13302.07343160
0.05300000 1514511.22215587 14721.04976562
0.05400000 1507818.14972685 14927.40037842
0.05500000 1501030.93998691 16391.25862930
0.05600000 1494147.91679514 15329.95834168
0.05700000 1487174.37855650 12938.41769739
0.05800000 1480108.74431592 14408.85929870
0.05900000 1472952.99049933 13256.57753365
0.06000000 1465710.12113696 16093.49788195
0.06100000 1458381.80711542 20344.42715998
0.06200000 1450968.08261735 17825.14372816
0.06300000 1443472.69341997 15243.07235521
0.06400000 1435893.41442612 18199.94987900
0.06500000 1428236.63782995 16967.45205112
0.06600000 1420500.27867853 14276.02846867
0.06700000 1412687.28370986 20173.17535546
0.06800000 1404801.04953973 17447.62985199
0.06900000 1396841.60131878 14666.83750053
0.07000000 1388809.12090796 19228.06317939
0.07100000 1380708.21917233 19385.14430514
0.07200000 1372538.11828393 19538.08102907
0.07300000 1364303.37441588 19686.89861526
0.07400000 1356003.40367537 24408.06241002
0.07500000 1347640.64754891 19972.03533281
0.07600000 1339215.33203497 15467.93781015
0.07700000 1330732.84877464 18683.49007284
0.07800000 1322191.61586602 17234.76852106
0.07900000 1313593.50350174 18915.74733764
0.08000000 1304943.03174064 17440.56443737
0.08100000 1296240.07832780 20726.87982493
0.08200000 1287484.84123808 17632.10572815
0.08300000 1278681.73695172 19333.66877008
0.08400000 1269830.45658594 17809.37298957
0.08500000 1260935.39639833 16266.06737715
0.08600000 1251995.75334707 17972.39988313
0.08700000 1243014.85552569 21330.13592244
0.08800000 1233991.70528217 18121.16904311
0.08900000 1224932.53965990 21497.56708077
0.09000000 1215835.77944528 24894.23875356
0.09100000 1206704.11370270 26644.02808232
0.09200000 1197538.85477072 16705.66780900
0.09300000 1188343.39760477 21782.33550169
0.09400000 1179115.81741281 21843.12154414
0.09500000 1169860.97450651 18530.59870717
0.09600000 1160579.30993246 18575.07272864
0.09700000 1151274.40962276 18616.10807880
0.09800000 1141947.01351812 20349.49673768
0.09900000 1132598.62882792 22085.67430067
0.10000000 1123229.22018068 22122.00053179
0.10100000 1113842.07924653 20450.14153677
0.10200000 1104439.17388724 18769.94464308
0.10300000 1095021.23210893 17082.33202446
0.10400000 1085591.25369938 17098.06305015
0.10500000 1076151.71014153 20532.97559556
0.10600001 1066699.11867777 22256.67815847
0.10700001 1057241.01457260 29116.41891148
0.10800001 1047775.01874263 18844.23459893
0.10900001 1038305.17441030 20558.44342092
0.11000001 1028831.99287502 18843.05883644
0.11100001 1019357.12113346 23975.28061766
0.11200001 1009883.03436501 18829.27006216
0.11300001 1000408.59454160 23949.78288090
0.11400001 990939.12398835 18803.07076301
0.11500001 981473.76003534 23908.70192027
0.11600001 972014.31973757 22176.50774914
0.11700001 962563.64194509 27259.80362368
0.11800001 953120.07015441 25519.79108032
0.11900001 943687.57380073 16986.37712850
0.12000001 934266.66853363 23739.71716570
0.12100001 924860.88955470 22002.44159900
0.12200001 915468.44613437 16890.39362691
0.12300001 906093.00394701 21909.32986768
0.12400001 896734.13550038 18495.14241614
0.12500001 887394.34294969 16771.75387204
0.12600001 878076.35692914 18400.09092653
0.12700001 868779.67516352 18348.62760416
0.12800001 859504.70871492 19957.70027695
0.12900001 850254.48305937 18237.95952122
0.13000001 841030.07957570 24789.36276394
0.13100001 831831.01605073 24705.38234126
0.13200001 822661.30631837 19694.51260167
0.13300001 813521.53608254 16351.78364613
0.13400001 804410.92813301 16289.32206266
0.13500001 795332.45974167 19469.73953244
0.13600001 786285.82437985 19389.80934345
0.13700001 777274.24575608 17698.53541041
0.13800001 768295.84936472 19222.76305757
0.13900001 759356.00228015 15946.47679989
0.14000001 750451.80501108 19046.46770942
0.14100001 741586.56150207 15795.79450497
0.14200001 732759.20392589 17289.45423209
0.14300001 723975.03246330 21893.00601433
0.14400001 715227.69330321 21778.68428838
0.14500001 706526.52921131 18567.51806354
0.14600001 697866.39763510 18465.54575252
0.14700001 689252.84312317 21421.97937488
0.14800001 680682.18189847 18255.89697981
0.14900001 672157.00736786 18148.24005518
0.15000001 663679.71595903 15032.34627574
0.15100001 655249.74768736 17927.63394264
0.15200001 646869.22147788 17814.77920013
0.15300001 638537.89743386 16225.24873945
0.15400001 630254.49493553 24910.81008789
0.15500001 622024.01373963 17466.43513010
0.15600001 613843.36321288 17347.21426310
0.15700001 605718.25779411 15791.07572598
0.15800001 597641.66324165 18529.88064339
0.15900001 589621.80682042 18396.20124111
0.16000001 581653.85045969 16856.32938198
0.16100001 573744.15021019 18124.57856070
0.16200001 565887.52514625 15219.54570726
0.16300001 558088.58107393 15101.87771679
0.16400001 550345.64075312 17707.37182719
0.16500001 542660.59333832 17565.92423567
0.16600001 535032.73550098 21444.11305132
0.16700001 527463.13981981 14621.27892614
0.16800001 519951.28171667 14498.84217525
0.16900001 512501.09517200 18296.28996156
0.17000001 505109.53193023 15547.27212695
0.17100001 497778.18678303 15411.21339054
0.17200001 490507.22826151 16547.26212681
0.17300001 483297.43372356 17659.68906223
0.17400001 476150.29258710 14998.73492482
0.17500001 469063.70911477 12383.28250546
0.17600001 462037.65735862 17173.94053513
0.17700001 455076.17928611 15795.69492906
0.17800001 448176.52151645 12033.54017109
0.17900001 441339.47717191 14299.39973578
0.18000001 434566.49208507 11798.48081741
0.18100001 427857.93139182 16352.73091024
0.18200001 421210.01849970 13874.65866479
0.18300001 414628.71972061 11443.75320488
0.18400001 408109.93791552 15855.07183702
0.18500001 401656.42128456 17929.94349319
0.18600001 395266.79552973 13304.68096609
0.18700001 388941.52116813 14258.59683967
0.18800001 382680.07033512 14103.67465855
0.18900001 376485.50073400 11802.82100566
0.19000001 370351.78130851 10610.57903583
0.19100001 364287.57167163 12589.77907184
0.19200001 358284.96842806 14521.29045654
0.19300001 352349.67734940 12304.05131444
0.19400001 346478.14312570 10134.48616532
0.19500001 340672.05387808 14022.06240024
0.19600001 334929.71656136 10886.89095130
0.19700001 329253.06771244 16623.98817441
0.19800001 323641.38339792 11592.83490118
0.19900001 318095.40988441 10497.14902228
0.20000001 312612.02063164 12252.82872774
0.20100001 307195.24203244 11169.61952820
0.20200001 301841.51364303 11029.28942980
0.20300001 296553.27691026 9074.53070236
0.20400001 291329.30781594 11645.88963039
0.20500001 286168.76881193 14148.18459880
0.20600001 281072.75815159 9600.04050844
0.20700001 276040.36013013 9473.70560748
0.20800001 271071.31904091 11047.51212973
0.20900001 266168.10026494 10061.15466562
0.21000001 261325.83358984 10752.25193134
0.21100001 256546.93961395 8974.01237193
0.21200001 251830.78565908 10459.79217683
0.21300001 247176.93706402 10314.69407131
0.21400001 242586.56312253 12517.46724890
0.21500001 238058.76757428 11569.65665110
0.21600001 233591.26067735 8363.73548398
0.21700001 229186.09384930 11241.57843480
0.21800001 224842.36360449 9601.89359171
0.21900001 220558.33196419 12373.32300822
0.22000001 216334.81530954 7888.64941326
0.22100001 212174.25695985 10598.10463626
0.22200001 208072.07274094 8352.01339474
0.22300001 204029.80158630 9597.56232044
0.22400001 200045.11818325 8101.82766953
0.22500001 196122.49283858 7313.40810378
0.22600001 192256.87671574 9819.52044260
0.22700001 188450.36513425 8378.50363008
0.22800001 184701.11425845 7613.38028977
0.22900001 181008.86558672 8118.24800548
0.23000001 177374.34967061 7989.82795877
0.23100001 173797.77586177 6652.97917463
0.23200001 170275.68868751 7141.36272130
0.23300001 166810.79004440 7611.57670971
0.23400001 163401.38918127 8639.84886158
0.23500001 160045.72620885 5665.61897576
0.23600001 156745.87688766 7244.01104298
0.23700001 153499.82256640 6575.93270977
0.23800001 150307.97734802 6466.24949136
0.23900001 147169.37979009 5827.90771535
0.24000001 144083.70563300 5208.62620500
0.24100001 141051.37432557 5120.16513021
0.24200001 138070.77609506 5535.94802939
0.24300001 135141.66023276 5935.42199818
0.24400001 132263.22203408 5346.74100365
0.24500001 129435.85019247 6686.65633725
0.24600001 126658.71553280 4692.70563248
0.24700001 123932.31656766 6454.39535217
0.24800001 121254.11412479 4528.84137681
0.24900001 118624.55866979 5338.10539267
0.25000001 116044.01535780 6116.68033888
0.25100001 113510.74514445 5577.91828028
0.25200001 111026.00622935 4634.78084931
0.25300001 108588.05535469 4550.92561522
0.25400001 106195.94588984 5686.79317145
0.25500001 103849.86618511 4386.61855520
0.25600001 101549.87742648 5089.17234801
0.25700001 99294.40558554  5379.77114916
0.25800001 97083.53772171  4148.86518084
0.25900001 94916.87562273  4442.10998932
0.26000001 92794.26565464  3632.89567227
0.26100001 90712.64686025  3921.50790932
0.26200001 88676.17807775  4547.75800790
0.26300001 86680.43602824  4805.56360079
0.26400001 84726.04006737  4041.43230245
0.26500001 82813.55063082  3965.11299183
0.26600001 80940.97194670  3565.85468785
0.26700001 79109.39437171  5406.33626719
0.26800001 77317.46607224  4055.68787474
0.26900001 75563.87253473  3366.37068072
0.27000001 73849.58890401  3902.58171031
0.27100001 72173.41244338  3533.61044045
0.27200001 70535.29066184  2888.42028929
0.27300001 68933.81858934  4249.77011715
0.27400001 67368.03817372  4446.29072989
0.27500001 65840.76573865  3270.96939670
0.27600001 64347.26299630  3208.35468483
0.27700001 62890.46559367  3671.54555512
0.27800001 61467.74979866  3858.63817623
0.27900001 60079.60951241  3028.01246273
0.28000001 58725.27234378  3217.85145037
0.28100001 57404.09019761  2671.01244331
0.28200001 56116.29317842  2382.13675817
0.28300001 54860.87130807  2804.48787401
0.28400001 53637.51964166  2980.90529517
0.28500001 52446.02821080  2699.92166008
0.28600001 51284.70160838  2870.14846136
0.28700001 50154.55259005  2816.67980678
0.28800001 49053.88815059  2764.43199758
0.28900001 47984.53770574  2296.06023790
0.29000001 46942.84771217  2868.67755948
0.29100001 45931.23520976  2011.78819742
0.29200001 44947.49618153  2568.07531589
0.29300001 43991.49977190  2522.03280131
0.29400001 43062.94046483  1905.53520577
0.29500001 42162.31694428  4305.61601016
0.29600001 41287.44427403  2575.09802127
0.29700001 40438.45088249  1807.59884002
0.29800001 39615.88177691  1776.77238180
0.29900001 38818.48658586  2096.19837487
0.30000001 38045.84100590  1889.54678301
0.30100001 37298.69447824  2196.52022181
0.30200001 36574.41782790  1828.53810587
0.30300001 35874.09990044  1799.44493619
0.30400001 35197.98390735  2254.43097599
0.30500001 34543.37036500  1744.09485230
0.30600001 33911.53185160  1717.78872727
0.30700001 33302.28956721  1538.56585085
0.30800001 32714.45209538  1971.20940433
0.30900001 32147.83250516  1943.33656694
0.31000001 31602.93985277  2063.98809950
0.31100001 31076.86279599  2181.59587157
0.31200001 30572.03996508  1865.96454761
0.31300001 30086.43287521  1842.19237217
0.31400001 29621.64281699  2099.43403406
0.31500001 29174.68263427  1797.74402904
0.31600002 28746.62594051  1776.97276665
0.31700002 28336.36447496  1486.80911440
0.31800002 27944.47776591  2005.71498662
0.31900002 27570.31305869  1852.72512527
0.32000002 27213.22174165  1572.38002668
0.32100002 26873.36325505  1297.98350668
0.32200002 26549.90172371  1414.97707936
0.32300002 26242.05728998  1785.50966256
0.32400002 25950.49433123  1897.62998783
0.32500002 25674.03670545  1757.64463608
0.32600002 25413.21493154  1745.12555198
0.32700002 25167.01004189  1981.14712431
0.32800002 24936.11509347  1353.65707195
0.32900002 24718.19913391  1345.90600657
0.33000002 24515.90353940  1582.37906888
0.33100002 24324.61989712  1211.36612824
0.33200002 24149.27782716  1688.75907842
0.33300002 23985.44572135  1922.67342007
0.33400002 23835.21384717  1317.49150779
0.33500002 23696.70685336  1552.60830656
0.33600002 23570.34688021  1310.62920034
0.33700002 23455.13397341  1664.84548827
0.33800002 23352.74953172  1306.23610692
0.33900002 23260.51950869  1304.91520624
0.34000002 23179.67006334  1304.20419788
0.34100002 23109.39859985  1541.16586561
0.34200002 23050.55231767  1423.14116749
0.34300002 23000.27291528  1305.49555250
0.34400002 22960.95826195  1901.16743413
0.34500002 22930.57337056  1904.15490287
0.34600002 22910.92211682  1550.26761846
0.34700002 22898.14137912  1195.28303660
0.34800002 22895.89016352  1558.17987888
0.34900002 22901.71000767  1803.50974852
0.35000002 22916.07769726  2533.71625060
0.35100002 22938.56607167  2180.08142271
0.35200002 22968.09016000  1216.16043157
0.35300002 23005.75357905  1221.60557291
0.35400002 23051.31642275  1841.22398647
0.35500002 23103.54590558  1357.10235077
0.35600002 23162.39259410  1240.34618216
0.35700002 23228.11972731  1372.08509728
0.35800002 23300.99322948  1505.71025381
0.35900002 23379.55851423  1388.74584152
0.36000002 23464.94360294  1270.62675628
0.36100002 23555.35164670  1662.77235150
0.36200002 23652.59501607  1287.88385963
0.36300002 23753.57583276  1296.94530190
0.36400002 23860.57703838  1567.63998568
0.36500002 23972.18517864  1447.68033151
0.36600002 24089.23791569  1591.33513209
0.36700002 24210.56923123  2004.63522730
0.36800002 24337.73312190  1481.80295132
0.36900002 24468.10124116  1765.37358817
0.37000002 24601.73875241  1369.08682642
0.37100002 24739.72223897  2070.71484949
0.37200002 24882.10676677  1670.58472746
0.37300002 25027.33237855  1684.84009554
0.37400002 25176.99863035  1841.06811206
0.37500002 25328.72979325  1857.10255641
0.37600002 25484.69318469  1729.39136144
0.37700002 25642.27579691  1599.30881722
0.37800002 25803.49315624  1760.31438651
0.37900002 25967.21512692  2220.19699853
0.38000002 26133.32067738  1642.87128221
0.38100002 26301.24365156  1808.47359915
0.38200002 26471.61857593  1977.03292700
0.38300002 26643.72237634  1688.14632974
0.38400002 26818.31886279  1858.50958524
0.38500002 26993.63553480  1719.22472866
0.38600002 27171.50197292  1735.03634068
0.38700002 27349.78960242  1750.93361330
0.38800002 27529.27497386  2570.13323332
0.38900002 27710.22293984  1621.04811878
0.39000002 27892.77597023  1799.50252697
0.39100002 28075.25498373  2146.07259263
0.39200002 28259.25958831  2332.23680432
0.39300002 28443.35740455  1849.10275247
0.39400002 28628.90625041  2035.51533084
0.39500002 28813.76486163  2396.15279942
0.39600002 28999.04941543  1726.89347451
0.39700002 29184.16546591  2613.44214129
0.39800002 29370.55044799  2109.39303311
0.39900002 29555.76950017  2482.68475564
0.40000002 29740.84223914  3041.14996725
0.40100002 29925.62797935  1804.51545265
0.40200002 30111.03708077  2366.27596111
0.40300002 30294.89326479  2570.21886636
0.40400002 30478.36339961  2777.34099638
0.40500002 30661.18365748  2053.99279053
0.40600002 30843.50782686  1882.99624205
0.40700002 31024.72173537  1898.71306017
0.40800002 31205.20270578  3254.54677040
0.40900002 31384.01422861  1930.11696651
0.41000002 31562.48666993  1945.82739540
0.41100002 31739.51322915  2353.80241260
0.41200002 31914.48904396  2174.81295895
0.41300002 32088.77500862  3188.34083593
0.41400002 32261.25405257  2811.56842390
0.41500002 32432.84694542  2428.57169435
0.41600002 32601.56957518  4078.45654711
0.41700002 32769.53054919  2671.04456163
0.41800002 32936.54303818  2691.08037645
0.41900002 33099.71799962  2502.33879934
0.42000002 33261.86404610  2310.53549545
0.42100002 33422.58605505  3173.47469630
0.42200002 33581.08784566  2769.93616220
0.42300002 33737.09431590  2145.67930016
0.42400002 33890.94920750  2376.60292579
0.42500002 34043.09919606  2392.88955588
0.42600002 34191.56346841  2408.96671832
0.42700002 34339.14139339  2425.03028011
0.42800002 34483.80138587  2662.83926920
0.42900002 34626.65129193  3350.12867125
0.43000002 34767.01260460  4270.60619566
0.43100002 34903.49860716  2940.27086200
0.43200002 35038.28850601  2958.45803020
0.43300002 35170.16250233  2518.53545614
0.43400002 35299.83717828  2994.30883054
0.43500002 35426.16502988  3475.30695412
0.43600002 35550.93292164  3029.47289248
0.43700002 35671.93506776  2812.37549402
0.43800002 35789.41075192  3535.09921455
0.43900002 35905.18099860  4265.53570478
0.44000002 36017.34178768  3097.31145381
0.44100002 36127.17275388  3113.80116722
0.44200002 36233.86749281  2648.51466990
0.44300002 36337.85637087  3388.14188859
0.44400002 36438.15643555  3405.14588027
0.44500002 36534.81518104  4155.10472745
0.44600002 36629.17819183  3438.38111982
0.44700002 36720.82828584  2714.40375553
0.44800002 36807.98509410  3222.72328764
0.44900002 36893.65200104  2739.35379090
0.45000002 36975.76335345  3752.11576411
0.45100002 37053.49770757  3768.34089545
0.45200002 37128.98605162  3279.78913831
0.45300002 37200.54933604  2533.35752985
0.45400002 37269.65889712  3306.75064236
0.45500002 37335.29429876  4085.97480170
0.45600002 37397.47314831  3589.03566814
0.45700002 37456.30801426  3087.89817904
0.45800002 37511.26549377  2840.91582681
0.45900002 37563.33899552  3369.43166759
0.46000002 37612.75137853  3121.10625731
0.46100002 37657.52496577  3131.59992457
0.46200002 37700.00102130  4189.22431204
0.46300002 37738.67966414  3151.93467494
0.46400002 37773.54171045  3161.64559101
0.46500002 37806.11945319  3171.17745003
0.46600002 37834.31665553  2650.29400733
0.46700002 37859.32556251  3455.04221459
0.46800002 37881.63260447  2931.47027804
0.46900002 37899.92026930  2939.13895619
0.47000002 37914.33404313  2946.51260982
0.47100002 37926.08788317  3222.20057928
0.47200002 37934.17350004  2960.57271113
0.47300002 37939.68769832  4316.01907713
0.47400002 37940.16855096  2973.56085112
0.47500002 37938.65692854  3521.46630302
0.47600002 37934.02094904  3799.85105857
0.47700002 37924.80402644  4622.65458189
