# SAXS profile: number of points = 501, q_min = 0, q_max = 0.5, delta_q = 0.001
#    q    intensity    error
0.00000000 1719190.39626458 309.45427133
0.00100000 1719119.64964492 618.88308857
0.00200000 1718907.35427286 928.21000070
0.00300000 1718553.67162694 1237.35868765
0.00400000 1718058.49242283 1417.39831011
0.00500000 1717422.27660042 2163.95215417
0.00600000 1716644.73015533 2343.22015206
0.00700000 1715726.53717365 2264.75912319
0.00800000 1714667.15464802 3703.68121041
0.00900000 1713467.95396357 2827.22224490
0.01000000 1712128.07035262 3672.51486948
0.01100000 1710648.76698079 3079.16791463
0.01200000 1709029.56676416 3665.86858143
0.01300000 1707271.79775479 5019.37930678
0.01400000 1705374.72792735 6523.05862350
0.01500000 1703340.20105251 7358.42999621
0.01600000 1701167.01816831 4337.97609025
0.01700000 1698857.41362442 6421.68131157
0.01800000 1696410.80706080 5801.72522121
0.01900000 1693828.06556158 7622.22663896
0.02000000 1691109.80902038 6392.39536726
0.02100000 1688257.74165209 5571.25080004
0.02200000 1685270.02257026 7558.43639463
0.02300000 1682149.48325794 6661.31225691
0.02400000 1678896.09896246 6925.44672400
0.02500000 1675511.29234473 8494.84264015
0.02600000 1671995.17318115 7448.73883721
0.02700000 1668348.97842172 9809.89244242
0.02800000 1664572.37913671 7964.97919944
0.02900000 1660668.02254061 8967.60773346
0.03000000 1656636.33552531 12325.37490285
0.03100000 1652477.50826845 7931.89240466
0.03200000 1648192.61954964 10606.11999530
0.03300000 1643784.41104563 12574.95132421
0.03400000 1639251.04187327 11187.88887700
0.03500000 1634595.93112929 11474.86396641
0.03600000 1629818.54740228 14472.78936977
0.03700000 1624921.12459123 9262.05083852
0.03800000 1619904.56699505 14214.66323323
0.03900000 1614770.58362420 9688.62395043
0.04000000 1609518.07994650 12868.09764547
0.04100000 1604150.76578594 13137.99538095
0.04200000 1598669.05097510 10311.41585717
0.04300000 1593073.41152549 12617.14200494
0.04400000 1587366.99339349 12857.67324362
0.04500000 1581549.73383290 12003.96303755
0.04600000 1575622.16772252 12218.95047871
0.04700000 1569587.35011715 13561.23533572
0.04800000 1563445.50617502 14938.72250657
0.04900000 1557199.44127393 16350.59489446
0.05000000 1550848.91491274 14236.79370185
0.05100000 1544396.86112036 14455.55529348
0.05200000 1537842.00362544 18338.76674784
0.05300000 1531189.36685798 14883.16133968
0.05400000 1524437.78182423 22637.90211578
0.05500000 1517591.05074473 17846.87158930
0.05600000 1510647.54407969 16790.84823598
0.05700000 1503612.68741691 13081.43099115
0.05800000 1496484.85387154 13243.89157515
0.05900000 1489265.82324137 18764.75024926
0.06000000 1481959.12203107 13559.92660009
0.06100000 1474566.00310965 15084.81091675
0.06200000 1467086.51982673 16636.76191250
0.06300000 1459524.58183151 15412.58030476
0.06400000 1451877.94493894 14155.81062518
0.06500000 1444152.88227534 15726.82562364
0.06600000 1436347.41707285 20209.40910378
0.06700000 1428464.60964358 17484.40764029
0.06800000 1420507.85955927 19112.93414503
0.06900000 1412476.87076380 19280.31018861
0.07000000 1404372.25637105 20939.19132304
0.07100000 1396198.44205636 19602.62704461
0.07200000 1387954.51088151 15198.10260613
0.07300000 1379645.36358610 15314.06425336
0.07400000 1371270.17892059 21597.50633015
0.07500000 1362831.56902079 26411.67704560
0.07600000 1354329.70878304 17206.75975675
0.07700000 1345769.91572539 17320.05962750
0.07800000 1337150.70890570 15845.23664361
0.07900000 1328473.87712096 15941.68727318
0.08000000 1319744.08955513 20845.35887240
0.08100000 1310961.22785727 17737.30624511
0.08200000 1302125.41519837 22696.04705192
0.08300000 1293240.98778257 22812.77209513
0.08400000 1284307.98388018 18012.42031940
0.08500000 1275330.49178111 23032.46976283
0.08600000 1266307.67119627 19830.37906200
0.08700000 1257243.19141040 21574.29417768
0.08800000 1248136.01679171 18328.87826738
0.08900000 1238992.14425186 20071.67367964
0.09000000 1229810.00053729 20144.28875509
0.09100000 1220592.48459356 16844.17707875
0.09200000 1211340.94414210 20277.84835773
0.09300000 1202058.67137235 16949.02806282
0.09400000 1192743.92792376 27194.56283474
0.09500000 1183401.28064106 22153.27301486
0.09600000 1174031.37210274 22206.80444722
0.09700000 1164637.79631198 18832.19405172
0.09800000 1155221.28233104 22301.54790397
0.09900000 1145783.31615261 27498.80088072
0.10000000 1136323.99567570 25822.96401611
0.10100000 1126846.29792837 24137.04883683
0.10200000 1117352.70152375 22442.03006569
0.10300000 1107843.58498870 22467.06896044
0.10400000 1098322.11897209 24218.00386267
0.10500000 1088790.81254105 22505.30715408
0.10600001 1079246.20387323 22518.47310339
0.10700001 1069695.29346997 20794.87748361
0.10800001 1060136.53452351 19066.55647071
0.10900001 1050573.54586135 20801.35718708
0.11000001 1041006.95399358 29465.70321973
0.11100001 1031438.54150189 31190.70296327
0.11200001 1021870.38989539 17320.70392414
0.11300001 1012301.70756238 25965.54002145
0.11400001 1002737.73853315 22486.39484536
0.11500001 993177.85887714 25921.94333731
0.11600001 983623.77982261 20715.11777857
0.11700001 974077.86048827 20689.41473114
0.11800001 964539.17124513 20660.43002114
0.11900001 955011.37041231 17190.20547711
0.12000001 945494.74984522 22308.94967346
0.12100001 935993.37495822 22267.28343923
0.12200001 926504.94988369 18803.41884374
0.12300001 917033.65858401 22173.87490927
0.12400001 907578.64226570 25525.65051643
0.12500001 898142.83920762 18672.39050698
0.12600001 888728.53936887 16930.27947279
0.12700001 879335.60612411 27013.19109317
0.12800001 869964.13079511 18517.18739668
0.12900001 860617.62105311 18460.24884166
0.13000001 851296.80353424 16727.98297792
0.13100001 842001.14239568 23340.27276741
0.13200001 832735.24065598 26580.91013477
0.13300001 823498.93550884 19862.79526086
0.13400001 814291.84109226 21436.23372738
0.13500001 805116.95752280 24636.58006177
0.13600001 795973.96130402 27807.35164929
0.13700001 786865.97177990 19545.75166066
0.13800001 777791.39813861 22703.73198228
0.13900001 768755.30190249 19372.63452152
0.14000001 759755.03827815 32137.63963480
0.14100001 750793.90466978 20789.48420080
0.14200001 741870.81363386 20687.06861389
0.14300001 732990.81502457 15832.60235132
0.14400001 724147.81110354 17325.23719788
0.14500001 715351.13167658 21932.66673181
0.14600001 706595.89830650 20254.57238045
0.14700001 697887.17931670 15493.09611174
0.14800001 689221.60588152 24646.56578912
0.14900001 680601.74144282 16844.89389547
0.15000001 672029.96630247 19787.92329143
0.15100001 663505.47838029 16640.71818297
0.15200001 655030.93495852 15032.96066666
0.15300001 646605.79272049 17923.91342002
0.15400001 638228.68494486 25225.98996289
0.15500001 629904.85414486 19161.70656738
0.15600001 621631.38548006 17567.30378275
0.15700001 613413.33318674 18899.26568747
0.15800001 605244.12490398 20209.10228439
0.15900001 597132.05756297 14331.17005795
0.16000001 589072.28558738 14226.09636844
0.16100001 581071.10914865 18356.03720449
0.16200001 573123.22034089 16815.43607859
0.16300001 565233.35166315 20857.11166099
0.16400001 557399.81745367 15175.21074659
0.16500001 549624.72559479 17791.35320746
0.16600001 541907.01829931 19004.68002903
0.16700001 534247.91633779 18848.26737831
0.16800001 526646.94096821 17355.65075908
0.16900001 519108.17511400 17208.43681758
0.17000001 511628.24242782 15747.91804554
0.17100001 504209.15423130 14309.45647280
0.17200001 496850.79897668 16761.26249499
0.17300001 489554.06344558 16610.57015713
0.17400001 482320.37608287 16459.18361113
0.17500001 475147.64658196 13798.28830840
0.17600001 468036.00029028 17396.89895243
0.17700001 460989.32005500 14770.09851216
0.17800001 454005.03751376 13409.03941631
0.17900001 447083.80683427 19314.02136751
0.18000001 440227.01151833 15537.81310547
0.18100001 433435.28077090 15382.61884118
0.18200001 426704.67893826 15226.95718720
0.18300001 420041.19205604 15071.07868292
0.18400001 413440.67727484 13767.57520364
0.18500001 406906.19251299 18164.29329190
0.18600001 400435.78426951 15725.11399117
0.18700001 394030.43962211 12222.82481454
0.18800001 387689.33131330 14288.29098062
0.18900001 381415.88336076 17392.56510301
0.19000001 375203.77402364 10749.58863368
0.19100001 369061.67630802 11691.87445788
0.19200001 362981.87966303 13660.82368661
0.19300001 356969.85122455 11426.60547763
0.19400001 351022.05567158 11294.13517492
0.19500001 345140.38646739 10147.12784165
0.19600001 339323.27085466 12032.40375311
0.19700001 333572.22109206 12879.22406501
0.19800001 327886.81285371 12723.64837409
0.19900001 322267.63215096 12568.43824787
0.20000001 316711.75142861 15278.17561098
0.20100001 311223.02285289 10373.06384194
0.20200001 305798.04544837 17691.94675560
0.20300001 300439.24288778 11032.12952027
0.20400001 295145.35456877 11798.43610655
0.20500001 289915.56445488 11645.90877462
0.20600001 284750.67118424 9725.65963401
0.20700001 279650.20733239 11342.61294556
0.20800001 274613.77812320 12052.79929157
0.20900001 269643.72975148 10192.53346642
0.21000001 264735.33821937 13406.19816117
0.21100001 259891.04071765 9917.44258262
0.21200001 255110.05560833 8150.76666201
0.21300001 250392.14251038 9645.10578548
0.21400001 245738.36793861 11095.08783697
0.21500001 241147.79592091 8594.50785295
0.21600001 236618.12767849 11552.88063011
0.21700001 232151.57590404 11387.03533647
0.21800001 227747.03027580 10474.08641760
0.21900001 223402.83705846 11795.67035440
0.22000001 219120.04654299 9442.97885226
0.22100001 214900.86543112 8587.43898867
0.22200001 210740.65766685 8459.13039873
0.22300001 206641.17058934 8331.77239213
0.22400001 202599.73162676 6837.74126574
0.22500001 198621.09988455 11446.53452762
0.22600001 194700.36989815 6629.54790853
0.22700001 190839.32301723 7179.37567141
0.22800001 187036.24350960 10279.51242941
0.22900001 183290.80179665 10117.65273765
0.23000001 179603.83553534 8090.25515429
0.23100001 175975.55665439 6123.94966119
0.23200001 172402.42436905 6025.46501666
0.23300001 168887.15353580 7706.32118030
0.23400001 165428.15131498 7580.74539254
0.23500001 162023.56951890 6309.19809547
0.23600001 158675.35624539 7333.18193572
0.23700001 155381.73663926 7211.26673851
0.23800001 152143.09777920 7636.06243871
0.23900001 148958.29410045 7507.49837776
0.24000001 145827.21498218 6325.98488515
0.24100001 142750.13444601 5181.83012550
0.24200001 139725.44595194 6620.89056961
0.24300001 136752.95218889 5505.67411556
0.24400001 133831.80642236 6885.64676615
0.24500001 130962.45146521 5315.76615643
0.24600001 128143.96607805 6646.82783490
0.24700001 125376.99276203 7462.43896221
0.24800001 122659.00636640 5039.44551496
0.24900001 119990.02635131 5399.55144125
0.25000001 117370.99291909 4860.91990171
0.25100001 114799.96137333 4773.38261973
0.25200001 112277.97946683 5965.32933129
0.25300001 109803.45988111 5856.91682715
0.25400001 107375.49225181 5339.24660483
0.25500001 104994.26645152 4434.95802474
0.25600001 102659.77202751 5144.79471857
0.25700001 100370.54938249 5049.64257835
0.25800001 98126.51322938  4574.65826320
0.25900001 95927.32624547  4115.28249064
0.26000001 93772.79644794  4405.44618557
0.26100001 91660.03567445  3962.46352970
0.26200001 89593.06869140  5655.11476338
0.26300001 87567.45451736  3814.43849927
0.26400001 85583.75236231  4082.34518085
0.26500001 83642.65906630  3671.07648013
0.26600001 81742.18352276  4255.90698650
0.26700001 79883.16021800  4495.82446981
0.26800001 78064.54865150  3149.90468714
0.26900001 76284.90606490  4016.40049438
0.27000001 74545.15304951  3939.33879932
0.27100001 72844.17941347  3566.45119286
0.27200001 71181.85860768  4663.83559668
0.27300001 69556.72935059  3430.53805392
0.27400001 67967.87514333  3644.77747705
0.27500001 66418.27843423  3024.68854304
0.27600001 64903.05545335  2966.39428988
0.27700001 63424.87625868  3438.26270470
0.27800001 61981.62323142  4409.68279350
0.27900001 60573.30303329  2798.48673258
0.28000001 59199.56493352  2744.78795805
0.28100001 57859.40319210  2447.45287086
0.28200001 56553.29003085  2400.68727543
0.28300001 55280.08348843  3296.90433529
0.28400001 54039.53520164  2541.20926313
0.28500001 52831.31935072  3173.04919039
0.28600001 51653.97436143  2668.44444181
0.28700001 50508.07351867  2400.14376721
0.28800001 49392.41923145  2355.27762253
0.28900001 48308.68478490  2521.71346513
0.29000001 47252.91809930  2268.84896993
0.29100001 46227.81564430  2632.21194738
0.29200001 45231.16401936  2783.07365385
0.29300001 44262.74810334  2732.78219726
0.29400001 43322.19854739  2492.10958941
0.29500001 42410.01298030  2071.30513201
0.29600001 41524.26622507  2404.87799227
0.29700001 40664.77682056  1999.48717092
0.29800001 39832.19107105  1786.47385411
0.29900001 39025.26651396  2107.36449151
0.30000001 38243.52339758  2072.03419577
0.30100001 37487.81497810  2886.93676813
0.30200001 36755.46557386  2338.75038518
0.30300001 36047.38066655  2465.64095432
0.30400001 35364.01806679  2103.27507409
0.30500001 34702.52363699  1592.84591035
0.30600001 34064.23727961  2196.12148139
0.30700001 33448.96613772  2008.94500134
0.30800001 32855.63572847  1979.71642455
0.30900001 32283.89031636  1951.56126202
0.31000001 31734.19491801  1924.52034192
0.31100001 31203.75504846  2190.50370811
0.31200001 30694.89461288  2305.80059249
0.31300001 30205.83464247  1564.96436692
0.31400001 29737.85754554  2107.67075333
0.31500001 29287.96646888  1943.54954690
0.31600002 28857.49358750  1783.82605057
0.31700002 28445.10782365  1628.19804892
0.31800002 28051.39691493  1476.48534653
0.31900002 27675.79225251  1594.12570922
0.32000002 27317.74547118  1973.02426008
0.32100002 26977.10172483  1433.29348251
0.32200002 26653.20365273  1420.48255593
0.32300002 26345.19296286  1280.37643862
0.32400002 26053.89067452  2286.22901494
0.32500002 25777.94928137  1260.54177955
0.32600002 25517.90121017  1501.98373635
0.32700002 25272.75231195  1492.10336715
0.32800002 25043.31445031  1359.47638931
0.32900002 24827.00910231  1720.51181226
0.33000002 24626.68946326  1222.71518975
0.33100002 24437.54906567  1338.68900121
0.33200002 24264.68849571  1696.82974686
0.33300002 24103.57194773  1449.10681412
0.33400002 23956.28524157  2166.84610271
0.33500002 23820.92087767  1560.74680982
0.33600002 23698.01503164  1317.72818824
0.33700002 23586.40188009  1434.99675834
0.33800002 23487.90226128  1313.79587520
0.33900002 23399.80956605  1670.74648214
0.34000002 23323.18577803  1550.87531176
0.34100002 23257.42273981  1789.65876458
0.34200002 23203.29867755  1790.71466025
0.34300002 23157.82751765  1314.43835215
0.34400002 23123.61354580  1794.97058650
0.34500002 23098.42848440  1198.80849512
0.34600002 23084.17294724  1201.53125881
0.34700002 23076.92030718  1325.07682680
0.34800002 23080.40200838  1691.56274331
0.34900002 23092.07313859  1576.03406635
0.35000002 23112.53461741  1703.62500734
0.35100002 23141.14004027  1588.40792760
0.35200002 23176.87223416  1472.65853151
0.35300002 23220.97682505  1479.64071337
0.35400002 23273.01013811  1239.28784855
0.35500002 23331.88551511  1370.51502007
0.35600002 23397.51920463  1378.23093403
0.35700002 23470.06882168  1386.37703096
0.35800002 23549.91997714  1521.79590100
0.35900002 23635.56232972  1403.95246888
0.36000002 23728.01063896  1413.35902065
0.36100002 23825.52915591  1681.84418278
0.36200002 23930.09597785  1824.19130280
0.36300002 24038.42663087  1574.99778746
0.36400002 24152.81577553  1851.31341689
0.36500002 24271.89331693  1599.03240746
0.36600002 24396.46628514  1611.63063914
0.36700002 24525.32900178  1353.79822503
0.36800002 24660.12284101  1364.93786391
0.36900002 24798.01985732  2752.58033455
0.37000002 24939.33205329  1526.66128396
0.37100002 25084.98732397  2239.58777437
0.37200002 25235.12021276  1553.09554706
0.37300002 25388.02546974  1566.69512595
0.37400002 25545.44855381  1724.31785906
0.37500002 25704.86313167  2174.63152395
0.37600002 25868.61872954  2048.01864184
0.37700002 26033.90999057  1771.34731967
0.37800002 26202.84052061  1638.59470958
0.37900002 26374.26762526  1653.66665844
0.38000002 26548.03753349  1820.66450030
0.38100002 26723.62415539  1531.26373664
0.38200002 26901.63142384  1854.59855822
0.38300002 27081.34201458  2027.85098612
0.38400002 27263.55033817  1574.47010662
0.38500002 27446.40008270  2224.80529610
0.38600002 27631.75589201  2887.24230994
0.38700002 27817.38647205  2266.56075712
0.38800002 28004.26898195  2451.07375877
0.38900002 28192.59160023  2803.75336747
0.39000002 28382.33691986  2330.47379490
0.39100002 28571.97411934  1848.03537359
0.39200002 28763.20432633  2034.70917044
0.39300002 28954.31362372  1882.32001786
0.39400002 29146.86645025  2072.34230279
0.39500002 29338.54826198  2614.06477399
0.39600002 29530.67380695  1758.55170852
0.39700002 29722.48852453  2839.09223837
0.39800002 29915.59096852  1790.44820429
0.39900002 30107.34028964  2348.37265386
0.40000002 30298.74454528  2186.96348489
0.40100002 30490.01721449  1838.54812514
0.40200002 30681.55360601  1854.70000336
0.40300002 30871.58502533  2057.89995529
0.40400002 31061.06231269  3019.13539984
0.40500002 31249.82328752  2474.04862689
0.40600002 31437.96001191  2303.14505960
0.40700002 31624.86620040  2128.98609348
0.40800002 31810.84341404  2341.91440310
0.40900002 31995.18082615  2361.24445685
0.41000002 32178.95688301  2578.98262159
0.41100002 32361.19659279  2199.91424861
0.41200002 32541.16692173  2419.11046358
0.41300002 32720.40766341  2844.71237705
0.41400002 32897.66195897  2662.24342017
0.41500002 33073.90068148  2682.95495041
0.41600002 33247.19218970  2495.53436401
0.41700002 33419.52593283  2304.94481280
0.41800002 33590.76341489  2111.17958066
0.41900002 33758.02661662  2977.45808867
0.42000002 33924.17661360  2999.23659653
0.42100002 34088.69387354  2805.15875178
0.42200002 34250.84583793  2173.21627140
0.42300002 34410.36039677  3282.74853741
0.42400002 34567.52733916  2424.04796952
0.42500002 34722.91477752  2440.67379537
0.42600002 34874.40234752  3573.92892193
0.42700002 35024.84690361  2698.31433332
0.42800002 35172.32174873  2263.33901178
0.42900002 35317.74455205  3189.19248418
0.43000002 35460.48679064  2292.52057965
0.43100002 35599.30128967  3460.25224933
0.43200002 35736.10945007  2321.06041877
0.43300002 35869.92693083  2802.15882463
0.43400002 36001.42717858  2584.00255819
0.43500002 36129.29135983  2835.42692029
0.43600002 36255.51050090  4277.78788672
0.43700002 36377.87377101  4063.04491403
0.43800002 36496.40210995  2883.94583140
0.43900002 36613.15192778  2658.11495592
0.44000002 36726.14755817  2672.37825371
0.44100002 36836.56718189  2686.49097189
0.44200002 36943.73872267  2454.91155446
0.44300002 37047.98744447  2714.13568881
0.44400002 37148.38139366  3223.55094820
0.44500002 37245.04597201  2990.03243233
0.44600002 37339.24105303  2753.95585438
0.44700002 37430.55335104  2766.86663483
0.44800002 37517.07406909  3032.13006996
0.44900002 37602.06876274  3299.58169030
0.45000002 37683.35149457  3314.06250425
0.45100002 37760.12587808  3072.16398704
0.45200002 37834.34570918  3342.09708661
0.45300002 37904.56818784  3355.69158071
0.45400002 37972.17591685  2850.76124206
0.45500002 38036.12324874  3642.33933492
0.45600002 38096.54391781  4439.58095587
0.45700002 38153.34135548  3145.36161042
0.45800002 38206.12346241  3682.68841508
0.45900002 38255.91000351  2903.62370688
0.46000002 38302.78605376  3178.36533738
0.46100002 38344.93283825  3188.76476596
0.46200002 38384.61869720  3732.13665281
0.46300002 38420.37547487  3476.27573772
0.46400002 38452.17612448  3754.85517652
0.46500002 38481.50331999  2958.84293051
0.46600002 38506.25540186  3776.30864624
0.46700002 38527.72174980  6220.68624856
0.46800002 38546.32265763  3796.42749849
0.46900002 38560.78637069  2718.53556798
0.47000002 38571.15623661  3542.56801246
0.47100002 38578.79866571  3277.65488999
0.47200002 38582.58237941  3558.66465444
0.47300002 38583.76182600  3291.96671502
0.47400002 38579.64295403  3023.67965984
0.47500002 38573.45389648  4406.63158200
0.47600002 38563.95342839  2759.25099858
