# SAXS profile: number of points = 501, q_min = 0, q_max = 0.5, delta_q = 0.001
#    q    intensity    error
0.00000000 1719190.39626459 283.66641538
0.00100000 1719119.65882917 825.17745583
0.00200000 1718907.38937555 1160.26252457
0.00300000 1718553.75993471 1443.58520977
0.00400000 1718058.63461261 1803.96163489
0.00500000 1717422.50368434 1854.81637739
0.00600000 1716645.04836170 2162.97284899
0.00700000 1715726.97584222 2264.75970224
0.00800000 1714667.73375272 2546.28169213
0.00900000 1713468.69361542 3084.24378035
0.01000000 1712128.95972938 3390.01548664
0.01100000 1710649.84762781 4002.92081773
0.01200000 1709030.84942837 4665.65442350
0.01300000 1707273.32043249 3585.27413104
0.01400000 1705376.46476619 4220.80693741
0.01500000 1703342.24186784 5723.23018752
0.01600000 1701169.31832998 6506.97293350
0.01700000 1698859.99623558 6421.69107384
0.01800000 1696413.70910823 5318.25721736
0.01900000 1693831.31424433 7622.24125803
0.02000000 1691113.35956640 5327.00732360
0.02100000 1688261.70869322 6128.39028041
0.02200000 1685274.32841130 7558.45570632
0.02300000 1682154.17938427 8478.05745000
0.02400000 1678901.22628101 7555.05586276
0.02500000 1675516.89469546 9148.32266285
0.02600000 1672001.17684686 7448.76558355
0.02700000 1668355.53443494 9809.93099178
0.02800000 1664579.33548461 7240.92044142
0.02900000 1660675.50024340 7473.04009421
0.03000000 1656644.32358474 11555.09468814
0.03100000 1652486.05604230 10311.51346417
0.03200000 1648201.67750789 12237.89801915
0.03300000 1643794.05611671 10060.02008721
0.03400000 1639261.29300129 11187.95884095
0.03500000 1634606.76618720 15005.69080653
0.03600000 1629829.97197476 12663.77946748
0.03700000 1624933.23433366 11114.54383686
0.03800000 1619917.27869040 11371.81982269
0.03900000 1614783.96219036 13564.18591056
0.04000000 1609532.22786020 10888.48602604
0.04100000 1604165.51505301 12127.49185611
0.04200000 1598684.51676182 13404.97029494
0.04300000 1593089.63696858 12617.27051046
0.04400000 1587383.90043129 11786.32600808
0.04500000 1581567.52164459 16369.22460962
0.04600000 1575640.70488903 13329.92098303
0.04700000 1569606.62796387 16951.75237040
0.04800000 1563465.66898608 12640.62052190
0.04900000 1557220.39649916 16350.81492433
0.05000000 1550870.65880372 16609.82552924
0.05100000 1544419.48416646 16865.06155274
0.05200000 1537865.43843981 17116.44312748
0.05300000 1531213.70738557 16123.68109042
0.05400000 1524463.04087095 13834.50274106
0.05500000 1517617.18691290 16572.38045418
0.05600000 1510674.66546185 15499.52279091
0.05700000 1503640.74927701 18314.34518108
0.05800000 1496513.85581044 13244.14824232
0.05900000 1489295.86906428 16084.39613713
0.06000000 1481990.03524102 17628.27229276
0.06100000 1474597.93962977 17827.88992325
0.06200000 1467119.50515728 15250.70796898
0.06300000 1459558.52160328 15412.93870877
0.06400000 1451912.89239557 15571.76649918
0.06500000 1444188.88176535 14297.47059828
0.06600000 1436384.50113511 15879.23140301
0.06700000 1428502.73973478 17484.87435263
0.06800000 1420547.00843024 16172.92844802
0.06900000 1412517.22613988 16314.57472575
0.07000000 1404413.67196130 14957.00630680
0.07100000 1396240.89644533 22619.10358184
0.07200000 1387998.17977754 19758.15501474
0.07300000 1379690.16601202 18377.47387237
0.07400000 1371316.16092013 21598.23054667
0.07500000 1362878.79040611 17090.50083277
0.07600000 1354377.98484340 20335.98639579
0.07700000 1345819.29627246 20469.91245611
0.07800000 1337201.23884813 20599.58605050
0.07900000 1328525.80753668 22319.23461347
0.08000000 1319797.09787031 19242.64258964
0.08100000 1311015.57692451 19350.59082330
0.08200000 1302180.94259192 22697.01489444
0.08300000 1293297.89216068 17925.10962661
0.08400000 1284365.93579468 18013.23309504
0.08500000 1275389.76501029 23033.54023740
0.08600000 1266368.31140320 16526.10723974
0.08700000 1257305.11979748 18256.07119672
0.08800000 1248199.15290547 31660.57300035
0.08900000 1239056.45100723 21745.44173655
0.09000000 1229875.70978472 20145.36507261
0.09100000 1220659.47163921 20214.12180003
0.09200000 1211409.16371791 21968.90621627
0.09300000 1202128.32516364 23730.01425385
0.09400000 1192814.88281516 16997.61287896
0.09500000 1183473.48204719 22154.62462525
0.09600000 1174104.79518283 29041.48347402
0.09700000 1164712.73237354 20545.53356497
0.09800000 1155297.46821807 22303.01867259
0.09900000 1145860.92760457 20625.49766674
0.10000000 1136402.86242509 18938.15459292
0.10100000 1126926.62018304 27587.16495955
0.10200000 1117434.40263133 17264.36233271
0.10300000 1107926.77412435 19012.02433831
0.10400000 1098406.64275546 20759.88652473
0.10500000 1088876.59752412 24238.39420129
0.10600001 1079333.40609680 22520.29257787
0.10700001 1069783.88462175 22529.64967033
0.10800001 1060226.41545713 22535.11352108
0.10900001 1050664.98893288 20803.16775999
0.11000001 1041099.83068850 19067.74429657
0.11100001 1031532.59200385 20795.69803372
0.11200001 1021965.86972157 22519.01899945
0.11300001 1012398.67741003 19043.22001865
0.11400001 1002836.04623734 22488.59939574
0.11500001 993277.55070454 19011.33321569
0.11600001 983724.58387698 24170.11416406
0.11700001 974180.25930860 31037.38452328
0.11800001 964642.94961613 20662.65295395
0.11900001 955116.50451022 22349.72725825
0.12000001 945601.41611679 17162.66651097
0.12100001 936101.37460667 18843.72155852
0.12200001 926614.24337652 18805.63695528
0.12300001 917144.40388013 20470.66405907
0.12400001 907690.83382307 20423.04472330
0.12500001 898256.29301951 23767.86263325
0.12600001 888843.51722498 20318.96376126
0.12700001 879451.86303294 23639.66719238
0.12800001 870081.87753967 31988.56173534
0.12900001 860736.64714728 23498.11157464
0.13000001 851417.23079826 18403.38431115
0.13100001 842122.87535277 16674.03371796
0.13200001 832858.20200619 24923.28286993
0.13300001 823623.32453138 28143.21032599
0.13400001 814417.48298006 24737.93221180
0.13500001 805244.02310316 21355.07249955
0.13600001 796102.28884506 16359.90280715
0.13700001 786995.66436834 17919.89212265
0.13800001 777922.45898716 19463.62084168
0.13900001 768887.69154781 19375.97074074
0.14000001 759888.62189138 19285.97413314
0.14100001 750928.80386406 17594.26270433
0.14200001 742006.89585263 19099.25840007
0.14300001 733128.39987184 19002.68902099
0.14400001 724286.66943766 17328.55938368
0.14500001 715491.12812868 17236.18208969
0.14600001 706737.03640150 17141.90762658
0.14700001 698029.69367528 20145.13790985
0.14800001 689365.34429949 18488.77940639
0.14900001 680746.51253750 22975.19588213
0.15000001 672176.03525848 16747.26670865
0.15100001 663652.69979223 19670.66695000
0.15200001 655179.33582460 15036.36646670
0.15300001 646755.32953554 17928.05858073
0.15400001 638379.53698882 20779.25490958
0.15500001 630056.78479891 17691.99535209
0.15600001 621784.34482252 17571.62641398
0.15700001 613567.49747067 14541.55037637
0.15800001 605399.35808272 17326.53044612
0.15900001 597288.40516782 15768.41464071
0.16000001 589229.70514088 17075.87766101
0.16100001 581229.49681706 16948.65292723
0.16200001 573282.64586600 19623.46589434
0.16300001 565393.83989309 16690.42694156
0.16400001 557561.32504049 20699.46516934
0.16500001 549787.20931420 15058.67237406
0.16600001 542070.35041686 16294.63550285
0.16700001 534412.31054794 18854.06720632
0.16800001 526812.31528694 18696.56995232
0.16900001 519274.36945508 18538.09586488
0.17000001 511795.37626352 18378.57282945
0.17100001 504377.18325330 14314.22513666
0.17200001 497019.57408310 16766.95612348
0.17300001 489723.74772627 16616.32754505
0.17400001 482490.83530081 17731.53903469
0.17500001 475318.95959038 18822.63168873
0.17600001 468208.06881865 16160.20225851
0.17700001 461162.15425482 13544.33311017
0.17800001 454178.62957078 14633.63613595
0.17900001 447258.08293718 13283.56569066
0.18000001 440401.94976041 13152.60485086
0.18100001 433610.95766486 13021.33767376
0.18200001 426880.84400391 18748.60755430
0.18300001 420218.10455173 13917.62428021
0.18400001 413618.18234508 14921.27663299
0.18500001 407084.28933320 19308.00875522
0.18600001 400614.51393810 11237.23764685
0.18700001 394209.59628721 14451.72448266
0.18800001 387868.99227307 12095.69509551
0.18900001 381596.05134854 15225.68316818
0.19000001 375384.34514959 13981.19059569
0.19100001 369242.69876287 12761.02827220
0.19200001 363163.38386788 12616.29655171
0.19300001 357151.68518409 12471.73743595
0.19400001 351204.33921884 10272.72740758
0.19500001 345323.01493373 12182.99654257
0.19600001 339506.13602478 14045.36951108
0.19700001 333755.32735484 10903.78705997
0.19800001 328070.14308901 10772.18365741
0.19900001 322451.32154564 10640.89411389
0.20000001 316895.50701792 11465.27998577
0.20100001 311407.13191337 12266.32750580
0.20200001 305982.33015573 11180.59487232
0.20300001 300623.57943106 10118.99016192
0.20400001 295329.63119390 15438.35720037
0.20500001 290099.94617619 10756.90651266
0.20600001 284935.09655861 10616.68219960
0.20700001 279834.80658495 12223.18492941
0.20800001 274798.18875971 8614.92362485
0.20900001 269828.13417369 11899.42127956
0.21000001 264919.71989815 9223.18048426
0.21100001 260075.36661794 9924.47645930
0.21200001 255294.25369496 8972.31697027
0.21300001 250576.12670601 9652.19285703
0.21400001 245922.21061202 9517.19000062
0.21500001 241331.43421272 10164.88048961
0.21600001 236801.41173783 9249.46357978
0.21700001 232334.61103127 11396.01320988
0.21800001 227929.74678944 13477.48656488
0.21900001 223585.30063097 8116.14679665
0.22000001 219302.03055688 10177.80771938
0.22100001 215082.53725501 9310.92347802
0.22200001 210921.86726739 9171.93783181
0.22300001 206821.91438202 8339.05998220
0.22400001 202780.10243487 8212.59453696
0.22500001 198800.98768065 6739.35380106
0.22600001 194879.61843698 7299.21645372
0.22700001 191018.07277638 9145.94575704
0.22800001 187214.30934867 7716.97419629
0.22900001 183468.22845323 6329.65418097
0.23000001 179780.68003297 6229.40085774
0.23100001 176151.66130808 7969.10153446
0.23200001 172577.73177420 6634.75121184
0.23300001 169061.82392136 6527.47733032
0.23400001 165601.96319187 5837.46947860
0.23500001 162196.54803203 6315.93387909
0.23600001 158847.53162671 5647.03001642
0.23700001 155553.05374392 6108.56870945
0.23800001 152313.51998397 6552.52793964
0.23900001 149127.80330865 5905.46129035
0.24000001 145995.75240480 7916.62004861
0.24100001 142917.63759619 8300.65678422
0.24200001 139891.89167778 9688.21341642
0.24300001 136918.37728915 8519.06183791
0.24400001 133996.21145120 5416.79710415
0.24500001 131125.70553596 6773.95426843
0.24600001 128306.05542759 5704.48749416
0.24700001 125537.98173870 6538.01839824
0.24800001 122818.62809523 8257.09675746
0.24900001 120148.61366201 4956.13054802
0.25000001 117528.24954094 5752.42044592
0.25100001 114955.86570909 4345.33192938
0.25200001 112432.57585097 5546.86139203
0.25300001 109956.74852406 5865.09324375
0.25400001 107527.38855159 4935.50736802
0.25500001 105144.77830387 5248.82758126
0.25600001 102808.89381577 5944.92456617
0.25700001 100518.19066062 3890.05416262
0.25800001 98272.64280859  4199.68158913
0.25900001 96071.95680681  5245.52908984
0.26000001 93915.88414326  5515.21055727
0.26100001 91801.52907243  3968.58028958
0.26200001 89732.94967333  3539.96503211
0.26300001 87705.74237716  3820.46231872
0.26400001 85720.37099484  3748.12339910
0.26500001 83777.62101083  4345.54540746
0.26600001 81875.38044017  3934.93097015
0.26700001 80014.75191235  3859.91181490
0.26800001 78194.36037977  3786.17110875
0.26900001 76412.95837784  3713.66995290
0.27000001 74671.35338998  3035.39065894
0.27100001 72968.61962295  3870.25576795
0.27200001 71304.42315762  3211.90789313
0.27300001 69677.49045327  3722.86849110
0.27400001 68086.72239596  3089.43517492
0.27500001 66535.20410456  3305.46909635
0.27600001 65017.98923926  2701.49758074
0.27700001 63537.93983181  2914.48543802
0.27800001 62092.69676489  3897.86922389
0.27900001 60682.36683026  2548.65952749
0.28000001 59306.58819730  3499.68193516
0.28100001 57964.40290040  3187.46266635
0.28200001 56656.23374402  2886.06868352
0.28300001 55380.93940755  2595.15094347
0.28400001 54138.25697518  3240.17483332
0.28500001 52928.00602453  3178.85619229
0.28600001 51748.40153276  2450.54567057
0.28700001 50600.47958496  2841.72306800
0.28800001 49482.59481431  2359.57764541
0.28900001 48396.66358113  2526.30595851
0.29000001 47338.75024679  2686.23750991
0.29100001 46311.37561903  2839.81368738
0.29200001 45312.43867936  2788.07448392
0.29300001 44341.79089086  3324.30422045
0.29400001 43398.97164870  2880.60687954
0.29500001 42484.55857092  3018.10318375
0.29600001 41596.43227215  2038.43325999
0.29700001 40734.69498279  2549.17733270
0.29800001 39899.79853755  2147.40725895
0.29900001 39090.48216072  2110.88613661
0.30000001 38306.40131289  2421.34774161
0.30100001 37548.35717644  2211.22285880
0.30200001 36813.59033425  1840.49553589
0.30300001 36103.18320834  2304.82732513
0.30400001 35417.36110472  1782.37878198
0.30500001 34753.50102261  1595.18577246
0.30600001 34112.80438177  1727.98418777
0.30700001 33495.17945159  1856.97283671
0.30800001 32899.39275009  1677.37561878
0.30900001 32325.19973753  1503.12185896
0.31000001 31773.04548297  2075.09769874
0.31100001 31240.17084975  1900.65208449
0.31200001 30728.85553848  1586.99181942
0.31300001 30237.33252861  1566.59627248
0.31400001 29766.88706179  1547.13402829
0.31500001 29314.51634889  1667.40976887
0.31600002 28881.63563777  2334.64712732
0.31700002 28466.74160086  2308.36818571
0.31800002 28070.58880756  1880.44883325
0.31900002 27692.52240734  1462.16525234
0.32000002 27331.97916685  1579.24183104
0.32100002 26988.82796762  1433.91649782
0.32200002 26662.47065057  1420.97644061
0.32300002 26351.98758070  1408.77732277
0.32400002 26058.21420094  1778.47320343
0.32500002 25779.78328146  1260.63146216
0.32600002 25517.22058307  1752.26762041
0.32700002 25269.67232400  1243.26793721
0.32800002 25037.73195373  1729.85698260
0.32900002 24818.99315737  1842.81032920
0.33000002 24616.22804964  1344.41535859
0.33100002 24424.69156497  1337.98466729
0.33200002 24249.37045922  1453.50733416
0.33300002 24085.78123217  1689.37677563
0.33400002 23936.03368848  1202.78574980
0.33500002 23798.33590056  1199.43618619
0.33600002 23672.95828053  1436.00171730
0.33700002 23558.98676347  1672.21695966
0.33800002 23458.03445005  1550.69344076
0.33900002 23367.58839626  1549.27118404
0.34000002 23288.58856253  1310.33249753
0.34100002 23220.45478287  1548.57220281
0.34200002 23163.98847898  1191.78726369
0.34300002 23116.19798253  1550.63463411
0.34400002 23079.66163121  1313.80980058
0.34500002 23052.15787911  1914.25128094
0.34600002 23035.56857097  1438.80168109
0.34700002 23026.04672097  1201.95969576
0.34800002 23027.31499360  1326.02799671
0.34900002 23036.72206070  1572.25635511
0.35000002 23054.88879314  1335.22394769
0.35100002 23081.30816223  1218.69312869
0.35200002 23114.81036832  1346.32219367
0.35300002 23156.72368669  1721.47092040
0.35400002 23206.65011799  1853.63126597
0.35500002 23263.32934624  1863.39276889
0.35600002 23326.87983849  1498.98536942
0.35700002 23397.27936220  1256.43396126
0.35800002 23475.04134939  1390.54414019
0.35900002 23558.60560226  1653.81419161
0.36000002 23648.98969413  1536.71142311
0.36100002 23744.63583076  1934.00068002
0.36200002 23847.12085134  1428.32337105
0.36300002 23953.46726385  1438.64531201
0.36400002 24065.90024584  1844.65134122
0.36500002 24183.05380642  1460.41468855
0.36600002 24305.71784424  1338.02983071
0.36700002 24432.71893825  1618.42337913
0.36800002 24565.64155440  2175.53331911
0.36900002 24701.76099035  1508.04257990
0.37000002 24841.26937755  1658.90004761
0.37100002 24985.14586458  1673.00544634
0.37200002 25133.55190726  1687.46675499
0.37300002 25284.72667681  1560.32055714
0.37400002 25440.49300124  1860.33613884
0.37500002 25598.24908148  1588.11544825
0.37600002 25760.30697792  1602.41997147
0.37700002 25924.03434549  1763.87138042
0.37800002 26091.35545465  1483.29362786
0.37900002 26261.25626626  1496.89167809
0.38000002 26433.56438868  2568.15306984
0.38100002 26607.62178675  2439.38688097
0.38200002 26784.23706665  2154.25628933
0.38300002 26962.52199900  1708.34547479
0.38400002 27143.22979695  1881.02591404
0.38500002 27324.81534084  2214.94963646
0.38600002 27508.81540749  1916.26417207
0.38700002 27693.21288076  1611.74506602
0.38800002 27878.83983508  2114.74949588
0.38900002 28065.93130073  2298.59988243
0.39000002 28254.54870861  1657.12936027
0.39100002 28442.99571467  1839.69304998
0.39200002 28633.13364050  1687.92330808
0.39300002 28823.17029604  2555.17416780
0.39400002 29014.61788306  1891.02781012
0.39500002 29205.34824017  2428.71687472
0.39600002 29396.48236951  2800.89697287
0.39700002 29587.34926103  1943.00131803
0.39800002 29779.57047969  1782.30737765
0.39900002 29970.49145328  1798.22957239
0.40000002 30161.03940483  2539.86124862
0.40100002 30351.51812399  2379.25561847
0.40200002 30542.38362970  2769.43076684
0.40300002 30731.66117824  2048.57263120
0.40400002 30920.51616449  2441.94787979
0.40500002 31108.65913546  1894.51743111
0.40600002 31296.18674375  2483.82197860
0.40700002 31482.46870079  2697.41804609
0.40800002 31667.94243165  2719.95970433
0.40900002 31851.74087705  2350.65858810
0.41000002 32035.13689001  2369.95953942
0.41100002 32216.89674178  2588.30560687
0.41200002 32396.51840486  3612.53593850
0.41300002 32575.49990045  2225.23250364
0.41400002 32752.43472875  2038.83915847
0.41500002 32928.46617475  2876.63094133
0.41600002 33101.53244401  2484.60114298
0.41700002 33273.65731071  2712.13593591
0.41800002 33444.79562382  2102.00550456
0.41900002 33611.97238624  2752.82066887
0.42000002 33778.02462662  2559.69882750
0.42100002 33942.53371893  2363.41873484
0.42200002 34104.72132730  2596.73360491
0.42300002 34264.31760072  3050.89498374
0.42400002 34421.62413389  2413.81650677
0.42500002 34577.09521900  3093.26708487
0.42600002 34728.75288951  2446.81440078
0.42700002 34879.43006371  2463.18546782
0.42800002 35027.13883920  2704.79578933
0.42900002 35172.83082651  3402.97154372
0.43000002 35315.91849133  3424.76135799
0.43100002 35455.05923639  2756.98553687
0.43200002 35592.32760739  3467.58268147
0.43300002 35726.54927877  2558.37831509
0.43400002 35858.56554341  2807.72581510
0.43500002 35986.95916421  2353.54724087
0.43600002 36113.76240110  3314.16013260
0.43700002 36236.71293538  3094.97779848
0.43800002 36355.88124692  2633.43838292
0.43900002 36473.31969100  2647.96313505
0.44000002 36586.97606813  3146.29715608
0.44100002 36698.12703218  2433.08593754
0.44200002 36806.09452646  3424.07113606
0.44300002 36911.11621887  2458.28045668
0.44400002 37012.44822216  2717.63913950
0.44500002 37109.95728431  3475.71876397
0.44600002 37205.05084945  2744.05865545
0.44700002 37297.31152019  2506.37945294
0.44800002 37384.84967257  2769.65671925
0.44900002 37470.86144193  3035.13992064
0.45000002 37553.23849160  2794.52437479
0.45100002 37630.99675955  3316.79621158
0.45200002 37706.41616204  2562.15109964
0.45300002 37777.76809833  2829.93274236
0.45400002 37846.55413383  3874.54116308
0.45500002 37911.75855818  2852.48084911
0.45600002 37973.42929516  3644.31018217
0.45700002 38031.46271444  2874.03777354
0.45800002 38085.58552896  3671.06976312
0.45900002 38136.72461176  2894.57753522
0.46000002 38184.98804224  3432.63966275
0.46100002 38228.48890417  3179.08128794
0.46200002 38269.65860849  2923.61070796
0.46300002 38306.89879687  5065.70453699
0.46400002 38340.12598349  3743.91347973
0.46500002 38371.04870812  2950.35007500
0.46600002 38397.32664807  3227.67943101
0.46700002 38420.35945950  3236.53123427
0.46800002 38440.60481325  3245.15601214
0.46900002 38456.70356366  4066.79659461
0.47000002 38468.71177556  3804.94046206
0.47100002 38477.97974607  3541.51342368
0.47200002 38483.45961521  3549.52206585
0.47300002 38486.41093289  3283.66073643
0.47400002 38483.97732738  3838.77692035
0.47500002 38479.57432917  3846.41843226
0.47600002 38471.97199080  3303.20367170
