# SAXS profile: number of points = 501, q_min = 0, q_max = 0.5, delta_q = 0.001
#    q    intensity    error
0.00000000 1700912.83420644 306.16431016
0.00100000 1700842.69321426 612.30338410
0.00200000 1700632.21322451 918.34142422
0.00300000 1700281.56160655 1020.16897331
0.00400000 1699790.62102964 1274.84301421
0.00500000 1699159.84368896 1835.09270382
0.00600000 1698388.95454331 2496.63186482
0.00700000 1697478.63736334 2648.06678434
0.00800000 1696428.30962611 2290.17831469
0.00900000 1695239.38446536 2542.85918540
0.01000000 1693910.98155424 3074.44856427
0.01100000 1692444.35763732 3351.03997402
0.01200000 1690839.01556674 3956.56346990
0.01300000 1689096.30795584 4611.23312410
0.01400000 1687215.49886577 6073.97606518
0.01500000 1685198.41243237 4853.37164392
0.01600000 1683043.89936799 5150.11456229
0.01700000 1680754.08048998 4991.83984298
0.01800000 1678328.49262816 6696.53098691
0.01900000 1675767.94512108 6032.76487465
0.02000000 1673073.03664975 8432.28848615
0.02100000 1670245.45305623 11574.80151446
0.02200000 1667283.40167018 5752.12799709
0.02300000 1664189.70625297 6590.19153674
0.02400000 1660964.33219852 8097.20148868
0.02500000 1657608.67755040 7757.60896523
0.02600000 1654122.81584240 7369.11748163
0.02700000 1650508.03775915 6932.13407609
0.02800000 1646763.99272432 10745.13554529
0.02900000 1642893.31494596 11828.83241072
0.03000000 1638896.45112190 8382.95573281
0.03100000 1634773.50790906 10200.98715873
0.03200000 1630525.70168459 9685.32311409
0.03300000 1626155.63193726 11610.75174729
0.03400000 1621661.44393864 9365.09527085
0.03500000 1617046.60106205 11351.66766365
0.03600000 1612310.63640539 10737.98933470
0.03700000 1607455.63369110 10994.99704294
0.03800000 1602482.66871965 13124.33366420
0.03900000 1597393.22108955 13418.10367854
0.04000000 1592186.28803477 13708.72457523
0.04100000 1586865.68767033 10996.97972545
0.04200000 1581431.73604798 17340.39979024
0.04300000 1575884.75543829 11440.92385555
0.04400000 1570228.06168599 13778.75188121
0.04500000 1564461.60416996 11874.26412739
0.04600000 1558585.75989701 10988.03011807
0.04700000 1552603.74693824 16768.12124678
0.04800000 1546515.68125091 17050.33617911
0.04900000 1540324.26716048 12707.67579558
0.05000000 1534029.33973668 14082.38999455
0.05100000 1527633.90612622 14298.65402743
0.05200000 1521136.60682457 12093.03658781
0.05300000 1514542.51983010 12267.79498252
0.05400000 1507850.30827550 12439.76562339
0.05500000 1501063.90713432 16391.61863056
0.05600000 1494181.66918723 17885.35541478
0.05700000 1487208.92622437 15526.46191453
0.05800000 1480143.95714134 18338.98448527
0.05900000 1472988.94384255 17233.97144788
0.06000000 1465746.90915654 14752.74332989
0.06100000 1458419.33935630 13563.30048985
0.06200000 1451006.32320184 13712.01039521
0.06300000 1443511.56043471 13857.71162809
0.06400000 1435932.84889615 25200.62267668
0.06500000 1428276.75678328 15553.93460895
0.06600000 1420540.98523983 15704.08132660
0.06700000 1412728.58029909 18732.78185144
0.06800000 1404842.92732936 20356.17496986
0.06900000 1396883.92333972 16134.01006995
0.07000000 1388851.97091334 16270.40160117
0.07100000 1380751.60706691 14912.11805477
0.07200000 1372581.79141293 18035.72558408
0.07300000 1364347.42394171 19687.53424995
0.07400000 1356047.74945838 16781.09168598
0.07500000 1347685.39411595 23045.42131958
0.07600000 1339260.27414486 15468.45689154
0.07700000 1330778.14113939 18684.12597767
0.07800000 1322237.05024661 23502.76467032
0.07900000 1313639.16975465 26798.24031993
0.08000000 1304988.74808434 23783.42104954
0.08100000 1296285.72983741 20727.60979260
0.08200000 1287530.61090744 20838.68391540
0.08300000 1278727.44896789 25779.14658106
0.08400000 1269876.23205210 17810.01499051
0.08500000 1260981.02227118 29279.98071169
0.08600000 1252041.07598794 16339.13680879
0.08700000 1243059.99893026 18049.23203202
0.08800000 1234036.73658742 21416.70856928
0.08900000 1224977.17492129 16537.19263818
0.09000000 1215879.92649641 23235.46648684
0.09100000 1206747.83268842 16653.12087348
0.09200000 1197582.07743933 25059.40614788
0.09300000 1188386.02628104 16756.24375797
0.09400000 1179157.94456812 18483.30164977
0.09500000 1169902.28695348 16846.59372397
0.09600000 1160620.11567125 18575.72582452
0.09700000 1151314.33787479 18616.75371866
0.09800000 1141986.14264613 20350.19401877
0.09900000 1132636.97910014 16989.55548539
0.10000000 1123266.61632127 18719.23904131
0.10100000 1113878.36227128 27267.74359085
0.10200000 1104474.25441993 25596.19205013
0.10300000 1095055.13425586 22207.71916738
0.10400000 1085624.01763821 23938.01071509
0.10500000 1076183.11968264 18822.44364883
0.10600001 1066729.30564927 20545.20739353
0.10700001 1057269.72037184 20553.32433122
0.10800001 1047802.27932656 29123.66572449
0.10900001 1038330.85248230 27411.93579569
0.11000001 1028855.90893305 18843.49685906
0.11100001 1019379.49362824 27400.92207858
0.11200001 1009903.55235965 25676.79902753
0.11300001 1000427.50286723 22239.50443579
0.11400001 990955.78467512 20512.78570861
0.11500001 981488.78736765 23909.06798611
0.11600001 972027.36433371 20470.89725687
0.11700001 962574.44409444 18741.32530914
0.11800001 953128.73574690 22117.35335470
0.11900001 943694.08581636 18685.14377926
0.12000001 934270.72844405 20348.41742402
0.12100001 924862.56385953 18617.48428753
0.12200001 915467.63805430 20268.45446140
0.12300001 906089.72599803 26965.23151615
0.12400001 896728.23501221 20176.38623843
0.12500001 887385.76023643 25157.38748813
0.12600001 878064.91709446 20072.56495067
0.12700001 868765.56677543 16680.29966817
0.12800001 859487.52105090 19957.30117937
0.12900001 850234.67150136 24869.36531356
0.13000001 841007.03005186 29746.42005503
0.13100001 831804.94597546 27998.55580132
0.13200001 822632.12818730 21334.96525027
0.13300001 813489.18204692 24526.69999498
0.13400001 804375.13787660 19546.31677192
0.13500001 795293.41917948 16223.98651619
0.13600001 786243.40261975 17773.03295423
0.13700001 777228.07547819 27350.65726575
0.13800001 768246.28767325 19221.52302399
0.13900001 759302.77262577 23918.03846564
0.14000001 750394.96309851 17457.93963981
0.14100001 741525.94536802 15794.50338125
0.14200001 732694.91337776 15716.30663322
0.14300001 723906.74491731 17200.02507052
0.14400001 715155.48095265 20221.02217776
0.14500001 706450.31567814 18565.51517180
0.14600001 697786.17895618 15386.18597182
0.14700001 689168.51868371 21419.35857118
0.14800001 680593.72563782 15211.27048565
0.14900001 672064.33260499 19657.88265617
0.15000001 663582.78232847 19539.19594758
0.15100001 655148.26238274 16431.11919586
0.15200001 646763.58917657 22264.83760801
0.15300001 638427.77910711 14747.68239330
0.15400001 630139.85623485 17580.90281861
0.15500001 621904.90582046 17463.09057957
0.15600001 613719.75133161 18789.03107376
0.15700001 605589.93970304 20093.47514770
0.15800001 597508.64690692 15675.64009147
0.15900001 589484.05438109 19806.66516209
0.16000001 581511.43143783 15447.85190532
0.16100001 573596.92305576 16726.08706585
0.16200001 565735.61059003 15215.45996508
0.16300001 557931.72018047 17842.65725368
0.16400001 550183.90615015 16340.46278409
0.16500001 542494.03607439 18911.34299038
0.16600001 534861.20808321 13398.27389506
0.16700001 527286.55450084 17273.90834103
0.16800001 519769.57249767 15811.39114194
0.16900001 512314.34182278 16983.22123334
0.17000001 504917.71954951 22016.93820059
0.17100001 497581.32090120 15405.11842255
0.17200001 490305.26639528 16540.44894293
0.17300001 483090.35352132 12608.65882234
0.17400001 475937.90917157 14992.04484692
0.17500001 468846.31824868 14853.05206359
0.17600001 461814.92350142 13487.30547785
0.17700001 454848.24249124 17002.22810735
0.17800001 447943.32681877 13230.00678247
0.17900001 441101.18104818 15482.65218609
0.18000001 434322.94699460 14150.24228147
0.18100001 427609.10507348 11673.72911993
0.18200001 420956.06054264 12710.76884852
0.18300001 414369.53851611 17154.89970495
0.18400001 407845.40613577 13581.25266591
0.18500001 401386.78349547 15678.16850400
0.18600001 394991.80977962 12187.47286653
0.18700001 388661.36896776 12056.27623498
0.18800001 382394.64399445 10840.88866943
0.18900001 376194.91749679 12865.86678627
0.19000001 370056.05253612 11662.31704671
0.19100001 363986.65088724 11531.09764495
0.19200001 357978.93525351 11399.83973181
0.19300001 352038.47412007 11268.75208906
0.19400001 346161.74480499 14175.32411960
0.19500001 340350.52262923 12007.56700578
0.19600001 334603.23976125 12853.78406285
0.19700001 328921.50266887 10745.86600002
0.19800001 323304.83878735 10615.71488327
0.19900001 317753.86236033 13345.66284985
0.20000001 312265.55531325 14122.21040647
0.20100001 306843.78830576 15805.52428264
0.20200001 301485.21324353 10098.24769487
0.20300001 296192.21183057 9063.48211040
0.20400001 290963.48809922 13420.69152292
0.20500001 285798.25738082 9714.28322754
0.20600001 280697.42217783 10458.78644471
0.20700001 275660.37359744 10320.72487534
0.20800001 270686.77172492 10183.23683366
0.20900001 265779.03436901 12558.05996757
0.21000001 260932.25345809 9084.35683358
0.21100001 256148.90188387 10589.19610447
0.21200001 251428.37130128 8836.45052712
0.21300001 246770.28411198 11089.85709227
0.21400001 242175.67734575 8591.18256000
0.21500001 237643.70528026 7699.65641510
0.21600001 233172.04147482 10625.65043237
0.21700001 228762.89720903 7480.54709241
0.21800001 224415.09766808 9583.64719904
0.21900001 220127.08975648 7264.19430543
0.22000001 215899.87040986 8588.49725099
0.22100001 211735.45558761 8460.94920534
0.22200001 207629.70391606 10417.82088659
0.22300001 203583.89381799 8892.54490246
0.22400001 199595.64412299 10778.16529230
0.22500001 195669.53321018 7296.51723844
0.22600001 191800.57757538 7836.97197033
0.22700001 187990.87102741 10286.86094908
0.22800001 184238.43551516 9492.88583884
0.22900001 180543.19327539 8720.23664759
0.23000001 176905.59080397 7355.73481350
0.23100001 173326.19905361 6634.92721356
0.23200001 169801.29899252 5934.55568046
0.23300001 166333.67633330 5838.31231542
0.23400001 162921.71365614 6891.58881359
0.23500001 159563.54778475 7343.11481636
0.23600001 156261.24646100 5555.08757443
0.23700001 153013.01483065 7647.59084295
0.23800001 149818.89859016 6445.20932220
0.23900001 146678.28420446 7392.58587357
0.24000001 143590.57770369 7267.11948132
0.24100001 140556.49640213 5612.42116681
0.24200001 137574.10806645 5014.57647622
0.24300001 134643.34389481 6899.12526752
0.24400001 131763.32105747 6294.99296130
0.24500001 128934.59627310 5233.45551029
0.24600001 126156.18243998 5608.90413661
0.24700001 123428.55491930 5509.85095225
0.24800001 120749.31084439 4509.98697339
0.24900001 118118.77173681 7087.12663948
0.25000001 115537.43412627 6959.97536103
0.25100001 113003.48082188 5125.83813258
0.25200001 110518.16371748 5871.83031610
0.25300001 108079.72097262 4941.40507665
0.25400001 105687.25413489 4851.04519430
0.25500001 103340.93032739 5158.77948602
0.25600001 101040.79060805 4674.14719467
0.25700001 98785.45638324  5734.49601437
0.25800001 96574.67087049  4127.11875492
0.25900001 94408.34537009  4786.50333674
0.26000001 92286.05675529  6142.09879796
0.26100001 90205.06894875  3899.56531517
0.26200001 88169.24923840  3826.10475174
0.26300001 86174.26290332  4436.25126418
0.26400001 84220.67685447  4686.88088873
0.26500001 82309.31431965  4597.79851546
0.26600001 80437.88168931  4187.99850833
0.26700001 78607.54821402  3792.02830528
0.26800001 76816.97639158  4029.43468730
0.26900001 75064.98446462  3040.13201468
0.27000001 73352.39191147  3578.12984677
0.27100001 71678.04342570  3509.35717220
0.27200001 70041.82081019  4875.96158645
0.27300001 68442.37374777  4782.06888006
0.27400001 66878.77502800  2758.74960046
0.27500001 65353.90006767  2976.21674993
0.27600001 63862.75401083  4245.59608757
0.27700001 62408.51253404  2862.67860542
0.27800001 60988.46736427  2552.36747999
0.27900001 59603.22289275  3254.33612396
0.28000001 58251.83996251  2946.37820475
0.28100001 56933.65497338  2889.95246323
0.28200001 55649.07963902  3070.99460523
0.28300001 54396.92291244  2780.77083090
0.28400001 53177.00790867  2273.31719569
0.28500001 51989.00009629  2899.42667260
0.28600001 50831.51871090  2407.12668249
0.28700001 49705.06295579  3220.88823199
0.28800001 48608.36416770  2739.32449233
0.28900001 47543.04562578  2274.93484087
0.29000001 46505.55395696  2435.96103157
0.29100001 45498.20301055  3587.07849515
0.29200001 44518.88733002  2347.92622893
0.29300001 43567.38222168  3074.11463508
0.29400001 42643.39502710  2075.66735120
0.29500001 41747.56829963  2780.38818037
0.29600001 40877.53743723  2367.42269274
0.29700001 40033.46254551  2147.39503259
0.29800001 39215.99625409  2286.48876983
0.29900001 38423.77541166  2766.51196060
0.30000001 37656.38505638  2720.29738525
0.30100001 36914.60158935  2006.67783739
0.30200001 36195.78097047  1809.60815529
0.30300001 35501.12702658  1942.62176286
0.30400001 34830.69746028  2071.55582952
0.30500001 34181.87584428  1725.84299308
0.30600001 33555.86619473  1854.29725371
0.30700001 32952.57311111  1826.89073977
0.30800001 32370.87439261  1650.42910904
0.30900001 31810.42950475  1922.94055460
0.31000001 31271.74506074  1896.47506900
0.31100001 30752.04702126  1727.03504248
0.31200001 30253.61471993  1704.48873402
0.31300001 29774.54369679  1542.61918197
0.31400001 29316.37101146  1385.19859588
0.31500001 28876.06180570  1642.47047327
0.31600002 28454.80428307  1623.63120927
0.31700002 28051.30979330  1605.65704859
0.31800002 27666.36148511  1720.98609767
0.31900002 27299.20088286  1572.43404531
0.32000002 26949.18599660  1816.64471405
0.32100002 26616.39865376  1414.12932743
0.32200002 26300.15942646  2293.63701219
0.32300002 25999.52839214  1516.29256763
0.32400002 25715.28402886  1755.06821807
0.32500002 25446.20935837  1493.18363585
0.32600002 25192.81980244  1729.99101775
0.32700002 24954.10450685  1473.29039985
0.32800002 24730.76095199  1342.50942185
0.32900002 24520.41644556  1820.64100730
0.33000002 24325.78990455  1570.10818374
0.33100002 24142.15371454  1803.41896788
0.33200002 23974.53385617  1916.04483652
0.33300002 23818.53678107  1312.63962417
0.33400002 23676.07768909  1189.72296022
0.33500002 23545.36562078  1898.69837357
0.33600002 23426.95137984  1421.07893800
0.33700002 23319.54197291  1891.68133443
0.33800002 23225.22051867  1889.60403089
0.33900002 23140.88768806  1298.20386078
0.34000002 23068.04671636  1415.91677451
0.34100002 23005.77387531  1534.25513240
0.34200002 22954.95480122  1299.13572850
0.34300002 22912.73851409  1536.98657232
0.34400002 22881.41611280  1776.17000988
0.34500002 22859.20866040  1542.31088136
0.34600002 22847.62427538  1545.98456981
0.34700002 22842.92586289  1669.36110112
0.34800002 22848.76656742  1196.13298645
0.34900002 22862.69833418  1560.37923521
0.35000002 22885.19556421  1807.35840528
0.35100002 22915.73487838  1693.93120244
0.35200002 22953.33926332  1579.99318302
0.35300002 22999.15220800  1587.63155211
0.35400002 23052.67438830  1227.55496932
0.35500002 23113.02150909  1851.35311057
0.35600002 23179.88896303  1489.53973532
0.35700002 23253.66030853  1373.59377948
0.35800002 23334.53205527  1633.53399390
0.35900002 23421.11938166  1644.16265847
0.36000002 23514.46270037  2291.95478797
0.36100002 23612.66989453  1666.81844681
0.36200002 23717.86780242  1549.72555562
0.36300002 23826.68778050  1691.21837877
0.36400002 23941.57924856  1835.12213633
0.36500002 24060.89696016  1981.41495852
0.36600002 24185.78412795  1331.42747931
0.36700002 24314.72945824  1610.60775561
0.36800002 24449.56912009  1488.61208639
0.36900002 24587.43357584  1773.98341653
0.37000002 24728.73945941  2064.23162416
0.37100002 24874.25938638  1526.78211346
0.37200002 25024.06887866  1820.12573611
0.37300002 25176.69701159  2118.61915389
0.37400002 25333.69813263  1995.02882245
0.37500002 25492.68252579  1581.56609882
0.37600002 25655.88737162  1595.92454955
0.37700002 25820.60305655  1610.43108893
0.37800002 25988.88577984  2068.45551720
0.37900002 26159.63947218  1640.20947261
0.38000002 26332.69685118  1504.91369634
0.38100002 26507.46869935  1670.76583127
0.38200002 26684.64337562  1839.63940147
0.38300002 26863.49163763  2321.00578745
0.38400002 27044.72154160  1561.83274302
0.38500002 27226.52056689  1891.69873861
0.38600002 27410.91323433  2068.56466523
0.38700002 27595.44530657  1606.05499293
0.38800002 27781.33211620  2431.56120867
0.38900002 27968.50074694  2290.62031969
0.39000002 28157.11843261  1981.69808917
0.39100002 28345.62824594  2166.73992577
0.39200002 28535.55057546  1850.38786473
0.39300002 28725.43991640  2546.51036923
0.39400002 28916.74212276  2055.98046233
0.39500002 29107.20747012  2247.65866733
0.39600002 29298.07356017  2442.58050844
0.39700002 29488.62034131  1936.51778956
0.39800002 29680.32135211  2131.64078050
0.39900002 29870.73928096  1792.24444177
0.40000002 30060.92443154  1988.98115925
0.40100002 30250.77177775  2736.18243694
0.40200002 30440.97813492  2208.18865853
0.40300002 30629.66255390  2041.77340258
0.40400002 30817.72591625  2433.83001955
0.40500002 31005.14509705  1888.21342587
0.40600002 31191.88735905  2856.39722024
0.40700002 31377.48272585  2688.42284733
0.40800002 31562.10228246  3291.76961352
0.40900002 31745.03094059  2733.24729349
0.41000002 31927.50360712  2165.16375971
0.41100002 32108.40304084  2778.01916272
0.41200002 32287.07520728  3600.33192696
0.41300002 32464.87226363  2419.28239572
0.41400002 32640.93097306  2235.08785429
0.41500002 32815.78906126  2457.24640134
0.41600002 32987.81131948  2682.40400455
0.41700002 33158.87703871  3118.59253326
0.41800002 33328.86872311  2304.19144835
0.41900002 33494.87289480  3165.26563854
0.42000002 33659.82367002  2125.61796548
0.42100002 33823.07523315  2783.30099282
0.42200002 33984.11979004  2587.55100343
0.42300002 34142.41820067  2605.74948055
0.42400002 34298.47802432  2405.18088543
0.42500002 34452.76548261  2201.53181866
0.42600002 34603.18646953  2437.96761824
0.42700002 34752.61082758  3123.56480920
0.42800002 34899.00206686  3144.05124519
0.42900002 35043.42693767  3164.42160242
0.43000002 35185.19418741  3412.08436801
0.43100002 35323.05616625  2517.82756284
0.43200002 35458.99130865  3224.28623249
0.43300002 35591.90602527  3012.14314966
0.43400002 35722.51722702  2563.98379547
0.43500002 35849.65483249  2344.56753715
0.43600002 35975.07307897  3301.43261291
0.43700002 36096.62464280  2845.85802170
0.43800002 36214.50212185  4054.03263215
0.43900002 36330.50461818  2397.81341843
0.44000002 36442.84439527  2651.76369809
0.44100002 36552.72173602  2665.79012254
0.44200002 36659.30597593  2923.21319705
0.44300002 36763.06365430  3672.63023311
0.44400002 36862.95359037  3198.78294940
0.44500002 36959.15742136  2719.82452353
0.44600002 37052.97058356  2732.84197490
0.44700002 37143.84501841  3494.49310494
0.44800002 37230.15658433  3008.94139774
0.44900002 37314.82858483  3022.50125861
0.45000002 37395.81073970  2782.80938808
0.45100002 37472.37047792  2794.68952269
0.45200002 37546.46252851  2806.41047470
0.45300002 37616.59753175  2561.69041332
0.45400002 37684.09858415  3086.32782031
0.45500002 37748.04200419  2840.16281500
0.45600002 37808.39116299  2850.94187076
0.45700002 37865.32500886  3121.61754168
0.45800002 37918.19255423  3132.80121731
0.45900002 37968.10675709  3143.75938848
0.46000002 38015.22886830  2628.75320083
0.46100002 38057.62878935  2901.13318011
0.46200002 38097.54125178  3439.63667494
0.46300002 38133.63762841  2919.51143520
0.46400002 38165.81452853  4259.30510325
0.46500002 38195.51019907  3737.81280524
0.46600002 38220.84049399  3212.84400420
0.46700002 38242.76598923  2953.10652965
0.46800002 38261.92890323  2960.89950851
0.46900002 38276.93228486  3238.22862478
0.47000002 38287.99915472  3246.05672219
0.47100002 38296.34839585  3795.93423291
0.47200002 38300.91599424  3804.43016603
0.47300002 38302.76854771  4084.99045923
0.47400002 38299.57673008  2728.84497136
0.47500002 38294.20670323  3281.04778585
0.47600002 38285.61752982  4109.00409615
