# SAXS profile: number of points = 501, q_min = 0, q_max = 0.5, delta_q = 0.001
#    q    intensity    error
0.00000000 1682732.95097188 277.65093691
0.00100000 1682663.44099126 706.71866200
0.00200000 1682454.85324912 832.81517873
0.00300000 1682107.36136866 1110.19089805
0.00400000 1681620.82303395 1513.45879824
0.00500000 1680995.72925252 1966.76508107
0.00600000 1680231.76591762 2293.51645385
0.00700000 1679329.63017502 2418.23476795
0.00800000 1678288.75288421 3171.96587687
0.00900000 1677110.52141089 3521.93224552
0.01000000 1675794.05291746 3594.57839872
0.01100000 1674340.63795145 3917.95726339
0.01200000 1672749.71806675 4240.42072122
0.01300000 1671022.70482287 5614.63653584
0.01400000 1669158.81718681 3755.60750516
0.01500000 1667159.92734195 4401.30240417
0.01600000 1665024.80061509 5944.13880392
0.01700000 1662755.62166312 4938.38441787
0.01800000 1660351.87036210 6151.60395650
0.01900000 1657814.38913153 7460.16508771
0.02000000 1655143.76504781 5735.07340532
0.02100000 1652341.74779852 7633.81922093
0.02200000 1649406.37371666 5690.45224785
0.02300000 1646340.58714985 9482.92221363
0.02400000 1643144.34467205 7394.14988818
0.02500000 1639819.01022279 7034.82387514
0.02600000 1636364.67619106 6627.27724169
0.02700000 1632782.51059587 8229.22423031
0.02800000 1629072.29636239 8503.75777699
0.02900000 1625236.62309691 8776.27816768
0.03000000 1621275.93635762 9046.72014071
0.03100000 1617190.30667372 12420.02212674
0.03200000 1612980.90210136 9581.10699977
0.03300000 1608650.51891958 11485.76523458
0.03400000 1604197.07020568 9264.23850789
0.03500000 1599624.05973850 14684.54954650
0.03600000 1594931.14335977 16818.54968398
0.03700000 1590120.20148395 9970.05412439
0.03800000 1585192.42055454 9273.37608941
0.03900000 1580149.23151602 10428.98541097
0.04000000 1574989.64234090 9686.18674924
0.04100000 1569717.40640012 9889.22011885
0.04200000 1564332.92580661 17152.91132724
0.04300000 1558836.44306654 10288.32100180
0.04400000 1553231.40470760 13629.60620929
0.04500000 1547517.72293338 10677.87278439
0.04600000 1541695.42209998 10868.95323107
0.04700000 1535768.13976792 14374.79045677
0.04800000 1529735.67035912 13492.26924034
0.04900000 1523600.94647975 12569.70839355
0.05000000 1517363.62021741 12768.61545871
0.05100000 1511026.82582139 12964.61076949
0.05200000 1504589.04348366 16746.07683436
0.05300000 1498055.60867638 13347.67609555
0.05400000 1491424.76480112 13534.68037174
0.05500000 1484700.77445527 16212.93321337
0.05600000 1477881.85493981 17690.24662913
0.05700000 1470973.26553922 17916.45521058
0.05800000 1463973.51804840 12956.16623968
0.05900000 1456884.64515810 13111.96241883
0.06000000 1449709.32182507 13264.84091442
0.06100000 1442449.36293961 17439.21361290
0.06200000 1435105.21656328 14917.91942349
0.06300000 1427679.76096935 17817.44424996
0.06400000 1420171.30832734 13846.67090375
0.06500000 1412586.16082607 20976.90546952
0.06600000 1404922.33231201 16943.36412044
0.06700000 1397182.52693466 19951.76741835
0.06800000 1389369.98209627 17255.97598537
0.06900000 1381485.39273181 20307.83622395
0.07000000 1373528.20775625 16090.88370738
0.07100000 1365503.39551568 17696.92483477
0.07200000 1357410.01262493 16350.00436801
0.07300000 1349252.78769692 19469.71863873
0.07400000 1341030.79548838 15086.59715626
0.07500000 1332746.80026060 16712.64565863
0.07600000 1324400.82070716 19885.87925518
0.07700000 1315998.46519515 20016.33759415
0.07800000 1307537.66371806 17043.75424585
0.07900000 1299020.76816091 15588.24994908
0.08000000 1290451.88397368 25086.38580128
0.08100000 1281830.87096341 20496.47658836
0.08200000 1273158.68815300 17435.90905244
0.08300000 1264438.87188729 20711.50969355
0.08400000 1255671.31057130 16009.80996126
0.08500000 1246860.67460783 22518.30484054
0.08600000 1238005.72961156 22618.36574197
0.08700000 1229110.16006971 24336.38231216
0.08800000 1220172.65658545 21176.09744955
0.08900000 1211199.50972874 17986.31356428
0.09000000 1202189.20820669 24614.82519433
0.09100000 1193144.55262003 19758.47471966
0.09200000 1184066.64410001 26428.36873809
0.09300000 1174958.84196968 19880.30454035
0.09400000 1165819.17516873 26580.67844307
0.09500000 1156652.60382611 18321.37810576
0.09600000 1147459.73906562 23373.75598352
0.09700000 1138243.83464479 20078.62218709
0.09800000 1129005.69241119 25148.60298089
0.09900000 1119746.96112392 20155.44624799
0.10000000 1110467.58987726 18505.94325559
0.10100000 1101170.43060425 16847.90838063
0.10200000 1091857.65367353 20243.04185127
0.10300000 1082530.23551970 20264.96696221
0.10400000 1073191.01547137 16902.75928887
0.10500000 1063842.42063899 16915.09528400
0.10600001 1054480.77012203 20309.30058818
0.10700001 1045114.11775404 23703.18930608
0.10800001 1035739.44082252 18627.77471985
0.10900001 1026361.27460699 22015.45037649
0.11000001 1016979.50088998 18625.98043552
0.11100001 1007596.35466592 22005.90542180
0.11200001 998214.01305358 21995.64681313
0.11300001 988831.74427248 20290.82834778
0.11400001 979454.09052718 20274.70062854
0.11500001 970080.87425548 25319.11201029
0.11600001 960713.41577974 25290.78186138
0.11700001 951354.91587142 25258.47420593
0.11800001 942003.11820730 16814.75645195
0.11900001 932662.93535755 25181.90044076
0.12000001 923334.10437507 18434.36626220
0.12100001 914020.28965379 23417.20092407
0.12200001 904719.78190111 25038.12114369
0.12300001 895436.04747417 19986.13352126
0.12400001 886169.01689458 21600.37080456
0.12500001 876921.06001207 24860.71322279
0.12600001 867694.70125494 18182.54332162
0.12700001 858489.42132832 18131.29743292
0.12800001 849305.85173701 21364.28970733
0.12900001 840147.10527183 18021.15625746
0.13000001 831013.68296392 17962.36160392
0.13100001 821905.69673746 24410.60034376
0.13200001 812826.73650950 24323.84123668
0.13300001 803777.62189722 17771.52405795
0.13400001 794757.25250608 17703.21863420
0.13500001 785769.16690121 17632.66093661
0.13600001 776812.68881783 17559.85165869
0.13700001 767890.73862000 20663.94075064
0.13800001 759001.81223594 20572.74509078
0.13900001 750151.41123828 22054.45253045
0.14000001 741336.23139762 20383.04064355
0.14100001 732559.65436667 21844.92992349
0.14200001 723820.78318654 20183.74349113
0.14300001 715124.80859613 16991.36625369
0.14400001 706465.39277063 16902.18531931
0.14500001 697851.89214712 18339.54859074
0.14600001 689278.85917166 15198.59956172
0.14700001 680752.31224970 18135.24245389
0.14800001 672268.25757580 21035.27477196
0.14900001 663829.40948871 16429.77866002
0.15000001 655437.97936145 20783.93930620
0.15100001 647093.51358585 20655.22592828
0.15200001 638798.23331908 20524.58820504
0.15300001 630551.73535102 14565.74577395
0.15400001 622352.83840503 17363.64501091
0.15500001 614206.36714877 14372.42966956
0.15600001 606109.20900289 15701.25980024
0.15700001 598067.45845793 21261.29915165
0.15800001 590073.61717124 19702.55900728
0.15900001 582136.22127088 19559.77795793
0.16000001 574250.18244394 16641.77107276
0.16100001 566422.06387767 16516.86816234
0.16200001 558646.58066899 19122.47335900
0.16300001 550928.13473934 13552.83275439
0.16400001 543265.49379516 13445.82160620
0.16500001 535660.14341989 14671.73202094
0.16600001 528111.48727728 18520.87073324
0.16700001 520620.80960265 14431.60952357
0.16800001 513187.19148829 16912.08469402
0.16900001 505814.69044637 16767.75778004
0.17000001 498500.36870979 19179.80259177
0.17100001 491245.89533557 13941.55916796
0.17200001 484051.54949097 16329.47979320
0.17300001 476917.63148011 13692.30584641
0.17400001 469845.53418204 16033.47961116
0.17500001 462833.86595143 17106.34049346
0.17600001 455882.04296719 12103.66881242
0.17700001 448994.40518766 15584.59654013
0.17800001 442167.87691813 14246.64966720
0.17900001 435403.80315442 19985.03550875
0.18000001 428702.85046278 12803.21123383
0.18100001 422066.00976351 13826.88313299
0.18200001 415489.34377235 14826.73793290
0.18300001 408978.59394675 18060.49556185
0.18400001 402529.91678381 14521.26743397
0.18500001 396145.77809022 13262.96127703
0.18600001 389825.22555758 13121.51771217
0.18700001 383568.19067613 11898.28583691
0.18800001 377374.73910948 12838.28923106
0.18900001 371247.55890812 11638.61152166
0.19000001 365180.52627419 11508.66482930
0.19100001 359182.55902645 12413.34982649
0.19200001 353245.68904371 10226.46318103
0.19300001 347375.44197723 12130.35100704
0.19400001 341568.39207586 9990.87594033
0.19500001 335826.24280170 10860.62120543
0.19600001 330147.39297641 12682.61270052
0.19700001 324533.63974271 12530.24442261
0.19800001 318984.27907997 10473.84929857
0.19900001 313499.97633613 10345.49970802
0.20000001 308077.70642174 12075.10627388
0.20100001 302721.54190274 13758.69472975
0.20200001 297427.88501396 11773.68338474
0.20300001 292199.21934293 12517.81514830
0.20400001 287034.04325621 12356.81614623
0.20500001 281931.82701765 8711.69386662
0.20600001 276893.46744986 10317.05108485
0.20700001 271918.33697423 9332.23776608
0.20800001 267006.07849116 14230.08962585
0.20900001 262158.98046121 11561.21158485
0.21000001 257372.30878259 15477.08452028
0.21100001 252648.33400866 12051.32610192
0.21200001 247986.55696704 7923.17086966
0.21300001 243386.63794584 11719.06717112
0.21400001 238849.63365348 7702.90104949
0.21500001 234374.64818476 9112.48675224
0.21600001 229959.22303273 8233.69036996
0.21700001 225605.87545198 8115.04372368
0.21800001 221313.12758424 7997.15024337
0.21900001 217079.77981220 7879.99637976
0.22000001 212906.27284585 9175.19626212
0.22100001 208795.15926449 7648.16704549
0.22200001 204742.13163310 6848.62462696
0.22300001 200748.06296977 7419.64875820
0.22400001 196811.37843946 9299.33807100
0.22500001 192936.10316911 7194.58762739
0.22600001 189117.18906296 7083.38465131
0.22700001 185357.14754303 6339.21474575
0.22800001 181653.59261859 6863.78132168
0.22900001 178006.71798225 9211.84809122
0.23000001 174416.74713424 9669.66491842
0.23100001 170884.57394661 8920.17518187
0.23200001 167405.97924535 6435.92317647
0.23300001 163984.36817811 7482.60707385
0.23400001 160617.58341137 8492.65512454
0.23500001 157304.12426425 6682.27951479
0.23600001 154045.93440983 7666.86651820
0.23700001 150841.27976430 7000.54412497
0.23800001 147689.89103674 5294.68284410
0.23900001 144591.67631995 6246.36071247
0.24000001 141545.52811563 6651.93240843
0.24100001 138552.58008693 5532.40478456
0.24200001 135610.55953476 5437.30564174
0.24300001 132719.73931947 5343.29695775
0.24400001 129879.09128159 5727.66819646
0.24500001 127089.11388267 5158.54737652
0.24600001 124349.03358009 6449.98467692
0.24700001 121658.82812200 4525.70862023
0.24800001 119016.45092774 5334.31758293
0.24900001 116422.59135631 4802.43212064
0.25000001 113876.95552149 5144.96109386
0.25100001 111378.26338900 6315.14783292
0.25200001 108927.56126716 4960.56137479
0.25300001 106523.40944790 4870.25051037
0.25400001 104164.52396857 5976.43984545
0.25500001 101851.33169271 4302.20045425
0.25600001 99583.56948867  5758.42017813
0.25700001 97360.12851153  4144.62086683
0.25800001 95180.74165113  4437.32638572
0.25900001 93045.23250893  3991.64066350
0.26000001 90953.25835214  3560.82023297
0.26100001 88901.97019823  4542.00187234
0.26200001 86895.45212240  4113.63089812
0.26300001 84929.13729366  3363.19399597
0.26400001 83003.75841961  3959.27946396
0.26500001 81120.09895133  4207.69973171
0.26600001 79275.73503148  3174.99333825
0.26700001 77472.09265144  3737.25392635
0.26800001 75707.53674985  4582.19887862
0.26900001 73981.16320284  4494.35587725
0.27000001 72293.63779284  3526.48381842
0.27100001 70643.80066896  3458.72064443
0.27200001 69031.82693189  3674.90948063
0.27300001 67455.94661309  3049.68349070
0.27400001 65915.41885142  3262.81338756
0.27500001 64413.14397486  2933.37471544
0.27600001 62944.09416006  2876.85995974
0.27700001 61511.74169971  3078.04770033
0.27800001 60112.65841687  2767.28636119
0.27900001 58748.30312526  3701.14327206
0.28000001 57416.99986288  2662.13932464
0.28100001 56118.71058758  2848.58588425
0.28200001 54853.43514663  2561.38127540
0.28300001 53620.18579835  3426.33003468
0.28400001 52418.79871612  2240.90375118
0.28500001 51248.73823099  3077.99936384
0.28600001 50108.73758877  2588.61750636
0.28700001 48999.49316568  3175.16730742
0.28800001 47919.40310901  2700.49809003
0.28900001 46870.32573577  3262.17482562
0.29000001 45848.70043223  2201.42545546
0.29100001 44856.77203646  2947.09006230
0.29200001 43892.39440283  2314.88499038
0.29300001 42955.52781689  2083.77275303
0.29400001 42045.71288020  2604.73203623
0.29500001 41163.81402425  1827.67342919
0.29600001 40307.06075101  2873.08742634
0.29700001 39476.10847448  1764.58213234
0.29800001 38671.13288646  1734.40039206
0.29900001 37891.19591276  2557.65584519
0.30000001 37135.69729475  2012.01217468
0.30100001 36405.38216710  2308.82944634
0.30200001 35697.59144185  1946.94672941
0.30300001 35013.73718019  1915.95178920
0.30400001 34353.63907087  1886.01487428
0.30500001 33714.81692238  2166.51423800
0.30600001 33098.61005068  1676.61017149
0.30700001 32504.66968769  1651.88739173
0.30800001 31931.87769143  1776.05112128
0.30900001 31380.11222258  1459.17528743
0.31000001 30849.73017973  1583.05397912
0.31100001 30338.03355911  1561.80204157
0.31200001 29847.35966824  1541.46696305
0.31300001 29375.50647289  2352.09691465
0.31400001 28924.32760086  1503.34199823
0.31500001 28490.85493936  1485.51324687
0.31600002 28075.88594682  2136.01350397
0.31700002 27678.57514069  1320.26809672
0.31800002 27299.46986207  1436.90766423
0.31900002 26937.86048397  1422.31910090
0.32000002 26592.95601462  1536.54107128
0.32100002 26265.10222575  1649.18584684
0.32200002 25953.59560033  1634.68729629
0.32300002 25657.40908548  1870.42521090
0.32400002 25377.26141249  1608.28401817
0.32500002 25112.02739564  1473.57383735
0.32600002 24862.31544251  1707.29528228
0.32700002 24626.94236588  1211.64562178
0.32800002 24406.67252450  1686.25708457
0.32900002 24199.21144246  1437.43322775
0.33000002 24007.10374274  1191.95275727
0.33100002 23826.01051414  1779.80306969
0.33200002 23660.47324865  1890.94511158
0.33300002 23506.37607012  1766.50424532
0.33400002 23365.52424507  1174.11764892
0.33500002 23236.38143690  1639.55915183
0.33600002 23119.18971275  1519.27762392
0.33700002 23012.93764901  1750.13399109
0.33800002 22919.35418244  1165.44921537
0.33900002 22835.62774322  1630.46389808
0.34000002 22763.27600216  1746.51243398
0.34100002 22701.27351136  1513.94800217
0.34200002 22650.46752940  1281.90327054
0.34300002 22608.16973473  1166.58161356
0.34400002 22576.48060111  1401.99951173
0.34500002 22553.76695486  1521.70272851
0.34600002 22541.47811297  1290.61239048
0.34700002 22535.99266463  1176.37887281
0.34800002 22540.86202516  1416.01701949
0.34900002 22553.69169640  1184.06887014
0.35000002 22574.79220806  1307.41915265
0.35100002 22603.91767149  2028.92774629
0.35200002 22639.93077663  1558.41970882
0.35300002 22683.95137484  1445.42145006
0.35400002 22735.68346337  1331.74272194
0.35500002 22793.97803555  1217.19848475
0.35600002 22858.71514166  1591.30952996
0.35700002 22930.19498464  1354.48668190
0.35800002 23008.67476207  1982.42751140
0.35900002 23092.73821855  1745.81109201
0.36000002 23183.47704835  1632.00094412
0.36100002 23279.07274448  1643.26982287
0.36200002 23381.39218061  1655.05192390
0.36300002 23487.21453175  1410.64217159
0.36400002 23599.03815575  1421.25214025
0.36500002 23715.32782222  1562.36587093
0.36600002 23836.92958605  1574.66764304
0.36700002 23962.66035397  1455.01280561
0.36800002 24094.03174485  1600.32566430
0.36900002 24228.59566667  1479.15583552
0.37000002 24366.23101156  2576.36355805
0.37100002 24508.23763797  2051.33958747
0.37200002 24654.40239894  1655.29665548
0.37300002 24803.21517359  2087.19065573
0.37400002 24956.49050686  1684.56318901
0.37500002 25111.59836680  1416.29421498
0.37600002 25270.91596182  1857.79147494
0.37700002 25431.68365759  1874.56949120
0.37800002 25596.05382486  1600.64930176
0.37900002 25762.77756220  1615.32622967
0.38000002 25931.72389764  1630.19790005
0.38100002 26102.47451253  1645.23904646
0.38200002 26275.46629785  2264.28841548
0.38300002 26450.19036642  2285.29655592
0.38400002 26627.21374292  2614.12683305
0.38500002 26804.82372186  1707.19930372
0.38600002 26984.95706269  1879.77219804
0.38700002 27165.42592591  1739.13065017
0.38800002 27347.06191123  1914.84136574
0.38900002 27529.89462979  1771.54880336
0.39000002 27714.36880812  2275.62693064
0.39100002 27898.65924619  2296.61773795
0.39200002 28084.30249834  1986.68365286
0.39300002 28269.99375516  2339.05939412
0.39400002 28457.01978053  1686.07850188
0.39500002 28643.40584229  1701.41838764
0.39600002 28830.01003930  1888.50989710
0.39700002 29016.43269098  3291.33411607
0.39800002 29203.90063048  1747.85353554
0.39900002 29390.22002309  1939.75461343
0.40000002 29576.35872867  1779.01806182
0.40100002 29762.02248478  2691.97506129
0.40200002 29948.35055489  1810.37787682
0.40300002 30133.06397756  2008.67013991
0.40400002 30317.19286283  2025.94650905
0.40500002 30500.66489079  2414.73775382
0.40600002 30683.53265628  2435.19868465
0.40700002 30865.29242726  2455.64278186
0.40800002 31046.29013883  2095.15898929
0.40900002 31225.38837264  3456.65065663
0.41000002 31404.25862721  2323.28716332
0.41100002 31581.46479458  2146.90807846
0.41200002 31756.67420578  3344.45430245
0.41300002 31930.96204782  1982.91283713
0.41400002 32103.63230026  2198.29632592
0.41500002 32275.20266901  2819.56183876
0.41600002 32443.90474009  2638.17623895
0.41700002 32611.74538890  2453.70783933
0.41800002 32778.58091555  2884.18747142
0.41900002 32941.60163120  2490.38520132
0.42000002 33103.52426059  2299.53642172
0.42100002 33263.87612892  2526.72415048
0.42200002 33422.14410382  2756.82568704
0.42300002 33577.67653898  2562.64839489
0.42400002 33731.13752833  2795.46815513
0.42500002 33882.79569516  2381.62182227
0.42600002 34030.83931438  3269.51304206
0.42700002 34177.87568067  2633.06366721
0.42800002 34321.92785848  3975.50909223
0.42900002 34464.12969074  2445.23011743
0.43000002 34603.84269562  2684.56624354
0.43100002 34739.64169366  2701.35466611
0.43200002 34873.76648160  3397.57686047
0.43300002 35004.86384158  2506.69841848
0.43400002 35133.77344503  2292.47882593
0.43500002 35259.39174406  2767.15719521
0.43600002 35383.30704979  3015.18865313
0.43700002 35503.44738031  2565.83426377
0.43800002 35620.05927620  2580.13911594
0.43900002 35734.87402020  3066.05233623
0.44000002 35846.13363645  3319.71059339
0.44100002 35955.13634698  2622.20821805
0.44200002 36060.86234541  2635.86885805
0.44300002 36163.86892635  2890.21654156
0.44400002 36263.23733996  2662.62832787
0.44500002 36358.87414353  3648.61319321
0.44600002 36452.27102206  3421.77484300
0.44700002 36542.81689473  3192.38063522
0.44800002 36629.11200355  2713.66789139
0.44900002 36713.71197332  3221.62837834
0.45000002 36794.80559923  2738.08558843
0.45100002 36871.48036138  2999.86378437
0.45200002 36945.97534653  3012.57497253
0.45300002 37016.54625028  3277.07499485
0.45400002 37084.58953552  3037.22802690
0.45500002 37149.23054798  3557.41048587
0.45600002 37210.32163835  3826.15150380
0.45700002 37268.18066082  4352.55102566
0.45800002 37322.15128641  2826.59326164
0.45900002 37373.15717595  3094.49756083
0.46000002 37421.63658553  2846.47692179
0.46100002 37465.49169399  3115.63043694
0.46200002 37506.92273409  2604.85590734
0.46300002 37544.65544233  3397.04058543
0.46400002 37578.55232291  3669.54580825
0.46500002 37610.13331489  2891.84328764
0.46600002 37637.50761997  2900.15828711
0.46700002 37661.54922297  2643.84088076
0.46800002 37682.98219042  3181.19750729
0.46900002 37700.29219787  2657.87072592
0.47000002 37713.96379995  2930.94083563
0.47100002 37724.86601470  4540.56508874
0.47200002 37732.16328831  2944.80682341
0.47300002 37736.78623414  3488.01131694
0.47400002 37736.55269038  2957.60245729
0.47500002 37734.25568381  2694.22598352
0.47600002 37728.92258212  3509.35590031
0.47700002 37719.02643035  2974.89975557
