# SAXS profile: number of points = 501, q_min = 0, q_max = 0.5, delta_q = 0.001
#    q    intensity    error
0.00000000 1700912.83420644 306.16431016
0.00100000 1700842.74611790 561.27811955
0.00200000 1700632.42752625 841.81307828
0.00300000 1700282.04787919 1122.18619158
0.00400000 1699791.46863424 1402.32801491
0.00500000 1699161.18470264 1988.01866479
0.00600000 1698390.86850734 2139.97258144
0.00700000 1697481.23131859 2036.97756224
0.00800000 1696431.70764569 3664.29264322
0.00900000 1695243.68404087 3051.43876172
0.01000000 1693916.27319701 3074.45816861
0.01100000 1692450.73794338 5178.89948359
0.01200000 1690846.61464620 4616.01146037
0.01300000 1689105.23569405 4256.54538168
0.01400000 1687225.81143627 3796.25824402
0.01500000 1685210.28766209 5662.30681868
0.01600000 1683057.37316894 4720.97614278
0.01700000 1680769.26898314 5445.69267579
0.01800000 1678345.46780513 5261.61327833
0.01900000 1675786.82210060 5027.36069315
0.02000000 1673093.86276573 7905.36885917
0.02100000 1670268.47382511 6063.07483488
0.02200000 1667308.56955667 6327.43630894
0.02300000 1664217.10184039 7189.41820720
0.02400000 1660994.10451214 8097.34662872
0.02500000 1657640.98368339 7757.76015794
0.02600000 1654157.63065057 6699.33871055
0.02700000 1650545.52089637 7625.52065580
0.02800000 1646804.15803236 7879.95825756
0.02900000 1642936.24942141 9611.17750040
0.03000000 1638942.26887386 8383.19009063
0.03100000 1634822.29385358 9416.57684588
0.03200000 1630577.42970625 8878.49451368
0.03300000 1626210.54991994 12440.51128040
0.03400000 1621719.58637947 11919.63950987
0.03500000 1617107.97171458 13971.81352081
0.03600000 1612375.32868618 11633.28853409
0.03700000 1607523.76821278 11911.75167335
0.03800000 1602554.18518706 14999.90786754
0.03900000 1597468.31093918 13418.73443331
0.04000000 1592265.01434748 12730.15937961
0.04100000 1586947.93992704 12997.10423063
0.04200000 1581517.69067670 10200.78957811
0.04300000 1575974.47588664 12481.71842840
0.04400000 1570321.60861600 11659.63848547
0.04500000 1564559.16144038 16193.18807332
0.04600000 1558687.16963455 12087.61956243
0.04700000 1552709.07469379 12297.45644350
0.04800000 1546625.06395545 14778.00317369
0.04900000 1540437.67004151 16174.59628832
0.05000000 1534146.84283382 16430.71345186
0.05100000 1527755.54334680 15491.44193119
0.05200000 1521262.34832217 14512.84347931
0.05300000 1514672.48454605 19630.15631483
0.05400000 1507984.48865547 17417.22165620
0.05500000 1501202.28395690 18915.14966024
0.05600000 1494324.35248429 12776.47380994
0.05700000 1487355.86749179 15527.99598144
0.05800000 1480295.25552044 19650.92043458
0.05900000 1473144.68193044 15909.96330794
0.06000000 1465906.89509555 24143.48769018
0.06100000 1458583.67799510 13564.82883926
0.06200000 1451175.25816444 20570.41024601
0.06300000 1443684.76455847 15245.31182654
0.06400000 1436110.47814526 18202.70116177
0.06500000 1428458.63980103 18384.26355421
0.06600000 1420727.29269627 18561.80294756
0.06700000 1412919.25758231 17294.13252215
0.06800000 1405037.76616156 15996.35571652
0.06900000 1397083.35088266 14669.37587107
0.07000000 1389055.67394933 23669.50979250
0.07100000 1380959.60559191 16405.80088284
0.07200000 1372794.12223257 18038.51561118
0.07300000 1364564.21336622 16661.32982588
0.07400000 1356268.72214785 19835.43099098
0.07500000 1347910.70324024 16902.80101091
0.07600000 1339489.84103104 17018.21922812
0.07700000 1331011.89769211 21801.97590646
0.07800000 1322474.88449495 17238.46092781
0.07900000 1313881.25213230 33109.80910671
0.08000000 1305234.77625464 15858.60327544
0.08100000 1296535.84697984 20731.60916590
0.08200000 1287784.86263946 16032.92229221
0.08300000 1278985.66960570 24172.83029003
0.08400000 1270138.17118283 22671.96741981
0.08500000 1261246.96793661 21151.11264524
0.08600000 1252310.96069860 17976.92468487
0.08700000 1243333.69298851 27900.40938080
0.08800000 1234314.10480874 19773.71288768
0.08900000 1225258.05892728 18195.08302969
0.09000000 1216164.46934001 21580.83952221
0.09100000 1207035.89311513 19988.51532907
0.09200000 1197873.63375634 18381.37177367
0.09300000 1188681.11025091 21788.52577479
0.09400000 1179456.32614170 18487.97878116
0.09500000 1170203.88556837 18536.03041865
0.09600000 1160924.64141550 18580.59975929
0.09700000 1151622.32467784 23700.38855609
0.09800000 1142297.00196949 25444.66691522
0.09900000 1132950.80839220 18693.68921749
0.10000000 1123583.43173901 22128.97672876
0.10100000 1114198.01752101 18751.95351682
0.10200000 1104796.62410633 22189.84123890
0.10300000 1095380.23791587 22214.31226991
0.10400000 1085951.54847997 22234.85900117
0.10500000 1076513.21722963 17116.56095927
0.10600001 1067061.66865190 20551.60870526
0.10700001 1057604.42667866 17133.19251844
0.10800001 1048138.95884716 22278.19461875
0.10900001 1038669.99501502 23993.27801411
0.11000001 1029196.98262465 23990.58279421
0.11100001 1019722.23895274 17131.33442084
0.11200001 1010248.09309502 20548.44718091
0.11300001 1000773.72416822 17113.23148898
0.11400001 991303.75252738 17099.99053624
0.11500001 981838.13138879 20500.78114874
0.11600001 972377.94005084 18771.75701667
0.11700001 962926.54486530 18748.18071147
0.11800001 953481.86920361 20423.58260026
0.11900001 944048.45560449 22090.73490165
0.12000001 934626.19150905 20356.15940994
0.12100001 925218.87938222 22010.95817740
0.12200001 915824.52146872 23655.74850399
0.12300001 906447.19573845 20231.90236210
0.12400001 897086.28395744 16820.36861674
0.12500001 887744.33379501 23489.71617906
0.12600001 878423.89784380 16733.97604249
0.12700001 869124.49741475 25030.78670516
0.12800001 859846.70170756 19965.64135462
0.12900001 850593.73764216 19903.89439894
0.13000001 841366.14008105 16532.84543187
0.13100001 832163.67052500 23067.57803430
0.13200001 822990.54655256 21344.26083102
0.13300001 813847.13041409 19629.99371100
0.13400001 804732.40355014 21184.58152222
0.13500001 795650.05122827 27593.14507756
0.13600001 786599.35510327 32329.23501909
0.13700001 777583.06812980 16095.97026926
0.13800001 768600.19232495 24037.97214849
0.13900001 759655.72042475 19143.32505747
0.14000001 750746.47804120 15878.28875940
0.14100001 741876.11467876 18962.35438551
0.14200001 733043.49826738 18868.54053534
0.14300001 724254.01383074 20337.05366762
0.14400001 715501.01879375 24899.43662853
0.14500001 706794.01309809 15478.78961702
0.14600001 698127.79203931 18472.46224879
0.14700001 689508.28000501 19899.20989972
0.14800001 680931.33368349 19784.46083358
0.14900001 672399.70498997 19667.69229889
0.15000001 663915.88708921 16541.46510730
0.15100001 655478.90347418 16439.41167483
0.15200001 647091.53353431 23761.20223260
0.15300001 638753.23420038 28034.88077199
0.15400001 630462.71857032 19055.73656805
0.15500001 622224.85422928 16016.06850371
0.15600001 614036.71115223 17352.67827612
0.15700001 605904.03882372 15795.91903765
0.15800001 597819.47707965 15683.79472144
0.15900001 589791.73235712 21232.50336704
0.16000001 581815.78089352 18266.10730336
0.16100001 573897.99326868 15340.29408420
0.16200001 566033.06603121 19375.31276488
0.16300001 558225.52677850 17852.05318913
0.16400001 550474.07307961 14986.65734711
0.16500001 542780.51589935 14866.75903236
0.16600001 535143.68356186 13405.34990613
0.16700001 527565.27988429 14624.11024887
0.16800001 520044.31047346 17138.06106085
0.16900001 512584.95979139 14378.00880105
0.17000001 505184.06084103 15549.56612693
0.17100001 497843.43537321 15413.23348699
0.17200001 490563.26919694 17822.16441154
0.17300001 483344.06761748 16399.86498874
0.17400001 476187.01651760 16249.88270608
0.17500001 469090.85481059 13622.39906705
0.17600001 462054.94113167 19628.09482629
0.17700001 455083.66386767 13365.80783907
0.17800001 448174.13152562 14440.17119980
0.17900001 441327.24012932 11915.83604632
0.18000001 434543.99010300 12977.65687743
0.18100001 427825.40780903 12847.59760338
0.18200001 421167.33966325 11561.04401988
0.18300001 414575.95357056 12586.52654498
0.18400001 408046.74368366 12455.62743936
0.18500001 401583.03125201 16806.25065186
0.18600001 395183.04568705 12193.37345073
0.18700001 388847.20545576 10965.49171191
0.18800001 382575.31354490 16269.01597715
0.18900001 376370.46872116 12871.87063843
0.19000001 370226.27653208 14849.77665334
0.19100001 364151.57017208 14682.59200309
0.19200001 358138.72451668 12441.73987760
0.19300001 352192.82782128 13323.45530605
0.19400001 346310.65370149 10129.58709943
0.19500001 340494.07072969 11011.57876775
0.19600001 334741.38605474 10880.76926789
0.19700001 329054.10586593 12704.77962788
0.19800001 323432.06742085 11585.33720252
0.19900001 317875.57592775 9536.26772852
0.20000001 312381.62250545 15069.29018185
0.20100001 306954.49485456 11160.86596040
0.20200001 301590.51383285 11020.11789630
0.20300001 296292.04287560 9973.19063457
0.20400001 291057.59618487 11635.02795743
0.20500001 285886.74916071 10600.68115994
0.20600001 280780.39928408 12205.52453381
0.20700001 275737.91141702 12904.53486430
0.20800001 270758.82359400 15278.92113765
0.20900001 265845.61095180 9211.55085492
0.21000001 260993.34126869 14042.74739080
0.21100001 256204.54614114 11406.22693341
0.21200001 251478.51823770 11248.63465255
0.21300001 246815.05043595 11884.14524032
0.21400001 242214.99193850 7811.43385931
0.21500001 237677.66532251 9240.90806463
0.21600001 233200.40951028 8349.74105728
0.21700001 228785.99742554 9725.69321039
0.21800001 224432.79924955 9584.40314511
0.21900001 220139.64022934 7991.06931816
0.22000001 215907.00699253 9304.51290628
0.22100001 211737.53254798 7050.86016724
0.22200001 207626.57170746 10417.66372802
0.22300001 203575.54879334 10944.22202063
0.22400001 199582.27102043 14145.39412746
0.22500001 195651.05841671 9285.59967155
0.22600001 191776.98885388 7183.00745719
0.22700001 187962.40596495 7713.97750559
0.22800001 184204.91381016 8225.67081518
0.22900001 180504.79566173 6850.15731931
0.23000001 176862.28882429 6741.10645734
0.23100001 173278.25964207 9045.12558108
0.23200001 169748.41863551 8899.06126784
0.23300001 166276.36727765 7587.19099771
0.23400001 162859.57585263 7463.04041641
0.23500001 159496.83230393 9033.90100896
0.23600001 156190.04285879 6663.06754350
0.23700001 152937.46684552 7097.82817201
0.23800001 149738.95660211 9125.84114176
0.23900001 146594.06665130 7916.07997360
0.24000001 143502.07492056 7781.40038063
0.24100001 140463.78844787 7138.37006657
0.24200001 137477.06900697 5512.14334257
0.24300001 134542.42441738 5416.67826327
0.24400001 131658.49723434 6773.83000313
0.24500001 128825.86292923 7130.51185044
0.24600001 126043.63371794 4669.91685016
0.24700001 123312.18983773 5963.37778266
0.24800001 120629.15880003 5857.14908262
0.24900001 117995.19512583 5309.78403185
0.25000001 115410.21051486 5648.75302088
0.25100001 112872.79163121 4693.25089806
0.25200001 110384.05157663 8378.14991103
0.25300001 107942.35511378 4935.12470928
0.25400001 105546.71914309 4440.87841805
0.25500001 103197.29801269 5547.88700364
0.25600001 100894.11586425 5056.30885576
0.25700001 98635.75736198  4198.92438956
0.25800001 96422.11095152  4869.79894402
0.25900001 94252.94971028  4043.45173389
0.26000001 92127.85354305  3967.48620056
0.26100001 90044.19585185  4600.35818374
0.26200001 88005.95686045  3471.83516242
0.26300001 86008.48531060  3746.52979741
0.26400001 84052.47595348  4343.41190042
0.26500001 82138.90360830  3277.34240905
0.26600001 80265.18937764  3536.08308536
0.26700001 78432.78910318  4098.89775249
0.26800001 76640.16582765  4329.40317248
0.26900001 74886.23617554  3336.18197949
0.27000001 73171.66484246  3569.31397992
0.27100001 71495.57675996  3208.72163683
0.27200001 69857.72170810  2860.67383932
0.27300001 68256.67949734  2805.34966010
0.27400001 66691.51522720  2751.02513331
0.27500001 65165.22383864  2967.62443406
0.27600001 63672.69062357  3174.72050474
0.27700001 62217.31592508  2853.90841655
0.27800001 60795.92900531  2798.74072422
0.27900001 59409.67877185  2994.24795181
0.28000001 58057.14748372  2936.53065871
0.28100001 56738.12569824  3600.03424594
0.28200001 55452.69436170  3766.34717931
0.28300001 54199.74026453  3001.58175792
0.28400001 52979.23124816  2944.32091597
0.28500001 51790.63503647  2221.81834823
0.28600001 50632.53631907  3487.56926673
0.28700001 49505.67097520  2138.64508736
0.28800001 48408.58188825  2518.21454902
0.28900001 47343.07542245  2471.30865403
0.29000001 46305.36751396  2425.47526519
0.29100001 45297.82409722  2777.66270512
0.29200001 44318.46312397  2726.91516510
0.29300001 43367.02458252  1912.48587462
0.29400001 42443.08894072  2065.91745198
0.29500001 41547.44738396  2582.58945164
0.29600001 40677.67872555  2174.62880761
0.29700001 39834.02502430  2492.81340403
0.29800001 39016.79606685  1924.89372508
0.29900001 38225.07731798  2064.15427289
0.30000001 37458.29569193  2198.61476972
0.30100001 36717.19132042  2162.27549922
0.30200001 35998.92314452  1799.76624781
0.30300001 35304.98735027  1609.90749939
0.30400001 34635.32438943  2376.84924875
0.30500001 33987.37020028  1560.02036605
0.30600001 33362.32512344  1843.60217360
0.30700001 32760.05299116  1664.86597183
0.30800001 32179.30257019  2088.11504264
0.30900001 31620.03168168  1764.39785137
0.31000001 31082.39659352  1739.99264368
0.31100001 30563.93384106  2145.58825723
0.31200001 30066.79731411  1835.12706095
0.31300001 29589.03782371  1811.73687172
0.31400001 29132.22274079  1651.79710761
0.31500001 28693.33243338  1904.08963043
0.31600002 28273.55353805  1613.28904127
0.31700002 27871.56312193  1861.26307341
0.31800002 27488.17468217  1446.84014290
0.31900002 27122.63409193  1432.07514786
0.32000002 26774.22450011  1675.93266194
0.32100002 26443.11434278  1788.08347652
0.32200002 26128.62330705  2152.08416059
0.32300002 25829.76824138  1255.32679597
0.32400002 25547.32175681  1494.51839354
0.32500002 25280.02584536  1607.05131909
0.32600002 25028.57414858  1595.94710616
0.32700002 24791.73449507  1951.60543187
0.32800002 24570.36850684  1818.82161485
0.32900002 24361.97506621  1808.87673432
0.33000002 24169.33897048  1200.00773671
0.33100002 23987.81226237  1314.05241796
0.33200002 23822.28435146  1784.88473956
0.33300002 23668.29457982  1422.93793752
0.33400002 23527.82041101  1300.50033480
0.33500002 23399.34767996  1415.19261470
0.33600002 23283.03458615  1412.34894488
0.33700002 23177.83765135  1175.11642457
0.33800002 23085.59728944  1408.68321331
0.33900002 23003.53647778  1290.49845752
0.34000002 22932.81524956  1524.91762224
0.34100002 22872.87283939  1525.39196190
0.34200002 22824.25119744  1996.32322553
0.34300002 22784.28574254  1293.23611999
0.34400002 22755.20096741  1295.33987642
0.34500002 22735.25318643  2241.92342289
0.34600002 22725.85116064  1182.88060893
0.34700002 22723.42052391  1660.62765054
0.34800002 22731.57951571  1665.99754161
0.34900002 22747.79295760  2030.24061762
0.35000002 22772.52623629  1798.46034469
0.35100002 22805.38956973  1324.53708894
0.35200002 22845.21116861  1330.61938754
0.35300002 22893.25917456  1458.75854369
0.35400002 22949.15210320  1222.04240738
0.35500002 23011.65156122  1351.70447673
0.35600002 23080.83167521  1853.96789212
0.35700002 23156.84716194  1740.93185209
0.35800002 23239.91349879  1376.61634130
0.35900002 23328.71430123  1637.67582152
0.36000002 23424.22766794  1395.26418713
0.36100002 23524.81667488  1532.87712714
0.36200002 23632.09638490  1415.44448002
0.36300002 23743.09774803  1296.37319845
0.36400002 23860.08702263  1567.60779164
0.36500002 23981.61629098  1843.22711543
0.36600002 24108.57333318  1327.17702486
0.36700002 24239.73767232  1338.03358289
0.36800002 24376.59185946  1484.16886567
0.36900002 24516.63036313  1904.94226945
0.37000002 24659.87278562  1372.32198553
0.37100002 24807.42682614  1522.67993072
0.37200002 24959.34514429  1955.06559776
0.37300002 25113.85069179  2113.33063582
0.37400002 25272.90163467  1563.76086272
0.37500002 25433.75359666  1721.35652496
0.37600002 25598.88455710  1737.14038834
0.37700002 25765.48739456  1460.90320448
0.37800002 25935.62925017  2064.21682981
0.37900002 26108.22518156  1934.61957760
0.38000002 26283.07858231  2102.90921699
0.38100002 26459.62803190  1516.13675805
0.38200002 26638.55586282  2142.53914955
0.38300002 26819.14649842  1699.26120264
0.38400002 27001.97308407  1715.30042143
0.38500002 27185.49757829  1888.84846122
0.38600002 27371.45747632  2542.26109084
0.38700002 27557.65715937  1764.24129492
0.38800002 27745.11495436  1780.82028771
0.38900002 27933.79479310  1797.53978010
0.39000002 28123.94632148  2804.09820083
0.39100002 28313.88398351  1997.82774853
0.39200002 28505.24392236  2184.49947148
0.39300002 28696.55063599  1695.96622294
0.39400002 28889.16985094  2054.02007372
0.39500002 29081.05502861  2245.63917570
0.39600002 29273.14803246  1917.53765272
0.39700002 29464.95992251  1759.05819071
0.39800002 29657.96793988  2307.53830489
0.39900002 29849.58952241  1970.07300182
0.40000002 30040.85024736  1987.65295079
0.40100002 30231.83477317  1822.97972319
0.40200002 30423.25465069  2574.72016308
0.40300002 30613.00197528  2226.17760912
0.40400002 30802.15906790  2432.60062764
0.40500002 30990.52668241  2830.98474657
0.40600002 31178.26786497  2093.77667768
0.40700002 31364.76502668  2495.38082376
0.40800002 31550.34119333  2516.29758110
0.40900002 31734.08272402  2732.30465200
0.41000002 31917.46021192  3541.88072754
0.41100002 32099.09100281  2975.58587695
0.41200002 32278.53232056  2799.51724081
0.41300002 32457.14304880  2620.26528248
0.41400002 32633.88698822  2031.45956127
0.41500002 32809.50520535  2252.04454400
0.41600002 32982.15052687  2063.03361321
0.41700002 33153.78903021  3741.73680725
0.41800002 33324.36203311  2094.43625302
0.41900002 33490.96025294  2742.90977469
0.42000002 33656.44658064  2550.48564273
0.42100002 33820.19159071  2354.90005205
0.42200002 33981.74089224  2156.14156178
0.42300002 34140.45449434  3039.86621222
0.42400002 34296.97556037  2405.07552514
0.42500002 34451.59021223  2861.89373454
0.42600002 34602.40578726  3767.68313268
0.42700002 34752.16251101  3346.63340840
0.42800002 34898.86249518  3368.61286197
0.42900002 35043.57301761  2938.40373677
0.43000002 35185.59739665  3639.59836718
0.43100002 35323.67390275  2288.97417737
0.43200002 35459.87022915  2994.05428468
0.43300002 35592.97565007  3012.23367201
0.43400002 35723.78722621  3263.36811776
0.43500002 35851.07742664  2813.59268977
0.43600002 35976.61248551  2829.92047222
0.43700002 36098.30028334  2845.99012921
0.43800002 36216.24771948  3338.77603548
0.43900002 36332.30786545  2637.72567603
0.44000002 36444.68853847  3375.14276549
0.44100002 36554.64262173  2908.28750481
0.44200002 36661.24544164  2679.75386255
0.44300002 36764.93301409  3917.67144764
0.44400002 36864.86517748  2706.80285393
0.44500002 36961.01645541  3214.49975346
0.44600002 37054.74938703  2981.42527697
0.44700002 37145.55595589  4493.12666136
0.44800002 37231.81343894  3009.07530474
0.44900002 37316.38500116  3274.51293904
0.45000002 37397.31448321  3035.91413363
0.45100002 37473.69276258  2794.78813868
0.45200002 37547.74902919  2806.50663419
0.45300002 37617.70469456  2817.94239222
0.45400002 37685.04519604  2829.20490218
0.45500002 37748.86501681  3098.42698742
0.45600002 37809.10214901  3369.35829769
0.45700002 37865.80696826  2861.51916821
0.45800002 37918.52850751  2871.75989262
0.45900002 37968.25035933  3405.75221864
0.46000002 38015.19982906  3943.12678915
0.46100002 38057.38229568  3164.85206171
0.46200002 38097.11761694  3175.01393268
0.46300002 38133.08594419  3715.68807051
0.46400002 38165.01223930  3194.41167583
0.46500002 38194.53827332  3470.73785739
0.46600002 38219.62251944  3748.19855813
0.46700002 38241.33102266  3221.44987803
0.46800002 38260.36224118  3768.26325574
0.46900002 38275.14398333  3507.91711234
0.47000002 38286.02971722  2975.39894050
0.47100002 38294.13365766  3795.71470805
0.47200002 38298.46918416  2989.00416915
0.47300002 38300.20270366  2995.45899543
0.47400002 38296.70970090  3274.36883462
0.47500002 38291.17037748  3007.38866399
0.47600002 38282.49940321  4108.66944319
0.47700002 38269.05583351  3292.66971998
