# SAXS profile: number of points = 501, q_min = 0, q_max = 0.5, delta_q = 0.001
#    q    intensity    error
0.00000000 1682732.95097189 302.89193117
0.00100000 1682663.46373460 706.71867155
0.00200000 1682454.93951045 908.52569610
0.00300000 1682107.56120836 1211.11748721
0.00400000 1681621.19097983 1513.45912939
0.00500000 1680996.28538760 1664.18638840
0.00600000 1680232.58370376 1764.24428472
0.00700000 1679330.74006812 2821.27576057
0.00800000 1678290.20701606 2492.26106264
0.00900000 1677112.32818411 2767.23545980
0.01000000 1675796.30241227 3871.08962572
0.01100000 1674343.35191718 4219.34543054
0.01200000 1672752.97353110 4892.80266210
0.01300000 1671026.51587380 3509.15583811
0.01400000 1669163.24034252 4882.30269444
0.01500000 1667164.97079571 4401.31571889
0.01600000 1665030.54203252 4670.41087918
0.01700000 1662762.10955673 4938.40368691
0.01800000 1660359.17129159 5205.22623622
0.01900000 1657822.49151770 6465.50800866
0.02000000 1655152.74730548 8863.34336276
0.02100000 1652351.64608612 7088.58888310
0.02200000 1649417.21583727 6259.53861849
0.02300000 1646352.42459385 7112.24279798
0.02400000 1643157.23452539 6161.83991044
0.02500000 1639832.95174839 10232.55808624
0.02600000 1636379.71245589 9278.27339400
0.02700000 1632798.76462024 8915.08166315
0.02800000 1629089.74075310 12047.11918535
0.02900000 1625255.35173450 8045.01436047
0.03000000 1621295.98417873 7539.02667296
0.03100000 1617211.67533074 7762.61639877
0.03200000 1613003.59779316 10379.67862987
0.03300000 1608674.60174235 10665.51310124
0.03400000 1604222.59174819 8422.16899528
0.03500000 1599651.14570258 12093.36321996
0.03600000 1594959.72971328 15933.64843619
0.03700000 1590150.34805667 9063.85740310
0.03800000 1585224.21683169 11128.27451717
0.03900000 1580182.69223827 11377.31591100
0.04000000 1575024.83027938 11623.68378609
0.04100000 1569754.32880965 10878.39800304
0.04200000 1564371.57755218 10090.19714332
0.04300000 1558876.98617454 11317.44744496
0.04400000 1553273.78426360 15726.89779606
0.04500000 1547561.82811129 14949.44795418
0.04600000 1541741.53267533 10869.27831064
0.04700000 1535816.16921471 14375.24001241
0.04800000 1529785.71728631 13492.71065426
0.04900000 1523652.98981295 12570.13775107
0.05000000 1517417.68840010 13929.89502817
0.05100000 1511083.01657360 12965.09288617
0.05200000 1504647.42832053 17942.92141889
0.05300000 1498116.03773714 13348.21451850
0.05400000 1491487.46107828 15996.20376603
0.05500000 1484765.64324392 13719.23518357
0.05600000 1477948.97892644 20218.34297519
0.05700000 1471042.63264355 14077.87865153
0.05800000 1464045.27004957 12956.80124492
0.05900000 1456958.61465193 13112.62814430
0.06000000 1449785.75236655 18571.75635547
0.06100000 1442528.26399644 14757.06483030
0.06200000 1435186.35967862 16275.01407951
0.06300000 1427763.42973433 15077.18252293
0.06400000 1420257.51250829 13847.51139456
0.06500000 1412674.89839460 15384.03036315
0.06600000 1405013.54319871 16944.46412378
0.06700000 1397276.28136799 17102.66248433
0.06800000 1389466.38093647 18695.27103061
0.06900000 1381584.31458157 17407.96317875
0.07000000 1373629.78505908 20480.82105432
0.07100000 1365607.69968597 19173.13300162
0.07200000 1357516.99392119 14864.81177981
0.07300000 1349362.44339567 17973.50858819
0.07400000 1341143.22798625 21123.00683070
0.07500000 1332861.99087749 18233.55288986
0.07600000 1324518.81429434 15298.19302229
0.07700000 1316119.14037224 21558.03253012
0.07800000 1307661.21453619 17045.36473084
0.07900000 1299147.14381610 28061.57962262
0.08000000 1290580.99737979 17248.61583913
0.08100000 1281962.95175041 18921.77405561
0.08200000 1273293.70238132 22193.51027394
0.08300000 1264576.65524540 20713.76658506
0.08400000 1255812.14958040 27219.72961981
0.08500000 1247004.30932755 16086.35634550
0.08600000 1238152.31796216 22621.04391126
0.08700000 1229259.72756565 21094.09791556
0.08800000 1220325.18014940 22807.87868814
0.08900000 1211355.10928215 21259.28316644
0.09000000 1202347.89927431 18053.25455566
0.09100000 1193306.08386193 21407.91215025
0.09200000 1184231.12948389 23128.03504553
0.09300000 1175126.24281416 26510.84928369
0.09400000 1165989.71587767 18276.88965535
0.09500000 1156826.28998157 23321.61910221
0.09600000 1147636.41056607 18367.92161455
0.09700000 1138423.49604411 23428.75665004
0.09800000 1129188.31820898 16768.44731382
0.09900000 1119932.61566774 16798.99002495
0.10000000 1110656.37764757 26922.31186026
0.10100000 1101362.25753818 23591.18066600
0.10200000 1092052.58291804 20246.65583963
0.10300000 1082728.21540323 18579.61705032
0.10400000 1073391.93028003 18596.51606698
0.10500000 1064046.51349177 21993.84246867
0.10600001 1054688.02419644 18620.51794335
0.10700001 1045324.30017343 20321.10535164
0.10800001 1035952.81957191 16937.82939712
0.10900001 1026577.63160743 20326.23806249
0.11000001 1017198.88149536 16936.36217408
0.11100001 1007818.66977759 22010.76078406
0.11200001 998439.63763400 18615.90792007
0.11300001 989060.21674520 21986.80965340
0.11400001 979685.73762428 20279.49572367
0.11500001 970315.42720334 16883.48922835
0.11600001 960951.01574354 28669.97490482
0.11700001 951595.57506486 16843.24247188
0.11800001 942246.92910322 23546.75186730
0.11900001 932909.52734404 16792.37228314
0.12000001 923583.63855247 20115.65259522
0.12100001 914272.62237624 20077.42773319
0.12200001 904975.12586721 16696.79185886
0.12300001 895694.51174196 18325.91057365
0.12400001 886430.27766614 21606.73903617
0.12500001 877185.33744297 21552.44475654
0.12600001 867961.78429915 24802.00915510
0.12700001 858759.41733608 19785.81790786
0.12800001 849578.63897415 16439.34743892
0.12900001 840422.68104935 27860.01318989
0.13000001 831292.00000533 19601.86628406
0.13100001 822186.77443926 21163.08857164
0.13200001 813110.74490108 16221.56012547
0.13300001 804064.33300582 22626.37139746
0.13400001 795046.72495646 28979.45449092
0.13500001 786061.26074489 20846.34561782
0.13600001 777107.40411092 25551.29265193
0.13700001 768188.07459025 23852.24084074
0.13800001 759301.83751980 22164.02168236
0.13900001 750453.90271577 15759.53270022
0.14000001 741641.33568866 23528.57248434
0.14100001 732867.36967154 17171.08328124
0.14200001 724131.12251546 15532.61331056
0.14300001 715437.43145785 18544.13909807
0.14400001 706780.33477547 16909.72030713
0.14500001 698169.24790754 16818.89797548
0.14600001 689598.64782580 25849.60653319
0.14700001 681074.56750654 16631.84172314
0.14800001 672592.89391435 16535.69707702
0.14900001 664156.24575323 17932.21948139
0.15000001 655766.98577173 16338.43522140
0.15100001 647424.78506204 17713.54295511
0.15200001 639131.64833344 22002.10803209
0.15300001 630887.32915641 20402.89718771
0.15400001 622690.39310980 15925.30755531
0.15500001 614545.90564364 15818.41235779
0.15600001 606450.88931609 15710.11102917
0.15700001 598411.17071090 15600.57995673
0.15800001 590419.16392994 15489.64749679
0.15900001 582483.70422805 19571.45338585
0.16000001 574599.60065915 16651.89721311
0.16100001 566773.19742785 15149.84828238
0.16200001 558999.42709400 15034.29030140
0.16300001 551282.64571541 14917.70909729
0.16400001 543621.68581894 14800.10109513
0.16500001 536017.94191357 13346.84738377
0.16600001 528471.04413622 18533.48039288
0.16700001 520981.74469068 14441.61464468
0.16800001 513549.65329944 20829.57492132
0.16900001 506178.50866024 14198.30783834
0.17000001 498865.70972764 14075.49666461
0.17100001 491612.51850920 15220.32429177
0.17200001 484419.36459578 21370.16127830
0.17300001 477286.82538402 17440.06142313
0.17400001 470215.97008764 14811.80375726
0.17500001 463205.27767033 17120.06787123
0.17600001 456254.54584160 13324.91464063
0.17700001 449367.94237236 15597.56201643
0.17800001 442542.41884592 16635.17031013
0.17900001 435779.23703268 12942.64395120
0.18000001 429079.26811259 16309.30375133
0.18100001 422443.15719925 13839.23848356
0.18200001 415867.18689576 13698.66578344
0.18300001 409357.23078033 18077.21616521
0.18400001 402909.16804908 11180.72994155
0.18500001 396525.67458838 13275.68021239
0.18600001 390205.56731892 12039.79334843
0.18700001 383949.06614754 10827.36417690
0.18800001 377756.11695754 13922.20234824
0.18900001 371629.27483709 16946.29573324
0.19000001 365562.56866983 11520.70489597
0.19100001 359564.89742839 15533.20430285
0.19200001 353628.05230212 12285.03911746
0.19300001 347757.92209460 15179.63401671
0.19400001 341951.05118322 13002.68933567
0.19500001 336209.02534550 11861.45497470
0.19600001 330529.95173180 14650.74080285
0.19700001 324916.28067787 10615.01539139
0.19800001 319366.68388067 10486.40556080
0.19900001 313882.00510278 9416.46059811
0.20000001 308459.59595312 13020.08016052
0.20100001 303103.02072690 11020.82635450
0.20200001 297809.03007879 12695.59955230
0.20300001 292579.88832374 9848.23950645
0.20400001 287414.23582964 10605.58580339
0.20500001 282311.37256434 15702.15928422
0.20600001 277272.40197986 10331.17018610
0.20700001 272296.58165777 11044.34987410
0.20800001 267383.61831481 12573.71524562
0.20900001 262535.67091651 10750.83623224
0.21000001 257748.10297581 9789.27341378
0.21100001 253023.10196497 11264.58903200
0.21200001 248360.27522940 11109.15563619
0.21300001 243759.29410565 7824.67371071
0.21400001 239221.14453381 8486.37050354
0.21500001 234744.88251952 8366.30800853
0.21600001 230328.33313862 8996.62511774
0.21700001 225973.64382341 9606.14005311
0.21800001 221679.58007099 8738.60945956
0.21900001 217444.69624133 10763.51297286
0.22000001 213269.72373706 7776.88084378
0.22100001 209156.96685759 6964.92732568
0.22200001 205102.30796314 10977.07604123
0.22300001 201106.61443912 6757.18256467
0.22400001 197168.05297625 9316.19094366
0.22500001 193291.14648852 9173.59824614
0.22600001 189470.33204542 7096.61162235
0.22700001 185708.18352324 8256.58622989
0.22800001 182002.74286541 7502.15341569
0.22900001 178353.81050684 7999.16877952
0.23000001 174761.73451493 6055.49438732
0.23100001 171227.29189338 5958.71003969
0.23200001 167746.66357449 6449.02078612
0.23300001 164322.66932634 5767.72596614
0.23400001 160953.62997958 9077.78516018
0.23500001 157637.82603793 6138.41723624
0.23600001 154377.08584441 7134.53735974
0.23700001 151169.81388274 6476.11513304
0.23800001 148015.95257227 6898.28379591
0.23900001 144914.95893888 5738.63264541
0.24000001 141866.27256203 8205.54559311
0.24100001 138870.58536838 5041.00248732
0.24200001 135925.85523402 4954.49765764
0.24300001 133032.17329506 6329.67110479
0.24400001 130188.58130459 5262.87364819
0.24500001 127395.59216458 6111.16684522
0.24600001 124652.50360931 6927.56321580
0.24700001 121959.27081900 4990.57359800
0.24800001 119313.93677423 4902.01332427
0.24900001 116716.62565548 4814.56103605
0.25000001 114167.95700818 4728.26616318
0.25100001 111665.94018362 5065.16728636
0.25200001 109211.99292558 5387.97392589
0.25300001 106804.41115230 4476.17308316
0.25400001 104442.08605135 4793.89197656
0.25500001 102125.47887817 4705.94228935
0.25600001 99854.28011807  5774.07402101
0.25700001 97627.31379864  5667.26583415
0.25800001 95444.32766228  4820.41599666
0.25900001 93305.13303475  4002.79039658
0.26000001 91209.55516094  4642.11052956
0.26100001 89154.53622221  3854.15078325
0.26200001 87144.21939964  4812.97546518
0.26300001 85174.04333808  3710.18150336
0.26400001 83244.92524875  3308.98593521
0.26500001 81357.32749515  4544.62052893
0.26600001 79508.97294076  3184.33451696
0.26700001 77701.46971458  4373.03892247
0.26800001 75932.85197067  3370.27979420
0.26900001 74202.43817112  4207.27844340
0.27000001 72510.90924578  3537.08232039
0.27100001 70856.99003901  3469.15839648
0.27200001 69240.74057307  3118.94930671
0.27300001 67660.77683513  3337.02967143
0.27400001 66116.06001758  4363.66016767
0.27500001 64609.37815785  3209.79405879
0.27600001 63136.24261862  3147.97320595
0.27700001 61699.44789530  3859.30064850
0.27800001 60296.23125921  3028.07687715
0.27900001 58927.37605378  2969.93989367
0.28000001 57591.71842608  3155.73836051
0.28100001 56288.96237285  3333.43250949
0.28200001 55019.25904561  2569.12442273
0.28300001 53781.58599499  2291.09567182
0.28400001 52575.71225858  2472.37298598
0.28500001 51401.13991789  3087.15260959
0.28600001 50256.62205548  2379.90245008
0.28700001 49142.84402259  2122.97096226
0.28800001 48058.22753896  2916.65396739
0.28900001 47004.49686112  2658.10442331
0.29000001 45978.21707277  2207.64419725
0.29100001 44981.76181417  2167.22138679
0.29200001 44012.71985870  3094.97460697
0.29300001 43071.14669472  1899.43765915
0.29400001 42156.76371887  2425.06794772
0.29500001 41270.05808640  2198.86879893
0.29600001 40408.65471332  2520.28791377
0.29700001 39572.94754506  2476.47517460
0.29800001 38763.38107919  2781.66035792
0.29900001 37978.68738349  3076.27382369
0.30000001 37218.42577484  2184.53560427
0.30100001 36483.39930447  2809.58671344
0.30200001 35770.95259149  1625.78987225
0.30300001 35082.36618907  2399.63396093
0.30400001 34417.51542289  2991.74266977
0.30500001 33773.99398400  2170.31695616
0.30600001 33152.91300717  2137.36840276
0.30700001 32554.24928288  1654.40702688
0.30800001 31976.74571062  1926.75890401
0.30900001 31420.17101629  1753.24562572
0.31000001 30885.10473354  1728.94824484
0.31100001 30368.64340343  2274.00412571
0.31200001 29873.23802858  1542.80345103
0.31300001 29396.68113121  2215.33399494
0.31400001 28940.75405903  1914.43097165
0.31500001 28502.61986847  2026.53636860
0.31600002 28082.96551297  1468.87958070
0.31700002 27681.05045097  1980.57925354
0.31800002 27297.14187831  1306.16830072
0.31900002 26930.85761711  1939.02184024
0.32000002 26581.32316553  1407.87984812
0.32100002 26248.82813907  1521.38215098
0.32200002 25932.77302934  1382.08720404
0.32300002 25632.01316029  1744.00225801
0.32400002 25347.23720927  1482.81344696
0.32500002 25077.42278469  1716.80044513
0.32600002 24823.14342328  1339.33276682
0.32700002 24583.20991734  1693.29157929
0.32800002 24358.46199479  1442.50818764
0.32900002 24146.49007444  1434.30157834
0.33000002 23949.97104306  1189.11611860
0.33100002 23764.41298843  1301.81460515
0.33200002 23594.42487973  1414.24989426
0.33300002 23435.98375546  1526.38569428
0.33400002 23290.87621039  1287.40324350
0.33500002 23157.31956343  1517.26764965
0.33600002 23035.78938442  1397.35105023
0.33700002 22925.26492624  1162.31098680
0.33800002 22827.42064608  1625.08415275
0.33900002 22739.55152513  1275.68890097
0.34000002 22663.00515671  1506.97659926
0.34100002 22596.84293523  1391.06171697
0.34200002 22541.93269160  1507.71723948
0.34300002 22495.54033537  1741.15490442
0.34400002 22459.87309758  1510.98803420
0.34500002 22433.15129958  1629.99285062
0.34600002 22416.93106605  1166.80131725
0.34700002 22407.53657770  1403.60815770
0.34800002 22408.43272395  1407.69781039
0.34900002 22417.45317342  2118.44942522
0.35000002 22434.71442316  1299.30654736
0.35100002 22460.07083252  1185.89179612
0.35200002 22492.40814425  1190.97306765
0.35300002 22532.78563608  1794.73646092
0.35400002 22580.80298964  1563.15616099
0.35500002 22635.55611496  1933.98200606
0.35600002 22696.71092895  1458.49071338
0.35700002 22764.69130367  1466.95677709
0.35800002 22839.69643006  1721.88479542
0.35900002 22920.37668535  1361.47043960
0.36000002 23007.73506482  1370.45580405
0.36100002 23100.01481730  1379.76395039
0.36200002 23199.10255891  1642.14855242
0.36300002 23301.77143511  1399.50445868
0.36400002 23410.40446705  1666.23561687
0.36500002 23523.52935545  1678.87436962
0.36600002 23642.09414973  1691.94654797
0.36700002 23764.81880626  1442.99986627
0.36800002 23893.23824284  1454.73987932
0.36900002 24024.87879501  1600.05700354
0.37000002 24159.71712759  2285.63014712
0.37100002 24298.90600878  1627.05482342
0.37200002 24442.28110101  1777.80940010
0.37300002 24588.44189868  2344.99981496
0.37400002 24739.05017180  1530.72880189
0.37500002 24891.67329576  1965.44661654
0.37600002 25048.38477803  1558.13484893
0.37700002 25206.74711609  1857.98941794
0.37800002 25368.67266831  1730.65093142
0.37900002 25533.02953067  1600.92102741
0.38000002 25699.73542518  2349.98391860
0.38100002 25868.20830918  1482.24840633
0.38200002 26039.02037476  1645.53597054
0.38300002 26211.62006393  1509.78938721
0.38400002 26386.65058843  1828.59497241
0.38500002 26562.23208074  2768.31595860
0.38600002 26740.43916652  1707.51082387
0.38700002 26919.00286657  1880.02324927
0.38800002 27098.78465210  2055.57840717
0.38900002 27279.91344693  1595.87501225
0.39000002 27462.64806930  1610.68438557
0.39100002 27645.29636366  1788.09785352
0.39200002 27829.42708340  2132.70824558
0.39300002 28013.62299069  2648.96831550
0.39400002 28199.18595962  1837.88203199
0.39500002 28384.12208867  1686.01693195
0.39600002 28569.38312714  1701.30684583
0.39700002 28754.54396695  1716.64635616
0.39800002 28940.80800742  2078.52892957
0.39900002 29125.95154937  2446.58004606
0.40000002 29311.00278981  1763.05690134
0.40100002 29495.68558962  1956.44891785
0.40200002 29680.98699749  2691.32362351
0.40300002 29864.75489190  2533.72592508
0.40400002 30047.99594101  2555.58217587
0.40500002 30230.74249019  2393.36799635
0.40600002 30412.88306389  2042.37725893
0.40700002 30593.97283756  2621.29171692
0.40800002 30774.35740825  3020.81106632
0.40900002 30952.94430717  2093.96678160
0.41000002 31131.23528928  2111.16482117
0.41100002 31308.05758988  1934.83805073
0.41200002 31482.91015421  3120.58620235
0.41300002 31656.91713906  2752.25250648
0.41400002 31829.34155684  2377.65192696
0.41500002 32000.70571108  1996.84413099
0.41600002 32169.30476544  3621.94219516
0.41700002 32337.03421174  2838.54499761
0.41800002 32503.86980983  2860.01564009
0.41900002 32666.92093057  2058.01611614
0.42000002 32828.89400334  2280.45923000
0.42100002 32989.45583559  2088.23265334
0.42200002 33147.90910238  2313.55842543
0.42300002 33303.78390831  2329.93283263
0.42400002 33457.51662168  2772.79182141
0.42500002 33609.58104050  2362.41756328
0.42600002 33758.07762209  3243.30746123
0.42700002 33905.56289144  2394.41096486
0.42800002 34050.19618712  2410.24325132
0.42900002 34193.03285291  2425.99579587
0.43000002 34333.40929358  2219.65501601
0.43100002 34469.91493824  2903.74577200
0.43200002 34604.77101875  2697.09598101
0.43300002 34736.71279518  2939.76814317
0.43400002 34866.45380131  3185.05070568
0.43500002 34992.98098345  2517.39517124
0.43600002 35117.89540357  2762.37378335
0.43700002 35239.10026191  2546.72989662
0.43800002 35356.71820288  2793.88800479
0.43900002 35472.74327524  3043.56151725
0.44000002 35585.14613437  2353.95752834
0.44100002 35695.35255357  2839.92238375
0.44200002 35802.38624050  3330.69614980
0.44300002 35906.72427378  3587.08192494
0.44400002 36007.41209868  3124.54333294
0.44500002 36104.51401266  3140.00973249
0.44600002 36199.32483420  2669.88132968
0.44700002 36291.43949734  3170.42030474
0.44800002 36379.25172806  5145.29971200
0.44900002 36465.45361642  2461.41823576
0.45000002 36548.15022242  3708.72371958
0.45100002 36626.51721448  2731.60578331
0.45200002 36702.68093729  2743.34201667
0.45300002 36775.06553330  3506.13491411
0.45400002 36844.92183863  2766.13263813
0.45500002 36911.36936602  2777.21156272
0.45600002 36974.36068676  3294.97030876
0.45700002 37034.13125108  3053.09392504
0.45800002 37090.04508083  2809.01469733
0.45900002 37143.05372848  3588.01916022
0.46000002 37193.56494594  3600.70919307
0.46100002 37239.47779579  2580.69593356
0.46200002 37283.06861943  3107.17108601
0.46300002 37322.81890003  2857.43515041
0.46400002 37358.98393198  2866.36817803
0.46500002 37392.71568820  2613.75095048
0.46600002 37422.27421926  2883.57347663
0.46700002 37448.67727517  3417.56645011
0.46800002 37472.36770176  4217.88990842
0.46900002 37492.01756301  3964.78104520
0.47000002 37508.05045486  2914.93827926
0.47100002 37521.30856497  3719.11228123
0.47200002 37530.97249662  3727.95167478
0.47300002 37538.05950352  2935.85177292
0.47400002 37540.32690349  4012.12262798
0.47500002 37540.52868241  2948.43326247
0.47600002 37537.63680578  4297.30886521
0.47700002 37530.33266470  3229.10997552
