# SAXS profile: number of points = 501, q_min = 0, q_max = 0.5, delta_q = 0.001
#    q    intensity    error
0.00000000 1682732.95097188 353.37391970
0.00100000 1682663.47022641 605.75886367
0.00200000 1682454.96464684 832.81523387
0.00300000 1682107.61912808 1513.89691114
0.00400000 1681621.28343442 1765.70241470
0.00500000 1680996.44624503 2420.63497840
0.00600000 1680232.79644663 2293.51786052
0.00700000 1679331.03051264 2418.23678444
0.00800000 1678290.59811144 3625.10784497
0.00900000 1677112.82914628 2767.23628638
0.01000000 1675796.90135459 2765.06500663
0.01100000 1674344.10122006 3616.58341610
0.01200000 1672753.83497352 4892.80518182
0.01300000 1671027.53042165 3860.07376552
0.01400000 1669164.42623641 5633.43018828
0.01500000 1667166.34180097 4401.31933834
0.01600000 1665032.08372110 4245.83200329
0.01700000 1662763.84458099 4938.40883994
0.01800000 1660361.10074052 8044.44989507
0.01900000 1657824.66819492 7460.21134350
0.02000000 1655155.13888446 7820.60838500
0.02100000 1652354.29214985 7088.60023471
0.02200000 1649420.11444976 7966.69951474
0.02300000 1646355.59629493 7704.94454138
0.02400000 1643160.67189861 8626.59392082
0.02500000 1639836.70939309 8953.50884220
0.02600000 1636383.75200118 7952.82539847
0.02700000 1632803.10429053 8915.10535775
0.02800000 1629094.41167874 8503.87321895
0.02900000 1625260.36466438 9507.77356983
0.03000000 1621301.30159865 9800.76681866
0.03100000 1617217.38480444 7762.64380425
0.03200000 1613009.65728500 12775.03707409
0.03300000 1608681.02135061 11485.98302195
0.03400000 1604229.42728755 11791.08683461
0.03500000 1599658.36545762 11229.60224407
0.03600000 1594967.35429599 13278.10383814
0.03700000 1590158.38213540 12689.46447630
0.03800000 1585232.69070460 11128.33400376
0.03900000 1580191.56088657 9481.14980439
0.04000000 1575034.12811451 10655.10637044
0.04100000 1569764.07537411 14834.27120010
0.04200000 1564381.83430812 12108.31595928
0.04300000 1558887.64952705 12346.39075735
0.04400000 1553284.94903493 10484.67389291
0.04500000 1547573.51204713 16017.38659393
0.04600000 1541753.66112716 20651.79125084
0.04700000 1535828.83013657 13269.56170952
0.04800000 1529798.84090734 12368.42420422
0.04900000 1523666.65488754 15998.50062101
0.05000000 1517431.85563085 18573.36677781
0.05100000 1511097.70736712 16501.18773314
0.05200000 1504662.71915286 14354.48300966
0.05300000 1498131.89973985 14561.84274431
0.05400000 1491503.79082562 12304.90684814
0.05500000 1484782.60268161 14966.60933321
0.05600000 1477966.51423908 13900.27571506
0.05700000 1471060.70791569 14078.05163190
0.05800000 1464063.94697026 18139.75314995
0.05900000 1456977.93048847 15735.36238421
0.06000000 1449805.56458667 19898.58230359
0.06100000 1442548.64727705 18781.98426525
0.06200000 1435207.34804514 20344.06510949
0.06300000 1427785.06700879 13706.73728415
0.06400000 1420279.81368647 16617.27459727
0.06500000 1412697.81933626 13985.70906565
0.06600000 1405037.12141576 22592.99796946
0.06700000 1397300.39460309 15677.71116115
0.06800000 1389491.15107735 15819.35749551
0.06900000 1381609.84525718 14506.90405440
0.07000000 1373655.88631414 16092.37946175
0.07100000 1365634.44257275 17698.62320471
0.07200000 1357544.38144944 23784.17867721
0.07300000 1349390.50631036 17973.88238623
0.07400000 1341171.95387372 18105.82222581
0.07500000 1332891.31107957 19753.45015609
0.07600000 1324548.78820228 18358.24706513
0.07700000 1316149.83561343 20018.63993832
0.07800000 1307692.50924604 20145.00404966
0.07900000 1299179.10279706 15590.14996480
0.08000000 1290613.76325458 18817.14955098
0.08100000 1281996.41573577 17345.41231872
0.08200000 1273327.74400040 15852.93115671
0.08300000 1264611.45245384 23901.15757311
0.08400000 1255847.55610638 22416.87992872
0.08500000 1247040.34459889 16086.82120052
0.08600000 1238189.03816018 21005.87801865
0.08700000 1229297.15967521 27585.42955846
0.08800000 1220363.25617259 16291.85023503
0.08900000 1211393.95870620 19624.58305280
0.09000000 1202387.27231166 24618.88055707
0.09100000 1193346.28523212 19761.81541188
0.09200000 1184271.94061873 21476.77265224
0.09300000 1175167.82679986 23197.81399114
0.09400000 1166031.90942147 21600.74213721
0.09500000 1156869.19400313 18324.80889432
0.09600000 1147679.99300341 23378.24255644
0.09700000 1138467.70876313 20082.57132672
0.09800000 1129233.30806702 20122.93849589
0.09900000 1119978.24169427 23519.54418153
0.10000000 1110702.52334384 21875.28722599
0.10100000 1101409.08052818 16851.55972464
0.10200000 1092100.12893439 23622.12689995
0.10300000 1082776.36036462 21958.70562115
0.10400000 1073440.91423095 28741.38183067
0.10500000 1064096.00695544 21994.86549861
0.10600001 1054738.10112682 20314.25678356
0.10700001 1045375.11649065 23709.10875770
0.10800001 1036004.27264026 27101.87304773
0.10900001 1026629.70838421 22021.20828128
0.11000001 1017251.59850298 20324.68789476
0.11100001 1007872.02558110 18625.47590950
0.11200001 998493.52155247 25386.69898060
0.11300001 989114.74042354 23679.40800059
0.11400001 979740.90290732 23660.74391926
0.11500001 970371.16570461 23638.24270964
0.11600001 961007.37432166 20238.81625629
0.11700001 951652.47226656 23581.94937336
0.11800001 942304.34166592 26912.21326550
0.11900001 932967.54252180 20152.09986767
0.12000001 923642.19070583 16764.10655098
0.12100001 914331.88734640 21751.95662466
0.12200001 905034.94009069 16697.89543133
0.12300001 895754.79234055 24991.55988376
0.12400001 886491.16041702 24932.56506149
0.12500001 877246.69685090 21553.95235726
0.12600001 868023.70909881 24803.77865634
0.12700001 858821.81783348 19787.25561538
0.12800001 849641.55352594 18084.62131911
0.12900001 840486.10018627 19667.37567132
0.13000001 831355.98545376 17969.76047259
0.13100001 822251.29139515 17908.63397076
0.13200001 813175.56651756 21089.70931181
0.13300001 804129.62651583 19395.60750593
0.13400001 795112.57438327 20931.33950746
0.13500001 786127.52719671 17640.70254202
0.13600001 777174.11426138 15970.92880111
0.13700001 768255.29574671 17493.17390901
0.13800001 759369.33487922 28499.13248191
0.13900001 750521.89488280 15760.96053580
0.14000001 741709.69407858 17255.87684654
0.14100001 732936.12954248 15611.54029554
0.14200001 724200.17947147 21747.73241527
0.14300001 715506.97110134 18545.94156571
0.14400001 706850.33971343 21523.59385954
0.14500001 698239.50029468 16820.59035556
0.14600001 689669.30692212 19769.37161553
0.14700001 681145.48046456 16633.57341766
0.14800001 672664.06753056 24054.46818975
0.14900001 664227.66945308 25406.70955529
0.15000001 655838.77166071 17825.69865481
0.15100001 647496.93487009 19191.81005511
0.15200001 639204.04306987 20537.62687294
0.15300001 630959.92874462 14575.17504179
0.15400001 622763.34662088 23166.79758756
0.15500001 614619.06550161 17258.50417377
0.15600001 606524.21059942 17140.37500048
0.15700001 598484.71015935 17020.90596026
0.15800001 590492.94183994 18308.23452587
0.15900001 582557.59025749 20972.07423916
0.16000001 574673.63963667 18041.87976801
0.16100001 566847.41312839 13774.39278923
0.16200001 559073.84696005 13669.35620345
0.16300001 551357.23990929 14919.72761627
0.16400001 543696.36845467 13456.48575453
0.16500001 536092.67375484 16018.44984805
0.16600001 528545.81392907 19860.10989604
0.16700001 521056.63277582 17069.81609568
0.16800001 513624.62907224 14322.42345793
0.16900001 506253.66204471 14200.41589087
0.17000001 498940.82075820 16637.18245378
0.17100001 491687.69769577 21565.42343928
0.17200001 484494.61552202 17601.69021312
0.17300001 477361.91401509 17442.80516184
0.17400001 470291.11052769 16048.68490467
0.17500001 463280.52099242 14676.72759819
0.17600001 456329.71537253 13327.10996688
0.17700001 449443.01185330 14400.15477991
0.17800001 442617.45219343 13072.70706798
0.17900001 435854.17430285 14121.67591443
0.18000001 429154.01634238 11651.53209406
0.18100001 422517.92108584 17302.10968576
0.18200001 415941.85840324 20551.68819452
0.18300001 409431.73168442 12430.34796114
0.18400001 402983.65193103 16774.19530405
0.18500001 396599.86928761 11065.13687586
0.18600001 390279.65707081 14231.54836743
0.18700001 384023.07116005 12995.34134202
0.18800001 377829.81743466 18209.50891159
0.18900001 371702.81388967 18009.00218383
0.19000001 365635.88976578 13618.10935777
0.19100001 359637.84464190 10357.57041508
0.19200001 353700.83004699 13311.53136781
0.19300001 347830.52602742 12146.24254282
0.19400001 342023.33944459 11004.60146664
0.19500001 336281.03339602 11863.99541885
0.19600001 330601.69068034 12700.06454764
0.19700001 324987.62424083 12547.77276492
0.19800001 319437.69615029 11442.25881685
0.19900001 313952.77123580 14127.87537329
0.20000001 308530.05269459 9302.18152837
0.20100001 303173.07586969 10104.75909631
0.20200001 297878.61903058 11791.52569163
0.20300001 292649.14087702 11641.58337432
0.20400001 287483.08923232 10608.12649407
0.20500001 282379.81681788 11343.19777773
0.20600001 277340.42626785 10333.70477119
0.20700001 272364.13627770 9347.53759890
0.20800001 267450.63385503 12576.86665154
0.20900001 262602.26549369 9926.36610489
0.21000001 257814.25056203 8975.80355762
0.21100001 253088.83557434 11267.51549242
0.21200001 248425.49924554 10318.35359896
0.21300001 243823.99004684 10174.77558567
0.21400001 239285.28660461 9260.34102940
0.21500001 234808.53711027 9890.13605067
0.21600001 230391.36469525 8999.08713046
0.21700001 226036.23048886 7391.38508645
0.21800001 221741.49712511 8741.05022995
0.21900001 217506.10920597 9331.01252612
0.22000001 213330.51646473 8486.28834622
0.22100001 209217.19596956 8360.31954625
0.22200001 205161.97724277 7548.93530959
0.22300001 201165.64523356 8786.91579929
0.22400001 197226.50601886 7322.03438218
0.22500001 193348.83853318 7865.43112346
0.22600001 189527.38204570 7744.08919659
0.22700001 185764.69467732 8259.09871592
0.22800001 182058.54245519 8129.82459780
0.22900001 178408.89426491 8617.15000051
0.23000001 174816.22270994 7268.85888404
0.23100001 171280.99732826 6556.63688781
0.23200001 167799.57201182 7037.51438301
0.23300001 164374.92565681 6923.47219611
0.23400001 161005.14701517 6242.97487078
0.23500001 157688.61379546 6140.39491161
0.23600001 154427.14026331 5489.88509602
0.23700001 151219.12130483 8097.78432888
0.23800001 148064.53562654 6369.73662393
0.23900001 144962.85066549 6784.26173204
0.24000001 141913.35243892 7182.23510666
0.24100001 138916.84434357 6555.48619466
0.24200001 135971.30949347 5947.38535857
0.24300001 133076.84942182 6331.79679500
0.24400001 130232.44702830 5743.25118562
0.24500001 127438.63854148 5642.98318155
0.24600001 124694.68442024 5081.93210395
0.24700001 122000.69250261 8169.16675642
0.24800001 119354.41476808 5795.25388322
0.24900001 116756.44199636 6567.55017299
0.25000001 114206.83459057 4729.87627833
0.25100001 111704.05225091 5066.89604981
0.25200001 109249.22198684 5804.41143877
0.25300001 106840.79537843 4884.76139580
0.25400001 104477.65704812 4395.89762827
0.25500001 102160.11364100 5099.83311424
0.25600001 99887.99707208  4235.75071625
0.25700001 97660.12350374  5291.22574178
0.25800001 95476.27664448  4822.02958008
0.25900001 93336.21461949  4004.12379663
0.26000001 91239.74649944  6072.46161559
0.26100001 89183.81770258  5958.37114264
0.26200001 87172.61369458  4126.75172757
0.26300001 85201.52422841  4386.17467482
0.26400001 83271.53212649  3641.04791452
0.26500001 81383.01923602  5195.49219387
0.26600001 79533.75366623  4140.92508058
0.26700001 77725.34281399  4374.38250057
0.26800001 75955.85721322  3371.30088194
0.26900001 74224.48807565  3006.09190932
0.27000001 72532.03148275  4422.64082895
0.27100001 70877.12257688  5205.21612837
0.27200001 69260.03627388  3687.05820552
0.27300001 67679.11816834  3059.77307719
0.27400001 66133.48311006  4637.61072257
0.27500001 64625.95342541  2675.51459843
0.27600001 63151.72645417  3673.53610169
0.27700001 61714.08843702  3088.17313154
0.27800001 60309.89930224  3028.76328630
0.27900001 58940.20115248  2723.03742212
0.28000001 57603.58513721  3884.78596551
0.28100001 56300.00819603  3572.23568911
0.28200001 55029.31135897  2803.19325330
0.28300001 53790.64595080  2520.62978856
0.28400001 52583.87528916  2247.96077501
0.28500001 51408.42121262  3087.58992417
0.28600001 50263.00148977  4976.79132807
0.28700001 49148.27744141  2760.16739176
0.28800001 48062.67275244  2916.92374741
0.28900001 47008.06161477  2249.33585474
0.29000001 45980.93220154  2408.48134272
0.29100001 44983.50304238  2561.36078447
0.29200001 44013.61384497  2708.15778807
0.29300001 43071.15464396  2659.21321359
0.29400001 42155.82320599  2238.47431820
0.29500001 41268.26357299  2015.54208831
0.29600001 40405.94290523  1980.09332580
0.29700001 39569.40552728  1945.62776188
0.29800001 38758.88528546  1912.16969608
0.29900001 37973.29473115  1879.67817817
0.30000001 37212.19065857  2688.20878043
0.30100001 36476.31308947  2148.09017953
0.30200001 35762.94734294  1787.96863705
0.30300001 35073.48641058  1919.22126725
0.30400001 34407.79974315  1888.98829533
0.30500001 33763.43399985  1704.71586336
0.30600001 33141.52687409  1678.78412329
0.30700001 32542.01477083  1804.12938431
0.30800001 31963.63966402  2222.27215285
0.30900001 31406.35565693  1606.43516791
0.31000001 30870.40281982  1872.13566764
0.31100001 30353.12783403  1562.57909488
0.31200001 29856.96478179  1541.96301916
0.31300001 29379.57131370  1383.77787439
0.31400001 28922.86401566  1639.92646733
0.31500001 28483.97229575  1485.15438582
0.31600002 28063.48541881  2001.62819227
0.31700002 27660.80761941  1715.24676169
0.31800002 27276.20887158  1696.71665319
0.31900002 26909.07682911  1679.12647364
0.32000002 26558.82563537  1278.80751489
0.32100002 26225.64301824  1393.36847953
0.32200002 25908.77755470  1506.33639836
0.32300002 25607.30233179  1368.96644748
0.32400002 25321.83424007  1851.65921648
0.32500002 25051.40123546  1347.51493626
0.32600002 24796.40789114  1337.89025112
0.32700002 24555.79095203  1570.58846366
0.32800002 24330.34452105  1440.84307077
0.32900002 24117.75209200  1671.36029912
0.33000002 23920.54520870  1306.42063844
0.33100002 23734.35203703  1536.56202364
0.33200002 23563.77458309  1412.41271539
0.33300002 23404.60191975  1407.08473405
0.33400002 23258.87464975  1519.38605845
0.33500002 23124.74944200  1515.13365519
0.33600002 23002.66192895  1395.34153869
0.33700002 22891.63640290  1508.78782677
0.33800002 22793.18683277  1274.93696587
0.33900002 22704.71256261  1389.52847464
0.34000002 22627.65636609  1388.88561353
0.34100002 22560.97131036  1504.59124794
0.34200002 22505.47156104  1852.65050664
0.34300002 22458.61765339  1506.52414354
0.34400002 22422.45178394  1392.43432173
0.34500002 22395.18479045  2092.15826221
0.34600002 22378.53632098  1514.24373187
0.34700002 22368.62654626  1634.69930542
0.34800002 22369.15013899  1288.12757176
0.34900002 22377.64847506  1409.79192070
0.35000002 22394.52217425  1414.88597798
0.35100002 22419.47296226  1302.12305132
0.35200002 22451.40584564  1426.56239500
0.35300002 22491.38049050  1552.58006879
0.35400002 22539.06093912  1200.20505185
0.35500002 22593.45362809  1568.43762515
0.35600002 22654.19270702  1577.07170000
0.35700002 22721.87585903  1342.18127056
0.35800002 22796.53547486  1227.59349347
0.35900002 22876.90553367  1605.95884453
0.36000002 22963.98068497  1243.49961299
0.36100002 23055.99441029  1752.71677809
0.36200002 23154.77267127  1512.93291800
0.36300002 23257.17593718  1269.84186632
0.36400002 23365.57664508  1918.89807287
0.36500002 23478.47517737  1675.65885278
0.36600002 23596.78549613  1558.80372371
0.36700002 23719.33154603  1571.16859603
0.36800002 23847.56006397  1451.95876327
0.36900002 23979.06932313  1463.92225152
0.37000002 24113.67497282  1476.11868338
0.37100002 24252.69833178  1759.29082032
0.37200002 24395.92650206  1910.93301343
0.37300002 24541.98403524  1376.80536960
0.37400002 24692.45579711  1805.63591570
0.37500002 24845.02282723  1681.51122460
0.37600002 25001.64728643  1696.61186523
0.37700002 25159.94554694  1997.19657213
0.37800002 25321.82557192  2015.36419274
0.37900002 25486.12380770  2033.79277620
0.38000002 25652.80935707  1759.26974905
0.38100002 25821.26272195  1627.51426646
0.38200002 25992.11018782  1791.89616124
0.38300002 26164.65700890  1657.79274662
0.38400002 26339.68230542  2281.67508780
0.38500002 26515.33439428  1688.76172758
0.38600002 26693.57156796  2324.34285440
0.38700002 26872.24237019  2502.34332806
0.38800002 27052.12163823  1894.18964685
0.38900002 27233.30625115  1593.14849117
0.39000002 27416.15787168  1929.54928242
0.39100002 27598.92802554  2271.94386270
0.39200002 27783.12659232  1637.81539021
0.39300002 27967.50643691  1983.45565048
0.39400002 28153.25300276  2001.69638333
0.39500002 28338.32304619  2019.95576243
0.39600002 28523.80681637  2378.02988695
0.39700002 28709.13052255  2913.68979478
0.39800002 28895.59493521  2248.22187045
0.39900002 29081.02655093  2966.26484873
0.40000002 29266.30953314  1760.36860182
0.40100002 29451.16475370  2131.08638255
0.40200002 29636.77542094  1791.54315908
0.40300002 29820.79233276  2349.28213128
0.40400002 30004.40066098  1822.76742652
0.40500002 30187.39277433  2022.25353777
0.40600002 30369.87621758  2224.89723712
0.40700002 30551.26754783  2804.60649378
0.40800002 30731.99747554  2073.94894790
0.40900002 30910.89901376  2281.22445530
0.41000002 31089.59279515  2108.34083530
0.41100002 31266.77663547  2511.97295392
0.41200002 31442.03254837  2337.40081040
0.41300002 31616.43111911  2356.05655863
0.41400002 31789.21027701  2176.76627686
0.41500002 31961.03436313  2193.80550264
0.41600002 32130.04673743  3014.60177798
0.41700002 32298.26265549  2430.12139735
0.41800002 32465.55822486  3264.73668979
0.41900002 32629.10125289  2672.32351924
0.42000002 32791.52199977  2070.78471241
0.42100002 32952.58616485  2503.07856369
0.42200002 33111.52043140  2731.20389220
0.42300002 33267.88001782  2539.00472327
0.42400002 33422.17268674  2343.72997072
0.42500002 33574.73039207  3003.59552320
0.42600002 33723.78429271  2160.00848630
0.42700002 33871.83912682  2826.94382748
0.42800002 34016.98657348  3940.18774152
0.42900002 34160.41711148  2864.35111053
0.43000002 34301.38051543  2439.34279095
0.43100002 34438.46762525  2677.93536944
0.43200002 34573.96320626  3368.36852499
0.43300002 34706.48689012  2485.33164398
0.43400002 34836.83219866  2727.72409042
0.43500002 34964.02795441  3887.30081218
0.43600002 35089.55828701  2530.13272018
0.43700002 35211.35667634  2544.72486759
0.43800002 35329.72415393  3024.40117952
0.43900002 35446.34509439  2807.35066451
0.44000002 35559.45045192  3293.16086241
0.44100002 35670.26898292  4493.38399672
0.44200002 35778.01208606  2615.19391737
0.44300002 35883.06409307  3823.69949096
0.44400002 35984.47970763  2882.35696118
0.44500002 36082.23717059  3379.46249355
0.44600002 36177.79472164  3396.00975146
0.44700002 36270.57470967  2924.85928320
0.44800002 36359.10773135  2938.54322611
0.44900002 36446.10208042  2706.12320772
0.45000002 36529.55309305  2965.46926063
0.45100002 36608.65076893  3723.09995965
0.45200002 36685.58333779  3489.89970832
0.45300002 36758.65327216  2503.26440647
0.45400002 36829.32921167  3519.04257295
0.45500002 36896.54800234  2523.72400297
0.45600002 36960.33217419  2786.99397968
0.45700002 37020.88375410  2797.66831789
0.45800002 37077.54959417  3318.62623371
0.45900002 37131.34260339  3330.68158938
0.46000002 37182.66509808  3085.41769607
0.46100002 37229.37758224  4643.99277971
0.46200002 37273.73655208  2847.52723885
0.46300002 37314.38180235  3635.91353515
0.46400002 37351.27403518  2605.25148743
0.46500002 37385.81982554  3919.90339449
0.46600002 37416.27551510  3145.21226887
0.46700002 37443.43981581  2891.38255962
0.46800002 37467.95685590  3690.21924564
0.46900002 37488.45448776  3700.11063331
0.47000002 37505.28531102  2914.72338609
0.47100002 37519.39987772  2922.01100097
0.47200002 37529.92507082  3195.29797198
0.47300002 37537.80209895  3736.51299803
0.47400002 37540.89042565  3744.70399745
0.47500002 37541.88885507  3484.63828869
0.47600002 37539.90676100  3491.77459288
0.47700002 37533.43329120  2960.26202399
