# SAXS profile: number of points = 501, q_min = 0, q_max = 0.5, delta_q = 0.001
#    q    intensity    error
0.00000000 1682732.95097188 277.65093691
0.00100000 1682663.49296773 706.71868383
0.00200000 1682455.06234474 984.23624264
0.00300000 1682107.83312601 1110.19120941
0.00400000 1681621.67006569 1765.70282066
0.00500000 1680997.04655293 1664.18714196
0.00600000 1680233.66130092 2293.51904105
0.00700000 1679332.20832333 3022.79810061
0.00800000 1678292.12473931 2945.40280327
0.00900000 1677114.76182933 2767.23947531
0.01000000 1675799.30406396 2765.06897110
0.01100000 1674346.96636490 3616.58960481
0.01200000 1672757.26112243 5219.00288352
0.01300000 1671031.56292840 4912.83301169
0.01400000 1669169.06411201 3755.63056074
0.01500000 1667171.68241723 4401.33343757
0.01600000 1665038.15617928 5519.60173448
0.01700000 1662770.65137800 6734.22144017
0.01800000 1660368.74389131 5205.25624632
0.01900000 1657833.17619247 6465.54967889
0.02000000 1655164.49974941 8342.02945609
0.02100000 1652364.60224722 5452.80343464
0.02200000 1649431.36882048 6259.59232906
0.02300000 1646367.83940723 7705.00183915
0.02400000 1643174.02288809 6778.09315348
0.02500000 1639851.17263156 10872.21377109
0.02600000 1636399.26669798 6627.41733325
0.02700000 1632819.89258314 9600.98140812
0.02800000 1629112.38995737 8503.96706557
0.02900000 1625279.52129911 8776.50981798
0.03000000 1621321.75440119 8293.06115495
0.03100000 1617239.16222306 9315.29800303
0.03200000 1613032.78814894 11178.31773672
0.03300000 1608705.55533381 9024.83858147
0.03400000 1604255.34199812 9264.57502751
0.03500000 1599685.66355025 10365.96357849
0.03600000 1594996.04331552 12393.11982929
0.03700000 1590188.59740561 9064.07542440
0.03800000 1585264.38987701 9273.79710997
0.03900000 1580224.83552760 10429.48439747
0.04000000 1575068.96835633 9686.67460426
0.04100000 1569800.47712868 10878.71781091
0.04200000 1564419.88642858 11099.55960915
0.04300000 1558927.34036644 13375.59720121
0.04400000 1553326.21966257 12581.94296360
0.04500000 1547616.45517957 14949.97565168
0.04600000 1541798.27000742 15217.54963239
0.04700000 1535875.05924672 12164.13103496
0.04800000 1529846.90725583 14617.68787896
0.04900000 1523716.37266433 13713.44799231
0.05000000 1517483.34072698 13930.49771656
0.05100000 1511150.93618072 14144.37342155
0.05200000 1504717.59985842 14355.00657161
0.05300000 1498188.50721082 14562.39296896
0.05400000 1491562.25478899 13535.92809344
0.05500000 1484842.74806288 12472.67966557
0.05600000 1478028.48633995 18955.71622186
0.05700000 1471124.48496744 14078.66197831
0.05800000 1464129.36471755 16844.80912760
0.05900000 1457045.20277939 18358.77041248
0.06000000 1449874.60753655 19899.52991812
0.06100000 1442619.51878269 17441.27079714
0.06200000 1435280.02727679 17632.41595930
0.06300000 1427859.34412026 17819.68544779
0.06400000 1420355.69159195 16618.16236880
0.06500000 1412775.57399141 16783.77460413
0.06600000 1405116.45269446 16945.70521236
0.06700000 1397381.59326878 18529.28079390
0.06800000 1389574.01770566 15820.30093211
0.06900000 1381694.26762731 15958.56953826
0.07000000 1373742.07409304 16093.38915163
0.07100000 1365722.26750548 23599.68188785
0.07200000 1357633.81527676 17839.30916845
0.07300000 1349481.49585651 20970.94342822
0.07400000 1341264.42647645 21124.91570701
0.07500000 1332985.49120513 18235.24237442
0.07600000 1324644.35007644 27539.35732915
0.07700000 1316246.82922761 18480.10634886
0.07800000 1307790.99117372 20146.52116383
0.07900000 1299279.23427579 17150.48669686
0.08000000 1290715.11719469 20386.84623246
0.08100000 1282099.13352980 20500.76610700
0.08200000 1273431.85203471 17439.65003197
0.08300000 1264716.79435695 22309.60529949
0.08400000 1255954.29603199 16013.41802606
0.08500000 1247148.23935377 16088.21304293
0.08600000 1238298.18450849 21007.72968653
0.08700000 1229407.40103107 17850.99630121
0.08800000 1220474.80873722 17922.67340802
0.08900000 1211506.30791176 21261.93670252
0.09000000 1202500.71618603 19696.96265640
0.09100000 1193460.63787277 16469.75757641
0.09200000 1184387.22866385 18174.42287780
0.09300000 1175283.93487009 21542.95553852
0.09400000 1166149.04801244 21602.91212971
0.09500000 1156986.90661905 21658.79590993
0.09600000 1147798.43888659 16700.46807085
0.09700000 1138586.93912052 18410.95167113
0.09800000 1129352.98394199 23479.24964009
0.09900000 1120098.62143247 16801.48011153
0.10000000 1110823.37262280 18511.87237532
0.10100000 1101530.42572126 23594.78282865
0.10200000 1092221.83593992 16874.82815900
0.10300000 1082898.56375949 30407.79310077
0.10400000 1073563.24936666 16908.62197299
0.10500000 1064218.48826524 21997.39718741
0.10600001 1054860.94399068 23702.72652677
0.10700001 1045498.03836300 22018.18972405
0.10800001 1036127.01200383 16940.67744352
0.10900001 1026752.59809645 22023.84426574
0.11000001 1017374.35868704 20327.14064336
0.11100001 1007994.60896196 20321.17227326
0.11200001 998615.87813909 25389.80989697
0.11300001 989236.97086776 20299.14359791
0.11400001 979862.47305962 35495.51975787
0.11500001 970492.54350564 18575.22815737
0.11600001 961128.10519884 16867.79904057
0.11700001 951772.70018231 20215.65310393
0.11800001 942424.12556614 16822.27143366
0.11900001 933086.62307089 20154.67200765
0.12000001 923760.53580415 23472.75632047
0.12100001 914449.28229232 16734.42265428
0.12200001 905151.33623250 28390.07299843
0.12300001 895870.29612536 23328.46361021
0.12400001 886605.65798839 23273.39961878
0.12500001 877360.00369778 18240.31533637
0.12600001 868135.85242008 18191.78764472
0.12700001 858932.68139549 16491.50825998
0.12800001 849751.18652611 24664.02935132
0.12900001 840594.43024292 22948.22902723
0.13000001 831462.72622073 24507.36501051
0.13100001 822356.46790686 17910.92471529
0.13200001 813279.15109369 21092.39577792
0.13300001 804231.66240919 19398.06861179
0.13400001 795212.63701597 16103.05665876
0.13500001 786225.89918610 22454.61273945
0.13600001 777270.66444194 15972.91290742
0.13700001 768349.56000874 23857.25496322
0.13800001 759461.90821028 22168.69414604
0.13900001 750612.31156819 17339.14521491
0.14000001 741797.83840486 15689.02502217
0.14100001 733021.98137812 26542.72719754
0.14200001 724283.83214506 21750.24450517
0.14300001 715588.29946358 21639.39119646
0.14400001 706929.19654361 19988.42397512
0.14500001 698315.82259644 18351.74068353
0.14600001 689742.92410107 18250.59863267
0.14700001 681216.60776431 18147.61128698
0.14800001 672732.50818045 16539.12949391
0.14900001 664293.30870555 22419.90022660
0.15000001 655901.60823075 19313.02376560
0.15100001 647556.71880839 16240.72327403
0.15200001 639260.84320182 14671.03704376
0.15300001 631013.77357165 16034.06074309
0.15400001 622814.17459305 15928.47326690
0.15500001 614666.86426918 23013.12848430
0.15600001 606568.82859724 15713.16624639
0.15700001 598525.96102868 14185.06594587
0.15800001 590530.93756383 16900.99623078
0.15900001 582592.20099052 19575.09887724
0.16000001 574704.88739482 18042.86079143
0.16100001 566875.15825227 23417.61389281
0.16200001 559098.04727012 16403.93748127
0.16300001 551377.85730647 16276.67511607
0.16400001 543713.35609671 16148.28743843
0.16500001 536106.18014378 14683.94896739
0.16600001 528555.60110928 15888.38211948
0.16700001 521062.54501896 13130.77675444
0.16800001 513626.65743716 18228.61093313
0.16900001 506251.73600047 14200.36186533
0.17000001 498935.16928288 17916.76277497
0.17100001 491677.99696348 12685.29292067
0.17200001 484480.96735835 15086.73803598
0.17300001 477344.40356832 14950.42742579
0.17400001 470269.36160525 14813.48559015
0.17500001 463254.78864873 14675.91239750
0.17600001 456299.85072108 14537.71393058
0.17700001 449409.03255637 14399.06608318
0.17800001 442579.36879667 15448.23359750
0.17900001 435811.81884292 14120.30359746
0.18000001 429107.49066753 13980.32270631
0.18100001 422467.06093527 14993.35670083
0.18200001 415886.64954354 11416.08906924
0.18300001 409372.34612212 13558.41274405
0.18400001 402919.68085415 16771.53250785
0.18500001 396531.91682860 11063.24100217
0.18600001 390207.25210938 13134.37672652
0.18700001 383946.14100606 15158.19436307
0.18800001 377748.59920654 13921.92528151
0.18900001 371617.13533137 13768.41551455
0.19000001 365545.88393196 11520.17907643
0.19100001 359543.52278292 11390.33933996
0.19200001 353602.09034651 13307.81529900
0.19300001 347727.22539330 12142.63528451
0.19400001 341915.63694560 12001.23942390
0.19500001 336168.94492250 13836.71442687
0.19600001 330485.25760941 14648.75973578
0.19700001 324866.62485751 13507.95489993
0.19800001 319312.31009448 14297.20936015
0.19900001 313823.03750728 11297.62988419
0.20000001 308395.84333233 15806.82969705
0.20100001 303034.57440038 10100.14284212
0.20200001 297735.82091938 10879.26741059
0.20300001 292501.94162544 13425.83975517
0.20400001 287331.38853012 9718.98467641
0.20500001 282223.72873294 13081.07044507
0.20600001 277180.11606857 10327.73161289
0.20700001 272199.55799987 8492.62661103
0.20800001 267281.77670689 11730.99773419
0.20900001 262429.21600084 9919.82483375
0.21000001 257636.91653400 12231.31319065
0.21100001 252907.23664481 8846.69555605
0.21200001 248239.85594111 9517.51652672
0.21300001 243634.33992167 8602.72894933
0.21400001 239091.55174863 8481.77319927
0.21500001 234610.72805962 13682.49830731
0.21600001 230189.49695051 8241.93532798
0.21700001 225830.34493995 11076.97894302
0.21800001 221531.75206452 8732.78207927
0.21900001 217292.35455260 7887.71284320
0.22000001 213112.97678759 7771.16506600
0.22100001 208995.84459701 13919.12390831
0.22200001 204936.80459103 8911.67736902
0.22300001 200936.89972236 6751.48014992
0.22400001 196994.15605728 8643.11900571
0.22500001 193112.92990999 7201.18149687
0.22600001 189287.91728937 9023.35544388
0.22700001 185521.69126678 7613.81056964
0.22800001 181812.07324081 6869.76951228
0.22900001 178159.09782112 6761.13808205
0.23000001 174563.04793291 6653.47088662
0.23100001 171024.67767026 6546.82497083
0.23200001 167540.14199798 7026.63388771
0.23300001 164112.44246694 7488.45110393
0.23400001 160739.48659731 6799.28060464
0.23500001 157420.00215037 6687.20200763
0.23600001 154155.62168102 7124.30239295
0.23700001 150944.94841100 5388.73491315
0.23800001 147787.55970208 5828.00269251
0.23900001 144683.17698281 7292.03246484
0.24000001 141630.97075035 5631.95581828
0.24100001 138632.02396079 5535.57697859
0.24200001 135683.99121410 4945.68171369
0.24300001 132787.24985480 5346.01493204
0.24400001 129940.59567629 7640.50738719
0.24500001 127144.60827523 7037.45440094
0.24600001 124398.53086024 5991.65552232
0.24700001 121702.53683862 5432.80150148
0.24800001 119054.26606266 5780.68016214
0.24900001 116454.39612033 5240.44807333
0.25000001 113903.05344869 4288.45016522
0.25100001 111398.54681344 5474.12484939
0.25200001 108942.16316724 4547.79081657
0.25300001 106532.24977388 4464.76679925
0.25400001 104167.71169311 4781.29819292
0.25500001 101848.77044248 7430.88664305
0.25600001 99575.54458292  4222.50116782
0.25700001 97346.52419024  5650.96599661
0.25800001 95161.62024836  5545.54368236
0.25900001 93020.68817313  4716.14911352
0.26000001 90923.30334957  4627.54174293
0.26100001 88866.70196774  4190.95386310
0.26200001 86854.85356960  4111.70896254
0.26300001 84883.22576867  4033.65107939
0.26400001 82952.67616648  4286.57974374
0.26500001 81063.88065896  3557.89389048
0.26600001 79214.34851893  4441.54873163
0.26700001 77405.75601590  4978.73846254
0.26800001 75636.22779973  4272.69071059
0.26900001 73904.92411684  3292.46452521
0.27000001 72212.61504281  3522.53152848
0.27100001 70558.05708938  2878.76886548
0.27200001 68941.14380882  3670.08196434
0.27300001 67360.73166472  3322.23144293
0.27400001 65815.64076325  3257.87437196
0.27500001 64308.83541403  3461.10168578
0.27600001 62835.36121352  3132.97125838
0.27700001 61398.56760504  3584.44854642
0.27800001 59995.25389442  2761.88164374
0.27900001 58626.66360453  2954.78398551
0.28000001 57291.17878304  2414.82330000
0.28100001 55988.84596200  3078.82678517
0.28200001 54719.55450222  2555.12971841
0.28300001 53482.34517309  2734.01761465
0.28400001 52277.13797667  3575.75640685
0.28500001 51103.32236450  2630.79915984
0.28600001 49959.65136238  2150.76309295
0.28700001 48846.78021392  2321.19910563
0.28800001 47763.16706648  2484.64006840
0.28900001 46710.64346203  2438.29570413
0.29000001 45685.62679657  2193.59547447
0.29100001 44690.43207900  2348.92922126
0.29200001 43722.78726155  2690.26322755
0.29300001 42782.79804477  2075.39363139
0.29400001 41869.97656179  1852.74655056
0.29500001 40985.13171687  2547.63590812
0.29600001 40125.46586328  1787.58958883
0.29700001 39291.70359883  1756.33923401
0.29800001 38484.17590897  1898.61690835
0.29900001 37701.55234524  1696.56993585
0.30000001 36943.54293285  1834.80114662
0.30100001 36210.84417622  2460.52697826
0.30200001 35500.66354146  1936.20628121
0.30300001 34814.59390482  1905.05466866
0.30400001 34152.29727408  1718.71444169
0.30500001 33511.50744546  2153.44957039
0.30600001 32893.19506905  2575.04389789
0.30700001 32297.34964647  1641.35138674
0.30800001 31722.70012918  1764.41666472
0.30900001 31169.25715093  1449.37052614
0.31000001 30637.17420214  1715.06909304
0.31100001 30123.93806270  2537.64066255
0.31200001 29631.78925336  1391.21257131
0.31300001 29158.56859877  1510.70551063
0.31400001 28706.04709396  1491.99686835
0.31500001 28271.42809597  1340.06575520
0.31600002 27855.35639844  1324.52225946
0.31700002 27457.02024409  1702.60990595
0.31800002 27076.92746513  1684.32035272
0.31900002 26714.44535230  1410.52278139
0.32000002 26368.79459082  1396.62327163
0.32100002 26040.25912739  1257.74457541
0.32200002 25728.17673970  1745.14231089
0.32300002 25431.46106441  1235.96906625
0.32400002 25150.83742472  1716.54473552
0.32500002 24885.23099019  1460.26542365
0.32600002 24635.24770830  1329.19485304
0.32700002 24399.67656523  1920.74263017
0.32800002 24179.32756488  1670.54982056
0.32900002 23971.83101444  1542.58739883
0.33000002 23779.83878256  1416.80286176
0.33100002 23598.81676397  1645.30958270
0.33200002 23433.47989197  1521.65308884
0.33300002 23279.67472772  1282.94293500
0.33400002 23139.24231253  1162.74698127
0.33500002 23010.52200343  1159.73036389
0.33600002 22893.83378582  1388.74002321
0.33700002 22788.12170196  1386.42939000
0.33800002 22695.20563131  1154.05126101
0.33900002 22612.25392237  1383.87000559
0.34000002 22540.71535864  1383.54917424
0.34100002 22479.60282588  1614.48515141
0.34200002 22429.70926527  1269.40945599
0.34300002 22388.47818349  1386.29463478
0.34400002 22357.88329145  1619.82872118
0.34500002 22336.36872476  1275.18335089
0.34600002 22325.27920359  1162.03083758
0.34700002 22321.07446479  1398.19217069
0.34800002 22327.29004062  1168.83368898
0.34900002 22341.53748989  1172.93077377
0.35000002 22364.12521105  1412.96549776
0.35100002 22394.84210279  1300.69249093
0.35200002 22432.43686640  2138.03565900
0.35300002 22478.11706590  1909.74091637
0.35400002 22531.52489423  1559.74488468
0.35500002 22591.65619362  1327.03394767
0.35600002 22658.23250455  1334.68324890
0.35700002 22731.58001495  1342.75449508
0.35800002 22811.91062741  1596.94787911
0.35900002 22898.03636386  2102.03983777
0.36000002 22990.73017124  1618.43252706
0.36100002 23088.48838506  1379.07547656
0.36200002 23192.92844823  1515.42601659
0.36300002 23300.96669339  1781.12597841
0.36400002 23415.02756893  1281.97282012
0.36500002 23533.52810341  1550.38890489
0.36600002 23657.45750469  1693.04602652
0.36700002 23785.52647820  1444.25723617
0.36800002 23919.29160176  1588.71942344
0.36900002 24056.31190599  1735.66298623
0.37000002 24196.47912315  1481.18753969
0.37100002 24340.94377631  1494.04719976
0.37200002 24489.62035812  1644.23318873
0.37300002 24641.04884279  1520.59919612
0.37400002 24796.94011017  1394.82794727
0.37500002 24954.75021111  1829.68237215
0.37600002 25116.60305308  2272.55035190
0.37700002 25280.18188853  1720.06365718
0.37800002 25447.17240290  2170.00772945
0.37900002 25616.61861261  2044.20626213
0.38000002 25788.48415676  1915.95552119
0.38100002 25961.95159764  2082.66785582
0.38200002 26137.80693071  1801.94049517
0.38300002 26315.35603082  1515.76457918
0.38400002 26495.18585327  1530.09705551
0.38500002 26675.66106069  1544.52084858
0.38600002 26858.74446049  2182.81026571
0.38700002 27042.07243722  1888.61842849
0.38800002 27226.64857209  1747.54252139
0.38900002 27412.46148501  2084.71779470
0.39000002 27599.87624264  2428.09922748
0.39100002 27787.10177959  1960.65799446
0.39200002 27975.67918184  2638.66618544
0.39300002 28164.39195784  1997.41877228
0.39400002 28354.35211799  1847.99498684
0.39500002 28543.70892930  1865.04602980
0.39600002 28733.30777899  2908.81655082
0.39700002 28922.65505089  1899.35084718
0.39800002 29113.18025404  2439.39348906
0.39900002 29302.52298250  1758.15146225
0.40000002 29491.54761215  2483.48334208
0.40100002 29680.30148416  2505.61117001
0.40200002 29869.58434342  2708.42468866
0.40300002 30057.24556821  2185.76300128
0.40400002 30244.35799833  2388.54828609
0.40500002 30430.78039787  2223.88153684
0.40600002 30616.60222230  2990.62984677
0.40700002 30801.26540923  1885.03753236
0.40800002 30985.20609814  1900.94248419
0.40900002 31167.24965331  1916.78594450
0.41000002 31348.96416175  1932.66373214
0.41100002 31529.08672147  2143.34741688
0.41200002 31707.17688902  3339.24149229
0.41300002 31884.37209871  2178.02156126
0.41400002 32059.86709734  1995.72682137
0.41500002 32234.30005272  3419.41471162
0.41600002 32405.80797075  2229.68172308
0.41700002 32576.40943970  2246.79506552
0.41800002 32746.06263299  2881.32618761
0.41900002 32911.75150095  2695.47257565
0.42000002 33076.38556297  2297.65123201
0.42100002 33239.47953103  2314.46506942
0.42200002 33400.43999897  2119.25801836
0.42300002 33558.63819790  2774.62833768
0.42400002 33714.70576736  3653.83141068
0.42500002 33868.93686948  2380.64768537
0.42600002 34019.54648126  2396.84726091
0.42700002 34169.12125757  3290.48653303
0.42800002 34315.73513018  3312.32649040
0.42900002 34460.45704903  3334.04937748
0.43000002 34602.61241612  2460.76489858
0.43100002 34740.77807996  2476.32277889
0.43200002 34877.28437905  2491.80770054
0.43300002 35010.79775468  2279.20304184
0.43400002 35141.99134797  2522.31654853
0.43500002 35269.89389641  2306.65117013
0.43600002 35396.04439254  3248.29514784
0.43700002 35518.46757574  3033.63245940
0.43800002 35637.23719041  3520.06827030
0.43900002 35754.26198899  3067.71582403
0.44000002 35867.60040661  4270.75538281
0.44100002 35978.62752821  2623.92142998
0.44200002 36086.42174443  2637.73712241
0.44300002 36191.39139012  3615.52017121
0.44400002 36292.72806152  2664.79368420
0.44500002 36390.33303098  2921.41607418
0.44600002 36485.63731455  3914.17935660
0.44700002 36578.02744703  2458.04356093
0.44800002 36666.08865556  2716.40730678
0.44900002 36752.49040323  4465.42779562
0.45000002 36835.28688332  2990.28873090
0.45100002 36913.61731906  3253.56638470
0.45200002 36989.76507145  2513.45465572
0.45300002 37061.94233475  3281.09391040
0.45400002 37131.54082546  3547.91889402
0.45500002 37197.74084678  3816.48839176
0.45600002 37260.33108353  4086.71330693
0.45700002 37319.59925312  3076.62790824
0.45800002 37374.93436599  3602.57009428
0.45900002 37427.33029178  3098.98309503
0.46000002 37477.08850533  3109.84895156
0.46100002 37522.18611588  3640.40266950
0.46200002 37564.89776264  3652.43518257
0.46300002 37603.74851679  3664.10942914
0.46400002 37638.84950760  3412.90284086
0.46500002 37671.49420172  2896.56132645
0.46600002 37699.90916121  4225.40601905
0.46700002 37724.99285605  2648.29462401
0.46800002 37747.39418952  5045.50568348
0.46900002 37765.68299847  2662.48077758
0.47000002 37780.21296010  3203.00660657
0.47100002 37791.92740065  2943.23544546
0.47200002 37800.00666277  2950.10165982
0.47300002 37805.41968451  2687.96546697
0.47400002 37805.92748587  2963.03970715
0.47500002 37804.29941997  2969.14981718
0.47600002 37799.62032079  4056.84444321
0.47700002 37790.31526602  4064.34859950
