# SAXS profile: number of points = 501, q_min = 0, q_max = 0.5, delta_q = 0.001
#    q    intensity    error
0.00000000 1682732.95097188 378.61491397
0.00100000 1682663.48480304 656.23877466
0.00200000 1682455.02925874 1059.94670200
0.00300000 1682107.75027281 1110.19115473
0.00400000 1681621.53095156 1513.45943536
0.00500000 1680996.82687551 1815.47664488
0.00600000 1680233.35304468 2117.09411103
0.00700000 1679331.78696854 2216.71805093
0.00800000 1678291.56489690 2718.83244992
0.00900000 1677114.05740871 2515.67119365
0.01000000 1675798.44441346 3318.08106321
0.01100000 1674345.92988994 3917.96964653
0.01200000 1672756.02497168 3914.24927005
0.01300000 1671030.09810347 3509.16336079
0.01400000 1669167.39020792 3755.62679446
0.01500000 1667169.72930899 4401.32828136
0.01600000 1665035.93963432 4670.42601946
0.01700000 1662768.16803078 5836.31653160
0.01800000 1660365.94534123 6151.65610430
0.01900000 1657830.04933460 5968.18844690
0.02000000 1655161.07713393 6777.88491747
0.02100000 1652360.78241850 9815.02349256
0.02200000 1649427.22737094 7397.68145085
0.02300000 1646363.33263405 6519.59909399
0.02400000 1643169.10361404 6778.07286147
0.02500000 1639845.78131153 8314.01849096
0.02600000 1636393.49126327 7952.87273129
0.02700000 1632813.59714373 7543.59916431
0.02800000 1629105.68306589 8503.93205559
0.02900000 1625272.30220116 9507.84340442
0.03000000 1621314.06192652 7539.11073450
0.03100000 1617230.92812904 9315.25057465
0.03200000 1613024.07942037 12775.15129741
0.03300000 1608696.28314421 9024.78656449
0.03400000 1604245.45619311 10106.74684035
0.03500000 1599675.23053290 8638.24664378
0.03600000 1594985.07484372 11507.81784682
0.03700000 1590176.95235437 9970.40995237
0.03800000 1585252.15184294 13910.58827620
0.03900000 1580211.96443983 10429.39944829
0.04000000 1575055.38809991 15498.54573709
0.04100000 1569786.29715230 12856.55036979
0.04200000 1564404.99193428 10090.41266610
0.04300000 1558911.73076361 11317.69969069
0.04400000 1553309.94228717 13630.29537659
0.04500000 1547599.37603461 13881.96704805
0.04600000 1541780.43808558 16304.32889069
0.04700000 1535856.53267762 12163.98430453
0.04800000 1529827.53808194 15741.92609931
0.04900000 1523696.27283160 13713.26709380
0.05000000 1517462.44290071 15091.16469738
0.05100000 1511129.20875125 15322.85089054
0.05200000 1504695.08587829 13158.55913921
0.05300000 1498165.11145094 13348.65176531
0.05400000 1491537.98760344 19688.30235451
0.05500000 1484817.67736062 13719.71597883
0.05600000 1478002.42722689 13900.61347673
0.05700000 1471097.54071156 14078.40412177
0.05800000 1464101.55763402 18140.21914610
0.05900000 1457016.38364362 14424.46287178
0.06000000 1449844.93126990 17245.90626316
0.06100000 1442588.85803313 14757.68470733
0.06200000 1435248.42451460 20344.64736847
0.06300000 1427826.79613790 16448.56546057
0.06400000 1420322.12168837 15232.95546750
0.06500000 1412741.01612530 18181.97772805
0.06600000 1405080.92292404 14121.06393609
0.06700000 1397345.04436273 18528.79615538
0.06800000 1389536.49659677 14381.70341297
0.06900000 1381655.61724231 18859.60005834
0.07000000 1373702.37697822 24870.88269986
0.07100000 1365681.56512902 16224.29775364
0.07200000 1357592.00336576 17838.75975991
0.07300000 1349438.58714188 28459.66113632
0.07400000 1341220.42461123 16597.60353240
0.07500000 1332940.31731135 16715.07236256
0.07600000 1324598.15646894 15299.10942445
0.07700000 1316199.57116449 16939.48927515
0.07800000 1307742.62662033 21695.45119307
0.07900000 1299229.57492898 17149.83119345
0.08000000 1290664.42607957 26658.67497126
0.08100000 1282047.15630085 23653.77114354
0.08200000 1273378.74248016 22194.99252293
0.08300000 1264662.47313023 23902.12186394
0.08400000 1255898.89188915 24019.06743480
0.08500000 1247091.61661844 17696.23087057
0.08600000 1238240.29786392 17774.94031040
0.08700000 1229348.18399553 21095.61582796
0.08800000 1220414.46621433 29326.56100042
0.08900000 1211444.86929885 17989.95715407
0.09000000 1202437.97704781 21337.26290504
0.09100000 1193396.70092906 26350.20039448
0.09200000 1184322.17079884 18173.42456482
0.09300000 1175217.51460621 19884.68128156
0.09400000 1166081.36756248 23263.32437619
0.09500000 1156918.02227837 18325.58233424
0.09600000 1147728.40850084 20039.33895443
0.09700000 1138515.48012523 30125.12102038
0.09800000 1129280.37072156 23477.74001117
0.09900000 1120024.69148998 18480.40827858
0.10000000 1110748.27008332 21876.18820807
0.10100000 1101453.85216498 18537.46920379
0.10200000 1092144.05933886 21935.71446360
0.10300000 1082819.39462627 20270.38002094
0.10400000 1073482.82703272 18598.09085329
0.10500000 1064136.87019913 27071.64325157
0.10600001 1054778.02520788 18622.10691128
0.10700001 1045413.74678037 20322.84419376
0.10800001 1036041.57838542 22021.06478493
0.10900001 1026665.67743544 23715.97826497
0.11000001 1017286.13254001 22019.15937526
0.11100001 1007905.26205741 20319.37103958
0.11200001 998525.14407600 20310.00238664
0.11300001 989144.96560433 25371.56956226
0.11400001 979769.16692129 16901.01892517
0.11500001 970397.96469933 23638.89553318
0.11600001 961032.48170616 23612.56918747
0.11700001 951675.62921665 16844.65943043
0.11800001 942325.74098995 20184.61832267
0.11900001 932987.01035021 18473.14367505
0.12000001 923659.54902938 16764.42160457
0.12100001 914347.09674201 18405.80792448
0.12200001 905047.91880689 21707.57535526
0.12300001 895765.49785932 18327.36294968
0.12400001 886499.55407479 19946.24090650
0.12500001 877252.70582862 16580.07692142
0.12600001 868027.21793635 18189.51120901
0.12700001 858822.83022623 18138.33902917
0.12800001 849639.94318259 21372.69377804
0.12900001 840482.05486995 16389.40084243
0.13000001 831349.03670175 17969.61027530
0.13100001 822241.58461372 17908.42255705
0.13200001 813163.13859000 21089.38699349
0.13300001 804114.38366444 24244.04981042
0.13400001 795094.17100348 19320.78926627
0.13500001 786106.21143587 19243.88096326
0.13600001 777149.78214547 20761.55740894
0.13700001 768227.52330855 17492.54153057
0.13800001 759338.63034943 17415.43230830
0.13900001 750487.84892758 20488.31924191
0.14000001 741672.20051492 21960.91489294
0.14100001 732895.21788794 23416.00331589
0.14200001 724155.98479835 20193.09058852
0.14300001 715459.15307997 18544.70212254
0.14400001 706798.91482603 18447.45254712
0.14500001 698184.47107288 18348.28876532
0.14600001 689610.59275092 19767.68857373
0.14700001 681083.03149193 16632.04841368
0.14800001 672597.87993623 21045.58865611
0.14900001 664157.74096453 20920.96982745
0.15000001 655764.88836467 19308.99804895
0.15100001 647419.02640059 19189.50084797
0.15200001 639122.16042730 14667.85427394
0.15300001 630874.04476635 16030.51023398
0.15400001 622673.30230546 17372.58595415
0.15500001 614525.01384338 17255.86320308
0.15600001 606426.09619146 15709.46876325
0.15700001 598382.19462290 15599.82455008
0.15800001 590386.22438717 18304.92575109
0.15900001 582446.63247987 16774.46380718
0.16000001 574558.34536304 18038.26010412
0.16100001 566727.82877974 17902.93295625
0.16200001 558949.79831713 21866.11714238
0.16300001 551228.79786105 17628.29778779
0.16400001 543563.47416025 16143.83594470
0.16500001 535955.42479737 16014.34884900
0.16600001 528404.08555813 14560.17526498
0.16700001 520910.24611840 15752.32658636
0.16800001 513473.52168195 14318.20982816
0.16900001 506097.90502499 18067.69606251
0.17000001 498780.54416426 14073.09371812
0.17100001 491522.72518284 16485.67298111
0.17200001 484325.05798146 18852.35377219
0.17300001 477187.76889627 12454.60135635
0.17400001 470112.17800336 13574.48978092
0.17500001 463096.86536699 14670.90938770
0.17600001 456141.38023341 18165.83132575
0.17700001 449249.99388768 13194.47294366
0.17800001 442419.70087081 16630.55734123
0.17900001 435651.68471229 21172.67287708
0.18000001 428946.86314427 12810.49867291
0.18100001 422305.90551958 13834.74211833
0.18200001 415725.18270325 11411.65680427
0.18300001 409210.36451063 14682.46857223
0.18400001 402757.26693616 11176.51468547
0.18500001 396369.02822774 16588.04461498
0.18600001 390044.07486195 12034.81049843
0.18700001 383782.62209509 11904.93749984
0.18800001 377584.78117808 14986.34067300
0.18900001 371453.01883442 12703.69384435
0.19000001 365381.48125883 14655.45190574
0.19100001 359378.92504056 10350.11353021
0.19200001 353437.24579634 17394.41487378
0.19300001 347562.21329299 11125.46697322
0.19400001 341750.41210546 12995.06003438
0.19500001 336003.54812794 11854.20573813
0.19600001 330319.82084239 14641.42675074
0.19700001 324701.11248266 12536.71054541
0.19800001 319146.75749474 10479.18427757
0.19900001 313657.47975498 13173.61477229
0.20000001 308230.28518699 12081.08659887
0.20100001 302868.94017310 10094.62225306
0.20200001 297570.25599896 11779.31914045
0.20300001 292336.46353598 11629.14506911
0.20400001 287166.14117805 11479.46703618
0.20500001 282058.67665253 13073.42028078
0.20600001 277015.19298639 12901.98322319
0.20700001 272034.72892615 10184.98073243
0.20800001 267117.25057535 9211.53882152
0.20900001 262264.92567193 10739.74921395
0.21000001 257472.92222712 11408.62572320
0.21100001 252743.56755191 10448.41957653
0.21200001 248076.52617267 12681.67261747
0.21300001 243471.36507810 7815.43118849
0.21400001 238929.02912291 9246.55386420
0.21500001 234448.62255130 10634.59002170
0.21600001 230027.87776301 8236.14855270
0.21700001 225669.22633801 8855.26086018
0.21800001 221371.17704822 10908.06526479
0.21900001 217132.27411118 8598.43846135
0.22000001 212953.58386144 10589.11745819
0.22100001 208836.98922572 6954.27207004
0.22200001 204778.72523194 7534.83355119
0.22300001 200779.38721550 10793.90036710
0.22400001 196837.33854223 8636.23863692
0.22500001 192956.83234637 6541.23692586
0.22600001 189132.69778603 7083.96553056
0.22700001 185367.20580490 10143.29398131
0.22800001 181658.49146890 8735.95726786
0.22900001 178006.38748768 7369.46479050
0.23000001 174411.14322685 6043.34639861
0.23100001 170873.81629301 5946.40908822
0.23200001 167390.22693196 6435.31757875
0.23300001 163963.40240483 6330.62726625
0.23400001 160591.56846286 7359.10897286
0.23500001 157273.12300405 6680.96258120
0.23600001 154009.83223256 7665.06971275
0.23700001 150800.28347685 9152.06963708
0.23800001 147643.95597835 5293.03607218
0.23900001 144540.81604592 5203.46962378
0.24000001 141489.79440701 6137.82757170
0.24100001 138492.07146230 6032.71491825
0.24200001 135545.40582180 4940.63027591
0.24300001 132649.90818079 6311.48292979
0.24400001 129804.52238400 5724.37970792
0.24500001 127009.92009271 5155.33290043
0.24600001 124265.21843900 6445.63718534
0.24700001 121570.62934765 4974.67038824
0.24800001 118923.84978365 5774.34779941
0.24900001 116325.49042431 5234.64731673
0.25000001 113775.65574162 5568.74973372
0.25100001 111272.70800153 4626.71941759
0.25200001 108817.87265811 4129.63846275
0.25300001 106409.55858276 4054.20437381
0.25400001 104046.64004722 5571.69783813
0.25500001 101729.35388056 4297.04811122
0.25600001 99457.76907415  5367.73605089
0.25700001 97230.43207807  5267.94505923
0.25800001 95047.30289559  5908.14062753
0.25900001 92908.12776852  5435.12573162
0.26000001 90812.54511279  4266.37357126
0.26100001 88757.74864924  4534.63359305
0.26200001 86747.76302160  4106.63929576
0.26300001 84777.98994032  4364.37112864
0.26400001 82849.36389334  3622.58860765
0.26500001 80962.49615880  3230.40374960
0.26600001 79114.96037946  3802.26517576
0.26700001 77308.24370270  4972.46647026
0.26800001 75540.72688873  3048.06847420
0.26900001 73811.46854022  2989.36461734
0.27000001 72121.23364728  3224.90111515
0.27100001 70468.67028127  3450.14626024
0.27200001 68853.93439774  3947.39624583
0.27300001 67275.58900327  4424.04294222
0.27400001 65732.68400352  4338.35734954
0.27500001 64228.04198028  2659.04106382
0.27600001 62756.76567754  2868.29811104
0.27700001 61322.12560435  2557.13275872
0.27800001 59921.04077205  2758.46524249
0.27900001 58554.72860556  2951.15846139
0.28000001 57221.52989061  2411.88759904
0.28100001 55921.51400293  2365.48015428
0.28200001 54654.51695080  2552.09278981
0.28300001 53419.65988585  2730.81314261
0.28400001 52216.76999780  3571.62723690
0.28500001 51045.32176783  2408.82884824
0.28600001 49904.03948682  2578.04280191
0.28700001 48793.54591060  2318.66941142
0.28800001 47712.39561907  2481.99893758
0.28900001 46662.27605190  2638.75183564
0.29000001 45639.71035711  2390.60814166
0.29100001 44647.01718167  2346.64733415
0.29200001 43681.87383367  2495.76397962
0.29300001 42744.39632704  2073.53076398
0.29400001 41834.08022061  2221.38976487
0.29500001 40951.77808905  2181.91083987
0.29600001 40094.63160246  2500.70229142
0.29700001 39263.42057041  2457.10497561
0.29800001 38458.40661880  2414.80346591
0.29900001 37678.47642808  2034.63782343
0.30000001 36923.02589153  2500.61204688
0.30100001 36192.86353791  1803.49047547
0.30200001 35485.32747924  1774.08903131
0.30300001 34801.83055624  2221.74896789
0.30400001 34142.22489914  1718.20754939
0.30500001 33504.01972366  1999.18495156
0.30600001 32888.42410789  1817.41440224
0.30700001 32295.24374160  1641.24436465
0.30800001 31723.18932566  1764.44387383
0.30900001 31172.43131976  1449.51812500
0.31000001 30643.10954122  2001.30157889
0.31100001 30132.49150957  1692.24080330
0.31200001 29643.02825562  1670.08829099
0.31300001 29172.48357375  2061.03606207
0.31400001 28722.64276065  1492.85942817
0.31500001 28290.76790195  1475.08070825
0.31600002 27877.31389915  1855.79287413
0.31700002 27481.70641090  1573.05294944
0.31800002 27104.31632155  1686.02407661
0.31900002 26744.52274695  1540.48458316
0.32000002 26401.55950345  1398.35866531
0.32100002 26075.75584305  1763.24269360
0.32200002 25766.33938269  1373.21712242
0.32300002 25472.32516112  1485.54607374
0.32400002 25194.36197914  1842.33780696
0.32500002 24931.48516740  1462.97961890
0.32600002 24684.20558460  1695.06447776
0.32700002 24451.31782764  1804.50734113
0.32800002 24233.65553025  1435.11714846
0.32900002 24028.83618425  1427.31293693
0.33000002 23839.46773345  1538.71851772
0.33100002 23661.08018922  1296.15403414
0.33200002 23498.40538462  1173.74540454
0.33300002 23347.22470222  1286.66561427
0.33400002 23209.43606771  1632.78390469
0.33500002 23083.34533194  1163.40065982
0.33600002 22969.24605214  1509.42407580
0.33700002 22866.17309880  1507.10954031
0.33800002 22775.86614931  1158.15284854
0.33900002 22695.48903064  1388.96399445
0.34000002 22626.46553503  1504.54689700
0.34100002 22567.96865605  1273.51053157
0.34200002 22520.61646577  1506.29150365
0.34300002 22481.90182534  1508.08604587
0.34400002 22453.82555429  1394.38263296
0.34500002 22434.75713415  1397.23674049
0.34600002 22426.19632196  1517.46864599
0.34700002 22424.43467300  1287.61109991
0.34800002 22433.10438197  1409.24768402
0.34900002 22449.78155621  1532.19766378
0.35000002 22474.78460594  1301.62721210
0.35100002 22507.93069811  1782.62819572
0.35200002 22547.89071748  1432.69304405
0.35300002 22595.92413055  1439.81235379
0.35400002 22651.65517546  1929.92111236
0.35500002 22714.11402246  1455.52049550
0.35600002 22782.93056127  2074.04418188
0.35700002 22858.61704071  1350.25857255
0.35800002 22941.18308234  1358.92104425
0.35900002 23029.48665572  1492.31080598
0.36000002 23124.43035099  1627.84435166
0.36100002 23224.28182945  1387.18641938
0.36200002 23330.88566901  1651.47682031
0.36300002 23441.09417704  1279.88380269
0.36400002 23557.21638922  1418.73342424
0.36500002 23677.82555532  1299.91268456
0.36600002 23803.79541342  1572.47879950
0.36700002 23933.85351807  1717.49340981
0.36800002 24069.64461303  1731.93136017
0.36900002 24208.62183642  1881.01000579
0.37000002 24350.70027513  1761.65149485
0.37100002 24497.08478871  1777.01861475
0.37200002 24647.57669951  1930.64477433
0.37300002 24800.88910367  1669.59593355
0.37400002 24958.55837375  1684.70277003
0.37500002 25118.15892821  1558.33065373
0.37600002 25281.82121598  1715.62446899
0.37700002 25447.09925091  1731.42071505
0.37800002 25615.78115227  1893.13439574
0.37900002 25786.86553277  1616.83654550
0.38000002 25960.31216507  1631.99510157
0.38100002 26135.41253098  2096.58289256
0.38200002 26312.77516976  1965.16970665
0.38300002 26491.90094786  1678.52692357
0.38400002 26673.23150950  1694.41711191
0.38500002 26855.12625729  2176.87663754
0.38600002 27039.57268071  2511.43562956
0.38700002 27224.32523052  2059.79254452
0.38800002 27410.20777590  1599.38569950
0.38900002 27597.29684599  1775.88613617
0.39000002 27785.97226878  1629.64735077
0.39100002 27974.44598395  1973.87700214
0.39200002 28164.17807219  2158.36188882
0.39300002 28354.02194419  2010.86733155
0.39400002 28545.16328906  2536.95150751
0.39500002 28735.56900954  1877.58216804
0.39600002 28926.23063391  2067.06853903
0.39700002 29116.56773752  1912.08509391
0.39800002 29308.00823457  1929.49281354
0.39900002 29498.29967215  2123.87767702
0.40000002 29688.25589105  2857.19788233
0.40100002 29877.79011374  1981.79391214
0.40200002 30067.86834552  2181.12327312
0.40300002 30256.27556636  2566.94254067
0.40400002 30444.10097490  2219.37506622
0.40500002 30631.15810478  2425.06890206
0.40600002 30817.68615407  2633.98776039
0.40700002 31002.94550439  2276.85642572
0.40800002 31187.44028543  2870.02432825
0.40900002 31369.96317169  1929.25282647
0.41000002 31552.18035958  2334.23041360
0.41100002 31732.77117390  2157.19388661
0.41200002 31911.22576301  2174.59058266
0.41300002 32088.73545070  2391.25267909
0.41400002 32264.52604713  2209.31352576
0.41500002 32439.18699720  2429.04643745
0.41600002 32610.92066121  2039.81318401
0.41700002 32781.75745620  2466.49954788
0.41800002 32951.53011979  2485.20451939
0.41900002 33117.31065403  3129.58600510
0.42000002 33282.01385143  2942.46298403
0.42100002 33445.10632692  2963.90546314
0.42200002 33606.03604944  2132.30308838
0.42300002 33764.09466438  2576.87582689
0.42400002 33920.10598464  3027.36960258
0.42500002 34074.18214248  3266.01051312
0.42600002 34224.60764360  2411.29484579
0.42700002 34373.92821950  2427.48692589
0.42800002 34520.25734218  2887.79226480
0.42900002 34664.65808384  2683.04466283
0.43000002 34806.45237305  2475.26097781
0.43100002 34944.23778185  2490.82538712
0.43200002 35080.25692304  2962.00163366
0.43300002 35213.32166267  2292.38734887
0.43400002 35343.99508747  2767.43494649
0.43500002 35471.31367253  2551.80642653
0.43600002 35596.84505639  3033.38529523
0.43700002 35718.57060070  4224.07835941
0.43800002 35836.70503131  2359.84713814
0.43900002 35952.94146867  2847.47309926
0.44000002 36065.52442462  3101.45491987
0.44100002 36175.80518767  3597.68399641
0.44200002 36282.72149537  2410.98695762
0.44300002 36386.82130038  2908.03489614
0.44400002 36487.24850395  2679.07634837
0.44500002 36583.84901727  2692.20557677
0.44600002 36678.15462996  3442.97853828
0.44700002 36769.51323402  3212.18482835
0.44800002 36856.47322989  2978.74030761
0.44900002 36941.77339409  2493.56982228
0.45000002 37023.42983906  3256.02569151
0.45100002 37100.61643487  3018.50629620
0.45200002 37175.48690848  2778.68190066
0.45300002 37246.39013904  2790.12721755
0.45400002 37314.72554577  3565.42219487
0.45500002 37379.55899132  2812.43815180
0.45600002 37440.81074713  4363.16508720
0.45700002 37498.68594866  3349.00780080
0.45800002 37552.60188031  3361.14579059
0.45900002 37603.49580758  3632.49786717
0.46000002 37651.75568994  4686.51425284
0.46100002 37695.36071553  2873.51748353
0.46200002 37736.44284317  2882.87568764
0.46300002 37773.71794432  3154.86107223
0.46400002 37807.19863507  3164.46267574
0.46500002 37838.19127800  3173.86763483
0.46600002 37864.89852010  2917.67989375
0.46700002 37888.24820327  2925.73066492
0.46800002 37908.91728309  3200.27094872
0.46900002 37925.37900742  2673.73934675
0.47000002 37938.12595143  2948.36159806
0.47100002 37948.04152852  3492.73790783
0.47200002 37954.29869175  3231.42914378
0.47300002 37957.76224933  2698.79702384
0.47400002 37956.33837816  3245.26708515
0.47500002 37952.77527702  2980.81111154
0.47600002 37946.09121739  4344.06872847
0.47700002 37934.80545175  2991.91824779
