# SAXS profile: number of points = 501, q_min = 0, q_max = 0.5, delta_q = 0.001
#    q    intensity    error
0.00000000 1664650.74656091 299.63713438
0.00100000 1664581.85980958 699.12439772
0.00200000 1664375.14248468 823.86572162
0.00300000 1664030.76872867 1597.46959489
0.00400000 1663548.61001638 1497.19380591
0.00500000 1662929.10946357 1496.63625776
0.00600000 1662172.02579962 1745.28069814
0.00700000 1661277.99203879 2192.88704063
0.00800000 1660246.45134192 2241.33280394
0.00900000 1659078.77466099 3235.20374889
0.01000000 1657774.16471079 2735.32748988
0.01100000 1656333.78377183 4173.96131684
0.01200000 1654757.17669289 3872.13196323
0.01300000 1653045.69951279 3818.53573429
0.01400000 1651198.56572987 5201.27571263
0.01500000 1649217.62861798 4749.74698192
0.01600000 1647101.72751322 4620.12055221
0.01700000 1644852.94674685 4441.10315544
0.01800000 1642470.89093351 6085.35492473
0.01900000 1639956.24820476 6887.81655326
0.02000000 1637309.67074166 6189.03083537
0.02100000 1634532.91058593 5933.35473444
0.02200000 1631623.95330424 7880.74405250
0.02300000 1628585.82820248 9966.94572228
0.02400000 1625418.49127728 6704.85158224
0.02500000 1622123.11364741 8856.79260501
0.02600000 1618699.92729753 9833.60250810
0.02700000 1615150.20221126 8818.72050798
0.02800000 1611473.49989895 7009.91004603
0.02900000 1607672.54624446 8681.43214832
0.03000000 1603747.75649808 7457.42741050
0.03100000 1599699.13476584 12285.68992030
0.03200000 1595527.85613582 11846.79487745
0.03300000 1591236.76471272 9738.36944899
0.03400000 1586823.63760849 9996.98937820
0.03500000 1582292.18774967 12816.56731262
0.03600000 1577641.89260552 9631.50419946
0.03700000 1572874.62506446 15241.15582174
0.03800000 1567991.79218677 11924.57813144
0.03900000 1562994.52898804 10315.76436904
0.04000000 1557881.95502457 12455.26680759
0.04100000 1552657.86055907 14672.61746260
0.04200000 1547322.48803423 11976.27661300
0.04300000 1541876.26131607 10176.38379705
0.04400000 1536322.47381467 15555.26576979
0.04500000 1530660.97914440 11617.71737152
0.04600000 1524892.02290896 11825.53818739
0.04700000 1519019.10726564 16405.40712145
0.04800000 1513042.01051864 14457.11708317
0.04900000 1506963.61262701 12432.45038287
0.05000000 1500783.55680658 11480.99474420
0.05100000 1494505.13756711 19817.13904730
0.05200000 1488126.57916773 17745.91028356
0.05300000 1481653.37739746 22802.64654116
0.05400000 1475083.78180374 19471.10682782
0.05500000 1468421.85750621 16035.16743200
0.05600000 1461666.02835860 21245.31671359
0.05700000 1454821.40564798 20251.11491191
0.05800000 1447886.50043487 14095.17573987
0.05900000 1440863.43099902 14264.54863313
0.06000000 1433754.78832825 15742.62831132
0.06100000 1426562.38016474 17247.13998217
0.06200000 1419286.52603511 16094.70995756
0.06300000 1411930.25497447 17620.89040595
0.06400000 1404491.76274406 24648.83158890
0.06500000 1396977.72990733 15213.08819033
0.06600000 1389385.48941345 15359.65730412
0.06700000 1381718.25828192 19730.93765165
0.06800000 1373978.94834245 19908.95589340
0.06900000 1366168.28307907 20082.67470151
0.07000000 1358285.99284894 15912.32115138
0.07100000 1350336.84324914 16042.00244917
0.07200000 1342319.77329244 14698.40220613
0.07300000 1334239.50930452 17772.07109666
0.07400000 1326095.23960613 19394.14378813
0.07500000 1317889.69319657 25540.70345131
0.07600000 1309622.83634011 15126.14446885
0.07700000 1301300.19951596 15225.21304822
0.07800000 1292919.90501698 21449.54223013
0.07900000 1284484.22494881 18496.57370682
0.08000000 1275996.90403351 17053.69942242
0.08100000 1267458.12551351 17148.70924278
0.08200000 1258869.05167830 17240.21247173
0.08300000 1250232.62544297 22054.10454786
0.08400000 1241549.42017291 17412.73143526
0.08500000 1232823.30870694 27035.81642914
0.08600000 1224053.60536030 19168.68035994
0.08700000 1215243.76773470 30478.31512598
0.08800000 1206392.62493807 17715.87652922
0.08900000 1197506.27318340 21016.23608149
0.09000000 1188583.40153183 21091.41345096
0.09100000 1179626.41139557 19534.61429047
0.09200000 1170636.66123987 24495.57328741
0.09300000 1161617.44018875 21292.44867924
0.09400000 1152566.93597150 16424.07960948
0.09500000 1143489.96785261 24699.38446655
0.09600000 1134387.15824650 16505.33392837
0.09700000 1125261.51484205 24812.01756875
0.09800000 1116113.89053586 19889.15046449
0.09900000 1106946.43584592 23245.87624584
0.10000000 1097758.57273049 18294.14747488
0.10100000 1088553.16125639 19985.83698064
0.10200000 1079332.47914792 21678.39386336
0.10300000 1070097.54860228 18362.87479782
0.10400000 1060850.88880352 18379.24251317
0.10500000 1051595.33953787 23408.51335947
0.10600001 1042327.06695707 25094.02531775
0.10700001 1033054.04464375 21756.11920399
0.10800001 1023773.13012109 16738.69146523
0.10900001 1014488.86051997 20086.88038370
0.11000001 1005201.19031075 25104.90090969
0.11100001 995912.33963159 21750.72652143
0.11200001 986624.82491894 18395.62072663
0.11300001 977337.44105436 28411.20074907
0.11400001 968054.59600048 18368.83682400
0.11500001 958776.49874673 20019.25423650
0.11600001 949504.13820567 18330.17825126
0.11700001 940241.04643326 24963.40095845
0.11800001 930984.86951007 21603.50491447
0.11900001 921739.96115667 19909.58409876
0.12000001 912506.75012798 21530.59778347
0.12100001 903288.21125514 21489.22755808
0.12200001 894083.52401430 18145.42597472
0.12300001 884895.61090168 18104.96505205
0.12400001 875724.23642333 19703.79624792
0.12500001 866572.06663553 18016.03411428
0.12600001 857441.37679805 21234.53669705
0.12700001 848331.88626032 16287.97298379
0.12800001 839243.97023831 19487.24590735
0.12900001 830181.02902988 25901.64932653
0.13000001 821142.83248510 25816.73187020
0.13100001 812130.47528252 17688.20258543
0.13200001 803146.98105718 32045.56605482
0.13300001 794193.36112572 27137.58842901
0.13400001 785268.02296376 20672.18167912
0.13500001 776375.18248070 22173.27625708
0.13600001 767513.66256659 17349.64716037
0.13700001 758686.35145759 21986.73150199
0.13800001 749892.31263405 17198.78100128
0.13900001 741136.31411057 21789.40866240
0.14000001 732415.49225989 15490.58839184
0.14100001 723732.99429172 21581.71890764
0.14200001 715088.21658771 21474.10015696
0.14300001 706485.68772424 16786.10073209
0.14400001 697919.72730244 22769.63217728
0.14500001 689399.49734815 16607.63467453
0.14600001 680919.33003233 19518.55351615
0.14700001 672485.75959649 14929.18456735
0.14800001 664094.26383755 20779.51049583
0.14900001 655747.49661633 22131.47905498
0.15000001 647447.90033071 20530.57388818
0.15100001 639195.05491635 17488.37752770
0.15200001 630990.94127781 18825.61562135
0.15300001 622835.42249326 14387.49893853
0.15400001 614727.07898763 25726.32946968
0.15500001 606670.89263186 18454.92942480
0.15600001 598663.55672578 15508.38016890
0.15700001 590711.48158899 23799.76671649
0.15800001 582806.78822697 13899.94255527
0.15900001 574958.34352410 15178.90098549
0.16000001 567160.69378808 16436.31768181
0.16100001 559420.38429799 17672.09077417
0.16200001 551732.56582675 13489.86187127
0.16300001 544101.20285312 13384.89022206
0.16400001 536525.35920016 13279.00326710
0.16500001 529006.35342135 17123.93646869
0.16600001 521543.86474839 18290.54420028
0.16700001 514138.36587623 12956.28743181
0.16800001 506789.58795787 19270.67499199
0.16900001 499501.44872049 19105.93131570
0.17000001 492271.23671789 18940.13672707
0.17100001 485100.22893559 15018.70379705
0.17200001 477988.87034107 14884.57412531
0.17300001 470937.65889275 15978.91552083
0.17400001 463947.49363560 15832.20896801
0.17500001 457017.29866076 12065.25725446
0.17600001 450146.42241051 19122.22092712
0.17700001 443339.35350982 11837.16129779
0.17800001 436592.60520233 14067.01440403
0.17900001 429907.95497248 16250.52146553
0.18000001 423285.93596740 14939.87781566
0.18100001 416727.24613421 19340.31240666
0.18200001 410228.27566373 13512.92003869
0.18300001 403794.82415888 13373.68520791
0.18400001 397422.65805602 17645.56685128
0.18500001 391114.61233038 13094.51783943
0.18600001 384869.45874299 14034.26547609
0.18700001 378687.11179856 11746.87476297
0.18800001 372568.19508978 11618.53971281
0.18900001 366514.55134207 10445.66520678
0.19000001 360520.64574978 10328.91698876
0.19100001 354595.33528591 11233.58075264
0.19200001 348729.95412520 12114.87917875
0.19300001 342930.86444091 10977.21748946
0.19400001 337194.60357085 11835.53114461
0.19500001 331522.60332666 11696.11799807
0.19600001 325912.98009197 12519.94772188
0.19700001 320368.12227029 10466.42704919
0.19800001 314886.77792676 10339.30784185
0.19900001 309469.90640323 10212.50739395
0.20000001 304114.56376519 11002.86543703
0.20100001 298824.65445632 9959.82620375
0.20200001 293596.58252799 8940.01636051
0.20300001 288432.81166545 13239.06668118
0.20400001 283331.79845244 12197.43449990
0.20500001 278293.20455646 9459.18646998
0.20600001 273317.85261653 11032.47564235
0.20700001 268405.03417639 10049.08495458
0.20800001 263554.56184230 12393.65385648
0.20900001 258768.43841634 9781.44743452
0.21000001 254042.02140761 8040.43035764
0.21100001 249377.67318894 10309.27349699
0.21200001 244774.86734790 9384.66885777
0.21300001 240233.42291857 10024.94121233
0.21400001 235754.02275969 9123.68111214
0.21500001 231336.04723012 9743.87477000
0.21600001 226977.10104043 8865.72598580
0.21700001 222679.45488177 10194.26592647
0.21800001 218441.82275328 10763.72132508
0.21900001 214262.66733447 7777.73519198
0.22000001 210142.97921018 8359.48810824
0.22100001 206084.68212323 8921.40631095
0.22200001 202084.09270237 8111.65586463
0.22300001 198141.69639811 8654.82970792
0.22400001 194256.07209762 8522.98556630
0.22500001 190431.33524313 6455.62257001
0.22600001 186662.02754615 6991.42657235
0.22700001 182950.87492214 8759.68830551
0.22800001 179295.76522598 6158.80982676
0.22900001 175696.67335998 7879.99617285
0.23000001 172153.60434024 7158.14720699
0.23100001 168667.85625936 7630.53417804
0.23200001 165235.20420567 8084.95892415
0.23300001 161858.49604100 9089.97356757
0.23400001 158536.18700602 6706.08102752
0.23500001 155266.62240374 6595.72643166
0.23600001 152051.40055742 8648.68407276
0.23700001 148889.38238623 7441.49168363
0.23800001 145779.72597707 5748.82376582
0.23900001 142722.68209583 5651.81847832
0.24000001 139716.98279674 6060.92300041
0.24100001 136764.09280975 5460.99048420
0.24200001 133861.45189235 6830.95021318
0.24300001 131009.26765683 5753.92730766
0.24400001 128206.53278390 5653.90836322
0.24500001 125453.93787594 5092.17557927
0.24600001 122750.62914763 5457.49323007
0.24700001 120096.63303897 6254.63294455
0.24800001 117489.81194046 4827.06915193
0.24900001 114930.70481179 6033.86228807
0.25000001 112419.48939290 5079.11277106
0.25100001 109954.36727136 4987.53033538
0.25200001 107536.85538566 4081.02385496
0.25300001 105165.17309419 5609.51059823
0.25400001 102838.07964603 5506.97942559
0.25500001 100556.20523220 4633.63015633
0.25600001 98319.17160364  4169.22466911
0.25700001 96125.79696369  4464.08222220
0.25800001 93975.93558360  3650.96527016
0.25900001 91869.41524369  6090.94251885
0.26000001 89805.90034532  4570.67151434
0.26100001 87782.49573453  3794.83747016
0.26200001 85803.12024309  5077.39988063
0.26300001 83863.41044036  3653.09033164
0.26400001 81964.28784586  4561.31283446
0.26500001 80106.25448578  4474.73558732
0.26600001 78286.79163674  3762.46338410
0.26700001 76507.74997542  3998.29520292
0.26800001 74767.14943659  5128.65285829
0.26900001 73064.22921342  4142.74199244
0.27000001 71399.65440588  3192.63569784
0.27100001 69772.13381701  5124.06575001
0.27200001 68181.92304656  3629.66484515
0.27300001 66627.45016563  2738.38833140
0.27400001 65107.86481983  2685.69955092
0.27500001 63625.86464442  2897.52201303
0.27600001 62176.67057591  4133.50525551
0.27700001 60763.69003999  3040.61519350
0.27800001 59383.49698821  3230.75930655
0.27900001 58037.57399972  2437.57822335
0.28000001 56724.10392570  3108.19742171
0.28100001 55443.24673711  3048.82428237
0.28200001 54194.95664630  2300.57601852
0.28300001 52978.21849263  4513.74442921
0.28400001 51792.96474735  3985.46882594
0.28500001 50638.48986489  3258.58697704
0.28600001 49513.67672022  2557.87666044
0.28700001 48419.19097086  2719.22189363
0.28800001 47353.38613095  2463.32326313
0.28900001 46318.03478489  2417.80153021
0.29000001 45309.85978643  2768.88566261
0.29100001 44331.10665481  2330.04307607
0.29200001 43379.20412259  2859.77416715
0.29300001 42454.54878058  2621.14396579
0.29400001 41556.57247172  1838.87841892
0.29500001 40686.25276887  2529.05759183
0.29600001 39840.36559505  1774.88837128
0.29700001 39020.08074562  2093.03723028
0.29800001 38225.44816464  2400.17600388
0.29900001 37455.48142888  2022.59609291
0.30000001 36709.45662587  1988.91845414
0.30100001 35988.25290443  2771.45548737
0.30200001 35289.28730685  2405.84727604
0.30300001 34613.98779061  1894.07750157
0.30400001 33961.97342722  2175.26450099
0.30500001 33331.03961671  1988.86322809
0.30600001 32722.26743987  2109.60468172
0.30700001 32135.47822898  1781.59099736
0.30800001 31569.39696312  1755.88994222
0.30900001 31024.17227053  2019.67371043
0.31000001 30500.07951586  1849.67740981
0.31100001 29994.18770572  1544.10085620
0.31200001 29509.18074687  1662.54732199
0.31300001 29042.55051795  1778.27545241
0.31400001 28596.23471727  1486.28936980
0.31500001 28167.74585249  1602.18145995
0.31600002 27757.14770353  1319.85243579
0.31700002 27364.04835886  1566.31820222
0.31800002 26988.80728059  1420.55593848
0.31900002 26630.82584305  1533.93564119
0.32000002 26289.29989851  1265.82985005
0.32100002 25964.61785809  1755.72754270
0.32200002 25656.13760264  1243.03992571
0.32300002 25362.64400574  1725.67437986
0.32400002 25084.82778171  1222.88541226
0.32500002 24821.86962639  1577.92632687
0.32600002 24574.15337332  1687.50719205
0.32700002 24340.54992854  1317.31062451
0.32800002 24121.88259184  1309.45645850
0.32900002 23915.80747160  1657.36553626
0.33000002 23724.81447842  1766.90564195
0.33100002 23544.71566719  1289.77958533
0.33200002 23379.88192559  1284.60767323
0.33300002 23226.43207520  1280.00873228
0.33400002 23086.04336426  1624.10322759
0.33500002 22957.14545835  1157.04018589
0.33600002 22839.98823099  1385.47375170
0.33700002 22733.60967405  1498.37228458
0.33800002 22639.71535051  1381.47549611
0.33900002 22555.57864672  1265.36802201
0.34000002 22482.70859559  1379.98871895
0.34100002 22420.02253812  1610.20609494
0.34200002 22368.30705083  1496.10428795
0.34300002 22325.09738866  1267.17258779
0.34400002 22292.21361440  1499.70874193
0.34500002 22268.23394555  1618.00995511
0.34600002 22254.57222537  1274.18559311
0.34700002 22247.58780078  1741.98620730
0.34800002 22250.86493858  1747.24925205
0.34900002 22262.00628378  1402.50646230
0.35000002 22281.19650572  1407.72606190
0.35100002 22308.45935677  1649.04139375
0.35200002 22342.48288393  1301.33797721
0.35300002 22384.35296160  2020.63563755
0.35400002 22433.86425445  1314.06366094
0.35500002 22489.92177718  1321.05806776
0.35600002 22552.27494818  1449.20925681
0.35700002 22621.29202222  1336.23978304
0.35800002 22697.20090224  1466.69319177
0.35900002 22778.70910236  1230.05034979
0.36000002 22866.79310069  1609.70797657
0.36100002 22959.64014845  1496.05022294
0.36200002 23059.19162233  1757.80226063
0.36300002 23162.20658631  1644.05350137
0.36400002 23271.09000955  1528.91068605
0.36500002 23384.50722906  2054.09521230
0.36600002 23503.13483374  1293.84763388
0.36700002 23625.78941681  1304.14363758
0.36800002 23754.11904898  1577.74866197
0.36900002 23885.67340586  1458.22043050
0.37000002 24020.23008485  2005.08880131
0.37100002 24159.14768991  1482.88855545
0.37200002 24302.05722994  1767.61021635
0.37300002 24447.73747124  1371.51813711
0.37400002 24597.81732764  1660.35274827
0.37500002 24749.80689698  1535.47809263
0.37600002 24905.78600596  1830.94894496
0.37700002 25063.45079865  1705.31727312
0.37800002 25224.55862694  1577.41784846
0.37900002 25387.94925269  1736.53581115
0.38000002 25553.83105332  1606.44166527
0.38100002 25721.33139222  1621.21559445
0.38200002 25891.07616692  1636.18663588
0.38300002 26062.66789316  1651.33071594
0.38400002 26236.43639231  1969.70055547
0.38500002 26410.77129947  1682.10210375
0.38600002 26587.83232528  1852.10848752
0.38700002 26765.20841378  1713.50872383
0.38800002 26943.71426097  2043.81554209
0.38900002 27123.44130712  1745.39353080
0.39000002 27304.89346189  2722.43453160
0.39100002 27486.12239086  1616.18407315
0.39200002 27668.72157645  2283.49969989
0.39300002 27851.50540795  2304.43366663
0.39400002 28035.57792767  2325.55129928
0.39500002 28219.07310165  2011.45562598
0.39600002 28402.86405032  1691.39063433
0.39700002 28586.44112066  2047.93273891
0.39800002 28771.07534952  2238.53362363
0.39900002 28954.72813599  2432.19727866
0.40000002 29138.23680103  2103.19803195
0.40100002 29321.25587312  2475.30053809
0.40200002 29504.98057822  2140.29139255
0.40300002 29687.20373487  2158.85355789
0.40400002 29868.81577794  1995.98370893
0.40500002 30049.88077687  2013.04160862
0.40600002 30230.38984611  2214.67846506
0.40700002 30409.82038035  3349.94597182
0.40800002 30588.66743725  2251.93780343
0.40900002 30765.49055560  2270.49331058
0.41000002 30942.22368430  2479.86463468
0.41100002 31117.39766290  1923.05526669
0.41200002 31290.67564755  2519.99468268
0.41300002 31463.07068474  2344.62813852
0.41400002 31633.83322305  2756.88869602
0.41500002 31803.67007183  2579.91383847
0.41600002 31970.62232994  2199.73877364
0.41700002 32136.82717178  2417.97499098
0.41800002 32302.12177901  2639.24498501
0.41900002 32463.54134665  3067.80480262
0.42000002 32623.99825303  2060.20558730
0.42100002 32783.06404496  2490.20166285
0.42200002 32940.09669823  2926.06892836
0.42300002 33094.38090364  3999.12517790
0.42400002 33246.75425625  2755.32488955
0.42500002 33397.34608194  2347.49956734
0.42600002 33544.44142043  3007.93020470
0.42700002 33690.56522866  2595.52126821
0.42800002 33833.83957639  3265.81151987
0.42900002 33975.36359235  2191.41105555
0.43000002 34114.40151491  3087.69462743
0.43100002 34249.56193011  2663.24606189
0.43200002 34383.21779184  3796.42317239
0.43300002 34513.96399907  2920.91691166
0.43400002 34642.52169634  2712.50957736
0.43500002 34767.92415037  2501.20458191
0.43600002 34891.65957573  2973.29291165
0.43700002 35011.70112534  2300.26887294
0.43800002 35128.34743047  3469.80268188
0.43900002 35243.28553874  4186.90252042
0.44000002 35354.65882354  3274.19510881
0.44100002 35463.96361867  2821.51307921
0.44200002 35570.02367728  4490.89355220
0.44300002 35673.43200369  2375.85068404
0.44400002 35773.33860932  2865.44455840
0.44500002 35869.59140812  3119.57851260
0.44600002 35963.61628702  3617.04087948
0.44700002 36054.92306861  2665.18003954
0.44800002 36142.11464454  2677.58869034
0.44900002 36227.62997004  2934.43816664
0.45000002 36309.71216124  2456.35214412
0.45100002 36387.43603152  2467.06827986
0.45200002 36463.07885135  2725.43295791
0.45300002 36534.95268560  2736.83343538
0.45400002 36604.33320895  3497.54420387
0.45500002 36670.43273168  3260.73503304
0.45600002 36732.98637561  3525.26486954
0.45700002 36792.44416316  3033.16924056
0.45800002 36848.07304284  3044.38793908
0.45900002 36900.81738742  3819.23478061
0.46000002 36951.12193071  2810.68722287
0.46100002 36996.96293023  3333.05654835
0.46200002 37040.38811922  3344.19159984
0.46300002 37080.02494203  3355.00081577
0.46400002 37116.15690648  3624.39289370
0.46500002 37149.91121734  2856.45680888
0.46600002 37179.56900797  2604.42893245
0.46700002 37206.03876650  2873.05044972
0.46800002 37229.89522452  3404.86022914
0.46900002 37249.73684134  3413.93854332
0.47000002 37266.03839341  3949.26860592
0.47100002 37279.56032993  3695.15019504
0.47200002 37289.61355991  2910.26802822
0.47300002 37296.97549639  3182.17810018
0.47400002 37299.69318614  2923.36359202
0.47500002 37300.32550069  3195.89204038
0.47600002 37297.97169254  2935.53700120
0.47700002 37291.23628066  2673.78176806
