# SAXS profile: number of points = 501, q_min = 0, q_max = 0.5, delta_q = 0.001
#    q    intensity    error
0.00000000 1682732.95097189 277.65093691
0.00100000 1682663.61878704 656.23882691
0.00200000 1682455.56508512 832.81553109
0.00300000 1682108.96786021 1312.04504167
0.00400000 1681623.68785121 1387.33959519
0.00500000 1681000.18826885 1664.19025226
0.00600000 1680238.20205886 2293.52523918
0.00700000 1679338.35061351 3224.32976718
0.00800000 1678300.18908234 3625.12856147
0.00900000 1677124.93005607 2515.68750262
0.01000000 1675811.86077017 3318.10762760
0.01100000 1674362.16418831 3315.23722944
0.01200000 1672775.30614412 4240.48558699
0.01300000 1671052.71856009 3509.21086375
0.01400000 1669193.64049838 5633.52878642
0.01500000 1667199.81311815 4401.40770262
0.01600000 1665070.09756792 6793.48630177
0.01700000 1662806.66905018 4489.57820783
0.01800000 1660409.08825203 6625.03256024
0.01900000 1657878.10637018 6963.08836095
0.02000000 1655214.23462768 6256.71008992
0.02100000 1652419.20746333 5998.28199504
0.02200000 1649491.30209915 6259.81977586
0.02300000 1646433.25745247 7705.30799561
0.02400000 1643245.07393977 6778.38623908
0.02500000 1639928.08146936 8314.43575278
0.02600000 1636482.40514609 6627.75404398
0.02700000 1632909.20060986 7544.04085234
0.02800000 1629208.24983571 11339.28993887
0.02900000 1625382.32295011 8045.64286801
0.03000000 1621431.35080618 8293.62174059
0.03100000 1617355.97314618 11644.96354247
0.03200000 1613156.84652373 7985.12675807
0.03300000 1608837.19287250 9025.57706810
0.03400000 1604394.79742274 10949.99499765
0.03500000 1599833.02377115 9503.00860003
0.03600000 1595151.50312136 8853.09125146
0.03700000 1590352.28982947 11784.51101264
0.03800000 1585436.68251585 10202.28552415
0.03900000 1580405.73189248 13275.40876268
0.04000000 1575258.69703481 12594.19386640
0.04100000 1569999.13356140 12858.29350006
0.04200000 1564627.62205783 13119.40321960
0.04300000 1559144.41017940 12348.42430181
0.04400000 1553552.65287990 15729.72134093
0.04500000 1547852.53508501 12816.21958601
0.04600000 1542044.26097668 13045.69505432
0.04700000 1536130.63785530 17696.22577111
0.04800000 1530112.53652933 11246.32766676
0.04900000 1523992.15562410 17144.91254882
0.05000000 1517769.36436783 13933.12341371
0.05100000 1511447.43513637 14147.14865191
0.05200000 1505024.47995614 15554.42872520
0.05300000 1498506.02722940 14565.47926368
0.05400000 1491890.43452286 13538.90632467
0.05500000 1485181.75459372 13723.08005262
0.05600000 1478378.33180926 13904.14885949
0.05700000 1471485.41461360 15362.30844566
0.05800000 1464501.42256392 20737.34111178
0.05900000 1457428.29804946 17051.91188360
0.06000000 1450269.12459893 13269.96311004
0.06100000 1443025.21264424 18788.18914663
0.06200000 1435696.95791730 14924.07057515
0.06300000 1428287.67650148 24680.81220390
0.06400000 1420795.67748680 16623.31020401
0.06500000 1413227.06171439 16789.13827853
0.06600000 1405579.47172808 18363.89665735
0.06700000 1397856.28028951 15683.94819884
0.06800000 1390060.45865986 17264.55170469
0.06900000 1382192.18838702 17415.62238906
0.07000000 1374251.72825609 19026.51606869
0.07100000 1366243.69677076 16230.97587786
0.07200000 1358167.02797714 16359.12261836
0.07300000 1350026.21514761 17982.35002834
0.07400000 1341821.16341428 19624.13543460
0.07500000 1333553.73641169 16722.76463844
0.07600000 1325224.39427975 21428.87946010
0.07700000 1316838.41973365 18488.41227995
0.07800000 1308394.52117690 18605.37096366
0.07900000 1299894.24858614 21838.22440054
0.08000000 1291341.81065124 21965.72522961
0.08100000 1282737.59815192 17355.44051728
0.08200000 1274081.69089880 19034.78135524
0.08300000 1265378.02592757 22321.26942494
0.08400000 1256626.96264219 19226.39343089
0.08500000 1247832.43519730 20926.15092064
0.08600000 1238993.66633895 21019.52853634
0.08700000 1230114.17175205 16237.50782960
0.08800000 1221192.69453876 22824.09253283
0.08900000 1212235.13394096 24547.76261531
0.09000000 1203240.84516427 19709.08596963
0.09100000 1194211.56812629 23072.16858016
0.09200000 1185149.02868050 19839.39567230
0.09300000 1176056.50465696 19898.87699389
0.09400000 1166932.19425393 19954.54145956
0.09500000 1157780.69622939 23340.85993307
0.09600000 1148602.44763880 26739.46623799
0.09700000 1139401.43962444 31823.48370482
0.09800000 1130177.56280095 20139.76511604
0.09900000 1120933.15425571 23539.59734626
0.10000000 1111667.64000172 23578.47175327
0.10100000 1102384.64759866 25299.72885228
0.10200000 1093085.91040695 20265.81373217
0.10300000 1083771.77140265 18597.52447211
0.10400000 1074445.79944303 20307.02656482
0.10500000 1065110.34275153 22015.83182050
0.10600001 1055761.94405531 20333.97599929
0.10700001 1046407.65038182 23732.52662746
0.10800001 1037045.33600302 23737.96885826
0.10900001 1027679.25789883 22043.72111943
0.11000001 1018309.72294378 16954.85768507
0.11100001 1008938.02322598 20340.19150572
0.11200001 999567.42612369 20331.20240449
0.11300001 990196.05948926 22012.05943879
0.11400001 980829.42277658 16919.30833953
0.11500001 971466.46067734 27045.62753878
0.11600001 962109.58862584 23639.03370573
0.11700001 952760.89381821 25295.80292218
0.11800001 943419.17372511 23576.04626178
0.11900001 934088.19886366 20176.30604579
0.12000001 924768.50334214 25176.82368944
0.12100001 915463.38846765 18428.27887798
0.12200001 906171.45371527 28422.06898478
0.12300001 896896.24309815 20018.72508912
0.12400001 887637.13161965 18307.51670226
0.12500001 878396.70750601 23242.37797580
0.12600001 869177.63447578 21525.18513213
0.12700001 859979.43520829 18162.76652754
0.12800001 850802.81660688 18109.33880496
0.12900001 841650.08849148 16412.17749912
0.13000001 832522.53820914 19630.88237627
0.13100001 823420.05680109 17934.08968250
0.13200001 814346.36924991 16246.21083239
0.13300001 805302.38167728 21042.55222524
0.13400001 796286.66596919 19349.76689531
0.13500001 787302.65132678 24091.46226647
0.13600001 778349.85538446 22393.12639526
0.13700001 769431.43434598 19112.67773038
0.13800001 760546.09689980 19028.86424175
0.13900001 751698.12459348 17364.22749697
0.14000001 742885.59516504 18854.43729448
0.14100001 734110.87645608 15636.56240598
0.14200001 725373.83111726 18671.12329359
0.14300001 716679.09873529 20124.35004170
0.14400001 708020.90895096 23099.18324411
0.14500001 699407.92080774 21443.84786352
0.14600001 690835.26281810 18279.50191649
0.14700001 682308.63621760 19691.42817021
0.14800001 673824.08948964 18071.96293272
0.14900001 665384.35932027 17965.37854927
0.15000001 656991.73517215 19345.12255490
0.15100001 648645.75389739 20704.77344136
0.15200001 640348.46048853 14695.99786167
0.15300001 632099.57166477 18981.95103283
0.15400001 623898.02267788 17406.75565416
0.15500001 615748.69863049 18731.07629631
0.15600001 607648.00136917 18603.14443989
0.15700001 599602.35759418 25579.03778222
0.15800001 591604.52636040 15520.74548162
0.15900001 583662.51996843 16809.48136851
0.16000001 575771.67015299 13904.88649054
0.16100001 567938.18636422 16561.07829613
0.16200001 560157.01762147 13695.83972737
0.16300001 552432.77650889 23102.73980423
0.16400001 544763.91262422 14831.19822137
0.16500001 537151.72950734 18725.11017466
0.16600001 529596.29585315 17246.30418871
0.16700001 522097.74388561 14472.55014383
0.16800001 514656.65840638 14351.20159727
0.16900001 507276.06642621 16816.20239606
0.17000001 499953.45299169 14106.18734225
0.17100001 492690.17375098 17795.96991623
0.17200001 485486.53664402 16377.88908710
0.17300001 478342.87826202 14981.69965467
0.17400001 471261.32783936 12370.61044000
0.17500001 464239.40859754 14707.10515895
0.17600001 457277.36092530 14568.85740715
0.17700001 450378.96743512 15632.65469801
0.17800001 443541.45797249 14290.90645086
0.17900001 436765.69277026 18868.27881889
0.18000001 430053.34163298 12843.54365453
0.18100001 423404.36770004 16182.51569790
0.18200001 416815.28145425 16018.21202295
0.18300001 410291.96706289 12456.46470846
0.18400001 403830.18158805 11206.28806846
0.18500001 397433.09054180 14414.89887494
0.18600001 391099.02234812 14261.42652368
0.18700001 384828.17418906 17363.44803974
0.18800001 378620.70805072 13954.06685449
0.18900001 372479.11254823 10615.65520919
0.19000001 366397.44715729 18895.11724267
0.19100001 360384.77071921 12454.89826455
0.19200001 354432.36691213 16417.30801111
0.19300001 348546.87381787 13185.52885958
0.19400001 342724.18584227 11027.15120055
0.19500001 336966.37756226 11888.17436217
0.19600001 331271.32876663 10767.97505041
0.19700001 325641.10937697 14507.31210832
0.19800001 320075.05663944 12420.51315987
0.19900001 314574.05918402 13212.11111013
0.20000001 309134.82169868 11184.49837765
0.20100001 303761.54444254 10124.37275477
0.20200001 298450.25266843 11814.15381026
0.20300001 293203.85965224 13458.05779413
0.20400001 288020.83812151 12399.29766719
0.20500001 282900.68364820 10489.95784550
0.20600001 277844.38013302 10352.48209310
0.20700001 272850.67594555 11918.11808866
0.20800001 267919.83104544 9239.21581034
0.20900001 263054.00971830 10772.06220717
0.21000001 258248.33912298 9808.27238355
0.21100001 253505.22596790 9673.75988025
0.21200001 248824.48167710 8744.93682195
0.21300001 244205.26589062 8622.88834625
0.21400001 239648.56284481 10047.26647227
0.21500001 235153.90243689 10666.58151883
0.21600001 230719.04761682 10513.86749698
0.21700001 226345.58025506 8141.65090671
0.21800001 222033.16118933 10940.68453489
0.21900001 217779.60114053 7905.39989518
0.22000001 213585.92065658 8496.44832545
0.22100001 209454.45984046 7672.31722673
0.22200001 205380.95800407 8930.99138110
0.22300001 201366.59959831 7442.50987308
0.22400001 197409.48434649 6662.57041174
0.22500001 193513.59994290 8528.14475276
0.22600001 189674.12299360 8395.92545134
0.22700001 185893.27971593 8264.81560701
0.22800001 182168.97795052 9386.25703278
0.22900001 178501.38801547 7389.95781332
0.23000001 174890.68712730 9695.94015288
0.23100001 171337.42133066 7751.30530758
0.23200001 167838.21190645 6452.54036191
0.23300001 164395.56383748 5770.28456360
0.23400001 161008.05361262 7945.74782158
0.23500001 157673.54112929 6697.97234396
0.23600001 154394.48883582 6037.59677149
0.23700001 151168.89637889 5936.40284158
0.23800001 147996.71153807 5305.68235959
0.23900001 144877.43686365 7823.38196068
0.24000001 141810.55145688 8202.32268424
0.24100001 138796.80623471 5542.15673510
0.24200001 135834.10232705 6931.61456963
0.24300001 132922.57704581 5351.46320500
0.24400001 130061.20765750 5257.72456826
0.24500001 127250.52730182 5165.09914751
0.24600001 124489.64389823 4612.34152462
0.24700001 121779.16961334 4983.20385631
0.24800001 119116.41691641 5338.79805875
0.24900001 116501.94293028 6116.35229319
0.25000001 113936.11858315 5147.63408111
0.25100001 111417.18454227 5475.04070743
0.25200001 108946.60376083 5788.33333166
0.25300001 106522.38107535 4464.35320208
0.25400001 104143.56013074 4780.18963616
0.25500001 101810.44130492 4691.42535729
0.25600001 99523.08042189  4987.59941132
0.25700001 97279.95930637  4141.20806361
0.25800001 95081.26357832  4432.68871775
0.25900001 92926.29196171  3986.53811378
0.26000001 90815.39540329  4266.50747792
0.26100001 88745.08161704  4185.21824709
0.26200001 86719.36603255  5131.61872779
0.26300001 84734.33165262  4697.67156910
0.26400001 82790.42263272  3949.10334645
0.26500001 80888.19366727  3872.92689605
0.26600001 79025.57482461  4430.96419009
0.26700001 77203.70227707  4034.66567192
0.26800001 75421.29622327  3651.89933594
0.26900001 73677.12231487  3282.31595445
0.27000001 71972.15197763  4973.63579778
0.27100001 70304.88161206  3155.28323607
0.27200001 68675.39383155  3937.16051468
0.27300001 67082.56356047  4411.34958850
0.27400001 65525.20243548  3243.49767405
0.27500001 64006.20583590  3974.78557052
0.27600001 62520.70416874  3377.05599550
0.27700001 61071.88910027  2801.36768561
0.27800001 59656.97928112  2496.64470107
0.27900001 58276.61704022  4160.95065360
0.28000001 56929.74237905  2879.50650581
0.28100001 55616.06277723  2587.81552350
0.28200001 54335.52549127  3229.16043278
0.28300001 53087.36630642  3392.28286754
0.28400001 51871.15606535  2882.73963477
0.28500001 50686.54690307  2609.34355807
0.28600001 49532.22837291  2345.59878562
0.28700001 48408.89091899  2718.64344269
0.28800001 47314.95358485  2871.54466898
0.28900001 46252.15537161  2213.16573929
0.29000001 45217.13319707  2565.84634472
0.29100001 44212.30431015  2323.79882454
0.29200001 43234.74350032  1900.16706678
0.29300001 42285.25648009  2424.21386876
0.29400001 41363.05062314  2013.34658439
0.29500001 40468.99738680  2156.18828284
0.29600001 39600.29596984  2293.45124966
0.29700001 38757.55502737  1905.70907091
0.29800001 37941.35694367  1871.83693343
0.29900001 37150.17006372  2340.46082481
0.30000001 36383.86198215  1971.27773551
0.30100001 35642.73955321  1776.07779602
0.30200001 34924.72144043  1904.79439754
0.30300001 34230.63826495  1873.10061453
0.30400001 33560.61141967  1535.39804514
0.30500001 32912.39298825  1812.81469162
0.30600001 32286.78475321  1635.48715910
0.30700001 31683.65568663  2342.05593924
0.30800001 31102.01743715  1729.89429175
0.30900001 30541.69664403  1846.24564954
0.31000001 30003.11863992  1539.61010590
0.31100001 29483.28046858  1517.79935038
0.31200001 28984.76814156  1905.16890015
0.31300001 28505.39456964  2148.16663648
0.31400001 28046.96321325  1590.26288948
0.31500001 27606.55012127  1570.26064525
0.31600002 27184.85938431  1421.90413742
0.31700002 26781.07715931  1405.20318508
0.31800002 26395.70513707  1389.33800567
0.31900002 26028.15666452  1374.28673696
0.32000002 25677.63502928  1483.65382224
0.32100002 25344.45844411  1468.96488098
0.32200002 25027.79715359  1212.59682951
0.32300002 24726.68583549  1321.88868736
0.32400002 24441.88516887  1310.69615424
0.32500002 24172.26078664  1300.22596928
0.32600002 23918.35937113  1525.15425752
0.32700002 23679.32675506  1165.02293152
0.32800002 23455.32163484  1504.77623074
0.32900002 23244.51014876  1265.66363753
0.33000002 23049.28640361  1716.59568620
0.33100002 22865.32988654  1252.56283050
0.33200002 22697.20361195  1133.72537410
0.33300002 22540.68817464  1355.14623723
0.33400002 22397.89710333  1575.69213584
0.33500002 22266.94284705  1571.15556169
0.33600002 22148.07382194  1455.46074013
0.33700002 22040.41498224  1117.44909252
0.33800002 21945.74207383  1339.12924476
0.33900002 21861.13531292  1337.90154451
0.34000002 21788.17371811  1448.80468000
0.34100002 21725.76073520  1671.79736775
0.34200002 21674.74727969  1561.23212049
0.34300002 21632.45659749  1339.48177595
0.34400002 21601.21901778  1117.86313711
0.34500002 21578.97613284  1231.94380577
0.34600002 21567.43908515  1234.84378330
0.34700002 21562.90330163  1125.58360565
0.34800002 21569.00427324  1467.87865534
0.34900002 21583.20320752  1473.05368868
0.35000002 21605.92054613  1478.81730182
0.35100002 21636.95766557  1370.91770262
0.35200002 21675.10229706  1377.23606519
0.35300002 21721.32097916  1384.08263835
0.35400002 21775.53763220  1507.41166399
0.35500002 21836.64701568  1632.50780821
0.35600002 21904.28512387  2111.35414309
0.35700002 21978.86568358  1180.26514311
0.35800002 22060.59322002  1306.75930128
0.35900002 22148.08871857  1435.19621694
0.36000002 22242.55437661  1565.76468951
0.36100002 22342.04550608  1941.07700551
0.36200002 22448.45068164  1711.24547652
0.36300002 22558.60128844  1478.03962643
0.36400002 22674.82551540  1613.88078250
0.36500002 22795.74598635  1501.78381672
0.36600002 22922.12956564  1766.60860930
0.36700002 23052.78967921  1399.76545563
0.36800002 23189.39021106  1668.59265168
0.36900002 23329.31387724  1683.21007597
0.37000002 23472.52719846  2220.61854080
0.37100002 23620.05615270  1845.19887406
0.37200002 23771.96057550  1463.04538292
0.37300002 23926.87591431  1476.52758262
0.37400002 24086.26182160  1490.33752081
0.37500002 24247.71343833  1641.08532325
0.37600002 24413.40308099  1794.75141252
0.37700002 24580.77271760  1951.22183076
0.37800002 24751.84588649  1547.85675584
0.37900002 24925.42919731  1562.82448471
0.38000002 25101.41656322  1434.54602455
0.38100002 25279.31997661  1738.20612394
0.38200002 25459.59159056  1608.91896679
0.38300002 25641.65691228  1920.04736055
0.38400002 25826.23135354  1789.75791759
0.38500002 26011.54869033  2259.10311078
0.38600002 26199.49443933  1977.14494153
0.38700002 26387.90878873  1689.35400069
0.38800002 26577.50011909  2481.27552867
0.38900002 26768.48761322  1879.14791947
0.39000002 26961.19028266  1897.52866199
0.39100002 27153.79771217  1915.97205734
0.39200002 27347.88471234  1773.37366819
0.39300002 27542.18456320  2441.61477720
0.39400002 27737.79258151  1807.81071715
0.39500002 27932.96570873  2488.82736256
0.39600002 28128.41384810  1842.55183642
0.39700002 28323.67194314  2536.38494268
0.39800002 28520.21675856  2048.32206465
0.39900002 28715.75579318  2067.53451507
0.40000002 28911.00834247  2086.79668103
0.40100002 29105.91190929  2457.12119980
0.40200002 29301.68226682  2125.54413234
0.40300002 29495.73537988  1966.18581358
0.40400002 29689.37793753  2164.35575419
0.40500002 29882.38037476  2365.78816636
0.40600002 30074.91223917  2203.28817503
0.40700002 30266.19211838  2407.97835903
0.40800002 30457.06634082  2055.39521940
0.40900002 30645.95939137  2638.61722862
0.41000002 30834.59288743  1900.95274158
0.41100002 31021.74770378  2875.71614840
0.41200002 31206.90059952  2126.59434212
0.41300002 31391.30075524  2534.21983005
0.41400002 31573.86080918  2162.02022135
0.41500002 31755.60094512  2377.85951144
0.41600002 31934.41439382  2197.24748648
0.41700002 32112.42849622  2214.79429833
0.41800002 32289.50959988  2029.39577451
0.41900002 32462.70909696  2249.66584702
0.42000002 32634.80934277  2473.06596918
0.42100002 32805.57610026  2076.59306555
0.42200002 32974.08990809  2510.64732457
0.42300002 33140.00942523  2107.70469932
0.42400002 33303.82685901  2335.43096915
0.42500002 33465.81849449  2780.00567407
0.42600002 33624.20679533  2584.35665675
0.42700002 33781.68102264  3036.29763419
0.42800002 33936.16291927  2838.92984354
0.42900002 34088.82992678  3737.84037860
0.43000002 34238.94076764  2213.54762552
0.43100002 34385.07303786  2228.15283844
0.43200002 34529.63709152  3812.59006013
0.43300002 34671.27372722  2257.10002660
0.43400002 34810.55912980  2271.38909086
0.43500002 34946.49383485  2285.50080511
0.43600002 35080.91345099  2759.46478282
0.43700002 35211.41984908  2776.06847246
0.43800002 35338.47835218  3723.26225563
0.43900002 35463.74756800  3276.85043057
0.44000002 35585.31547311  3530.95309515
0.44100002 35704.62050732  2367.21645182
0.44200002 35820.60816934  3332.39133592
0.44300002 35933.96390692  3350.48295346
0.44400002 36043.73486278  2405.91941611
0.44500002 36149.55717608  3385.76768557
0.44600002 36253.24970156  2673.85855846
0.44700002 36354.07414657  3175.89206795
0.44800002 36450.44055050  2945.92474490
0.44900002 36545.20879233  3453.52239454
0.45000002 36636.49578068  2478.45905702
0.45100002 36723.17551779  3983.73026897
0.45200002 36807.69980280  3501.51664819
0.45300002 36888.28373965  2763.30146590
0.45400002 36966.27257648  2775.24304521
0.45500002 37040.87173497  4053.75319480
0.45600002 37111.88525071  2798.42183996
0.45700002 37179.50403964  3320.50166315
0.45800002 37243.31050433  2564.20204975
0.45900002 37304.12540874  2573.98477519
0.46000002 37362.23443332  3358.67822357
0.46100002 37415.69809962  2852.19880131
0.46200002 37466.80693028  2862.27685110
0.46300002 37513.98070645  4438.65440756
0.46400002 37557.45302242  2881.59571972
0.46500002 37598.44489413  2890.94456493
0.46600002 37635.11429450  3690.87583379
0.46700002 37668.53015143  2644.33094196
0.46800002 37699.20086529  3182.56668789
0.46900002 37725.83026622  3191.60539179
0.47000002 37748.54706808  3467.01546979
0.47100002 37768.46374493  2941.40809587
0.47200002 37784.79106401  2948.91415836
0.47300002 37798.32779605  3493.69960378
0.47400002 37806.96375678  2963.12092488
0.47500002 37813.51314766  2969.87346338
0.47600002 37816.88730349  3517.53793926
0.47700002 37815.67817067  2982.52267869
