# SAXS profile: number of points = 501, q_min = 0, q_max = 0.5, delta_q = 0.001
#    q    intensity    error
0.00000000 1700912.83420645 357.19169518
0.00100000 1700842.84646952 663.32872588
0.00200000 1700632.82096955 918.34175240
0.00300000 1700282.93043419 1122.18677406
0.00400000 1699793.04003967 1529.81379417
0.00500000 1699163.63560512 2140.94626560
0.00600000 1698394.40228753 1783.31419500
0.00700000 1697486.02402442 2036.98331349
0.00800000 1696437.98974551 2519.21052113
0.00900000 1695251.60952118 3051.45302758
0.01000000 1693926.03848447 3353.97370102
0.01100000 1692462.59066307 4874.29247333
0.01200000 1690860.66831881 3626.89629256
0.01300000 1689121.71923490 4611.30249689
0.01400000 1687244.93556801 4175.93140065
0.01500000 1685232.19531911 4853.46893864
0.01600000 1683082.23202438 4721.04587188
0.01700000 1680797.29887667 6353.41407476
0.01800000 1678376.86193937 5261.71169894
0.01900000 1675821.77091328 7541.19830939
0.02000000 1673132.55736376 6324.44135293
0.02100000 1670310.91963970 7165.63417013
0.02200000 1667355.15098808 6902.85063870
0.02300000 1664267.93547648 6590.50132448
0.02400000 1661049.36630625 6851.82894844
0.02500000 1657700.73521887 8404.54311140
0.02600000 1654222.17794376 7369.56013981
0.02700000 1650614.91967338 7625.84127816
0.02800000 1646878.65820737 10745.88373761
0.02900000 1643015.99897649 8132.92956835
0.03000000 1639027.30155493 8383.62503281
0.03100000 1634912.90754508 8632.34054904
0.03200000 1630673.68009739 12107.75263238
0.03300000 1626312.65237701 11611.87287328
0.03400000 1621827.65080865 8514.59555961
0.03500000 1617222.13846956 11352.89993631
0.03600000 1612495.78646434 9844.28723131
0.03700000 1607650.53599455 9163.60847896
0.03800000 1602687.58138830 10313.29506353
0.03900000 1597608.35797204 10544.21565092
0.04000000 1592411.78673341 12731.33282489
0.04100000 1587101.63823761 12998.36301986
0.04200000 1581678.27828138 16322.92058913
0.04300000 1576142.27661880 10402.53950855
0.04400000 1570496.64394034 19081.53511006
0.04500000 1564741.45922158 11876.38822733
0.04600000 1558877.02177309 13188.10021727
0.04700000 1552906.33153815 15653.29654991
0.04800000 1546830.00132417 14779.96135034
0.04900000 1540650.36277393 15021.34173625
0.05000000 1534367.24468582 16433.07395581
0.05100000 1527983.93266297 13110.10275297
0.05200000 1521498.76397504 14515.09888474
0.05300000 1514916.85357597 19633.32333761
0.05400000 1508236.92686909 19908.72836309
0.05500000 1501463.01874862 15134.74793501
0.05600000 1494593.13621227 16612.40348420
0.05700000 1487633.04098230 16825.13047888
0.05800000 1480580.89866015 17034.08403445
0.05900000 1473438.60383906 18565.32727548
0.06000000 1466209.28803766 13415.81561232
0.06100000 1458894.51059569 20351.57937387
0.06200000 1451494.53279176 19203.27356646
0.06300000 1444012.45149552 18021.27623725
0.06400000 1436446.93224556 21008.03736657
0.06500000 1428803.80936586 19803.22172416
0.06600000 1421080.98156161 19994.61034609
0.06700000 1413281.64334319 15857.02078040
0.06800000 1405408.93426107 21818.97472573
0.06900000 1397463.04470993 20542.70771902
0.07000000 1389443.98908202 16277.33709434
0.07100000 1381356.75102131 16410.51897077
0.07200000 1373199.86524845 18043.84707466
0.07300000 1364978.32945992 15151.26016693
0.07400000 1356691.81046140 18315.34029956
0.07500000 1348342.14944270 15371.10122413
0.07600000 1339929.83800733 17023.80938997
0.07700000 1331460.31297926 21809.32094921
0.07800000 1322931.96872368 17244.41902101
0.07900000 1314346.61888281 20503.80821628
0.08000000 1305708.70845241 17450.79770710
0.08100000 1297018.14224972 25525.31823708
0.08200000 1288275.41987849 17642.93270313
0.08300000 1279484.50393979 20957.95715813
0.08400000 1270645.25539527 16200.72776673
0.08500000 1261762.16323852 17904.40593688
0.08600000 1252834.16178506 22889.28121050
0.08700000 1243864.69265913 19702.81765692
0.08800000 1234853.10443153 23079.40560572
0.08900000 1225804.86041342 21512.87631071
0.09000000 1216719.08931797 21590.68125418
0.09100000 1207598.21598942 16664.85616359
0.09200000 1198443.54434141 20061.94587492
0.09300000 1189258.29581441 28506.52269025
0.09400000 1180040.90206863 23541.81710268
0.09500000 1170795.81393581 23603.24471836
0.09600000 1161523.59401017 16900.16908729
0.09700000 1152228.22003539 20325.30675697
0.09800000 1142909.76320407 18669.43185973
0.09900000 1133570.25266666 23804.97642537
0.10000000 1124209.45569310 22141.30627112
0.10100000 1114830.54929644 18762.59902710
0.10200000 1105435.69343376 18786.88049357
0.10300000 1096025.32881217 22227.39471390
0.10400000 1086602.74836968 27382.39054712
0.10500000 1077170.45036144 22265.11425653
0.10600001 1067724.91286742 29132.87561839
0.10700001 1058272.96139902 17144.02278142
0.10800001 1048813.22351209 22292.52611487
0.10900001 1039349.34812000 22294.04456646
0.11000001 1029881.70156412 20577.03736580
0.11100001 1020412.04555979 20571.50780686
0.11200001 1010942.77515944 23989.67318390
0.11300001 1001472.96046589 20550.22611628
0.11400001 992007.58850397 17112.13170741
0.11500001 982546.08405826 20515.56320117
0.11600001 973090.30106162 18785.50914663
0.11700001 963642.72231357 22173.42008469
0.11800001 954201.91238733 25548.75740747
0.11900001 944772.02008914 23808.25602765
0.12000001 935353.18049576 25464.99153852
0.12100001 925949.29143338 22028.33468091
0.12200001 916557.91897846 18601.54384201
0.12300001 907183.45978696 16873.61314703
0.12400001 897825.19848038 23567.91257057
0.12500001 888485.70339294 23509.33281955
0.12600001 879167.63492838 21772.58750500
0.12700001 869870.39883726 21711.96617818
0.12800001 860594.50974787 18317.75500329
0.12900001 851343.05720158 23241.66655703
0.13000001 842116.79812160 18202.35544936
0.13100001 832915.58588666 28035.93994249
0.13200001 823743.71252338 18077.05662348
0.13300001 814601.14666015 21285.52896569
0.13400001 805487.11303593 21204.44925037
0.13500001 796405.17315425 19495.99955802
0.13600001 787354.55644519 29124.24641614
0.13700001 778338.56640216 24167.41362636
0.13800001 769355.47625946 20853.38116737
0.13900001 760410.32326169 15968.61754155
0.14000001 751500.67336443 19073.08798949
0.14100001 742629.38540245 20563.40865162
0.14200001 733795.72098697 22035.88654057
0.14300001 725004.90850633 20358.13879110
0.14400001 716250.53800926 18694.13992384
0.14500001 707541.82785449 18594.20011314
0.14600001 698873.85673635 16951.18619480
0.14700001 690252.13892425 36776.63569688
0.14800001 681672.85173131 24376.62232797
0.14900001 673138.79430488 16660.18594509
0.15000001 664652.04736119 15054.36958304
0.15100001 656212.32617360 16457.80591699
0.15200001 647822.00566900 16354.26730482
0.15300001 639480.14925430 16249.19135934
0.15400001 631185.92827307 14675.07352488
0.15500001 622944.43898243 23323.04089619
0.15600001 614752.35446765 17372.90235717
0.15700001 606615.21146742 20127.49366644
0.15800001 598526.42005161 17129.82695038
0.15900001 590494.14951714 19840.60436026
0.16000001 582513.41639772 15474.46963704
0.16100001 574590.53025966 16755.06065328
0.16200001 566720.39333667 15241.94569830
0.16300001 558907.73246224 16498.95704117
0.16400001 551150.80448195 17733.27797139
0.16500001 543451.06564849 21651.09147761
0.16600001 535808.50270499 17448.60471439
0.16700001 528223.83654346 18635.73783313
0.16800001 520696.66942517 15839.59343180
0.16900001 513230.72835026 13087.38419089
0.17000001 505823.12518799 16866.67290583
0.17100001 498475.72891326 14146.74185459
0.17200001 491188.38732608 17844.87495424
0.17300001 483961.72744626 16420.82218772
0.17400001 476797.52765929 15019.12283056
0.17500001 469693.63771212 14879.89514546
0.17600001 462650.14698430 13511.69818082
0.17700001 455670.97648633 13383.05721149
0.17800001 448753.39081992 14458.83493514
0.17900001 441898.13421382 14317.50022479
0.18000001 435106.55992912 12994.45802608
0.18100001 428379.40595338 11694.75833495
0.18200001 421712.52109271 12733.61017590
0.18300001 415112.37160347 13748.52239698
0.18400001 408574.17310899 13605.52060726
0.18500001 402101.19802073 17949.79832763
0.18600001 395692.13961954 15538.83105697
0.18700001 389347.05168760 13175.50485158
0.18800001 383065.48186700 11945.89761642
0.18900001 376850.91681123 11814.27680023
0.19000001 370696.80574659 16992.74237831
0.19100001 364612.29937704 11550.91819005
0.19200001 358589.21026450 11419.27394045
0.19300001 352633.21797357 14366.27797909
0.19400001 346740.96406129 11156.39104585
0.19500001 340913.91736249 13029.73053732
0.19600001 335150.73789717 9903.70477287
0.19700001 329452.96764200 13698.65504192
0.19800001 323820.00654603 12565.83594786
0.19900001 318252.85343729 12411.86187064
0.20000001 312748.06424560 11315.22549918
0.20100001 307309.98060664 10242.64213771
0.20200001 301934.91990247 10113.31062012
0.20300001 296625.13869403 9076.72967305
0.20400001 291379.60516263 10751.90793870
0.20500001 286197.70410484 14149.61515975
0.20600001 281080.08746589 10473.04455402
0.20700001 276026.17794463 14640.42917022
0.20800001 271035.51672542 10196.35662119
0.20900001 266110.80372691 8382.49071365
0.21000001 261247.04183138 10749.01004428
0.21100001 256446.62210053 9786.00356197
0.21200001 251708.94752779 8846.31137907
0.21300001 247033.65720195 9515.73692528
0.21400001 242421.94440993 8599.91888452
0.21500001 237872.78624917 11560.61795827
0.21600001 233383.89532260 9875.63999748
0.21700001 228957.70347573 8235.60898340
0.21800001 224592.63431640 7377.86838612
0.21900001 220287.50485329 9450.33440503
0.22000001 216043.08878094 7878.01160489
0.22100001 211861.63670316 8465.99140296
0.22200001 207738.84913548 6948.86483216
0.22300001 203675.83699157 8212.21013582
0.22400001 199670.71805430 9434.44187419
0.22500001 195727.59380018 7962.19889230
0.22600001 191841.79998176 8491.87767776
0.22700001 188015.18412677 7716.14352145
0.22800001 184245.98797841 10126.15997816
0.22900001 180534.03318728 8096.95177136
0.23000001 176879.83941135 6128.88672545
0.23100001 173283.74806249 9648.43954842
0.23200001 169742.38861536 7118.99611521
0.23300001 166258.35214433 6419.23527989
0.23400001 162830.32700827 5739.76929851
0.23500001 159455.82529703 7338.15742724
0.23600001 156137.45110778 8326.02997412
0.23700001 152873.27750322 6003.33389150
0.23800001 149663.32695837 5365.43052524
0.23900001 146506.94646414 7383.95045105
0.24000001 143403.72611296 6220.85393303
0.24100001 140354.07141585 9170.73546010
0.24200001 137356.34764995 6007.96693040
0.24300001 134410.41662376 5903.30577736
0.24400001 131515.33930404 6283.14563247
0.24500001 128671.77732453 5222.78768866
0.24600001 125878.43748540 5130.17596240
0.24700001 123136.36688700 6871.00959733
0.24800001 120442.56341807 5848.08894342
0.24900001 117797.87128013 5742.64649658
0.25000001 115202.29663154 7373.52334473
0.25100001 112654.39935803 4684.17014691
0.25200001 110155.39604709 5852.55646886
0.25300001 107703.40038612 4103.49974885
0.25400001 105297.56342297 4833.15838978
0.25500001 102938.00832101 4348.10167720
0.25600001 100624.86885453 3879.08887787
0.25700001 98356.70679972  4948.32615322
0.25800001 96133.25687818  4108.25492707
0.25900001 93954.43650543  4397.06783650
0.26000001 91820.00560707  4313.70406753
0.26100001 89726.87295014  5289.39941069
0.26200001 87679.16190935  4842.52034139
0.26300001 85672.61708485  3392.63579709
0.26400001 83707.74252546  4658.33609197
0.26500001 81785.12262258  4568.51716587
0.26600001 79902.66868761  5440.17345502
0.26700001 78061.64537567  4393.30960964
0.26800001 76260.50980975  4307.95640301
0.26900001 74498.32103305  3017.18214462
0.27000001 72775.66105360  3549.99691419
0.27100001 71091.47695031  3480.63887620
0.27200001 69445.63046388  3128.17857228
0.27300001 67836.77205524  3066.90060976
0.27400001 66264.05105530  2733.39223539
0.27500001 64730.13778274  4019.74174654
0.27600001 63230.33459390  3415.38668473
0.27700001 61767.61227462  3090.85146450
0.27800001 60339.46345399  2777.72733157
0.27900001 58946.16688132  3218.46086404
0.28000001 57587.04793236  2912.75302227
0.28100001 56261.40872982  2379.85770191
0.28200001 54969.44673175  2800.14374904
0.28300001 53710.40944612  3203.28897098
0.28400001 52483.64513412  3141.14630995
0.28500001 51289.13723065  2420.33450047
0.28600001 50125.20522224  2805.25724304
0.28700001 48992.79100244  2751.43527293
0.28800001 47890.18509562  2283.64358438
0.28900001 46819.23884616  2851.29178069
0.29000001 45776.44817141  2397.77046872
0.29100001 44764.07663149  2548.86664405
0.29200001 43779.73523138  1924.11945450
0.29300001 42823.63050888  1888.52219484
0.29400001 41895.27408558  2039.25256265
0.29500001 40995.32091677  2548.26926881
0.29600001 40121.23737904  2144.88145182
0.29700001 39273.51621186  2106.63150933
0.29800001 38452.69341863  1897.06371961
0.29900001 37657.17736167  2372.40228609
0.30000001 36886.84712090  2331.61771689
0.30100001 36142.22868244  1800.96734050
0.30200001 35420.98075238  2575.81384225
0.30300001 34724.03826803  1583.41621998
0.30400001 34051.50697735  1557.85651797
0.30500001 33400.87570123  2299.65040090
0.30600001 32773.29525006  3018.42063543
0.30700001 32168.66900103  1634.81183603
0.30800001 31585.73950134  1463.99909520
0.30900001 31024.32849684  2163.94701510
0.31000001 30484.94908788  1848.75982496
0.31100001 29964.70619203  1963.28764265
0.31200001 29466.01427570  2213.48709719
0.31300001 28986.74078441  1911.38577782
0.31400001 28528.72677235  1617.57888458
0.31500001 28088.78282191  1863.97171632
0.31600002 27668.03967160  1578.73841841
0.31700002 27265.37459627  1690.72595877
0.31800002 26881.33922563  2058.03542856
0.31900002 26515.28503570  1400.00711617
0.32000002 26166.59316805  1385.91367277
0.32100002 25835.37413369  1372.63349272
0.32200002 25520.90453616  1854.73182499
0.32300002 25222.15399777  1348.37641657
0.32400002 24940.01059176  1458.99068870
0.32500002 24673.20218123  1568.47553693
0.32600002 24422.21736453  1916.65570953
0.32700002 24186.31408834  1427.96005139
0.32800002 23965.69408653  2247.14341243
0.32900002 23758.34503168  1411.24576171
0.33000002 23566.78909583  1638.12758762
0.33100002 23386.60854094  1397.58379259
0.33200002 23222.47275111  1275.95882573
0.33300002 23069.98186468  1618.12860462
0.33400002 22931.37509258  1152.30165297
0.33500002 22804.77357079  1149.36064240
0.33600002 22690.28833176  2523.38708487
0.33700002 22587.34479923  1259.69627911
0.33800002 22497.32280674  1258.38781079
0.33900002 22417.60138079  1143.29772456
0.34000002 22349.43762117  1143.17378846
0.34100002 22292.01616513  2058.44487017
0.34200002 22246.10644349  1259.01845380
0.34300002 22208.98663196  1260.58214093
0.34400002 22183.03508234  2066.34981578
0.34500002 22165.98603209  1265.45620250
0.34600002 22159.92400036  1730.13614827
0.34700002 22160.81357972  1156.79452365
0.34800002 22172.40493315  1276.79799855
0.34900002 22192.12643147  1514.61270068
0.35000002 22220.46767870  1637.87075017
0.35100002 22257.08331119  1292.69145994
0.35200002 22300.81002459  1298.91074140
0.35300002 22352.86735137  1186.93731258
0.35400002 22412.73492850  1551.52164891
0.35500002 22479.53074636  1320.44769858
0.35600002 22552.91322392  1449.25027241
0.35700002 22633.24980155  1823.10835787
0.35800002 22720.79964341  1835.27267812
0.35900002 22814.08392934  1355.15664959
0.36000002 22914.27070063  1488.96938065
0.36100002 23019.53896418  1499.95322995
0.36200002 23131.69970030  1511.42533001
0.36300002 23247.58437865  1396.24998392
0.36400002 23369.55269327  1535.37968467
0.36500002 23496.13689044  1418.93177403
0.36600002 23628.21034984  1430.80634551
0.36700002 23764.53188702  2098.88355568
0.36800002 23906.72036540  1720.20814538
0.36900002 24052.13255017  1735.36144570
0.37000002 24200.86198049  1750.81144291
0.37100002 24353.87691413  1358.94639618
0.37200002 24511.15978604  1508.53940049
0.37300002 24671.43105247  1384.06734761
0.37400002 24836.12817342  1676.43873112
0.37500002 25002.78831673  1692.18879344
0.37600002 25173.63862273  1992.99706417
0.37700002 25346.14144653  2011.97680334
0.37800002 25522.20735729  2176.40633549
0.37900002 25700.70430824  1904.42227946
0.38000002 25881.62901097  1922.87571846
0.38100002 26064.22727058  1493.48029335
0.38200002 26249.29191687  1658.82408127
0.38300002 26435.95110779  2740.87954070
0.38400002 26625.04678169  2152.63513428
0.38500002 26814.87787419  2328.87225370
0.38600002 27007.05327248  2351.63927511
0.38700002 27199.67978459  2216.23001384
0.38800002 27393.43109672  1598.40678022
0.38900002 27588.46490565  2420.88791016
0.39000002 27785.07340199  2444.39194835
0.39100002 27981.48670163  1809.84264561
0.39200002 28179.40979137  1993.41154308
0.39300002 28377.18906232  1844.80114834
0.39400002 28576.37943942  1862.46561820
0.39500002 28774.80675531  2221.99068292
0.39600002 28973.54978524  2415.52496004
0.39700002 29171.93540614  1915.72108888
0.39800002 29371.51424353  2461.03929507
0.39900002 29569.93781221  1951.61598807
0.40000002 29767.88230930  1790.53820574
0.40100002 29965.47135524  2348.99341083
0.40200002 30163.67050924  2188.07276241
0.40300002 30360.00188428  1839.81620136
0.40400002 30555.96318405  2598.78479193
0.40500002 30751.11088582  2247.29129001
0.40600002 30945.63929354  2456.00077890
0.40700002 31138.78894758  2858.54096083
0.40800002 31331.15457597  1922.16642431
0.40900002 31521.62019917  2326.29568092
0.41000002 31711.73305416  2737.03980959
0.41100002 31900.13790462  2168.57147751
0.41200002 32086.39151260  2385.30245807
0.41300002 32271.75185484  3206.52141623
0.41400002 32455.17347939  2222.36810930
0.41500002 32637.50727909  2240.23860579
0.41600002 32816.97841918  3489.59356555
0.41700002 32995.40523216  2482.57440730
0.41800002 33172.69896414  2293.39465156
0.41900002 33346.01687775  2731.03891170
0.42000002 33518.08367257  2751.66720949
0.42100002 33688.59325907  2132.48805435
0.42200002 33856.77947255  2792.67658712
0.42300002 34022.24958467  2380.19669373
0.42400002 34185.41516865  2397.25235230
0.42500002 34346.64958107  2414.22611345
0.42600002 34504.04561578  2430.98264906
0.42700002 34660.41707372  2225.19888158
0.42800002 34813.68556793  2464.28684970
0.42900002 34964.85526115  2706.27992546
0.43000002 35113.47584063  2497.09495274
0.43100002 35258.01095496  4112.49459267
0.43200002 35400.68260446  3218.98422176
0.43300002 35540.25214276  3470.50578620
0.43400002 35677.45313797  3724.72628411
0.43500002 35811.10518630  2576.25102919
0.43600002 35943.09486570  2827.28397612
0.43700002 36071.05450569  2369.86839333
0.43800002 36195.34109590  3813.54131859
0.43900002 36317.75094954  3595.45751439
0.44000002 36436.29906320  2651.28742698
0.44100002 36552.40600916  4362.16433986
0.44200002 36665.17179103  2680.04085907
0.44300002 36775.07945943  3183.98653049
0.44400002 36881.19183374  2461.81967157
0.44500002 36983.31230874  3463.85719499
0.44600002 37083.07664539  2983.70448829
0.44700002 37179.88607630  3248.03500155
0.44800002 37272.03116399  2510.27141786
0.44900002 37362.53949524  3782.95730317
0.45000002 37449.42403144  4560.21658043
0.45100002 37531.55929573  3053.56780902
0.45200002 37611.32519727  5111.37933655
0.45300002 37687.02877904  2566.48678149
0.45400002 37760.16058859  2834.84419054
0.45500002 37829.54727003  4140.06584944
0.45600002 37895.36372674  2597.72730658
0.45700002 37957.63704359  3389.99672503
0.45800002 38015.88487160  3402.61193670
0.45900002 38071.05657761  3940.35454253
0.46000002 38123.43663376  2636.23576817
0.46100002 38171.00915910  3174.30127212
0.46200002 38216.12581980  2654.11006398
0.46300002 38257.24049051  3727.78569007
0.46400002 38294.43820776  2671.03719159
0.46500002 38329.14113510  4018.81063849
0.46600002 38359.31016045  3224.48376491
0.46700002 38386.12101443  3503.11756981
0.46800002 38410.15525623  3783.01637049
0.46900002 38429.90372306  3522.10084315
0.47000002 38445.70968265  3259.42742138
0.47100002 38458.59615681  3539.72935804
0.47200002 38467.74391046  3002.21521579
0.47300002 38474.16071576  3009.06425220
0.47400002 38475.40495698  3289.64727974
0.47500002 38474.52006722  4120.62129451
0.47600002 38470.37404484  3578.32201139
0.47700002 38461.46749886  4412.29976060
