# SAXS profile: number of points = 501, q_min = 0, q_max = 0.5, delta_q = 0.001
#    q    intensity    error
0.00000000 1700912.83420644 331.67800267
0.00100000 1700842.87354074 663.32873643
0.00200000 1700632.93342620 1377.51271969
0.00300000 1700283.18256598 1326.22092965
0.00400000 1699793.49293528 1657.29871859
0.00500000 1699164.33632632 2140.94714851
0.00600000 1698395.42730427 2496.64137978
0.00700000 1697487.41331711 2648.08047483
0.00800000 1696439.81065971 2977.25199341
0.00900000 1695253.88657986 3051.45712629
0.01000000 1693928.88224173 3633.47760930
0.01100000 1692465.99448930 3655.72670726
0.01200000 1690864.74157716 4286.34230783
0.01300000 1689126.50285577 3901.88239369
0.01400000 1687250.48526582 5314.83926420
0.01500000 1685238.54298991 4853.48721993
0.01600000 1683089.45664524 5150.25396757
0.01700000 1680805.43675030 5445.80985936
0.01800000 1678386.00377770 6218.42042381
0.01900000 1675831.95746414 6032.99531910
0.02000000 1673143.80867118 7378.56453001
0.02100000 1670323.34949305 6614.48076388
0.02200000 1667368.75274531 8628.63368748
0.02300000 1664282.79723525 9586.26934843
0.02400000 1661065.51873769 7474.79517515
0.02500000 1657718.22455380 7111.61150813
0.02600000 1654241.05252569 8709.57953991
0.02700000 1650635.27045423 9012.46898946
0.02800000 1646900.48264475 9313.22265646
0.02900000 1643039.50265771 10351.14934201
0.03000000 1639052.40257004 8383.75342451
0.03100000 1634939.71093334 10202.02426565
0.03200000 1630702.11960359 9686.37103658
0.03300000 1626342.86003782 10782.65365914
0.03400000 1621859.67501060 9366.24005535
0.03500000 1617256.10166007 12226.45669314
0.03600000 1612531.61211713 10739.46103301
0.03700000 1607688.29646637 11912.97082776
0.03800000 1602727.39766369 9375.95571025
0.03900000 1597650.21526679 11503.08208263
0.04000000 1592455.81882937 9793.60373963
0.04100000 1587147.75190222 13998.64382085
0.04200000 1581726.65850300 10202.13742065
0.04300000 1576192.91540530 15604.31058683
0.04400000 1570549.49823509 19082.17728977
0.04500000 1564796.62125405 10797.09718834
0.04600000 1558934.63389711 13188.58761587
0.04700000 1552966.28507772 15653.90088161
0.04800000 1546892.43485960 11369.65992523
0.04900000 1540715.28639758 15021.97474161
0.05000000 1534434.75097899 12912.26903076
0.05100000 1528054.02099217 14302.58630276
0.05200000 1521571.37011598 12096.49295613
0.05300000 1514992.23706102 15952.86899994
0.05400000 1508315.04561627 14932.31964795
0.05500000 1501543.77834684 15135.56199180
0.05600000 1494676.76943640 14057.43567253
0.05700000 1487719.43993131 18120.42362420
0.05800000 1480670.16556934 15724.71789257
0.05900000 1473530.73921380 14587.95499956
0.06000000 1466304.44037271 20125.02938433
0.06100000 1458992.59944326 18996.08453246
0.06200000 1451595.46896783 20576.36673443
0.06300000 1444116.59058814 19408.92788497
0.06400000 1436554.04012414 15407.04280087
0.06500000 1428913.98706268 22633.99861384
0.06600000 1421194.29817445 15711.30370143
0.06700000 1413398.10619861 18741.65976528
0.06800000 1405528.54099628 17456.66529630
0.06900000 1397585.75955328 14674.65116236
0.07000000 1389570.01173644 16278.81344980
0.07100000 1381485.96583915 17904.05895586
0.07200000 1373332.43574461 22556.98631383
0.07300000 1365114.28364738 18183.32311017
0.07400000 1356831.04899343 15264.35001653
0.07500000 1348484.64919645 16909.99829354
0.07600000 1340075.80076161 17025.66384685
0.07700000 1331609.60475457 20253.78303799
0.07800000 1323084.68478315 18814.26509993
0.07900000 1314502.79827155 17351.43775103
0.08000000 1305868.36178482 17452.93147399
0.08100000 1297181.31595260 17550.86402829
0.08200000 1288442.02830542 19249.32480616
0.08300000 1279654.55451418 19348.37777231
0.08400000 1270818.80566292 22684.11674585
0.08500000 1261939.20958584 19534.81988145
0.08600000 1253014.83451765 21257.39766566
0.08700000 1244048.99396466 19705.73698974
0.08800000 1235040.83454865 19785.35509866
0.08900000 1225996.22306341 23171.32970425
0.09000000 1216914.18983565 19933.05536587
0.09100000 1207796.69365087 21667.87370208
0.09200000 1198645.60752356 23409.54981487
0.09300000 1189464.07362004 23480.02191664
0.09400000 1180250.22348975 20182.27977019
0.09500000 1171008.87312842 21921.28713532
0.09600000 1161740.17835325 18593.65242859
0.09700000 1152448.51760918 20329.19280636
0.09800000 1143133.58006285 22068.19480071
0.09900000 1133797.74071688 18707.66360151
0.10000000 1124440.54626652 18738.80258476
0.10100000 1115065.28621752 25590.74952227
0.10200000 1105674.12876122 20499.19931144
0.10300000 1096267.37655977 22232.30344246
0.10400000 1086848.39616087 22253.22195830
0.10500000 1077419.66521710 22270.26552784
0.10600001 1067977.78376219 22283.35750671
0.10700001 1058529.50290650 18862.99662944
0.10800001 1049073.24722875 18867.58323935
0.10900001 1039612.84420642 20584.33528410
0.11000001 1030148.93523797 17151.98057905
0.11100001 1020682.72226086 18862.21759529
0.11200001 1011217.13706815 18854.14440823
0.11300001 1001750.72454561 20555.92583547
0.11400001 992288.97559620 23963.77988897
0.11500001 982830.82419436 17101.25714625
0.11600001 973378.56465622 18791.07407559
0.11700001 963934.43868015 27298.62458905
0.11800001 954497.24543232 30667.99794015
0.11900001 945070.56494515 18712.39806730
0.12000001 935655.28876009 27171.43086550
0.12100001 926254.52659637 25425.68795283
0.12200001 916866.57803574 16916.18916170
0.12300001 907495.63555591 21943.24550158
0.12400001 898140.62738229 18524.15131257
0.12500001 888804.46190184 18478.24563364
0.12600001 879489.61357120 23455.98909927
0.12700001 870195.73399135 21720.08654401
0.12800001 860923.09482773 23322.40773805
0.12900001 851674.75917430 21589.95616265
0.13000001 842451.71050800 23175.84764847
0.13100001 833253.63247440 19798.10724083
0.13200001 824084.59171604 19728.58605569
0.13300001 814945.25766818 22932.56063189
0.13400001 805834.27768933 16318.14489254
0.13500001 796755.20404602 22755.32970043
0.13600001 787707.54038717 19424.86886184
0.13700001 778694.50515700 17730.87471849
0.13800001 769714.33657219 19258.25360917
0.13900001 760771.94717082 15976.21164400
0.14000001 751865.23080583 17492.14541964
0.14100001 742996.62483320 18990.99462641
0.14200001 734165.67794798 22046.99634863
0.14300001 725377.51499235 17234.97056915
0.14400001 716625.80792877 24938.57929227
0.14500001 707919.59916294 15503.43995300
0.14600001 699254.15600312 18502.26584067
0.14700001 690635.05717966 19931.72869051
0.14800001 682058.11885241 28963.59938353
0.14900001 673526.47904856 18185.21579230
0.15000001 665042.26252480 18075.84954829
0.15100001 656604.79881885 17964.70814335
0.15200001 648216.47172023 16364.22560076
0.15300001 639876.91683882 20693.62046708
0.15400001 631584.83136381 17621.21762661
0.15500001 623345.54713428 14586.28649131
0.15600001 615155.33211130 14486.90875493
0.15700001 607020.34012930 23018.21238409
0.15800001 598933.57458046 21426.84964194
0.15900001 590903.08465359 17018.00964128
0.16000001 582924.09364236 21116.42628894
0.16100001 575003.06065425 16767.09004016
0.16200001 567134.59479734 15253.08564711
0.16300001 559323.48021324 19263.10156791
0.16400001 551568.02755025 13651.30932634
0.16500001 543870.12646395 13542.36678831
0.16600001 536228.94026250 17462.29626410
0.16700001 528645.51263826 14654.05430222
0.16800001 521119.85802922 15852.46682975
0.16900001 513655.15307248 17027.66912837
0.17000001 506248.72253455 18179.39248464
0.17100001 498902.51778059 12871.68556656
0.17200001 491616.11063600 20411.90187752
0.17300001 484390.43988106 12642.59107794
0.17400001 477227.38184535 17538.10711107
0.17500001 470124.31873123 13652.41086073
0.17600001 463081.69253760 15983.26537281
0.17700001 456103.26798234 14613.54939636
0.17800001 449186.26991365 14472.78230020
0.17900001 442331.59190237 15525.83960911
0.18000001 435540.67184844 15372.40873901
0.18100001 428814.03289408 12877.28601609
0.18200001 422147.54908367 16223.13107763
0.18300001 415547.64408258 14909.85017401
0.18400001 409009.78389903 17025.03305907
0.18500001 402537.10133377 12353.86422356
0.18600001 396128.10479670 13333.67263739
0.18700001 389782.86940275 13190.25292376
0.18800001 383501.52835859 11959.49572690
0.18900001 377286.78235441 16129.01070771
0.19000001 371132.55516942 12759.53784960
0.19100001 365047.86272698 14718.73052061
0.19200001 359024.26846736 14551.25428855
0.19300001 353067.96301793 13356.56167210
0.19400001 347175.24358124 14216.82689645
0.19500001 341347.77971239 11039.18771756
0.19600001 335583.90127042 9916.50475116
0.19700001 329885.36820052 10777.35548842
0.19800001 324251.82004458 13550.48420004
0.19900001 318683.83426649 12428.67012377
0.20000001 313178.11963067 13219.24905437
0.20100001 307739.14000997 12121.84529790
0.20200001 302362.89424754 12889.73079099
0.20300001 297052.16530462 11816.73569433
0.20400001 291805.35968335 10767.61828126
0.20500001 286622.18739800 8856.62600922
0.20600001 281503.25809199 8740.67657691
0.20700001 276447.81709475 9487.68953117
0.20800001 271455.78917508 10212.16727150
0.20900001 266529.41121718 8395.67685022
0.21000001 261663.99687954 10766.16566055
0.21100001 256861.83569260 10618.66878951
0.21200001 252122.39493711 8860.84198896
0.21300001 247445.27882968 12708.79012151
0.21400001 242831.55079905 8614.44967186
0.21500001 238280.34462013 10808.39694296
0.21600001 233789.48816946 9892.80265961
0.21700001 229360.89384034 9000.12189982
0.21800001 224993.89301998 7391.04973516
0.21900001 220686.41017245 8739.18225603
0.22000001 216439.54105702 13632.44513805
0.22100001 212255.71501985 7068.11564437
0.22200001 208130.21356292 9050.54276473
0.22300001 204064.62662688 8913.54331254
0.22400001 200056.79908810 6751.91728850
0.22500001 196111.01289843 8642.61274712
0.22600001 192222.31308760 7199.68707716
0.22700001 188392.89624701 7087.34109197
0.22800001 184620.71032093 9512.58254914
0.22900001 180905.74930941 6865.37351096
0.23000001 177248.38415461 7984.15384183
0.23100001 173649.32517934 8460.19552284
0.23200001 170104.62282773 8917.73527350
0.23300001 166617.34557811 6433.09601702
0.23400001 163185.83605546 6902.76119161
0.23500001 159807.90458402 7920.08012577
0.23600001 156486.11388105 7788.31425622
0.23700001 153218.25721100 7110.85965349
0.23800001 150004.79390241 5915.43932733
0.23900001 146844.63368620 6872.32918157
0.24000001 143737.57623668 5196.11362673
0.24100001 140684.15834594 5617.51870847
0.24200001 137682.50603104 5520.38034044
0.24300001 134732.63841004 5424.33627897
0.24400001 131833.61391984 8720.79397332
0.24500001 128985.95033343 5235.53997170
0.24600001 126188.53182441 5142.81385779
0.24700001 123442.19711661 5051.25494497
0.24800001 120744.24018520 4960.77734269
0.24900001 118095.13230798 5757.13797237
0.25000001 115495.25273344 6087.75505958
0.25100001 112942.97410594 4696.16908550
0.25200001 110439.50821663 4610.29748861
0.25300001 107982.94778938 5348.39565704
0.25400001 105572.49885811 4441.96309961
0.25500001 103208.33321165 5944.80027425
0.25600001 100890.53408824 4667.19632774
0.25700001 98617.46760522  5343.09464765
0.25800001 96389.46523046  4119.20399152
0.25900001 94205.66211780  4408.82519572
0.26000001 92066.39238813  3964.83937579
0.26100001 89968.42528978  3889.33520931
0.26200001 87915.69984691  5202.41178460
0.26300001 85904.18444527  3401.80586500
0.26400001 83934.16296571  3670.02144933
0.26500001 82006.48690994  3599.26488079
0.26600001 80118.97188337  4492.27096607
0.26700001 78272.63022579  3146.55988397
0.26800001 76466.39914386  4011.04515690
0.26900001 74698.83188245  3327.83311784
0.27000001 72970.85871333  4152.77176589
0.27100001 71281.35318963  3780.76315209
0.27200001 69630.11703009  3706.75945551
0.27300001 68015.91609996  3074.99971240
0.27400001 66437.66778876  3836.77549638
0.27500001 64898.39104852  2686.79351656
0.27600001 63393.13071471  3160.78164702
0.27700001 61924.83178231  3873.39841130
0.27800001 60491.05237475  3037.86079403
0.27900001 59092.15672046  2978.24483967
0.28000001 57727.38095016  3163.17198887
0.28100001 56396.16013460  2624.11345526
0.28200001 55098.62782987  2806.72423449
0.28300001 53833.80082351  4127.97604252
0.28400001 52601.46720290  2473.58411229
0.28500001 51401.12315075  2205.10828754
0.28600001 50231.54737624  2594.96186028
0.28700001 49093.24262956  2969.15945477
0.28800001 47984.92137973  4160.29288054
0.28900001 46908.24085761  2040.50857389
0.29000001 45859.59073462  2201.94835335
0.29100001 44841.44101399  2356.86625126
0.29200001 43851.22910296  2698.16625442
0.29300001 42889.29028323  2458.84312833
0.29400001 41955.08797707  1856.51273087
0.29500001 41049.26143587  2004.84602343
0.29600001 40169.44550610  2863.27821122
0.29700001 39315.82070246  1933.15899545
0.29800001 38488.97089911  2761.96868247
0.29900001 37687.67882526  2374.32387839
0.30000001 36911.54645982  1666.55640156
0.30100001 36161.06357257  2129.52513460
0.30200001 35433.96107630  2093.61568931
0.30300001 34731.07237344  1583.73697520
0.30400001 34052.64871983  2181.07225376
0.30500001 33396.22195129  1686.17532615
0.30600001 32762.79048043  1961.34454497
0.30700001 32152.24437641  2079.60726472
0.30800001 31563.47936559  1755.56080543
0.30900001 30996.31837714  1585.46176005
0.31000001 30451.09048788  1562.59778237
0.31100001 29925.05494183  1960.68969262
0.31200001 29420.55705994  1795.68378517
0.31300001 28935.57208250  1635.43861153
0.31400001 28471.77615523  1614.34978444
0.31500001 28026.11146359  1726.96907015
0.31600002 27599.63533794  1706.07153919
0.31700002 27191.14189357  1426.71928271
0.31800002 26801.48630393  1795.43165251
0.31900002 26429.78348666  1776.08153440
0.32000002 26075.48287536  2385.51566381
0.32100002 25738.67007683  1616.13117065
0.32200002 25418.60666409  1600.99101655
0.32300002 25114.26645183  1586.71942956
0.32400002 24826.61776795  1815.44651024
0.32500002 24554.29514146  1320.77559820
0.32600002 24297.92232342  1191.81314640
0.32700002 24056.52108468  1657.01325078
0.32800002 23830.49403178  1646.44891062
0.32900002 23617.76637935  1519.80333848
0.33000002 23420.94325587  1162.84988772
0.33100002 23235.43575135  1504.26218178
0.33200002 23066.04824805  1267.36408100
0.33300002 22908.37524519  1377.25158496
0.33400002 22764.58515744  1258.31250417
0.33500002 22632.81611236  1596.97158051
0.33600002 22513.37143355  2048.49176375
0.33700002 22405.22729137  1249.53958521
0.33800002 22310.20832480  1588.26380586
0.33900002 22225.57980080  1246.85508587
0.34000002 22152.41412996  1246.40564005
0.34100002 22090.21455746  1359.87367256
0.34200002 22039.51627431  1474.11311582
0.34300002 21997.57014527  1135.07467325
0.34400002 21966.88147726  1250.46478731
0.34500002 21945.22982110  1594.54047432
0.34600002 21934.49654549  1370.02871912
0.34700002 21930.81706133  1259.26757530
0.34800002 21937.86851808  1378.13696558
0.34900002 21953.16883616  1383.04970218
0.35000002 21977.13250907  1388.51529769
0.35100002 22009.41748097  1743.14594705
0.35200002 22048.86620213  1517.73377691
0.35300002 22096.60287646  1642.66153564
0.35400002 22152.37964861  1533.49855381
0.35500002 22215.08714678  1186.28570983
0.35600002 22284.46745780  1670.66660444
0.35700002 22360.81691423  1561.00870272
0.35800002 22444.42308464  1571.22191246
0.35900002 22533.84143500  1216.82749513
0.36000002 22630.23886429  1347.97024180
0.36100002 22731.74449832  1481.20054167
0.36200002 22840.24345174  1616.74670931
0.36300002 22952.56847039  1503.85235741
0.36400002 23070.94020715  1263.13403617
0.36500002 23194.11935747  1655.36437695
0.36600002 23322.76978718  1540.70224512
0.36700002 23455.78726937  1942.13927790
0.36800002 23594.67050607  1697.75459668
0.36900002 23736.93311297  1449.13983519
0.37000002 23882.49351754  1860.68515809
0.37100002 24032.41283797  1475.10956987
0.37200002 24186.82415833  1894.55402607
0.37300002 24344.13972431  1502.27693355
0.37400002 24506.02068430  1929.84922031
0.37500002 24669.86319538  2226.20856021
0.37600002 24838.12072059  1966.43411060
0.37700002 25007.93016195  1559.74467809
0.37800002 25181.50292358  1717.88221083
0.37900002 25357.56859800  1445.38147856
0.38000002 25536.05056878  1751.26243097
0.38100002 25716.34934896  1768.25626500
0.38200002 25899.12284947  2083.06654946
0.38300002 26083.63755142  1652.65935355
0.38400002 26270.67813993  1972.27125479
0.38500002 26458.45512095  2144.72247371
0.38600002 26648.74256291  1701.65553697
0.38700002 26839.48648867  2030.67564394
0.38800002 27031.44054497  2365.92694579
0.38900002 27224.81112966  1911.18183185
0.39000002 27419.79701696  2412.25675685
0.39100002 27614.58222178  2110.85876504
0.39200002 27811.00167327  1639.45862631
0.39300002 28007.45204966  1820.76454401
0.39400002 28205.27300211  1838.27875501
0.39500002 28402.52927248  2361.95444620
0.39600002 28599.98337502  2214.06781787
0.39700002 28797.33467605  1719.20096161
0.39800002 28995.89513742  2776.64704991
0.39900002 29193.30805159  2101.91827930
0.40000002 29390.39341095  1767.83224743
0.40100002 29587.24962382  2140.93348422
0.40200002 29784.70571517  2520.67976410
0.40300002 29980.51278564  1816.81916089
0.40400002 30175.81958411  2199.81735191
0.40500002 30370.48115483  2589.38734595
0.40600002 30564.57819388  2612.35462201
0.40700002 30757.38538639  2635.29290477
0.40800002 30949.58215689  1898.75695529
0.40900002 31139.88236930  3255.67485597
0.41000002 31329.86334425  2897.22925004
0.41100002 31518.27194433  1947.82929845
0.41200002 31704.52426734  2946.14305714
0.41300002 31890.03853011  2178.40863521
0.41400002 32073.69418679  2395.90506928
0.41500002 32256.31495810  2012.79414876
0.41600002 32436.05526088  2840.42549379
0.41700002 32614.89309055  2862.93545115
0.41800002 32792.67125119  2473.22338296
0.41900002 32966.54419595  2699.96009758
0.42000002 33139.32607256  3557.67251910
0.42100002 33310.54794564  2319.41356336
0.42200002 33479.50270541  2336.70200205
0.42300002 33645.77380010  2995.81984112
0.42400002 33809.88775382  3017.53262502
0.42500002 33972.07749657  2604.97902588
0.42600002 34130.54206954  2404.66745546
0.42700002 34288.06287088  3081.81123687
0.42800002 34442.53592144  3102.92820820
0.42900002 34595.02212049  2454.51693576
0.43000002 34744.93032604  3369.38977803
0.43100002 34890.86581773  2939.20667577
0.43200002 35034.99589268  4551.04618212
0.43300002 35176.10296338  2518.96085258
0.43400002 35314.95197220  2995.59094300
0.43500002 35450.15876393  3013.97264094
0.43600002 35583.90225732  3032.28237455
0.43700002 35713.65727034  3284.94235140
0.43800002 35839.77706987  2596.05437508
0.43900002 35964.08185673  2610.99246653
0.44000002 36084.61616749  3580.49620890
0.44100002 36202.78122056  2640.26895954
0.44200002 36317.59164146  2895.96489473
0.44300002 36429.60071902  3639.31728430
0.44400002 36537.88868270  2438.90418515
0.44500002 36642.28901296  3677.05387671
0.44600002 36744.34004264  2956.44973994
0.44700002 36843.57606140  3466.24380013
0.44800002 36938.14542245  3482.89789694
0.44900002 37031.11266343  2499.60022324
0.45000002 37120.48883652  2762.32130768
0.45100002 37205.22376470  2774.76571987
0.45200002 37287.65169386  2787.06565794
0.45300002 37366.02602911  2799.08914250
0.45400002 37441.80336954  3066.48384130
0.45500002 37514.01496424  2822.55461968
0.45600002 37582.68695131  3606.81063766
0.45700002 37647.77106849  3103.68239398
0.45800002 37708.98297832  3634.76904155
0.45900002 37767.14026419  4169.49248278
0.46000002 37822.48927260  3923.13788574
0.46100002 37873.07469218  2887.06462062
0.46200002 37921.31875737  4740.54428254
0.46300002 37965.55868266  3170.88361146
0.46400002 38005.90918054  3181.09474918
0.46500002 38043.79269055  3191.11348213
0.46600002 38077.19208426  2934.03817511
0.46700002 38107.29949172  3477.67231644
0.46800002 38134.65159851  3219.32744053
0.46900002 38157.78035137  3766.17309918
0.47000002 38176.93664168  4045.80105236
0.47100002 38193.27685728  3515.30936856
0.47200002 38205.88773318  2981.77864946
0.47300002 38215.78802358  2988.85692299
0.47400002 38220.49552276  3267.85252208
0.47500002 38223.18327379  3547.87603963
0.47600002 38222.59973217  4375.72342474
0.47700002 38217.28843261  3562.23362365
