# SAXS profile: number of points = 501, q_min = 0, q_max = 0.5, delta_q = 0.001
#    q    intensity    error
0.00000000 1682732.95097188 302.89193117
0.00100000 1682663.57935487 504.79908579
0.00200000 1682455.40350983 832.81545111
0.00300000 1682108.60496600 1211.11823872
0.00400000 1681623.04045405 1387.33906109
0.00500000 1680999.17185378 2118.05904037
0.00600000 1680236.75046717 2822.79785571
0.00700000 1679336.38240037 2216.72411690
0.00800000 1678297.60635638 2265.70186424
0.00900000 1677121.66548017 3521.95564806
0.01000000 1675807.83563369 3041.59135301
0.01100000 1674357.28761377 3917.99622360
0.01200000 1672769.52453601 3914.28085903
0.01300000 1671045.93467324 3509.19661759
0.01400000 1669185.77324128 3755.66815629
0.01500000 1667190.79235307 4401.38388780
0.01600000 1665059.86597848 5519.67370247
0.01700000 1662795.14223200 4489.54708542
0.01800000 1660396.19004557 8517.83283822
0.01900000 1657863.75666740 5968.30979331
0.02000000 1655198.34179916 5213.87501252
0.02100000 1652401.75860766 7634.09647089
0.02200000 1649472.16041427 6259.74713317
0.02300000 1646412.39064229 7112.50185132
0.02400000 1643222.39018862 6162.08424418
0.02500000 1639903.50271290 7035.18634794
0.02600000 1636455.88682519 8615.94063821
0.02700000 1632880.70881806 6858.09929114
0.02800000 1629177.65473984 9921.69237237
0.02900000 1625349.63691000 9508.29581249
0.03000000 1621396.47552113 9047.39274927
0.03100000 1617318.81922116 11644.69603420
0.03200000 1613117.36695572 9581.91760104
0.03300000 1608795.34973001 9025.34232806
0.03400000 1604350.47961483 10107.40848793
0.03500000 1599786.28434617 9502.73096783
0.03600000 1595102.26515029 10623.38157685
0.03700000 1590300.38311801 9064.71260299
0.03800000 1585382.13692831 14839.17748840
0.03900000 1580348.50702659 13274.92807379
0.04000000 1575198.74146193 11624.96725068
0.04100000 1569936.40627205 14835.89972716
0.04200000 1564562.06120100 10091.42576292
0.04300000 1559075.92876257 11318.89176822
0.04400000 1553481.27461346 17826.19845407
0.04500000 1547778.19747354 12815.60407056
0.04600000 1541966.94683610 13045.04097666
0.04700000 1536050.33173821 11059.56290287
0.04800000 1530029.09580195 13494.85725286
0.04900000 1523905.65169396 12572.22221168
0.05000000 1517679.70748667 15093.32539379
0.05100000 1511354.62524177 18861.70660167
0.05200000 1504928.50473903 11964.18217022
0.05300000 1498406.92967000 18205.64504420
0.05400000 1491788.13005138 15999.42844092
0.05500000 1485076.14888058 17464.49632554
0.05600000 1478269.43506612 16430.96553750
0.05700000 1471373.23662585 16641.23208303
0.05800000 1464385.91599012 12959.81596164
0.05900000 1457309.51771527 19673.67940803
0.06000000 1450146.99606683 15922.61476070
0.06100000 1442899.68524563 14760.86446986
0.06200000 1435568.07614287 21705.79032589
0.06300000 1428155.53816566 23307.49947261
0.06400000 1420660.14093021 16621.72442623
0.06500000 1413088.13462840 16787.48782467
0.06600000 1405437.26975809 19774.50331072
0.06700000 1397710.66562880 14256.64945661
0.06800000 1389911.47692378 15824.14290549
0.06900000 1382039.93573635 23218.27200742
0.07000000 1374096.11558956 14634.12431632
0.07100000 1366084.80382551 17704.45988682
0.07200000 1358004.76084140 14870.15282783
0.07300000 1349860.78916640 23973.52873889
0.07400000 1341652.44897382 19621.66798579
0.07500000 1333381.60140199 19760.71625901
0.07600000 1325049.15549312 19895.61400245
0.07700000 1316659.96315083 20026.39897853
0.07800000 1308212.77745477 23253.48320976
0.07900000 1299709.34182874 17156.16411683
0.08000000 1291153.84029851 20393.77586421
0.08100000 1282546.49815924 15775.32266751
0.08200000 1273887.49323952 19031.88004207
0.08300000 1265180.88378916 19129.53586068
0.08400000 1256426.76872398 22427.21887443
0.08500000 1247629.27110054 24141.62752913
0.08600000 1238787.71513882 21016.03457406
0.08700000 1229905.34279135 22728.65180207
0.08800000 1220980.88105524 16300.09552760
0.08900000 1212020.67101013 21270.96377532
0.09000000 1203023.67745820 18063.40136557
0.09100000 1193991.67915377 23067.92032501
0.09200000 1184926.45907601 19835.66985695
0.09300000 1175831.41103857 23210.91314463
0.09400000 1166704.46387112 23275.75514813
0.09500000 1157550.63624249 18335.60293990
0.09600000 1148369.92143352 20050.53977076
0.09700000 1139166.55288185 21769.47384902
0.09800000 1129940.39836651 20135.53884562
0.09900000 1120693.79841706 23534.57087341
0.10000000 1111426.19460761 21889.53993220
0.10100000 1102141.04067046 20235.31045841
0.10200000 1092840.23121395 30391.88825958
0.10300000 1083524.26277067 21973.87308266
0.10400000 1074196.43056087 21994.17295045
0.10500000 1064859.12008582 20317.51296716
0.10600001 1055508.94026456 23717.28700373
0.10700001 1046153.07572703 18642.44868673
0.10800001 1036789.23692923 22036.95626803
0.10900001 1027421.60067366 16952.45720899
0.11000001 1018050.58475887 18645.59733750
0.11100001 1008677.60159940 22029.51985593
0.11200001 999305.78799116 20325.88068462
0.11300001 989933.13913775 20313.42897148
0.11400001 980565.43841334 16914.75460905
0.11500001 971201.55996890 18588.79873311
0.11600001 961843.67205695 27008.57158323
0.11700001 952494.16360320 18545.06223873
0.11800001 943151.76321244 23569.36367276
0.11900001 933820.03546819 25213.14214522
0.12000001 924499.86001248 16779.67324963
0.12100001 915194.22423501 20097.66611096
0.12200001 905901.97230203 20056.67061166
0.12300001 896626.45622498 16677.25287152
0.12400001 887367.18559349 23293.38971935
0.12500001 878126.59081945 18256.25268338
0.12600001 868907.53393310 28139.57181246
0.12700001 859709.59658521 24759.63754849
0.12800001 850533.00170383 21395.15866620
0.12900001 841380.56247936 19688.30608997
0.13000001 832253.40026737 17989.15809470
0.13100001 823151.52195544 17928.24099328
0.13200001 814078.37379418 16240.86432279
0.13300001 805035.02604747 17799.32526502
0.13400001 796020.08105937 17731.34814155
0.13500001 787036.89865524 19266.66418747
0.13600001 778085.10676009 23984.47454677
0.13700001 769167.92126539 17513.95439305
0.13800001 760283.56749208 19022.29575566
0.13900001 751436.89227237 20514.22812645
0.14000001 742625.79527192 18847.84357288
0.14100001 733852.63226397 20320.38034576
0.14200001 725117.11266791 18664.51536039
0.14300001 716423.99240296 21664.66255214
0.14400001 707767.54168607 21551.52266092
0.14500001 699156.39188731 18373.83084553
0.14600001 690585.63633136 25886.60379906
0.14700001 682061.14929378 22712.63734299
0.14800001 673578.66271333 16559.93220408
0.14900001 665141.30387381 19455.38405623
0.15000001 656751.00318355 20825.57529356
0.15100001 648407.46755157 22175.53643662
0.15200001 640112.61679914 23504.93639799
0.15300001 631866.42646470 17515.33816813
0.15400001 623667.57802184 15950.29906062
0.15500001 615521.09565952 15843.51374998
0.15600001 607423.24109436 25748.67240520
0.15700001 599380.63239800 17046.38598993
0.15800001 591385.85860832 16925.46407223
0.15900001 583447.06703203 18203.54935062
0.16000001 575559.46475761 18069.69024900
0.16100001 567729.30849212 13795.82284758
0.16200001 559951.69870497 16428.98361555
0.16300001 552230.82774065 14943.36690411
0.16400001 544565.47769379 16173.59545105
0.16500001 536957.11743878 17381.30271209
0.16600001 529405.31936286 13261.60387616
0.16700001 521910.66968075 14467.36444662
0.16800001 514473.55955460 18258.66749070
0.16900001 507096.99569219 12930.97400073
0.17000001 499778.30160375 17947.03965804
0.17100001 492519.32996387 17789.79903835
0.17200001 485319.78756771 20150.47853138
0.17300001 478180.52463706 14976.61473890
0.17400001 471103.36577376 13603.11032914
0.17500001 464085.88853364 13477.05483951
0.17600001 457128.24850790 18205.13335664
0.17700001 450234.51525585 14425.51455012
0.17800001 443401.52724458 15476.93103948
0.17900001 436630.54578763 15325.73288103
0.18000001 429922.87472454 18675.85056019
0.18100001 423278.74559100 12711.06133052
0.18200001 416694.50173128 14869.74399670
0.18300001 410176.11864704 14717.11983228
0.18400001 403719.45759138 11203.21547741
0.18500001 397327.22904512 14411.05927828
0.18600001 390998.33060601 14257.75479913
0.18700001 384732.58758447 11934.40543071
0.18800001 378530.29855193 10731.33447096
0.18900001 372393.91560282 11674.54980574
0.19000001 366317.50128477 15742.49536153
0.19100001 360310.16239667 14527.70643427
0.19200001 354363.07737080 14362.33620448
0.19300001 348482.94162063 15211.28112051
0.19400001 342665.76944987 17039.05619106
0.19500001 336913.33607986 12876.82831347
0.19600001 331223.73179672 10766.42791083
0.19700001 325598.98960946 15472.46471743
0.19800001 320038.56276490 10508.46670500
0.19900001 314543.09466951 14154.43992907
0.20000001 309109.35290684 9319.64743060
0.20100001 303741.66725633 9203.37295284
0.20200001 298436.06267858 13631.06780710
0.20300001 293195.29757276 11663.30948871
0.20400001 288017.91591946 12399.17186639
0.20500001 282903.40039489 11364.23013101
0.20600001 277852.71979222 12940.99103602
0.20700001 272864.63191166 11918.72768529
0.20800001 267939.58766894 10919.87841163
0.20900001 263079.35155857 9115.69996242
0.21000001 258279.37918102 8174.54273751
0.21100001 253541.86138131 13706.47367423
0.21200001 248866.75674731 8746.42257937
0.21300001 244253.19737388 10976.73920891
0.21400001 239702.17711482 9276.47469290
0.21500001 235213.16733893 12955.54186953
0.21600001 230783.90096113 8263.21796459
0.21700001 226416.02565641 11846.08702242
0.21800001 222109.15302703 8025.91462410
0.21900001 217861.24836172 10065.19015021
0.22000001 213673.08156341 7083.26298874
0.22100001 209547.23785392 11164.67736076
0.22200001 205479.15084455 10309.91688112
0.22300001 201470.25130792 8800.22099325
0.22400001 197518.48732144 7999.49911479
0.22500001 193628.05746723 7220.39060439
0.22600001 189793.88789273 7108.73040718
0.22700001 186018.43186554 8270.37987184
0.22800001 182299.43456055 8140.58163527
0.22900001 178637.07532679 6779.27732925
0.23000001 175031.49818234 7277.81003860
0.23100001 171483.49982634 7161.15129142
0.23200001 167989.33861735 9393.96425976
0.23300001 164551.74729071 6353.34326337
0.23400001 161169.26746364 9658.06880954
0.23500001 157839.66360787 7822.53409838
0.23600001 154565.54559756 6593.76648706
0.23700001 151344.70426010 5943.30681740
0.23800001 148177.36241589 8499.45391019
0.23900001 145062.84485771 5744.48892808
0.24000001 142000.55900429 9239.97681146
0.24100001 138991.35793146 6054.46383788
0.24200001 136033.18651989 8429.29680143
0.24300001 133126.13817400 7308.62533147
0.24400001 130269.13180764 6223.60806651
0.24500001 127462.75914290 6584.72644881
0.24600001 124706.15713052 7392.58134440
0.24700001 121999.76611216 5446.06981688
0.24800001 119341.07612519 7131.82304662
0.24900001 116730.65252794 5690.61957995
0.25000001 114168.76495905 4298.45420406
0.25100001 111653.70061548 4642.56109123
0.25200001 109186.88164197 5801.09929609
0.25300001 106766.28419918 5694.91386861
0.25400001 104391.03879056 7586.61910304
0.25500001 102061.47678515 3919.16089397
0.25600001 99777.55459882  5000.35238530
0.25700001 97537.74136940  4152.18184655
0.25800001 95342.27845860  3704.04769337
0.25900001 93190.41210528  4361.31149288
0.26000001 91082.53357475  5348.82203726
0.26100001 89015.20010115  4897.61654130
0.26200001 86992.29992651  5490.95423118
0.26300001 85010.11480530  4376.32091725
0.26400001 83068.81553546  3962.38268853
0.26500001 81169.17302226  3886.38018821
0.26600001 79309.01679165  3493.95890009
0.26700001 77489.50549766  3426.58609525
0.26800001 75709.31721825  3360.35820375
0.26900001 73967.28236941  3894.37760104
0.27000001 72264.32251116  2937.54484909
0.27100001 70598.98321718  3168.48251673
0.27200001 68971.42301389  3106.81789669
0.27300001 67380.33461609  2769.33188378
0.27400001 65824.61454351  2986.79202626
0.27500001 64307.09805020  3194.77678233
0.27600001 62823.03358469  3393.38631967
0.27700001 61375.51300487  3583.10261880
0.27800001 59961.85703802  2760.34421938
0.27900001 58582.53190739  2952.55974787
0.28000001 57236.64472332  2412.52468927
0.28100001 55923.84210517  2838.69435961
0.28200001 54644.10122594  3479.46331024
0.28300001 53396.56140097  2729.63234801
0.28400001 52180.88687608  3123.02622735
0.28500001 50996.74112501  2187.76029781
0.28600001 49842.76939597  3218.59698609
0.28700001 48719.60702086  2104.68712292
0.28800001 47625.78064176  2064.57768854
0.28900001 46563.00553654  2430.58900406
0.29000001 45527.90194753  2186.02231548
0.29100001 44522.84888483  2730.14122285
0.29200001 43545.01822178  2487.94473387
0.29300001 42595.02428228  2066.28472574
0.29400001 41672.28153423  2950.39767228
0.29500001 40777.56497871  2534.73355906
0.29600001 39908.11500361  2666.85991136
0.29700001 39064.51015869  2793.89389881
0.29800001 38247.25229468  2573.08401993
0.29900001 37455.02692830  2359.66680819
0.30000001 36687.50999463  1822.08527014
0.30100001 35945.09079935  2279.63776641
0.30200001 35225.68381643  1921.20888630
0.30300001 34530.11139999  2046.94510070
0.30400001 33858.43641395  2323.53530891
0.30500001 33208.52443743  1524.27134384
0.30600001 32581.02169588  2250.53418019
0.30700001 31976.05725564  2511.39965576
0.30800001 31392.39009614  1600.54108483
0.30900001 30829.93980005  1720.31072229
0.31000001 30289.15461795  1554.28804281
0.31100001 29766.98338060  2228.95182107
0.31200001 29266.08462388  1923.65983340
0.31300001 28784.21641369  1762.45765446
0.31400001 28323.21195193  1605.92619371
0.31500001 27880.07076682  1321.51541692
0.31600002 27455.62756997  1566.61818332
0.31700002 27048.88184589  1548.27807017
0.31800002 26660.61092048  1403.28132224
0.31900002 26289.95310363  1766.68493221
0.32000002 25936.29191372  1248.83251478
0.32100002 25599.83443567  1360.11926797
0.32200002 25279.90279974  1592.25475324
0.32300002 24975.38024330  1699.32495222
0.32400002 24687.11260464  1323.84647611
0.32500002 24413.97689475  1193.84352668
0.32600002 24156.41291618  1303.35932061
0.32700002 23913.67107270  1529.51847424
0.32800002 23685.81699946  1285.78463670
0.32900002 23471.18680029  2091.28284294
0.33000002 23272.02187230  1386.54712881
0.33100002 23084.07683619  1264.54578897
0.33200002 22911.84886955  1144.44690523
0.33300002 22751.20032186  1367.80222812
0.33400002 22604.15108551  1590.20210417
0.33500002 22468.91293472  1245.67659209
0.33600002 22345.74579681  1694.36625528
0.33700002 22233.68488990  1578.14702822
0.33800002 22134.56768793  1463.20566630
0.33900002 22045.45013089  1349.18161190
0.34000002 21967.85801604  1460.75278796
0.34100002 21900.83538849  1460.56678123
0.34200002 21845.15460830  1685.89988674
0.34300002 21798.12573013  1574.69667732
0.34400002 21762.12606644  1801.90412364
0.34500002 21735.04151722  1353.65844980
0.34600002 21718.67270852  1582.63975522
0.34700002 21709.21573425  1133.22111500
0.34800002 21710.35102548  1363.84431601
0.34900002 21719.55776644  1482.35988777
0.35000002 21737.19894335  1144.46357857
0.35100002 21763.17455487  1493.82437220
0.35200002 21796.20886196  1615.75303946
0.35300002 21837.31957199  1391.47406903
0.35400002 21886.38425173  1165.45001660
0.35500002 21942.28836828  1874.74920698
0.35600002 22004.71514575  1767.52882780
0.35700002 22074.06281984  1540.99039844
0.35800002 22150.53297555  1312.08688295
0.35900002 22232.72441277  1680.79404522
0.36000002 22321.94741739  1329.60686089
0.36100002 22416.10036839  1825.79146149
0.36200002 22517.13816539  1348.66405430
0.36300002 22621.99572610  1358.67712767
0.36400002 22732.83303593  1618.00946797
0.36500002 22848.41962594  1756.12961563
0.36600002 22969.44086778  1390.91455763
0.36700002 23094.74465280  1402.31296174
0.36800002 23225.94575861  1671.22300622
0.36900002 23360.52533524  1555.81106102
0.37000002 23498.33692071  1438.45076274
0.37100002 23640.53203656  1582.97010015
0.37200002 23787.06824183  1996.32979676
0.37300002 23936.64016724  1611.41469239
0.37400002 24090.66334248  1626.11985265
0.37500002 24246.81279810  1367.52030659
0.37600002 24407.20127571  2070.34094629
0.37700002 24569.24685296  1532.38399881
0.37800002 24735.04901839  1828.04388430
0.37900002 24903.38129411  1561.44208111
0.38000002 25074.10703371  1576.28381335
0.38100002 25246.78540876  1880.63313419
0.38200002 25421.84925232  1752.58237048
0.38300002 25598.76332653  2064.28437244
0.38400002 25778.22107451  1637.56157134
0.38500002 25958.38869608  1653.28985438
0.38600002 26141.24249812  2124.49887847
0.38700002 26324.60310310  1991.71956514
0.38800002 26509.20360049  1546.81210337
0.38900002 26695.18322102  2030.16878014
0.39000002 26883.00861600  1734.35738303
0.39100002 27070.65317766  2069.28082694
0.39200002 27259.89537911  1767.66799960
0.39300002 27449.36591819  1946.70912315
0.39400002 27640.23959734  2292.75798322
0.39500002 27830.69352263  1983.77192828
0.39600002 28021.38657439  1835.54101452
0.39700002 28212.11350342  1852.68958155
0.39800002 28403.99899366  2379.97118844
0.39900002 28595.00894223  2058.84074139
0.40000002 28785.84747012  2077.76256884
0.40100002 28976.29269852  2096.72463901
0.40200002 29167.68019110  1763.18635109
0.40300002 29357.43682874  2134.87290734
0.40400002 29546.80493314  1974.46533321
0.40500002 29735.62744393  1810.89979714
0.40600002 29924.04410913  2192.23557530
0.40700002 30111.25283838  2211.37051323
0.40800002 30298.10183568  2602.30408997
0.40900002 30483.04173385  3187.00216428
0.41000002 30667.82806538  2268.80602778
0.41100002 30851.19507491  2478.58512976
0.41200002 31032.60169501  2114.71674271
0.41300002 31213.34240253  2519.85325155
0.41400002 31392.31834617  2735.84067350
0.41500002 31570.44131960  2757.99388436
0.41600002 31745.82821294  2779.98230833
0.41700002 31920.44701910  2401.69454752
0.41800002 32094.18896523  2622.25583366
0.41900002 32264.19293630  2235.90867643
0.42000002 32433.12897592  3072.22828782
0.42100002 32600.80570658  2476.35731881
0.42200002 32766.30126310  2702.72848776
0.42300002 32929.26217854  2722.59152593
0.42400002 33090.19777486  2531.40024973
0.42500002 33249.42815286  2337.10241561
0.42600002 33405.12425930  2781.47780325
0.42700002 33559.98570662  2800.91653980
0.42800002 33711.88960276  2169.36019874
0.42900002 33862.07661245  3494.56647200
0.43000002 34009.80866898  2638.48108157
0.43100002 34153.67673950  3762.36920791
0.43200002 34296.03138160  3118.53828131
0.43300002 34435.47830659  2690.09969279
0.43400002 34572.75021147  2707.04646984
0.43500002 34706.69288685  3177.74495131
0.43600002 34839.26416147  2512.08526141
0.43700002 34967.92766737  2297.39295662
0.43800002 35093.30625014  2541.98375869
0.43900002 35216.87955015  2324.31416046
0.44000002 35336.90140666  2337.53613883
0.44100002 35454.77517955  2585.71687638
0.44200002 35569.39702467  2363.58654430
0.44300002 35681.45680713  2614.02364957
0.44400002 35790.01997187  2866.78073561
0.44500002 35894.66434470  2881.62379016
0.44600002 35997.27029078  3137.70221359
0.44700002 36097.16949251  2910.87588583
0.44800002 36192.68264205  3168.85047890
0.44900002 36286.64825281  4653.76285897
0.45000002 36377.19480472  2953.10081420
0.45100002 36463.26306567  4202.75590013
0.45200002 36547.26043059  3725.07969593
0.45300002 36627.33232780  3492.05002963
0.45400002 36704.94440009  3757.66886105
0.45500002 36779.23849707  3773.55004864
0.45600002 36850.04261660  3031.28464930
0.45700002 36917.54109100  3550.72927041
0.45800002 36981.28796320  2800.77797663
0.45900002 37042.10502721  3578.26751522
0.46000002 37100.34778528  2822.03808804
0.46100002 37153.99691776  3347.20374096
0.46200002 37205.34537194  3617.47590196
0.46300002 37252.92276426  2852.08390201
0.46400002 37296.75475771  3642.02827470
0.46500002 37338.27441459  2870.94005581
0.46600002 37375.52672866  4974.49596572
0.46700002 37409.57527949  3413.99800182
0.46800002 37440.99426133  2897.37147824
0.46900002 37468.38433373  3698.12970902
0.47000002 37491.98874136  3443.45186916
0.47100002 37512.85043592  2921.50093042
0.47200002 37530.23333738  2929.04719964
0.47300002 37544.87122025  3203.32856434
0.47400002 37554.62108847  3478.49694319
0.47500002 37562.40408493  2681.95577878
0.47600002 37567.08963663  4031.88808635
0.47700002 37567.23164476  2962.92770026
