# SAXS profile: number of points = 501, q_min = 0, q_max = 0.5, delta_q = 0.001
#    q    intensity    error
0.00000000 1700912.83420644 306.16431016
0.00100000 1700842.73763806 714.35396677
0.00200000 1700632.39084091 841.81306012
0.00300000 1700281.96279144 1122.18613542
0.00400000 1699791.31891772 1529.81224516
0.00500000 1699160.95089442 2599.71635777
0.00600000 1698390.53990262 1961.64115345
0.00700000 1697480.77268141 3462.86092019
0.00800000 1696431.14006962 2290.18213579
0.00900000 1695242.93053357 3305.72385585
0.01000000 1693915.34303430 3353.95252403
0.01100000 1692449.66205874 3046.40952434
0.01200000 1690845.27614654 5275.43749287
0.01300000 1689103.69473829 6030.10045617
0.01400000 1687224.05138725 3796.25428391
0.01500000 1685208.24154168 6471.19993568
0.01600000 1683055.01213252 5150.14856736
0.01700000 1680766.61905143 6353.29810502
0.01800000 1678342.50947896 6218.25927743
0.01900000 1675783.54603634 5530.08595145
0.02000000 1673090.31246664 5797.25819494
0.02100000 1670264.42869845 6063.06015107
0.02200000 1667304.19153724 5752.19972214
0.02300000 1664212.36187275 7788.51420809
0.02400000 1660988.98127839 8097.32165295
0.02500000 1657635.34570030 8404.21158653
0.02600000 1654151.59384568 9379.03996609
0.02700000 1650538.97613159 10398.39602589
0.02800000 1646797.17591309 12178.06567436
0.02900000 1642928.80462431 10350.45194437
0.03000000 1638934.22519702 8383.14894722
0.03100000 1634813.77867481 9416.52779845
0.03200000 1630568.35098833 9685.57645097
0.03300000 1626200.95277986 11611.07533812
0.03400000 1621709.44615812 14473.75747479
0.03500000 1617097.23688784 13098.48822365
0.03600000 1612364.00021205 12528.06886062
0.03700000 1607511.79350486 11911.66294076
0.03800000 1602541.70245096 12187.33021116
0.03900000 1597455.22783348 12460.15135413
0.04000000 1592251.16388598 14688.51766750
0.04100000 1586933.53326935 13996.75441242
0.04200000 1581502.58982475 12240.83061313
0.04300000 1575958.70371386 11441.46072005
0.04400000 1570305.12748360 11659.51611306
0.04500000 1564541.95627853 11874.87399992
0.04600000 1558669.33934049 15384.06709445
0.04700000 1552690.40939411 13415.24576108
0.04800000 1546605.62229315 13641.06222332
0.04900000 1540417.59103888 17329.69870584
0.05000000 1534125.95683918 11736.06411632
0.05100000 1527733.96890856 14299.59061512
0.05200000 1521240.02592597 16931.40227758
0.05300000 1514649.33983513 17176.12431444
0.05400000 1507960.50991617 16172.87722305
0.05500000 1501177.60722252 13870.88173780
0.05600000 1494298.73783905 17886.75672660
0.05700000 1487329.52349693 12939.76745843
0.05800000 1480268.19943991 14410.41159440
0.05900000 1473116.65568526 23864.49093671
0.06000000 1465878.08678769 14754.06363281
0.06100000 1458553.96982996 18990.37357463
0.06200000 1451144.64784450 16455.98107577
0.06300000 1443653.24627312 16630.88617465
0.06400000 1436078.32324535 18202.29359840
0.06500000 1428425.60595596 24040.40407280
0.06600000 1420693.34937640 17133.56259513
0.06700000 1412884.50450558 23058.27619263
0.06800000 1405002.27527403 17450.12907573
0.06900000 1397046.88443073 17602.79156797
0.07000000 1389018.29290523 14793.04551218
0.07100000 1380921.48304527 17896.74325851
0.07200000 1372755.16312002 18038.00368842
0.07300000 1364524.18742224 15146.21919007
0.07400000 1356228.01884743 16783.32251977
0.07500000 1347869.05044339 15365.70789528
0.07600000 1339447.15828820 18564.73848420
0.07700000 1330968.21084423 20244.02743615
0.07800000 1322430.55852632 17237.88313878
0.07900000 1313835.94516934 17342.63528967
0.08000000 1305188.65579167 23787.06436768
0.08100000 1296488.88391538 19136.17682443
0.08200000 1287736.90743525 16032.32524989
0.08300000 1278936.86272663 24171.90783997
0.08400000 1270088.49579132 17812.99198959
0.08500000 1261196.43937399 19523.32179803
0.08600000 1252259.58920049 19610.38608762
0.08700000 1243281.34367639 18052.44595788
0.08800000 1234260.95620139 21420.59990087
0.08900000 1225204.06350569 21502.33232448
0.09000000 1216109.64213079 18259.88713436
0.09100000 1206980.22295273 18321.96064521
0.09200000 1197817.13861798 18380.50485573
0.09300000 1188623.65184002 20111.51313422
0.09400000 1179398.04533864 21848.34981672
0.09500000 1170144.79299855 26960.13729789
0.09600000 1160864.81638827 20268.70064693
0.09700000 1151561.52939056 20313.54633345
0.09800000 1142235.42661252 18658.41657099
0.09900000 1132888.28845913 20391.99015115
0.10000000 1123520.15325402 20425.59734672
0.10100000 1114133.89772531 18750.87438060
0.10200000 1104731.86020908 23895.35126027
0.10300000 1095314.47278428 18795.59723714
0.10400000 1085884.96977647 20523.22689429
0.10500000 1076445.89503920 18827.03959004
0.10600001 1066993.73402735 17125.25023694
0.10700001 1057535.55099810 23984.90742531
0.10800001 1048069.43325696 30844.68487236
0.10900001 1038599.43367872 25705.33719339
0.11000001 1029125.88046767 27415.91474611
0.11100001 1019650.44163978 22269.16669370
0.11200001 1010175.56164853 18834.72423362
0.11300001 1000700.34363344 25667.96502267
0.11400001 991229.76422133 20518.45708548
0.11500001 981763.22502694 25624.02137979
0.11600001 972302.51326960 20476.69189374
0.11700001 962850.39745614 22155.18868886
0.11800001 953404.96625156 32334.73095333
0.11900001 943970.74657902 20389.76908650
0.12000001 934547.85051682 22050.65757164
0.12100001 925139.90562480 16930.06107048
0.12200001 915744.96809010 16895.49545723
0.12300001 906366.87993067 16858.42476099
0.12400001 897005.40851565 21864.50786277
0.12500001 887662.78478373 16776.82742294
0.12600001 878341.68874010 20078.89195079
0.12700001 869041.79957927 30034.08600886
0.12800001 859763.43573127 16636.42326546
0.12900001 850509.75138590 23218.91730719
0.13000001 841281.48414641 28103.00930254
0.13100001 832078.53159782 19770.18684268
0.13200001 822904.72483668 21342.03504471
0.13300001 813760.84836469 17992.25320555
0.13400001 804645.63291981 17923.48231830
0.13500001 795562.65818445 24344.21848823
0.13600001 786511.27796049 17779.08827659
0.13700001 777494.63049982 16094.13961024
0.13800001 768511.22755293 22432.84379011
0.13900001 759565.93315768 15950.88534853
0.14000001 750656.45717266 19051.66178153
0.14100001 741785.44858828 23700.04620016
0.14200001 732952.24755735 18866.19174196
0.14300001 724162.16426973 21898.66488042
0.14400001 715408.80446264 23340.21334655
0.14500001 706701.42817030 20119.79060910
0.14600001 698034.82125046 18470.00224160
0.14700001 689414.66101081 15305.00619648
0.14800001 680837.24863817 19781.72719246
0.14900001 672305.13949672 18152.23962285
0.15000001 663820.81314263 25560.42161607
0.15100001 655383.48057598 14942.74406221
0.15200001 646995.80495397 17818.26530922
0.15300001 638656.96894114 23604.76268595
0.15400001 630365.90055919 19052.81024352
0.15500001 622127.81083718 20380.90804486
0.15600001 613939.16534132 15904.09482876
0.15700001 605805.86034030 14357.59956770
0.15800001 597721.09050967 21383.47302226
0.15900001 589693.01810146 16983.15972294
0.16000001 581716.52650529 15453.30025605
0.16100001 573798.31619379 20914.94961254
0.16200001 565932.94486770 19371.88561729
0.16300001 558125.30648751 15102.87150653
0.16400001 550373.46306201 14983.91823925
0.16500001 542679.28784526 16215.25788636
0.16600001 535042.16779942 18763.92971063
0.16700001 527463.26386778 15950.48985246
0.16800001 519942.10380739 25043.01261232
0.16900001 512482.31472547 16988.78953533
0.17000001 505081.07134274 12955.33009169
0.17100001 497740.03193722 20546.70948861
0.17200001 490459.39252860 15272.90620457
0.17300001 483239.66259026 13873.81136815
0.17400001 476082.45082722 16246.31440173
0.17500001 468985.77926534 14857.47018881
0.17600001 461949.68246363 14717.71757840
0.17700001 454977.99360478 13362.70430330
0.17800001 448068.13062429 13233.69286304
0.17900001 441220.71669733 14295.55189622
0.18000001 434437.25412774 16512.96080939
0.18100001 427718.26111669 17515.06362008
0.18200001 421059.72860012 15025.51712487
0.18300001 414467.93568643 17158.97334800
0.18400001 407938.39602444 13584.34922935
0.18500001 401474.32463551 11201.13418650
0.18600001 395073.93204523 11081.82431741
0.18700001 388737.87717356 14251.13125047
0.18800001 382465.50575136 15180.05664047
0.18900001 376260.30645685 12868.10308881
0.19000001 370115.60436977 11664.19382283
0.19100001 364040.57314727 14678.11660284
0.19200001 358027.09861615 14510.83899257
0.19300001 352080.90734457 11270.11037664
0.19400001 346198.35515347 16202.08378679
0.19500001 340381.31049288 10007.21100138
0.19600001 334628.16495774 12854.74156432
0.19700001 328940.56690640 13677.34941833
0.19800001 323317.93488889 14476.56121879
0.19900001 317761.07487505 15252.53231484
0.20000001 312266.71351219 10356.32604308
0.20100001 306839.12564841 11156.67113587
0.20200001 301474.58244373 15605.83249779
0.20300001 296175.55884446 10875.56703480
0.20400001 290940.72148549 9841.07036939
0.20500001 285769.44699799 13245.41449443
0.20600001 280662.79410177 9586.03818566
0.20700001 275619.69501137 12039.06884717
0.20800001 270640.02303284 11029.93466009
0.20900001 265726.23353578 10881.48977767
0.21000001 260873.50235812 9082.31141394
0.21100001 256084.08146848 10586.51642837
0.21200001 251357.59813569 8030.87564009
0.21300001 246693.50722234 10294.52054307
0.21400001 242092.99076641 11711.24898199
0.21500001 237555.01413002 12314.85251472
0.21600001 233077.36034673 8345.33528177
0.21700001 228662.23707118 8972.70660690
0.21800001 224308.55609770 8842.24369944
0.21900001 220014.66795470 8712.58126295
0.22000001 215781.45438125 7868.47110605
0.22100001 211611.23949111 10569.98191237
0.22200001 207499.65637469 8329.03660071
0.22300001 203447.90009418 8203.01971968
0.22400001 199454.03604746 7404.73143840
0.22500001 195522.17666607 7291.02231265
0.22600001 191647.42982775 15008.86917670
0.22700001 187832.02226402 7066.24101173
0.22800001 184073.92841877 8219.82166226
0.22900001 180373.10977970 8089.73435619
0.23000001 176729.99015445 7960.80278299
0.23100001 173144.98945248 7833.07969328
0.23200001 169614.60483669 8299.24300716
0.23300001 166141.56481221 8747.35380106
0.23400001 162724.26640863 9177.64905951
0.23500001 159360.62939420 5641.36654737
0.23600001 156053.14874886 6102.45867045
0.23700001 152799.69505062 6000.44430845
0.23800001 149600.32013161 7508.44042255
0.23900001 146454.54521118 5272.36387698
0.24000001 143361.79054578 5700.78187070
0.24100001 140322.65046653 5603.08369816
0.24200001 137335.20057009 5005.86829757
0.24300001 134399.57633293 4919.02472647
0.24400001 131514.72034120 5799.79944140
0.24500001 128681.26368964 6172.84051119
0.24600001 125898.14037118 6530.33684997
0.24700001 123165.85784091 5039.94714127
0.24800001 120481.93099803 4500.00033566
0.24900001 117846.90690199 6628.88882683
0.25000001 115261.02668097 5641.45121779
0.25100001 112722.63131002 5965.28193114
0.25200001 110232.99761858 5438.34519480
0.25300001 107790.39535238 4517.49568294
0.25400001 105393.75708790 4837.57367921
0.25500001 103043.32853395 4748.23680349
0.25600001 100739.09072834 6601.93662324
0.25700001 98479.80479680  4954.51921374
0.25800001 96265.17849673  4113.89259770
0.25900001 94094.93757335  3669.70273899
0.26000001 91968.92864985  4320.70047241
0.26100001 89884.27917373  4238.94280640
0.26200001 87844.76934639  4505.11920910
0.26300001 85846.37217755  4419.37144881
0.26400001 83889.34936744  4668.44251320
0.26500001 81974.59010774  4906.17945010
0.26600001 80099.92399713  3849.60252946
0.26700001 78266.39100347  3775.57088067
0.26800001 76472.65435484  3394.23892416
0.26900001 74717.71496534  3026.06759929
0.27000001 73002.14379890  5044.81338595
0.27100001 71325.04088961  3201.06798661
0.27200001 69685.97823398  3995.09732122
0.27300001 68083.87173206  2798.24726061
0.27400001 66517.60641346  3292.62167329
0.27500001 64990.14265677  3228.71043999
0.27600001 63496.59645137  3165.94044890
0.27700001 62040.03248703  2845.77642486
0.27800001 60617.64159849  2790.53326305
0.27900001 59230.20103973  3233.96912983
0.28000001 57876.70615859  3415.30459206
0.28100001 56556.48602480  3588.50920811
0.28200001 55269.95487616  3284.69357375
0.28300001 54015.99542158  2761.29781664
0.28400001 52794.35675324  2708.35062963
0.28500001 51604.61704916  3763.52489953
0.28600001 50445.47295160  3909.01988404
0.28700001 49317.44414093  2769.66779405
0.28800001 48219.31018727  2299.33791511
0.28900001 47152.65742355  2666.48290352
0.29000001 46113.88483454  2415.44540197
0.29100001 45105.39170967  2370.73950048
0.29200001 44124.78909195  2521.06994410
0.29300001 43172.28832826  2284.67760648
0.29400001 42247.34531788  1869.44511881
0.29500001 41350.65065147  1835.96897583
0.29600001 40479.77784621  2705.06128262
0.29700001 39635.04651639  2126.02399578
0.29800001 38816.95940693  2959.59921008
0.29900001 38024.10598605  1711.08485037
0.30000001 37256.26889460  2186.75680629
0.30100001 36514.04535067  1819.49496596
0.30200001 35794.96728968  2603.01014453
0.30300001 35100.02598007  2080.72963860
0.30400001 34429.39552587  2520.23187181
0.30500001 33780.49610889  1550.52484480
0.30600001 33154.51501446  1679.44203757
0.30700001 32551.22781587  2255.80019444
0.30800001 31969.67210022  2519.05043240
0.30900001 31409.37735042  1606.58972754
0.31000001 30870.91481332  1584.14106865
0.31100001 30351.59845287  1846.59133730
0.31200001 29853.57424412  1681.95045255
0.31300001 29374.89889324  1521.91358372
0.31400001 28917.33531322  1776.24740571
0.31500001 28477.56585246  1754.78769091
0.31600002 28056.98853096  1467.52085460
0.31700002 27654.29707111  1451.02103602
0.31800002 27270.10662892  1826.82452957
0.31900002 26903.84855077  1807.93870822
0.32000002 26554.76706649  1278.61209479
0.32100002 26222.98159894  1899.85510680
0.32200002 25907.84937903  1380.75889804
0.32300002 25608.30346844  1369.01996825
0.32400002 25325.26700912  1728.44955522
0.32500002 25057.35594310  1715.42666909
0.32600002 24805.25170153  1581.70694965
0.32700002 24567.99276582  1813.11795197
0.32800002 24345.98756808  1561.91690639
0.32900002 24137.09818257  1314.26505828
0.33000002 23943.99087527  1188.81920325
0.33100002 23761.99141651  1893.35556573
0.33200002 23595.97342793  1296.48082139
0.33300002 23441.64700092  1291.86922740
0.33400002 23300.89883990  1170.87022215
0.33500002 23172.02781219  1518.23133415
0.33600002 23055.36923370  1981.26324892
0.33700002 22949.88835956  1163.55939493
0.33800002 22857.45502818  1627.22230052
0.33900002 22775.10958050  1509.98983670
0.34000002 22704.28880988  1509.72175591
0.34100002 22644.06776436  1393.96887759
0.34200002 22595.31173201  1278.78172804
0.34300002 22555.19406914  1280.23287600
0.34400002 22526.17008373  1398.87522845
0.34500002 22506.10741350  1401.68043610
0.34600002 22496.75974565  1405.14768026
0.34700002 22494.37030341  1643.88865963
0.34800002 22502.52283420  1295.80783878
0.34900002 22518.85072619  1655.13560676
0.35000002 22543.72658361  1780.39089126
0.35100002 22576.71048498  1430.46044408
0.35200002 22616.79182560  1197.55918389
0.35300002 22665.08316638  1323.86757045
0.35400002 22721.15066150  1330.89146303
0.35500002 22784.08724673  1460.00437992
0.35600002 22853.62389583  1713.33626462
0.35700002 22929.93781682  1847.00657863
0.35800002 23013.47309913  1363.20314360
0.35900002 23102.71516145  1247.54667781
0.36000002 23198.76094924  1381.83426139
0.36100002 23299.76878034  1897.76625705
0.36200002 23407.75439428  1402.00751585
0.36300002 23519.30060029  1412.56926096
0.36400002 23636.96905954  1423.53652904
0.36500002 23759.15461764  1304.37765029
0.36600002 23886.84560607  2235.45055193
0.36700002 24018.72997889  1591.00074917
0.36800002 24156.40091861  1604.46822502
0.36900002 24297.25264767  1887.89662015
0.37000002 24441.46478863  1632.20109590
0.37100002 24589.89353122  1783.75096125
0.37200002 24742.68216314  1799.65907239
0.37300002 24898.25983800  1536.47168739
0.37400002 25058.31927526  1550.48357860
0.37500002 25220.25334929  1564.66459191
0.37600002 25386.42999325  1722.72322095
0.37700002 25554.17880297  1448.92200677
0.37800002 25725.55803802  2047.49726124
0.37900002 25899.34827434  1623.88921373
0.38000002 26075.48474081  1639.23542589
0.38100002 26253.32177428  1955.61003161
0.38200002 26433.58625570  1974.19248303
0.38300002 26615.48111917  2299.57767764
0.38400002 26799.82275685  1702.45882128
0.38500002 26984.81076490  1718.66267904
0.38600002 27172.30566822  2208.29338627
0.38700002 27360.04492725  1751.59015922
0.38800002 27548.98731290  1928.98018304
0.38900002 27739.31624275  1785.02508479
0.39000002 27931.11701589  2129.60811777
0.39100002 28122.77818200  2315.06720962
0.39200002 28315.90499981  2003.06721458
0.39300002 28508.94408480  2021.85441028
0.39400002 28703.30607627  2380.93935183
0.39500002 28897.00636513  2059.77871129
0.39600002 29091.01517903  2078.84404318
0.39700002 29284.73394232  2972.10778862
0.39800002 29479.63972528  2822.97043384
0.39900002 29673.26290149  2314.51461598
0.40000002 29866.50653541  1976.11749854
0.40100002 30059.57436449  2175.11090407
0.40200002 30253.05853480  2560.31646511
0.40300002 30444.86567135  1844.95894710
0.40400002 30636.18523543  2233.37800948
0.40500002 30826.80327400  2065.08764917
0.40600002 31016.70037785  2461.64054212
0.40700002 31205.37447619  2291.72281012
0.40800002 31393.27945174  3081.56445699
0.40900002 31579.35059761  2524.76919991
0.41000002 31764.97069668  2741.63475073
0.41100002 31949.00625461  2171.89354810
0.41200002 32130.90724854  3383.86665722
0.41300002 32311.85682035  2006.56640362
0.41400002 32491.04263835  2831.59450010
0.41500002 32669.10418333  2242.40741740
0.41600002 32844.28950672  2876.17456839
0.41700002 33018.49409969  2277.28564596
0.41800002 33191.59193516  2294.70081717
0.41900002 33360.77970984  2101.72922131
0.42000002 33528.82380447  2752.54892066
0.42100002 33695.21177740  3412.65121052
0.42200002 33859.38577729  2363.21594231
0.42300002 34020.88925681  2812.84725704
0.42400002 34180.01735891  3268.46431482
0.42500002 34337.37838845  3730.06959109
0.42600002 34490.90217543  3313.71358353
0.42700002 34643.44312162  2224.10915380
0.42800002 34792.92102341  2462.81703135
0.42900002 34940.35134850  2929.74859940
0.43000002 35085.24903242  4082.87062338
0.43100002 35226.10455732  3423.97752523
0.43200002 35365.15939638  2756.36065397
0.43300002 35501.11179986  2542.23473646
0.43400002 35634.75517431  2325.16788531
0.43500002 35764.88972657  3508.53584844
0.43600002 35893.41426294  3293.93878301
0.43700002 36018.00320967  3076.29779992
0.43800002 36138.82507104  2855.69009244
0.43900002 36257.90287477  2871.62604377
0.44000002 36373.19030849  2646.69531822
0.44100002 36486.03665719  3628.53651751
0.44200002 36595.56879783  2674.95322804
0.44300002 36702.29080797  2933.24722038
0.44400002 36805.17623727  2456.74563026
0.44500002 36904.30198400  3456.45708763
0.44600002 37001.05473274  2977.10500488
0.44700002 37094.84229729  2492.77352051
0.44800002 37184.05153982  3255.64978686
0.44900002 37271.63221870  3522.16941159
0.45000002 37355.58167601  2779.81574216
0.45100002 37434.92128864  3299.51411875
0.45200002 37511.92078219  3313.61567934
0.45300002 37584.92458692  3327.39353137
0.45400002 37655.25223737  3340.96241310
0.45500002 37722.02156859  3354.24231685
0.45600002 37785.19725629  2590.17539468
0.45700002 37844.91344396  2859.94024450
0.45800002 37900.60903351  3131.34846676
0.45900002 37953.31418834  3142.53456373
0.46000002 38003.20766631  3941.88290201
0.46100002 38048.32502392  4482.47338351
0.46200002 38091.10278370  2909.96993508
0.46300002 38129.89752289  2919.22509271
0.46400002 38164.79245007  2661.99439956
0.46500002 38197.19844382  3203.98115732
0.46600002 38225.16500670  2677.67293563
0.46700002 38249.79703487  2953.64946702
0.46800002 38271.64953068  3230.89280651
0.46900002 38289.31275859  3239.27601291
0.47000002 38303.05684647  3247.33331336
0.47100002 38313.93246821  3255.15185678
0.47200002 38321.06349641  4622.09529269
0.47300002 38325.56499337  3814.92692026
0.47400002 38324.92235908  3276.78101701
0.47500002 38322.16894327  3009.82329146
0.47600002 38316.12763121  2741.51906196
