# SAXS profile: number of points = 501, q_min = 0, q_max = 0.5, delta_q = 0.001
#    q    intensity    error
0.00000000 1719190.39626459 257.87855944
0.00100000 1719119.65766105 928.32463718
0.00200000 1718907.38688080 928.21001831
0.00300000 1718553.75481339 1443.58520547
0.00400000 1718058.61525901 1675.10721353
0.00500000 1717422.47183154 1700.24831441
0.00600000 1716645.00044542 1982.72505624
0.00700000 1715726.91533818 2882.42133756
0.00800000 1714667.66382508 2546.28158828
0.00900000 1713468.58885661 2570.20299316
0.01000000 1712128.82748771 3107.51395607
0.01100000 1710649.70646841 3079.16960571
0.01200000 1709030.65859369 4332.39290948
0.01300000 1707273.09456932 6094.96521643
0.01400000 1705376.22907951 4604.51602264
0.01500000 1703341.91739268 4088.02078378
0.01600000 1701168.95529975 5205.57723592
0.01700000 1698859.57160835 5962.99736384
0.01800000 1696413.20427118 6768.68898962
0.01900000 1693830.72382310 5081.49240076
0.02000000 1691112.78539237 6925.10716944
0.02100000 1688260.91606832 8914.01804099
0.02200000 1685273.51269489 9302.71021272
0.02300000 1682153.21715074 7872.47741461
0.02400000 1678900.15578694 6925.46345841
0.02500000 1675515.74912849 7187.96289204
0.02600000 1671999.90701671 12866.03987296
0.02700000 1668354.03804533 9809.92219301
0.02800000 1664577.76782535 8689.09634653
0.02900000 1660673.73584086 8967.63858528
0.03000000 1656642.31828968 9244.06456096
0.03100000 1652483.84476258 10311.49966578
0.03200000 1648199.26369168 8974.44540415
0.03300000 1643791.49895838 9221.67073428
0.03400000 1639258.44343326 10327.32867014
0.03500000 1634603.62182304 15888.34793781
0.03600000 1629826.57643945 11759.19929245
0.03700000 1624929.48921964 12040.72807197
0.03800000 1619913.27348610 10424.14239731
0.03900000 1614779.72360958 12595.28242744
0.04000000 1609527.38409215 9898.59387086
0.04100000 1604160.38543818 10106.21089685
0.04200000 1598678.99325039 11342.62798333
0.04300000 1593083.59178345 11565.78741321
0.04400000 1587377.46349480 13929.23788907
0.04500000 1581560.56126752 14186.59889375
0.04600000 1575633.28546137 15551.50125044
0.04700000 1569598.57588679 15821.55438077
0.04800000 1563457.01292945 12640.55053768
0.04900000 1557211.14804337 11679.08415396
0.05000000 1550860.75974749 15423.31097389
0.05100000 1544408.96685324 19274.22480420
0.05200000 1537854.27228538 15893.72464474
0.05300000 1531201.69001899 13643.00769408
0.05400000 1524450.33935455 13834.38747479
0.05500000 1517603.66361978 16572.23277981
0.05600000 1510660.17263829 14207.75958666
0.05700000 1503625.47311769 20930.46756280
0.05800000 1496497.61637830 18541.60633268
0.05900000 1489278.63244073 18764.91164518
0.06000000 1481971.86104169 14916.04747824
0.06100000 1474578.70207316 16456.29908416
0.06200000 1467099.28014960 19409.72438366
0.06300000 1459536.93058900 19616.17726428
0.06400000 1451890.28517036 15571.52403668
0.06500000 1444165.01389549 20016.12802890
0.06600000 1436359.28035233 17322.49373154
0.06700000 1428476.23653398 14570.45829453
0.06800000 1420519.17006087 19113.08632784
0.06900000 1412487.96119361 16314.23671560
0.07000000 1404382.87556966 20939.34965530
0.07100000 1396208.72299947 22618.58237200
0.07200000 1387964.27214457 18237.85139036
0.07300000 1379654.66979973 18377.00106280
0.07400000 1371278.97659149 24683.02273540
0.07500000 1362839.84426574 18643.64994343
0.07600000 1354337.23989387 18771.11502493
0.07700000 1345776.77064882 17320.14785037
0.07800000 1337156.79908596 20598.90145593
0.07900000 1328479.35130424 15941.75296338
0.08000000 1319748.54847157 19241.93473938
0.08100000 1310964.83893157 17737.35510295
0.08200000 1302128.18357971 22696.09530481
0.08300000 1293242.90040759 27701.26422681
0.08400000 1284308.77829151 24562.40653775
0.08500000 1275330.27574341 24677.64199413
0.08600000 1266306.39836833 16525.29927459
0.08700000 1257240.77463913 24893.36850679
0.08800000 1248132.35128656 19995.08120666
0.08900000 1238987.04887342 21744.22372905
0.09000000 1229803.56704506 28537.59311385
0.09100000 1220584.78265681 18528.47787122
0.09200000 1211331.72501684 18587.88619377
0.09300000 1202047.96565138 28813.09109065
0.09400000 1192731.68965959 20395.71285173
0.09500000 1183387.22674128 18744.85455264
0.09600000 1174015.68135523 25622.89345005
0.09700000 1164620.48337166 20543.90629250
0.09800000 1155202.11886227 29163.07886186
0.09900000 1145762.24731135 22342.36487316
0.10000000 1136301.01182977 17214.96113879
0.10100000 1126821.36292431 18964.40442995
0.10200000 1117325.69426916 20715.21934612
0.10300000 1107814.43553602 22466.47780951
0.10400000 1098290.86557230 20757.69833586
0.10500000 1088757.28608838 22504.61416227
0.10600001 1079210.49665749 24249.86100094
0.10700001 1069657.04804551 17328.44499377
0.10800001 1060095.84319855 19065.82463720
0.10900001 1050530.50261723 19067.12951991
0.11000001 1040961.42991406 20798.41034865
0.11100001 1031390.31797740 24258.30142075
0.11200001 1021819.35777282 19051.82282258
0.11300001 1012248.16676377 24233.22225324
0.11400001 1002681.18638143 17296.25127946
0.11500001 993118.59995560 22464.34378880
0.11600001 983561.41729540 17261.50368640
0.11700001 974012.72960116 18964.02873844
0.11800001 964470.75721139 18937.38420976
0.11900001 954940.00895956 25783.38145635
0.12000001 945420.19591790 17159.37736420
0.12100001 935915.79500782 20552.71182657
0.12200001 926423.96665944 20511.02758814
0.12300001 916949.30781346 17055.25792888
0.12400001 907490.90132663 20418.54624192
0.12500001 898051.62904989 20367.81190659
0.12600001 888633.91268913 20314.17220135
0.12700001 879237.27555081 23633.89908059
0.12800001 869862.29084001 25247.75418154
0.12900001 860512.15222695 25169.98163895
0.13000001 851187.60291580 18398.42090423
0.13100001 841888.12126976 30004.89405641
0.13200001 832618.41127660 21593.95951441
0.13300001 823378.18939010 19859.88286434
0.13400001 814167.10180362 16486.88458881
0.13500001 804988.32695113 19706.11517287
0.13600001 795841.28800598 22896.35493551
0.13700001 786729.16445965 17913.82391944
0.13800001 777650.58092888 17835.41691465
0.13900001 768610.26439349 16140.81631343
0.14000001 759605.77420576 19278.79545854
0.14100001 750640.28921023 19186.36669710
0.14200001 741712.87764390 19091.69037102
0.14300001 732828.62854772 20577.82886023
0.14400001 723981.29736741 17321.25335656
0.14500001 715180.25267442 17228.69309964
0.14600001 706420.49863037 18691.88727554
0.14700001 697707.28414623 17038.01268265
0.14800001 689037.19655759 21559.97489746
0.14900001 680412.81922656 18371.14698588
0.15000001 671836.46770109 18260.51605370
0.15100001 663307.19972192 18148.08584071
0.15200001 654828.19051940 21039.63075419
0.15300001 646398.39764383 14931.80369019
0.15400001 638016.67084559 17800.66595662
0.15500001 629688.17492392 16208.17438745
0.15600001 621409.87936437 19024.46435460
0.15700001 613187.03845178 14532.53349720
0.15800001 605013.01416616 17315.47328270
0.15900001 596896.25433719 17190.61293632
0.16000001 588831.75360682 18486.37377709
0.16100001 580825.59313165 21171.09386901
0.16200001 572873.03544350 23811.46884225
0.16300001 564978.28012447 15288.31298190
0.16400001 557140.12609423 16547.06252618
0.16500001 549360.07561667 19150.69314013
0.16600001 541637.39054088 20352.02591045
0.16700001 533973.57713856 24221.04260260
0.16800001 526367.64777193 18680.78870147
0.16900001 518824.10383845 23814.02749064
0.17000001 511339.26067775 15739.02318685
0.17100001 503915.38604944 18201.42460360
0.17200001 496552.19020880 12885.52994441
0.17300001 489250.60626025 20431.10628228
0.17400001 482012.01248399 16448.66070282
0.17500001 474834.52288133 13789.19519570
0.17600001 467717.99872496 16143.28748842
0.17700001 460666.58018438 13529.77809903
0.17800001 453677.66881190 13399.37058124
0.17900001 446751.70773103 14474.75601418
0.18000001 439890.16172348 13137.32030041
0.18100001 433093.68572171 13005.80399657
0.18200001 426358.38726187 14044.24593983
0.18300001 419690.47605446 13900.14922356
0.18400001 413085.23609039 12609.42742734
0.18500001 406546.07045750 20416.74462291
0.18600001 400071.29632553 11222.00039210
0.18700001 393661.45799217 11101.25363986
0.18800001 387315.72790270 10980.40140482
0.18900001 381037.93718819 16289.37258443
0.19000001 374821.33253047 13960.22118970
0.19100001 368674.89912504 14864.97263509
0.19200001 362590.92295056 12596.40925850
0.19300001 356574.61300522 16602.11476602
0.19400001 350622.62309231 11281.28343108
0.19500001 344736.75563334 11148.78720402
0.19600001 338915.58212487 12017.94711007
0.19700001 333160.44629717 10884.35229490
0.19800001 327470.93209923 10752.50856363
0.19900001 321847.95722230 9655.43917298
0.20000001 316288.05193973 12396.91078167
0.20100001 310795.59782558 15067.37129470
0.20200001 305366.84980585 10228.26311767
0.20300001 300004.28259124 12852.18407366
0.20400001 294706.76773261 9968.45688972
0.20500001 289473.43120973 9839.20239189
0.20600001 284304.97629224 10593.20391737
0.20700001 279201.19332739 10453.29317230
0.20800001 274161.29100373 11173.44394303
0.20900001 269187.98652621 11023.24856933
0.21000001 264276.49922584 9200.78675549
0.21100001 259428.97192834 9899.81003678
0.21200001 254645.05228260 9763.09176606
0.21300001 249924.09373408 8824.82016695
0.21400001 245267.45936001 13446.78909513
0.21500001 240674.09133281 8577.62502063
0.21600001 236141.55643454 12298.25284055
0.21700001 231672.46722020 8333.25903990
0.21800001 227265.23762790 7465.66340906
0.21900001 222918.62830859 8091.94659020
0.22000001 218633.37278530 7972.46631557
0.22100001 214411.88570356 10709.87419729
0.22200001 210249.57069341 8439.41816669
0.22300001 206147.93610127 7619.22807858
0.22400001 202104.55117751 8185.23470974
0.22500001 198123.89535626 10074.60055527
0.22600001 194201.35515266 8596.32339234
0.22700001 190338.55882177 9113.41062735
0.22800001 186533.72541424 7688.92052518
0.22900001 182786.82773321 8828.60419703
0.23000001 179098.37765654 6826.33498721
0.23100001 175468.59170470 9159.46092016
0.23200001 171894.24445491 6608.47454061
0.23300001 168377.77687524 6501.06627262
0.23400001 164917.78721580 8138.69318402
0.23500001 161512.21390027 6861.03917098
0.23600001 158163.08065038 5622.69778306
0.23700001 154868.77783769 7187.46031940
0.23800001 151629.38919943 7066.68801788
0.23900001 148444.06341214 6947.18249629
0.24000001 145312.57687032 6303.65988280
0.24100001 142235.10666027 7228.38846239
0.24200001 139210.13523820 6089.05160334
0.24300001 136237.48967327 5983.55082949
0.24400001 133316.28394097 5879.24839991
0.24500001 130446.97375848 7220.24033908
0.24600001 127628.57973090 5674.36692326
0.24700001 124861.95865376 5573.83809798
0.24800001 122144.16894032 4562.08492574
0.24900001 119475.81345995 6272.48050338
0.25000001 116857.30763971 4839.64562485
0.25100001 114286.87894842 4752.04865149
0.25200001 111765.72301340 4665.66032793
0.25300001 109292.08779191 4996.83449025
0.25400001 106865.13589832 5313.86913395
0.25500001 104484.87072516 4413.44114824
0.25600001 102151.59476531 5119.32741387
0.25700001 99863.73416720  5024.14470366
0.25800001 97620.94417192  4551.08863263
0.25900001 95423.28097877  4465.80976111
0.26000001 93270.34594317  5112.14790303
0.26100001 91159.25257155  3940.81467513
0.26200001 89093.98068590  3514.75770437
0.26300001 87070.27846575  3447.98319039
0.26400001 85088.58567338  3720.49858462
0.26500001 83149.53986923  3981.20015732
0.26600001 81251.21408660  3579.52240597
0.26700001 79394.48506132  3510.82429554
0.26800001 77578.11735715  3756.33262019
0.26900001 75801.04586159  3069.94250267
0.27000001 74063.91232394  3311.76799629
0.27100001 72365.57203829  3247.76702677
0.27200001 70705.98724211  4053.57444042
0.27300001 69083.64197325  3407.20538336
0.27400001 67497.69534582  4454.84810365
0.27500001 65951.09060295  4095.56292027
0.27600001 64438.88213567  2945.17924739
0.27700001 62963.90420709  3413.27340861
0.27800001 61523.94785656  2574.77733965
0.27900001 60118.98533202  2524.99750345
0.28000001 58748.64716870  3714.38339304
0.28100001 57411.95367386  3157.08348195
0.28200001 56109.43189415  2858.21459597
0.28300001 54839.89690122  2336.17971856
0.28400001 53603.02020742  2978.98798903
0.28500001 52398.67879713  2472.69376947
0.28600001 51225.18177729  3307.86626984
0.28700001 50083.26669903  2596.31666857
0.28800001 48971.64293594  2335.21290393
0.28900001 47891.95570751  2291.63018908
0.29000001 46840.39485371  3271.33333143
0.29100001 45819.52298434  2809.65328239
0.29200001 44827.11146371  1970.15164209
0.29300001 43863.10527266  2708.10824772
0.29400001 42926.94130353  2089.46896686
0.29500001 42019.32168090  2238.78956514
0.29600001 41137.99239610  2565.77670720
0.29700001 40283.15385910  2520.91988784
0.29800001 39455.31187794  1769.57082149
0.29900001 38652.99795295  2087.26198827
0.30000001 37876.07805318  1881.11550556
0.30100001 37125.13333895  2690.82979179
0.30200001 36397.63555219  2315.98165983
0.30300001 35694.53698393  2115.97225258
0.30400001 35016.07118856  1922.38239926
0.30500001 34359.62453758  1892.52820913
0.30600001 33726.36168536  1863.71883497
0.30700001 33116.21952707  1682.96635604
0.30800001 32528.00980336  1809.20799092
0.30900001 31961.40851692  1486.20556640
0.31000001 31416.89723491  1758.71799048
0.31100001 30891.69364275  1590.30446402
0.31200001 30388.08688262  1426.72074669
0.31300001 29904.27056825  1971.88769463
0.31400001 29441.62881230  1391.11702725
0.31500001 28997.05185548  1924.24445224
0.31600002 28571.99261680  1630.31797591
0.31700002 28165.02125724  1746.51305086
0.31800002 27776.80189404  1727.85604363
0.31900002 27406.57887923  1315.51584849
0.32000002 27053.97919435  2344.76848780
0.32100002 26718.77947220  1419.56882057
0.32200002 26400.43957691  1790.74190129
0.32300002 26097.88749013  1775.70034891
0.32400002 25812.09889214  1384.17386863
0.32500002 25541.67941219  1873.48227360
0.32600002 25287.09135176  1736.46464535
0.32700002 25047.60466095  1478.81064921
0.32800002 24823.64554866  1225.04696584
0.32900002 24612.88912075  1583.83948992
0.33000002 24418.06685601  1454.82849217
0.33100002 24234.53714001  2172.38401210
0.33200002 24067.21719009  1322.37331113
0.33300002 23911.57751676  2156.34616258
0.33400002 23769.78075600  2030.53361724
0.33500002 23640.03836076  1429.74958777
0.33600002 23522.53791692  1426.87721761
0.33700002 23416.51175043  1662.10408276
0.33800002 23323.53746641  1186.00193633
0.33900002 23240.82889664  1185.28232986
0.34000002 23169.76520632  1185.13354643
0.34100002 23109.38030028  1422.61351866
0.34200002 23060.60646086  1186.46825860
0.34300002 23020.62413612  1187.86426168
0.34400002 22991.83151321  2022.70647317
0.34500002 22971.94890203  1788.36630672
0.34600002 22963.03354169  1792.83892868
0.34700002 22961.08952382  1558.13960888
0.34800002 22969.95388766  1202.47714297
0.34900002 22986.86336228  1568.85349878
0.35000002 23012.51642925  1696.25266634
0.35100002 23046.34303450  1581.90106081
0.35200002 23087.21332366  1589.20840440
0.35300002 23136.54902577  1351.40589260
0.35400002 23193.64734421  1358.56795753
0.35500002 23257.57931890  1987.12767113
0.35600002 23328.28617996  1873.84467616
0.35700002 23405.77798285  1885.33550582
0.35800002 23490.62880061  1391.46746291
0.35900002 23581.13548005  1273.38137624
0.36000002 23678.50314060  1410.41010638
0.36100002 23780.94039474  1549.56614952
0.36200002 23890.26482882  1300.82498154
0.36300002 24003.32787792  1572.69811706
0.36400002 24122.45360159  2113.12703559
0.36500002 24246.21096903  1464.22874978
0.36600002 24375.38099647  1878.61070238
0.36700002 24508.81636150  1758.75274541
0.36800002 24648.14733503  1364.27501962
0.36900002 24790.51953726  1513.46128944
0.37000002 24936.30986769  1526.47628086
0.37100002 25086.37090063  2099.72934385
0.37200002 25240.77618573  1694.66579339
0.37300002 25397.97761507  1994.75725638
0.37400002 25559.66238338  1869.05040032
0.37500002 25723.26757462  1595.87159593
0.37600002 25891.07747424  2049.79670074
0.37700002 26060.49279924  1477.63001172
0.37800002 26233.40618220  1640.50613332
0.37900002 26408.77940405  1505.30049734
0.38000002 26586.50473371  1823.30258101
0.38100002 26765.94330548  1533.68862406
0.38200002 26947.79122042  2167.41095054
0.38300002 27131.18587071  1562.75638019
0.38400002 27316.99568152  1577.55657534
0.38500002 27503.59435137  1751.70400722
0.38600002 27692.47203397  2732.83173214
0.38700002 27881.64551139  2271.79658389
0.38800002 28072.03325917  2129.40418376
0.38900002 28263.67788158  1818.76775784
0.39000002 28456.84076476  1835.89316892
0.39100002 28649.75196290  2021.52659427
0.39200002 28844.25615000  1700.36898060
0.39300002 29038.47545542  1887.79137879
0.39400002 29234.12287114  2424.97060705
0.39500002 29428.85868349  1922.88171748
0.39600002 29624.03352007  2646.16691955
0.39700002 29818.75583780  2314.23375022
0.39800002 30014.75971881  2514.93683599
0.39900002 30209.42480290  1812.56557405
0.40000002 30403.54191306  2011.65044599
0.40100002 30597.51205625  2029.53307085
0.40200002 30791.77457233  2233.63543331
0.40300002 30984.30283915  2253.17860922
0.40400002 31176.41414707  2651.55414884
0.40500002 31367.69006667  2101.32165713
0.40600002 31558.27335066  2311.95921521
0.40700002 31747.47020861  2137.23979571
0.40800002 31935.80989002  2351.11443550
0.40900002 32122.33490824  2568.18079760
0.41000002 32308.37228599  2190.99237039
0.41100002 32492.73753410  2208.85640223
0.41200002 32674.81512937  2226.62538249
0.41300002 32856.12054522  2448.43821904
0.41400002 33035.27346738  2262.09045786
0.41500002 33213.51881789  3316.03787590
0.41600002 33388.73525323  3550.39133138
0.41700002 33562.86972195  2735.70964066
0.41800002 33735.94805698  2332.33487944
0.41900002 33904.95072926  2776.81559630
0.42000002 34072.69268294  3012.36690284
0.42100002 34238.83793192  2817.51410693
0.42200002 34402.62948454  2619.41633307
0.42300002 34563.64276489  2198.24778401
0.42400002 34722.29669702  2434.90117126
0.42500002 34879.08492548  2228.77363235
0.42600002 35031.97828804  2468.17814724
0.42700002 35183.75604681  3388.19586786
0.42800002 35332.50701991  3410.47040171
0.42900002 35479.13582222  2746.08524277
0.43000002 35623.09901173  3684.85353639
0.43100002 35763.02344433  2780.93283481
0.43200002 35900.97488359  3497.65264378
0.43300002 36035.85107189  3049.71422073
0.43400002 36168.33153983  3775.97399170
0.43500002 36297.22290956  4035.52543432
0.43600002 36424.37189978  3103.90299853
0.43700002 36547.62277444  2401.17893007
0.43800002 36667.02681360  2655.97621311
0.43900002 36784.56430887  2913.33763132
0.44000002 36898.30306700  3905.31658168
0.44100002 37009.45943155  2453.72727659
0.44200002 37117.33157379  2713.09147996
0.44300002 37222.21539697  3718.49949438
0.44400002 37323.29772702  3487.86233788
0.44500002 37420.49773232  3504.80398371
0.44600002 37515.25097678  4276.17608524
0.44700002 37607.04009691  3538.07049999
0.44800002 37694.03042575  2792.56237644
0.44900002 37779.48397969  2550.11528948
0.45000002 37861.25439351  2817.44537922
0.45100002 37938.28111415  3086.65869773
0.45200002 38012.88507369  3357.86836212
0.45300002 38083.38550447  3630.87014607
0.45400002 38151.28106901  2603.82505636
0.45500002 38215.52695795  3920.91325171
0.45600002 38276.14559510  2886.21289539
0.45700002 38333.12543395  3686.88017897
0.45800002 38386.06526037  2642.88071843
0.45900002 38435.97952422  3712.91579801
0.46000002 38482.96741306  2661.09732273
0.46100002 38525.22372625  3203.75775692
0.46200002 38564.93434500  3214.00178064
0.46300002 38600.79712206  3223.93872843
0.46400002 38632.56906939  3233.54618436
0.46500002 38661.90209578  2972.71379304
0.46600002 38686.63718847  2980.99896984
0.46700002 38708.02012074  3532.49408364
0.46800002 38726.53345158  2724.41175745
0.46900002 38740.88230076  4096.84849748
0.47000002 38751.15794479  3559.10027013
0.47100002 38758.56395145  3841.74904095
0.47200002 38762.20542515  3575.23218684
0.47300002 38763.19293352  3307.27577784
0.47400002 38758.84795051  3037.72485210
0.47500002 38752.44344804  3597.00197134
0.47600002 38742.77579473  3326.45488740
0.47700002 38728.27714318  2776.81760278
