# SAXS profile: number of points = 501, q_min = 0, q_max = 0.5, delta_q = 0.001
#    q    intensity    error
0.00000000 1700912.83420645 306.16431016
0.00100000 1700842.67695158 663.32865976
0.00200000 1700632.14550447 994.86983662
0.00300000 1700281.41590145 1020.16888588
0.00400000 1699790.34268015 2039.74848872
0.00500000 1699159.41756368 1835.09224360
0.00600000 1698388.33772268 1961.63860993
0.00700000 1697477.78612933 2036.97342801
0.00800000 1696427.23305649 2290.17686132
0.00900000 1695237.99995552 3559.99995209
0.01000000 1693909.24668009 3912.93052879
0.01100000 1692442.29327356 3655.67551264
0.01200000 1690836.52303996 3956.55763738
0.01300000 1689093.42513225 4611.22525399
0.01400000 1687212.15552926 4935.09577370
0.01500000 1685194.57353275 5257.80730355
0.01600000 1683039.51433550 6008.45133478
0.01700000 1680749.15067569 9076.04582079
0.01800000 1678322.94313553 4783.22060317
0.01900000 1675761.77523969 5027.28555256
0.02000000 1673066.21912410 6324.19059437
0.02100000 1670237.88140357 5511.78525853
0.02200000 1667275.13386153 6327.30942047
0.02300000 1664180.64732259 7189.26072368
0.02400000 1660954.49490845 6228.57963991
0.02500000 1657598.03047262 7757.55913690
0.02600000 1654111.32923359 7369.06630878
0.02700000 1650495.63713199 9011.70659149
0.02800000 1646750.65614685 11461.38509240
0.02900000 1642879.03577788 11828.72960071
0.03000000 1638881.11314061 7620.79752640
0.03100000 1634757.14274325 8631.51811085
0.03200000 1630508.19615988 11299.42231982
0.03300000 1626137.13547314 10781.28970521
0.03400000 1621641.80865294 12770.42983237
0.03500000 1617025.80821003 10478.32772107
0.03600000 1612288.69571975 10737.84320973
0.03700000 1607432.42338500 12827.31133184
0.03800000 1602458.20874273 11249.25714598
0.03900000 1597367.59242195 9584.20599838
0.04000000 1592159.23816104 10770.95774527
0.04100000 1586837.31033100 11996.49062234
0.04200000 1581401.97036294 10200.04318205
0.04300000 1575853.50293126 12480.76032255
0.04400000 1570195.43234709 13778.46555874
0.04500000 1564427.59637576 14032.91619153
0.04600000 1558550.27399451 16481.66991367
0.04700000 1552566.62775817 14532.02431167
0.04800000 1546476.98560546 12503.26701037
0.04900000 1540284.03138347 11552.13077310
0.05000000 1533987.40484479 11735.00419352
0.05100000 1527590.42403926 15489.76762133
0.05200000 1521091.45000680 12092.67759109
0.05300000 1514495.60008451 15947.63941233
0.05400000 1507801.72753392 12439.36483225
0.05500000 1501013.56978629 20173.62331901
0.05600000 1494129.41535064 12774.80709737
0.05700000 1487154.98535079 18113.54856709
0.05800000 1480088.17356231 20958.04951622
0.05900000 1472931.36837685 15907.65952145
0.06000000 1465687.34741683 18775.45579758
0.06100000 1458357.79379055 16275.27373927
0.06200000 1450943.00432145 16453.69443811
0.06300000 1443446.04560526 20785.62402855
0.06400000 1435865.55932406 19599.56580138
0.06500000 1428207.33345698 16967.10391515
0.06600000 1420469.50648383 14275.71920810
0.06700000 1412655.08212642 17290.89901442
0.06800000 1404767.26319359 18901.14441101
0.06900000 1396806.29264398 14666.46675943
0.07000000 1388772.12727366 20706.59338731
0.07100000 1380669.66541754 20875.72631889
0.07200000 1372497.65864296 16531.73507281
0.07300000 1364261.10502701 18171.95877042
0.07400000 1355959.34436074 24407.26934232
0.07500000 1347594.67111541 19971.35396204
0.07600000 1339167.26980618 17014.12096052
0.07700000 1330682.81086492 24910.38338740
0.07800000 1322139.45847979 17234.08864950
0.07900000 1313539.22581482 17338.71859401
0.08000000 1304886.33847145 15854.36975617
0.08100000 1296181.07457046 19131.63355828
0.08200000 1287423.62606852 22439.79485537
0.08300000 1278618.20048516 16110.59008222
0.08400000 1269764.37116216 17808.44614145
0.08500000 1260866.90739971 21144.73902974
0.08600000 1251924.61906901 19605.14045511
0.08700000 1242941.14268703 31172.96532240
0.08800000 1233915.31159043 19767.32422003
0.08900000 1224853.26386513 18189.07182273
0.09000000 1215753.55142667 18254.54043219
0.09100000 1206619.12204852 24977.01699985
0.09200000 1197450.80475989 21715.77136467
0.09300000 1188252.30575132 20105.22995810
0.09400000 1179021.63296158 18481.16496524
0.09500000 1169763.48514159 20213.51397334
0.09600000 1160478.67957442 18573.46213969
0.09700000 1151170.42266079 16922.20600867
0.09800000 1141839.71558971 22043.21674588
0.09900000 1132487.85299451 22083.51417181
0.10000000 1123115.09701185 17015.19451991
0.10100000 1113724.26376552 20447.97844444
0.10200000 1104317.60428235 29004.90324076
0.10300000 1094895.90914325 17080.37698611
0.10400000 1085462.22637713 20515.23704367
0.10500000 1076018.80602973 17108.69982083
0.10600001 1066562.41260210 18830.16028052
0.10700001 1057100.12785953 22262.52974034
0.10800001 1047630.14411950 20554.50439495
0.10900001 1038156.30400822 20555.49578682
0.11000001 1028678.83419658 22265.75441422
0.11100001 1019199.73127637 22259.32317890
0.11200001 1009721.27938344 22249.20943864
0.11300001 1000242.53204741 18814.56291362
0.11400001 990768.34801201 18799.83028871
0.11500001 981298.81130402 22196.98015691
0.11600001 971834.70803234 22172.40990789
0.11700001 962379.45079785 17034.11708134
0.11800001 952930.98094901 18710.80069218
0.11900001 943493.94670052 23776.04857674
0.12000001 934068.09809848 20344.00413489
0.12100001 924657.63577943 25381.85329784
0.12200001 915260.10658364 23641.16966682
0.12300001 905879.64301525 26958.97944629
0.12400001 896515.81609774 20171.60681263
0.12500001 887170.91342798 25151.29658082
0.12600001 877847.74956644 18395.30045901
0.12700001 868545.83703716 21678.90511410
0.12800001 859265.53458837 16626.78887789
0.12900001 850010.17261964 18232.71906204
0.13000001 840780.30723842 19825.60057916
0.13100001 831575.88845839 23051.28471465
0.13200001 822400.86142949 22969.65714252
0.13300001 813255.44883468 21250.36587986
0.13400001 804139.16926723 24425.72841806
0.13500001 795055.22010755 25950.60360783
0.13600001 786003.06465848 16152.36374033
0.13700001 776985.64251269 22517.04498177
0.13800001 768001.56053215 25620.53326751
0.13900001 759055.90925641 17534.19233070
0.14000001 750145.92766703 19038.70454207
0.14100001 741274.81266873 18946.98510541
0.14200001 732441.62550949 17281.96096901
0.14300001 723651.50822523 18757.04797792
0.14400001 714898.23742210 15549.03739738
0.14500001 706191.20303477 20105.26449881
0.14600001 697525.09590462 21532.60072636
0.14700001 688905.43325764 18352.44160779
0.14800001 680328.72093801 25849.09097157
0.14900001 671797.61865162 24184.71541251
0.15000001 663314.17065988 15024.06667433
0.15100001 654877.95608815 16424.33991367
0.15200001 646491.52922761 19288.07568465
0.15300001 638154.08761090 14741.36011944
0.15400001 629864.56690110 19037.65743299
0.15500001 621628.00300949 14546.09595690
0.15600001 613441.16181168 15891.19404672
0.15700001 605309.72820306 17215.00948259
0.15800001 597226.92504378 24214.56681880
0.15900001 589201.09891359 15554.90974552
0.16000001 581227.00949228 23862.27600106
0.16100001 573311.05751752 18110.89716189
0.16200001 565448.44649511 24885.38730499
0.16300001 557643.24987970 15089.82705410
0.16400001 549894.33651670 17692.85111270
0.16500001 542203.07154042 14850.94283062
0.16600001 534569.02332339 20086.43199972
0.16700001 526993.36904507 17264.30358505
0.16800001 519475.40203310 15802.44247598
0.16900001 512019.19975220 13056.49021018
0.17000001 504621.39455808 18120.95513425
0.17100001 497284.14480246 19244.89731262
0.17200001 490007.26230218 13987.25796293
0.17300001 482791.46071580 15121.02926370
0.17400001 475638.17640233 17479.70380828
0.17500001 468545.77765880 13606.57002582
0.17600001 461513.83204148 14703.83138329
0.17700001 454546.52346662 18204.58912465
0.17800001 447641.17175614 13221.08263228
0.17900001 440798.36564674 14281.86772154
0.18000001 434019.65920893 14140.36116495
0.18100001 427305.38215915 12831.98123238
0.18200001 420651.80168998 19629.71725313
0.18300001 414065.10308446 12571.01712349
0.18400001 407540.77733560 14702.03423692
0.18500001 401081.72404699 13428.21675547
0.18600001 394686.85480532 15499.35352045
0.18700001 388356.19387228 16427.46777691
0.18800001 382089.21650389 14081.89873957
0.18900001 375889.67950890 10712.85637216
0.19000001 369750.65806697 14830.69959580
0.19100001 363681.42942839 12568.83079492
0.19200001 357673.90060877 14496.52387665
0.19300001 351733.67206939 10235.45034087
0.19400001 345857.20418387 11127.95607045
0.19500001 340046.18781221 12996.56591234
0.19600001 334299.31726290 10866.39982114
0.19700001 328618.08185783 10735.95324165
0.19800001 323001.68757856 13498.24116182
0.19900001 317451.29220454 10475.89313784
0.20000001 311963.44540029 10346.26815568
0.20100001 306542.39354620 12074.70545246
0.20200001 301184.44799585 10088.17356242
0.20300001 295892.06805018 9959.72748131
0.20400001 290664.11894896 10725.50649617
0.20500001 285499.66924096 9704.13421618
0.20600001 280399.78386125 8706.41370043
0.20700001 275363.73681830 9450.48389432
0.20800001 270390.97871501 11019.78485844
0.20900001 265484.24192750 13380.40642565
0.21000001 260638.66762464 13198.74275245
0.21100001 255856.29291320 12204.34574890
0.21200001 251137.07739832 10430.97900286
0.21300001 246480.10665633 8703.21297748
0.21400001 241886.77635412 10141.10357808
0.21500001 237356.13117078 11535.50852027
0.21600001 232885.71735297 7580.43045823
0.21700001 228478.09618708 8965.48091827
0.21800001 224131.59485721 8098.99556309
0.21900001 219845.17138317 8705.86919840
0.22000001 215619.35047048 10721.67270909
0.22100001 211456.62741484 9858.10843621
0.22200001 207352.53011985 11097.50793675
0.22300001 203308.28109842 9563.62199509
0.22400001 199321.76610098 7399.82091641
0.22500001 195397.39641757 8611.16366732
0.22600001 191530.23082783 6521.60466808
0.22700001 187722.28280232 8346.13308807
0.22800001 183971.69939605 10743.02789427
0.22900001 180278.39312793 6841.56534275
0.23000001 176642.69472674 7344.80359409
0.23100001 173065.13069463 9034.00024950
0.23200001 169542.28536942 6518.05346929
0.23300001 166076.62424295 6412.21876528
0.23400001 162666.89036232 6880.80978776
0.23500001 159310.73268796 7331.48026505
0.23600001 156010.53292348 10537.73194472
0.23700001 152764.51740527 5999.06288225
0.23800001 149572.49045804 7507.04365116
0.23900001 146434.13122652 6325.95476820
0.24000001 143348.71095302 6218.46737528
0.24100001 140316.82541061 7130.90140467
0.24200001 137336.73293031 5506.51656731
0.24300001 134408.25474124 5411.27659185
0.24400001 131530.58355805 5800.49900929
0.24500001 128704.21600351 5224.10437471
0.24600001 125928.10223519 4665.63640852
0.24700001 123202.99583013 5041.46682786
0.24800001 120525.97784994 4951.81003422
0.24900001 117897.98980885 4421.17482699
0.25000001 115319.04722068 5644.29103324
0.25100001 112787.55764634 5116.04385687
0.25200001 110304.68296303 5860.48808308
0.25300001 107868.75782144 6164.69980115
0.25400001 105478.83074830 4438.02201370
0.25500001 103134.93360046 5544.53429268
0.25600001 100837.29768620 5053.46141264
0.25700001 98584.59980749  4196.74661237
0.25800001 96376.22505091  4118.63817242
0.25900001 94212.39614782  4409.14034834
0.26000001 92092.69602561  5768.68675199
0.26100001 90014.16786689  3891.31266101
0.26200001 87980.76869709  4512.09393613
0.26300001 85988.46474653  4767.20071112
0.26400001 84037.48551805  4342.63726963
0.26500001 82128.59051357  4915.39637483
0.26600001 80259.67799569  3857.28030700
0.26700001 78431.88569443  4414.14673576
0.26800001 76643.74049341  3711.09009030
0.26900001 74894.42140864  3639.86905270
0.27000001 73184.37178993  3272.43933945
0.27100001 71512.46540501  3209.47959926
0.27200001 69878.78345771  3719.99721341
0.27300001 68281.74797043  3648.29396671
0.27400001 66720.64151553  3027.44925204
0.27500001 65198.18298642  3508.96637439
0.27600001 63709.46899946  3705.97998709
0.27700001 62257.68610391  4413.44757678
0.27800001 60840.11251044  3819.23824360
0.27900001 59457.22222608  2996.64414202
0.28000001 58108.19986737  2449.26074033
0.28100001 56792.33556201  2642.54749877
0.28200001 55510.07287468  3063.32351658
0.28300001 54260.29019658  3236.08386049
0.28400001 53042.63064246  2721.08708075
0.28500001 51856.88600057  3336.99077208
0.28600001 50701.58991442  2182.70354913
0.28700001 49577.37139583  2355.91680024
0.28800001 48482.79782585  2522.07526228
0.28900001 47419.63997961  2681.58076778
0.29000001 46384.23594440  2834.54079273
0.29100001 45379.06250279  1987.60303170
0.29200001 44401.66278804  3317.47039224
0.29300001 43452.25601226  3065.99132936
0.29400001 42530.21737488  2070.15842872
0.29500001 41636.44820780  2033.52422673
0.29600001 40768.17903878  1816.22246215
0.29700001 39926.04560633  1963.16375540
0.29800001 39110.50037961  1929.51662757
0.29900001 38319.98584105  2069.27933337
0.30000001 37554.44235371  3052.04967457
0.30100001 36814.32591611  2334.76466013
0.30200001 36097.25214622  1804.68220649
0.30300001 35404.26689407  1937.32157616
0.30400001 34735.40619828  1589.14490880
0.30500001 34088.17967900  1721.11227347
0.30600001 33463.70683615  2003.30490459
0.30700001 32861.92354863  1670.04303381
0.30800001 32281.68630614  1945.13310047
0.30900001 31722.56481387  1475.09933368
0.31000001 31185.23973700  1600.27065287
0.31100001 30666.86720343  1578.73039838
0.31200001 30169.70744374  1416.46783155
0.31300001 29691.79531063  1957.87707548
0.31400001 29234.79108225  1519.47833844
0.31500001 28795.59959707  1910.87607974
0.31600002 28375.42583159  1484.17671839
0.31700002 27973.04019803  1467.74548869
0.31800002 27589.06908998  1584.16442215
0.31900002 27222.78070062  1306.69353550
0.32000002 26873.67424590  1940.95121431
0.32100002 26541.66235376  1666.55105810
0.32200002 26226.33838800  1397.73277057
0.32300002 25926.40943885  1764.03298175
0.32400002 25642.83403934  1375.09704047
0.32500002 25374.45093551  1488.97285140
0.32600002 25121.55776327  1725.09745329
0.32700002 24883.52766564  1958.83139060
0.32800002 24660.58231643  1338.69977444
0.32900002 24450.73217819  1210.31130013
0.33000002 24256.41746584  1686.06365789
0.33100002 24073.23311498  1798.27059884
0.33200002 23905.92052452  1552.33102277
0.33300002 23750.10019842  1308.86808392
0.33400002 23607.83979738  1304.92340660
0.33500002 23477.41040302  1301.58769438
0.33600002 23358.94911940  2007.35138764
0.33700002 23251.72752388  1886.18022606
0.33800002 23157.44366354  1295.31167266
0.33900002 23073.00424417  1176.72327218
0.34000002 23000.20284122  1647.04460346
0.34100002 22937.72686999  1294.37598857
0.34200002 22886.68327821  1413.02389252
0.34300002 22844.29819390  1296.64242689
0.34400002 22812.79842608  1298.61861191
0.34500002 22790.15856024  1892.49485647
0.34600002 22778.27103490  1185.60906352
0.34700002 22773.16596389  1426.51118354
0.34800002 22778.67043316  1192.46345365
0.34900002 22792.09340542  1675.21894464
0.35000002 22814.01633811  1441.38962051
0.35100002 22844.06626348  2050.48348493
0.35200002 22881.02327640  1938.48038379
0.35300002 22926.28298852  1582.60138965
0.35400002 22979.10616400  1346.00120731
0.35500002 23038.72738088  1353.29491045
0.35600002 23104.93274815  1484.72304872
0.35700002 23177.82828899  1866.97415711
0.35800002 23257.94454118  1628.17248472
0.35900002 23343.65563568  1638.72470324
0.36000002 23436.15825545  1395.97483261
0.36100002 23533.51267543  1405.65677868
0.36200002 23637.76434742  1801.90686155
0.36300002 23745.57575936  1685.46104723
0.36400002 23859.44236608  1436.93498456
0.36500002 23977.80356744  1842.93406949
0.36600002 24101.59100444  1857.50970670
0.36700002 24229.47501125  1471.21379237
0.36800002 24363.22919777  1618.20575997
0.36900002 24500.03141917  2583.52843553
0.37000002 24640.16086417  1782.59252216
0.37100002 24784.55302175  1521.27593654
0.37200002 24933.11577185  1813.51026157
0.37300002 25084.53705232  1547.96685483
0.37400002 25240.34641163  1845.70041878
0.37500002 25398.11945367  2578.41720908
0.37600002 25560.00560392  2023.58573952
0.37700002 25723.49108857  1750.22641658
0.37800002 25890.47719395  1471.87369820
0.37900002 26059.89212884  1485.41392171
0.38000002 26231.66727448  1798.96782691
0.38100002 26405.15791493  1815.61874424
0.38200002 26581.03172528  1985.20444845
0.38300002 26758.46817998  1541.28784018
0.38400002 26938.34312065  1711.25832781
0.38500002 27118.87549508  2355.27444833
0.38600002 27301.87742571  2060.33627754
0.38700002 27485.19184188  1599.63824098
0.38800002 27669.69372816  2583.24272884
0.38900002 27855.40342353  2444.31176622
0.39000002 28042.84292458  2138.12666008
0.39100002 28229.94752798  1659.92099329
0.39200002 28418.59615065  2010.33158694
0.39300002 28607.10360671  2536.01985488
0.39400002 28797.06977030  2218.09440414
0.39500002 28986.22356355  2066.13811350
0.39600002 29175.82010584  2084.90420354
0.39700002 29365.08789649  1928.40541353
0.39800002 29555.47439537  2122.67427164
0.39900002 29744.72782672  2141.62050499
0.40000002 29933.58257037  1800.50507691
0.40100002 30122.19724433  3451.10030179
0.40200002 30311.28563811  2015.54903400
0.40300002 30498.69935301  2033.04339520
0.40400002 30685.68972231  2236.98688675
0.40500002 30871.94454521  2256.12181426
0.40600002 31057.57622974  2085.67163053
0.40700002 31241.94048712  2294.40821809
0.40800002 31425.61871628  2120.75797955
0.40900002 31607.40067762  2721.39732729
0.41000002 31788.89528700  2155.76403603
0.41100002 31968.73082203  3556.20178514
0.41200002 32146.46567585  2389.76837158
0.41300002 32323.40279703  2208.01174969
0.41400002 32498.45343467  2023.02882217
0.41500002 32672.51782306  2242.64172964
0.41600002 32843.74881107  2670.68956112
0.41700002 33013.96779984  2069.97587913
0.41800002 33183.23652200  2294.12316565
0.41900002 33348.55592204  2941.34277170
0.42000002 33512.72690258  2327.96168460
0.42100002 33675.40137232  2344.81830866
0.42200002 33835.85364673  2576.26201874
0.42300002 33993.63923350  3459.19289232
0.42400002 34149.11914931  3483.21031828
0.42500002 34302.88551899  3507.12718165
0.42600002 34452.93236201  2868.72354906
0.42700002 34601.97740405  2665.73646553
0.42800002 34748.02177002  2236.03530686
0.42900002 34892.06903661  2925.70012736
0.43000002 35033.63106287  2491.41679110
0.43100002 35171.22558021  3418.64328840
0.43200002 35307.06648359  2522.51348446
0.43300002 35439.88802329  3229.99154751
0.43400002 35570.42551257  2553.06741215
0.43500002 35697.58273885  2568.08422393
0.43600002 35823.07619639  3991.94468512
0.43700002 35944.71112921  3070.03792303
0.43800002 36062.76716034  2612.20666305
0.43900002 36179.00580775  2626.59594612
0.44000002 36291.58626624  3601.03281792
0.44100002 36401.73938559  2413.43543564
0.44200002 36508.69022792  3153.80335480
0.44300002 36612.84843519  3413.78214988
0.44400002 36713.36803422  3185.80266215
0.44500002 36810.00263247  3447.62500994
0.44600002 36904.39858474  2721.88404661
0.44700002 36995.89990426  2734.73705053
0.44800002 37082.90569701  3496.54734388
0.44900002 37168.35239138  2508.86390532
0.45000002 37250.25687220  3023.97599620
0.45100002 37327.53329260  3543.12962805
0.45200002 37402.61196776  3303.95988476
0.45300002 37473.67859326  2551.95763315
0.45400002 37542.25550644  2818.48496572
0.45500002 37607.30055095  2829.57342756
0.45600002 37668.78524769  3356.85395644
0.45700002 37726.93114754  3110.20835121
0.45800002 37781.09332164  2861.35123833
0.45900002 37832.29303485  2871.47117744
0.46000002 37880.77779643  3405.29268140
0.46100002 37924.65677889  2628.17883934
0.46200002 37966.09040784  2636.74510379
0.46300002 38003.76614805  3438.58092405
0.46400002 38037.50049430  2918.42736374
0.46500002 38068.91226430  3459.32222141
0.46600002 38095.93984218  3469.20692615
0.46700002 38119.64522308  4013.99883224
0.46800002 38140.62368236  2951.51230355
0.46900002 38157.49597267  2959.11395293
0.47000002 38170.58358921  3236.10223007
0.47100002 38180.76608605  2973.51820372
0.47200002 38187.37982133  2980.33419941
0.47300002 38191.32078326  3530.02394731
0.47400002 38190.26773289  3809.47938692
0.47500002 38187.09126974  2999.21429048
0.47600002 38180.82964569  2731.83849063
