# SAXS profile: number of points = 501, q_min = 0, q_max = 0.5, delta_q = 0.001
#    q    intensity    error
0.00000000 1719190.39626458 361.02998322
0.00100000 1719119.67654643 773.60387282
0.00200000 1718907.46234933 850.85922081
0.00300000 1718553.91957580 1134.24562733
0.00400000 1718058.91265738 2061.67077353
0.00500000 1717422.94038894 1545.68070753
0.00600000 1716645.68201560 3244.46047110
0.00700000 1715727.84014791 2470.64819249
0.00800000 1714668.87628674 2777.76369686
0.00900000 1713470.10930648 2827.22580121
0.01000000 1712130.71939127 3390.01897077
0.01100000 1710651.97459425 3387.09105717
0.01200000 1709033.36003245 4998.92279727
0.01300000 1707276.28229549 3585.28035095
0.01400000 1705379.90354995 4604.52594371
0.01500000 1703346.15054669 4496.83403768
0.01600000 1701173.76272602 6506.98993331
0.01700000 1698864.98337556 5963.01635914
0.01800000 1696419.27045909 6285.23367987
0.01900000 1693837.49067368 5589.66397144
0.02000000 1691120.24164487 5859.73190237
0.02100000 1688269.19763341 7799.80404670
0.02200000 1685282.54562781 6977.07005588
0.02300000 1682163.09081540 8478.10236362
0.02400000 1678910.90702750 8184.69104496
0.02500000 1675527.36506687 7188.01272442
0.02600000 1672012.41722703 8803.14577934
0.02700000 1668367.57883603 8408.57298246
0.02800000 1664592.26245470 8689.17200850
0.02900000 1660689.29507571 11956.96347354
0.03000000 1656658.95676508 11555.19675457
0.03100000 1652501.60807356 8725.20889210
0.03200000 1648218.10673495 9790.41600493
0.03300000 1643811.50797040 10898.47080027
0.03400000 1639279.67560126 12048.70617160
0.03500000 1634626.11779970 12357.77402122
0.03600000 1629850.33032059 9045.66975131
0.03700000 1624954.52584479 10188.46534824
0.03800000 1619939.66196768 9476.64746109
0.03900000 1614807.43573308 10657.72956940
0.04000000 1609556.54163784 9898.77318977
0.04100000 1604190.90622505 13138.32413116
0.04200000 1598710.96646533 14436.36069693
0.04300000 1593117.07598611 17874.77442227
0.04400000 1587412.40765218 12858.04109914
0.04500000 1581597.03357143 12004.32204259
0.04600000 1575671.33478724 13330.18011198
0.04700000 1569638.19250542 14691.81416514
0.04800000 1563498.28209226 12640.88419887
0.04900000 1557254.07143402 17519.10911910
0.05000000 1550905.34579746 18983.08231653
0.05100000 1544455.22569315 14456.10158591
0.05200000 1537902.17144925 14671.58739934
0.05300000 1531251.45941635 14883.76487938
0.05400000 1524501.78398324 22638.85254789
0.05500000 1517656.88625700 12748.31843926
0.05600000 1510715.24216344 18083.26229254
0.05700000 1503682.31170222 14390.24039471
0.05800000 1496556.37143473 17217.88185730
0.05900000 1489339.26122657 17425.27017021
0.06000000 1482034.37171164 20340.92270205
0.06100000 1474643.12849404 20571.27260382
0.06200000 1467165.58941760 13864.71546808
0.06300000 1459605.34772933 16814.65439202
0.06400000 1451960.64724536 19819.26376178
0.06500000 1444237.30333560 20017.12996059
0.06600000 1436433.69226254 20210.62299576
0.06700000 1428552.66767172 18942.60925982
0.06800000 1420597.53339111 24995.41477003
0.06900000 1412568.40594554 19281.55964390
0.07000000 1404465.38188303 17949.06842099
0.07100000 1396293.32408385 18095.96232770
0.07200000 1388051.04756306 18238.99161942
0.07300000 1379743.63492801 18378.18607836
0.07400000 1371370.05728810 21599.07941451
0.07500000 1362933.06233971 15537.43763895
0.07600000 1354432.54340138 15643.69660967
0.07700000 1345874.24520499 17321.40234796
0.07800000 1337256.47114589 23769.73488933
0.07900000 1328581.25415706 23914.46369650
0.08000000 1319852.76995039 16036.21190717
0.08100000 1311071.21352072 19351.41201950
0.08200000 1302236.69547474 17834.13238140
0.08300000 1293353.71143931 19555.50903474
0.08400000 1284421.67311516 18014.01481099
0.08500000 1275445.44489306 26325.19521843
0.08600000 1266423.96298368 19832.20019148
0.08700000 1257360.44696090 18256.87454717
0.08800000 1248254.24059254 21663.45336288
0.08900000 1239111.24031192 20073.60303590
0.09000000 1229930.11408667 20146.25621512
0.09100000 1220713.43692510 18530.43084310
0.09200000 1211462.69164237 23659.86747948
0.09300000 1202181.29046669 25426.13548820
0.09400000 1192867.17184334 18698.19379741
0.09500000 1183525.05100490 20451.31384263
0.09600000 1174155.63012649 20500.75826570
0.09700000 1164762.76793611 25683.02024042
0.09800000 1155346.55927142 17156.89721186
0.09900000 1145909.03391503 17188.63631698
0.10000000 1136450.07087492 22382.38519846
0.10100000 1126972.67347814 20691.21925820
0.10200000 1117479.28945184 18991.56141753
0.10300000 1107970.33314896 19012.77181121
0.10400000 1098448.87446256 27680.91293871
0.10500000 1088917.48442770 20776.54658040
0.10600001 1079372.90871503 29450.69120005
0.10700001 1069821.79552042 19064.22529329
0.10800001 1060262.68982359 24269.41411222
0.10900001 1050699.50358080 17336.54262504
0.11000001 1041132.64692530 31202.74689705
0.11100001 1031563.62106352 20796.32357959
0.11200001 1021994.86218312 19055.09510246
0.11300001 1012425.73289010 20774.97701701
0.11400001 1002861.07549444 20759.22524017
0.11500001 993300.34018043 20740.11207958
0.11600001 983745.24446658 20717.67582409
0.11700001 974198.75669378 22416.31444722
0.11800001 964658.91466568 22384.91116911
0.11900001 955130.00380533 24069.27722960
0.12000001 945612.51597418 20595.44156806
0.12100001 936109.89686094 18843.89311151
0.12200001 926620.04724488 20515.36881251
0.12300001 917147.37042302 18764.83608295
0.12400001 907690.97827821 27230.73063139
0.12500001 898253.64216275 16976.99463684
0.12600001 888837.79406034 18625.59685224
0.12700001 879443.20079604 18573.84127613
0.12800001 870070.01710479 20203.02674933
0.12900001 860721.67409473 18462.48077951
0.13000001 851398.95497813 21748.98733005
0.13100001 842101.31909734 18340.96759449
0.13200001 832833.17885569 19938.02724169
0.13300001 823594.91095256 18209.68433962
0.13400001 814385.44468680 23087.82844536
0.13500001 805208.38818469 18068.87708278
0.13600001 796063.03504716 27810.46344066
0.13700001 786952.64949255 17918.91267388
0.13800001 777875.59960840 17840.57771830
0.13900001 768836.78842842 16145.57331839
0.14000001 759834.02816478 24105.73568037
0.14100001 750870.02934467 20791.59209315
0.14200001 741943.91865964 17506.16758646
0.14300001 733061.29673595 20584.36218326
0.14400001 724215.46217144 18902.02445428
0.14500001 715415.69768513 20367.88587389
0.14600001 706657.22082777 23372.68868147
0.14700001 697945.49922167 21692.14713917
0.14800001 689276.63602802 16945.86689623
0.14900001 680653.42211538 18377.64326419
0.15000001 672078.46804996 18267.09362349
0.15100001 663550.43698141 16641.84574474
0.15200001 655072.45031446 16537.30478853
0.15300001 646643.83536578 16431.22063202
0.15400001 638263.14432969 16323.58068656
0.15500001 629935.81116355 19162.64827994
0.15600001 621658.37693787 14640.05546782
0.15700001 613436.66720998 14538.44969905
0.15800001 605263.62966689 17322.64589867
0.15900001 597147.76249797 24363.62985989
0.16000001 589083.93491197 15649.01546961
0.16100001 581078.82616246 18356.28098497
0.16200001 573126.91610491 19618.13526437
0.16300001 565233.02797558 19466.62640246
0.16400001 557395.36209209 15175.08944937
0.16500001 549616.12660030 16422.53063815
0.16600001 541893.95886827 14931.88874159
0.16700001 534230.73812689 18847.66133100
0.16800001 526625.55240096 13349.95838370
0.16900001 519082.34417003 17207.58052174
0.17000001 511597.96112133 14434.73715464
0.17100001 504174.48095158 15609.24266735
0.17200001 496811.53876782 20627.61606374
0.17300001 489510.33057379 17886.70832386
0.17400001 482272.14224533 13925.60876499
0.17500001 475094.83220361 16305.25541129
0.17600001 467978.61397380 12424.83278782
0.17700001 460927.31234245 14768.11178496
0.17800001 453938.47202283 12188.24854949
0.17900001 447012.49931897 14483.20566203
0.18000001 440150.98609803 17925.14975554
0.18100001 433354.62800154 14196.69828393
0.18200001 426619.15063746 11710.69623819
0.18300001 419951.09742391 12749.71592008
0.18400001 413345.72981517 12617.37899866
0.18500001 406806.43628811 15889.86015208
0.18600001 400331.36085059 17966.87232379
0.18700001 393921.10895349 12219.43337704
0.18800001 387575.16377426 13185.30769456
0.18900001 381296.98697281 14127.05403481
0.19000001 375079.98521964 12895.25050114
0.19100001 368933.06676488 11687.80010736
0.19200001 362848.49858391 16807.14324857
0.19300001 356831.63086412 11422.18104369
0.19400001 350879.08467658 15394.82056765
0.19500001 344992.60623905 11157.06141300
0.19600001 339170.64505140 11024.74233838
0.19700001 333414.68831006 11882.90005293
0.19800001 327724.52863577 12717.35093472
0.19900001 322100.75381194 13528.23229945
0.20000001 316539.87993152 12406.78118027
0.20100001 311046.62768854 10367.18459084
0.20200001 305616.89662684 11167.24193055
0.20300001 300253.42907135 11944.08197299
0.20400001 294954.68332174 10883.82832900
0.20500001 289720.21313548 9847.59050994
0.20600001 284550.73255427 8835.30066344
0.20700001 279445.67465479 9590.57600749
0.20800001 274404.56294291 11183.35849138
0.20900001 269429.96205841 11881.86188845
0.21000001 264517.14275910 10883.55835331
0.21100001 259668.34421723 9908.94448376
0.21200001 254882.92829006 12215.26491577
0.21300001 250160.54020180 9636.18446413
0.21400001 245502.47466318 9500.94621864
0.21500001 240907.54689591 9366.48586614
0.21600001 236373.45618246 9232.74763500
0.21700001 231902.62945858 9858.18124437
0.21800001 227493.97294969 8220.49510121
0.21900001 223145.61116003 8836.56661974
0.22000001 218858.58145717 7980.67855018
0.22100001 214635.39188354 7862.09477644
0.22200001 210471.11915844 9856.36297624
0.22300001 206367.59064576 7627.34651093
0.22400001 202322.38486731 7511.21889338
0.22500001 198339.85307674 7396.09347097
0.22600001 194415.16874198 7281.82048958
0.22700001 190550.44950995 9775.23852212
0.22800001 186743.59440092 8980.49987943
0.22900001 182994.57508903 8207.30708087
0.23000001 179304.00643729 6834.17252856
0.23100001 175672.25551148 7336.07373710
0.23200001 172095.54481614 7819.16144852
0.23300001 168576.97129888 8875.57795865
0.23400001 165114.59734438 8148.40576433
0.23500001 161706.62500912 9159.06367371
0.23600001 158355.35384607 7318.39302413
0.23700001 155058.60063924 7749.82922650
0.23800001 151816.88844928 6531.16285000
0.23900001 148629.10454955 5885.71281855
0.24000001 145495.07308305 6837.54128296
0.24100001 142415.10396064 7754.50277745
0.24200001 139387.54986258 6604.87936266
0.24300001 136412.39517201 4992.69389946
0.24400001 133488.64272068 6867.99099286
0.24500001 130616.81031201 7711.61684561
0.24600001 127795.82045651 6628.76952065
0.24700001 125026.42993449 6046.27843766
0.24800001 122305.95578614 5024.94043119
0.24900001 119634.90292495 4934.93997911
0.25000001 117013.61331777 4846.11902482
0.25100001 114440.38103461 5623.60059009
0.25200001 111916.46014381 4671.95284973
0.25300001 109440.01313228 4586.63116737
0.25400001 107010.22112178 5321.08349703
0.25500001 104627.14961870 4419.45100899
0.25600001 102290.94202999 4337.64760201
0.25700001 100000.05718148 4644.00287523
0.25800001 97754.54002201  4557.31687145
0.25900001 95553.83724188  4099.25981163
0.26000001 93397.83895142  4022.17812475
0.26100001 91283.86454425  4663.69286023
0.26200001 89215.58125624  5983.24324006
0.26300001 87188.90253955  3452.68070394
0.26400001 85204.03700084  4741.60488346
0.26500001 83262.01450342  3322.15453589
0.26600001 81360.63632630  4236.04173078
0.26700001 79500.81979989  4474.30635006
0.26800001 77681.43661463  3761.33533887
0.26900001 75901.16493117  3381.39705770
0.27000001 74160.75108200  3316.09814156
0.27100001 72459.41172795  4434.51620760
0.27200001 70796.64907591  4058.77208360
0.27300001 69171.19177907  3695.81695166
0.27400001 67582.02852205  3066.53468931
0.27500001 66032.31967288  3007.11198022
0.27600001 64516.92730204  3752.94983877
0.27700001 63038.81199558  3154.46230155
0.27800001 61595.49167067  2835.54859326
0.27900001 60187.39167539  2527.87057000
0.28000001 58813.83695524  2479.00334499
0.28100001 57473.95257412  2917.37797074
0.28200001 56168.29020948  2384.34403224
0.28300001 54895.43340584  2806.25468853
0.28400001 53655.48542865  2752.52653277
0.28500001 52447.86105269  2475.01468022
0.28600001 51271.17967458  3310.83658419
0.28700001 50125.92186319  3248.15989048
0.28800001 49011.15842568  2549.56058198
0.28900001 47928.30169755  2918.83371154
0.29000001 46873.56417605  2659.84052507
0.29100001 45849.44983849  2409.84719758
0.29200001 44853.81765185  2956.98806867
0.29300001 43886.60338548  2709.55902128
0.29400001 42947.25537948  3040.66582480
0.29500001 42036.43288704  2053.05947939
0.29600001 41152.04767572  1833.32381074
0.29700001 40294.05408679  2521.60202412
0.29800001 39462.85880679  2123.89116152
0.29900001 38657.48897858  1913.54579503
0.30000001 37877.42807314  2052.19915015
0.30100001 37123.39217922  2354.36564346
0.30200001 36392.74712468  1819.45547863
0.30300001 35686.51318310  2278.22710946
0.30400001 35004.96855164  2081.92060317
0.30500001 34345.42868374  2207.03735170
0.30600001 33709.14275875  1862.76731704
0.30700001 33095.90896638  2140.64349329
0.30800001 32504.67489719  1657.25092809
0.30900001 31935.08106586  1781.97760784
0.31000001 31387.47618941  1464.22583356
0.31100001 30859.35867617  2310.74888707
0.31200001 30352.79692190  2137.59582443
0.31300001 29866.02241517  1406.68972236
0.31400001 29400.49074605  1667.00790423
0.31500001 28952.94743319  1509.60675064
0.31600002 28525.04352198  1763.27564880
0.31700002 28115.05402877  1743.41458287
0.31800002 27724.03633122  1459.25472139
0.31900002 27351.03476015  1444.13470371
0.32000002 26995.63914835  1429.82409519
0.32100002 26657.66762827  1545.07848889
0.32200002 26336.57083184  2041.61106756
0.32300002 26031.25175792  1265.11889534
0.32400002 25742.76775221  1631.44798355
0.32500002 25469.63857233  1743.65153923
0.32600002 25212.47501956  1484.00634992
0.32700002 24970.29166050  1597.09993023
0.32800002 24743.74177232  1465.32445714
0.32900002 24530.37792008  1335.67914100
0.33000002 24333.10721407  1449.76659647
0.33100002 24147.01833762  1924.03451225
0.33200002 23977.23300627  1317.42912992
0.33300002 23819.20565274  1193.34225971
0.33400002 23674.91027033  1308.63072716
0.33500002 23542.76513349  1779.83312838
0.33600002 23423.02625751  1420.84084007
0.33700002 23314.54594757  1300.25228907
0.33800002 23219.25704294  1416.83913186
0.33900002 23134.39554362  1297.83965146
0.34000002 23060.94767137  1533.43778803
0.34100002 22998.47493136  1533.76836581
0.34200002 22947.58080141  1298.71839696
0.34300002 22905.38229488  1772.87667359
0.34400002 22874.47015657  1420.50466400
0.34500002 22852.58705789  1541.86412182
0.34600002 22841.61737594  1426.68748887
0.34700002 22837.68308561  1192.12711353
0.34800002 22844.51177866  1315.50127308
0.34900002 22859.54386750  1800.18916483
0.35000002 22883.33718787  1325.28853600
0.35100002 22915.27363186  1572.90445659
0.35200002 22954.37245682  1580.06430290
0.35300002 23001.84734699  1465.67778237
0.35400002 23057.26102804  1718.91889105
0.35500002 23119.50248468  1851.87223674
0.35600002 23188.57951528  1614.27303942
0.35700002 23264.44706918  1624.09112682
0.35800002 23347.67458956  1885.90850430
0.35900002 23436.63971554  1771.81004642
0.36000002 23532.48712287  1529.14108567
0.36100002 23633.41097894  1924.94141541
0.36200002 23741.33725533  1421.98746226
0.36300002 23853.00575528  1302.37417593
0.36400002 23970.74466615  1443.63816590
0.36500002 24093.18691187  1587.25922894
0.36600002 24221.08524479  1333.37080589
0.36700002 24353.33520920  1747.59541739
0.36800002 24491.35370268  1491.15614082
0.36900002 24632.60782161  1777.24273852
0.37000002 24777.24578998  1792.50993159
0.37100002 24926.16164217  1947.23183973
0.37200002 25079.62918957  1964.48744748
0.37300002 25235.77997972  1698.87278871
0.37400002 25396.52694401  1428.55470827
0.37500002 25559.09890202  1585.68657100
0.37600002 25726.09592020  1600.29187252
0.37700002 25894.58861803  1615.04556861
0.37800002 26066.76477998  1778.27477753
0.37900002 26241.36166768  1645.33345451
0.38000002 26418.36513235  2717.65734991
0.38100002 26597.03213673  1828.81201636
0.38200002 26778.22777564  1538.40925859
0.38300002 26961.04291988  2018.84298948
0.38400002 27146.28971766  1724.46813601
0.38500002 27332.29006089  1582.53966950
0.38600002 27520.71120412  1917.09283330
0.38700002 27709.36103819  2096.49035547
0.38800002 27899.32558015  1790.71829720
0.38900002 28090.67315517  2136.29579466
0.39000002 28283.47553857  1990.59110271
0.39100002 28476.00884228  2009.26727910
0.39200002 28670.20733206  2197.14144299
0.39300002 28864.24354740  1876.46456192
0.39400002 29059.65201718  1893.96290995
0.39500002 29254.27481489  2259.01520823
0.39600002 29449.22219916  1929.07139155
0.39700002 29643.92608829  1946.71671845
0.39800002 29839.86056424  2143.09888726
0.39900002 30034.40515582  2522.89015262
0.40000002 30228.50925530  1818.24491785
0.40100002 30422.60562445  2568.27648850
0.40200002 30616.90209296  2406.02936497
0.40300002 30809.62443367  1867.06332914
0.40400002 31001.80868984  2448.36795728
0.40500002 31193.31071625  2089.63998389
0.40600002 31384.04545140  2299.19527871
0.40700002 31573.52557656  2125.52984252
0.40800002 31762.13206364  2143.46758387
0.40900002 31948.99082942  2554.32193784
0.41000002 32135.36036717  3367.94660286
0.41100002 32320.12564534  1997.38385952
0.41200002 32502.59284546  2214.88929440
0.41300002 32684.28133512  3653.44914075
0.41400002 32864.01657540  2250.36364163
0.41500002 33042.70400112  2680.42427558
0.41600002 33218.38416249  2701.15303616
0.41700002 33393.10842537  3349.99679597
0.41800002 33566.69781985  2742.56717532
0.41900002 33736.29736637  2337.92551827
0.42000002 33904.80436558  2355.19734686
0.42100002 34071.54673815  3019.42061501
0.42200002 34236.02216907  2389.50328052
0.42300002 34397.77171651  2625.23806180
0.42400002 34557.18676197  3084.22906465
0.42500002 34714.73257243  2440.09866814
0.42600002 34868.37600862  2456.65154810
0.42700002 35021.02542376  2248.34993875
0.42800002 35170.60503175  2263.22854104
0.42900002 35318.11175287  2278.01831601
0.43000002 35462.95286267  2980.48401458
0.43100002 35603.81200642  4152.82882922
0.43200002 35742.70755074  2785.78675852
0.43300002 35878.49679714  2569.25927740
0.43400002 36012.03269658  2819.74229377
0.43500002 36141.83820252  2600.04396350
0.43600002 36270.07086317  3328.50456085
0.43700002 36394.37388371  3347.55466846
0.43800002 36514.79411632  2404.49930651
0.43900002 36633.42243400  2417.80599522
0.44000002 36748.25615204  2673.98698562
0.44100002 36860.55682037  3177.01154291
0.44200002 36969.54994249  2947.95205212
0.44300002 37075.58740332  3456.92793331
0.44400002 37177.72308212  2729.77444667
0.44500002 37276.20286466  2992.53370779
0.44600002 37372.11499230  3006.96051478
0.44700002 37465.14860005  3272.95553681
0.44800002 37553.39939774  3287.98804009
0.44900002 37640.07786441  3048.84645151
0.45000002 37723.05507548  2551.96479680
0.45100002 37801.40117667  3075.52214549
0.45200002 37877.30485555  3345.89188299
0.45300002 37949.12486154  2584.33552555
0.45400002 38018.27882837  3892.12147951
0.45500002 38083.82262131  3646.90702706
0.45600002 38145.78975826  3137.87281423
0.45700002 38204.10270728  3674.47077253
0.45800002 38258.39815411  2897.49992153
0.45900002 38309.71639739  2907.70761237
0.46000002 38358.06439029  3978.69041745
0.46100002 38401.60435148  4524.09322307
0.46200002 38442.79357321  3470.80778226
0.46300002 38480.03991730  3481.67417673
0.46400002 38513.18000670  2686.29443279
0.46500002 38543.90221351  3771.90644939
0.46600002 38570.02780325  3242.19669081
0.46700002 38592.83484544  2980.13884801
0.46800002 38612.81858397  3531.33549097
0.46900002 38628.58613324  3267.97854176
0.47000002 38640.25496154  2729.93414242
0.47100002 38649.14510224  3009.99556323
0.47200002 38654.18147961  3291.01716716
0.47300002 38656.67511150  3298.18767684
0.47400002 38653.71076854  3855.70783191
0.47500002 38648.77772532  3035.47514642
0.47600002 38640.52736390  3870.62180950
0.47700002 38627.45475147  4431.34181913
