# SAXS profile: number of points = 501, q_min = 0, q_max = 0.5, delta_q = 0.001
#    q    intensity    error
0.00000000 1719190.39626458 335.24212727
0.00100000 1719119.68497426 928.32465193
0.00200000 1718907.49629238 1005.56091717
0.00300000 1718554.00522429 1134.24568385
0.00400000 1718059.06370466 1675.10765076
0.00500000 1717423.17086211 2318.52137243
0.00600000 1716646.00777730 2162.97405786
0.00700000 1715728.29424570 2676.53625026
0.00800000 1714669.47349708 2314.80388695
0.00900000 1713470.84637429 2827.22701738
0.01000000 1712131.63706573 3672.52252008
0.01100000 1710653.09490801 3079.17570490
0.01200000 1709034.68753141 3665.87956548
0.01300000 1707277.82898547 3943.81195890
0.01400000 1705381.71907506 4220.81994182
0.01500000 1703348.21478232 5314.44666677
0.01600000 1701176.10758745 5205.59912193
0.01700000 1698867.61506120 5045.63704307
0.01800000 1696422.25578387 5318.28401119
0.01900000 1693840.79561129 6605.97940096
0.02000000 1691123.94434798 5859.74473224
0.02100000 1688273.24052892 6128.43214097
0.02200000 1685286.98124545 7558.51245429
0.02300000 1682167.92169387 9083.70719062
0.02400000 1678916.15163290 6925.52944127
0.02500000 1675533.11822214 9801.86918926
0.02600000 1672018.61154081 8126.01082376
0.02700000 1668374.23302527 9109.32372954
0.02800000 1664599.42306069 7965.10860462
0.02900000 1660697.02332647 11957.01911695
0.03000000 1656667.18046828 8473.85301760
0.03100000 1652510.40920812 8725.25536210
0.03200000 1648227.43641775 11422.21666046
0.03300000 1643821.40746315 14251.93225973
0.03400000 1639290.21429084 10327.52882655
0.03500000 1634637.27247154 8827.04167896
0.03600000 1629862.05471840 10854.88178607
0.03700000 1624966.91922223 14819.69898868
0.03800000 1619952.74236246 14215.08597210
0.03900000 1614821.21143221 10657.82048902
0.04000000 1609571.00893919 10888.74838005
0.04100000 1604206.10395990 14149.09849297
0.04200000 1598726.92879375 11342.96808602
0.04300000 1593133.75375674 13669.08824172
0.04400000 1587429.87750288 13929.69782201
0.04500000 1581615.26808347 14187.08961391
0.04600000 1575690.41394081 12219.47972816
0.04700000 1569658.01214520 11301.53821306
0.04800000 1563518.91418348 14939.42392013
0.04900000 1557275.51944924 12847.52363348
0.05000000 1550927.63380217 15423.97603640
0.05100000 1544478.44874444 16865.70544596
0.05200000 1537926.32010598 13449.16629608
0.05300000 1531276.43535298 17364.67558641
0.05400000 1524527.79516169 16350.56136560
0.05500000 1517683.76600066 15298.25307494
0.05600000 1510743.10954817 14208.53960833
0.05700000 1503711.12015273 13082.28735599
0.05800000 1496586.18027558 18542.70363942
0.05900000 1489370.02840726 16085.19705807
0.06000000 1482066.19651075 17629.17823111
0.06100000 1474675.99458358 17828.83360768
0.06200000 1467199.39318296 19411.04887915
0.06300000 1459640.16849874 14012.54627275
0.06400000 1451996.59808568 14156.96749341
0.06500000 1444274.33262773 14298.31656186
0.06600000 1436471.70367592 20211.15781637
0.06700000 1428591.74294996 14571.63646003
0.06800000 1420637.82595025 19114.68284290
0.06900000 1412609.76407885 17798.88386072
0.07000000 1404507.90613970 23932.81584136
0.07100000 1396336.94432396 19604.57161654
0.07200000 1388095.82044800 21279.50992434
0.07300000 1379789.55854092 16847.23129917
0.07400000 1371417.18691097 16971.28848337
0.07500000 1362981.32724807 17091.78664483
0.07600000 1354482.12812262 15644.26931323
0.07700000 1345924.94808887 22046.25168341
0.07800000 1337308.37264047 15847.10495896
0.07900000 1328634.43685796 23915.42098517
0.08000000 1319907.03584186 22451.61973290
0.08100000 1311126.87162912 30641.03642760
0.08200000 1302293.62095362 27563.04578088
0.08300000 1293411.79747037 17926.68835427
0.08400000 1284481.14974616 21290.27605638
0.08500000 1275506.08917158 23035.64105185
0.08600000 1266485.84175503 19833.16921308
0.08700000 1257423.85424134 19917.59478647
0.08800000 1248318.87580941 18331.56355218
0.08900000 1239177.17952477 25093.33906400
0.09000000 1229997.38593602 18468.41161739
0.09100000 1220782.04228589 23585.51016504
0.09200000 1211532.49055699 20281.05484486
0.09300000 1202252.43133427 16951.76007841
0.09400000 1192939.75586188 22099.21001595
0.09500000 1183598.99237918 23861.35680791
0.09600000 1174230.97906072 20502.07385816
0.09700000 1164839.46586671 20547.76914390
0.09800000 1155424.58669936 18873.86151114
0.09900000 1145988.38422302 18908.80922882
0.10000000 1136530.69023193 18940.28484342
0.10100000 1127054.77917834 17243.93893244
0.10200000 1117562.80974771 24172.88471185
0.10300000 1108055.14496380 20742.79328948
0.10400000 1098535.17657234 24222.70178298
0.10500000 1089005.11266200 19046.70031659
0.10600001 1079462.04778029 20790.44001851
0.10700001 1069912.27800999 19065.83769133
0.10800001 1060354.53442418 19070.47719911
0.10900001 1050792.73943018 17338.08101663
0.11000001 1041227.36986153 19070.08017663
0.11100001 1031659.65039493 20798.25953101
0.11200001 1022092.39156844 22521.80690847
0.11300001 1012524.71562802 19045.59079764
0.11400001 1002961.36851355 19031.19286362
0.11500001 993402.08640893 20742.23654093
0.11600001 983848.37130026 24173.15562120
0.11700001 974303.27723672 22418.71946502
0.11800001 964764.87094830 20665.26450901
0.11900001 955237.41519287 20633.12914002
0.12000001 945721.12729361 20597.80712271
0.12100001 936219.98265233 22272.67443652
0.12200001 926731.54978049 17098.19789897
0.12300001 917260.37166733 18767.14808852
0.12400001 907805.26759236 25532.02435404
0.12500001 898369.39309218 23770.85526131
0.12600001 888954.94756947 23708.42956890
0.12700001 879561.60096628 20265.10024128
0.12800001 870189.93820749 18521.99370767
0.12900001 860842.86265254 21822.36759678
0.13000001 851521.62281115 28445.08115076
0.13100001 842225.28188178 23346.48591426
0.13200001 832958.56308602 21602.78135200
0.13300001 823721.55459372 19868.16483345
0.13400001 814513.50107141 18143.28909174
0.13500001 805337.64814671 16428.88879679
0.13600001 796193.57305756 17997.95656758
0.13700001 787084.46903027 21180.44406033
0.13800001 778008.83520124 19465.78197466
0.13900001 768971.33470367 20992.91842740
0.14000001 759969.78167829 19288.03396863
0.14100001 751007.08196568 19195.74192037
0.14200001 742082.50258892 27060.03973320
0.14300001 733200.90607350 23755.71047728
0.14400001 724356.34686330 15754.75128743
0.14500001 715557.78887593 17237.78794716
0.14600001 706800.64875951 18701.94604843
0.14700001 698090.13447271 21696.64240298
0.14800001 689422.53224033 18490.31318703
0.14900001 680800.53776969 18381.61538704
0.15000001 672226.72517490 19793.71685670
0.15100001 663699.79304576 22698.53399319
0.15200001 655222.96447976 22556.05161657
0.15300001 646795.48956504 20917.36711960
0.15400001 638416.03957056 16327.49098253
0.15500001 630089.76762652 19167.33163576
0.15600001 621813.45680614 16108.07835878
0.15700001 613592.84991697 15996.36635231
0.15800001 605420.81659327 21658.93073590
0.15900001 597305.93273026 20069.48028703
0.16000001 589243.38260891 22768.36537873
0.16100001 581239.03047478 15536.52001798
0.16200001 573288.31387537 16820.27992312
0.16300001 565395.23281503 13908.72338385
0.16400001 557558.71931860 15179.53685007
0.16500001 549780.36810104 19165.34453682
0.16600001 542059.25830005 14936.44356765
0.16700001 534396.81631666 18853.52056982
0.16800001 526792.45054832 14689.60817713
0.16900001 519250.21045891 13240.88099191
0.17000001 511766.73566176 17064.86260644
0.17100001 504344.11687071 19518.11824457
0.17200001 496982.05375166 19345.02735581
0.17300001 489681.55928321 12780.68930085
0.17400001 482444.14537483 16463.40723842
0.17500001 475267.61847723 13801.77229240
0.17600001 468152.03864775 13672.38093444
0.17700001 461101.46914116 13542.55078830
0.17800001 454113.40053540 14631.53445633
0.17900001 447188.08067215 18111.11812267
0.18000001 440327.31037774 15541.35315388
0.18100001 433531.47659652 16569.57381821
0.18200001 426796.63146423 16401.79532196
0.18300001 420129.17702908 19712.46191741
0.18400001 413524.41592108 17212.95462587
0.18500001 406985.58877219 18167.83754108
0.18600001 400511.03630212 14604.63562873
0.18700001 394101.37707930 11113.65935870
0.18800001 387755.84203012 15390.03009730
0.18900001 381478.09914870 15220.97687519
0.19000001 375261.45607914 18277.11008191
0.19100001 369114.96298626 11693.56257993
0.19200001 363030.74216792 14713.63667530
0.19300001 357014.19089412 13505.84747971
0.19400001 351061.95077636 14375.98756361
0.19500001 345175.80902933 12177.80311802
0.19600001 339354.09325240 12033.49671539
0.19700001 333598.41518223 10898.66073905
0.19800001 327908.33171167 12724.48341341
0.19900001 322284.71233698 10635.39600975
0.20000001 316724.10908412 10504.15557421
0.20100001 311230.89105929 13202.41502271
0.20200001 305801.16803698 11173.97520819
0.20300001 300437.75174458 10112.73520170
0.20400001 295139.13879732 9075.52894698
0.20500001 289904.73909305 11645.47391981
0.20600001 284735.14251178 8841.02659289
0.20700001 279630.15094337 8724.46112183
0.20800001 274588.95397389 10330.03693680
0.20900001 269614.19210274 9342.13219797
0.21000001 264701.28069726 10891.13470914
0.21100001 259852.19283425 9915.96014732
0.21200001 255066.67627429 11409.13296911
0.21300001 250344.00916972 8839.64738168
0.21400001 245685.61431587 11092.70601079
0.21500001 241090.43343743 14841.52778408
0.21600001 236556.04436565 8469.88956896
0.21700001 232084.94939958 9107.01384502
0.21800001 227675.80463638 11218.72580389
0.21900001 223327.06140254 10317.71072463
0.22000001 219039.59075621 13070.09299841
0.22100001 214815.86544846 7868.70552344
0.22200001 210651.13038462 9864.79290236
0.22300001 206547.15285041 11103.97546229
0.22400001 202501.33021769 9568.18830523
0.22500001 198518.19720961 8075.72064437
0.22600001 194593.01971744 6625.89263471
0.22700001 190727.60047220 9132.03794246
0.22800001 186920.02125025 7704.84364030
0.22900001 183170.29970013 7583.25076620
0.23000001 179479.04409598 7462.73900644
0.23100001 175846.23473766 8567.22896159
0.23200001 172268.91791627 7224.95875910
0.23300001 168749.39419381 10069.27682777
0.23400001 165286.27048950 6991.60957238
0.23500001 161877.52387816 6303.51107795
0.23600001 158525.12469517 6199.12529441
0.23700001 155227.36025679 6095.77872560
0.23800001 151984.74860436 8172.98024277
0.23900001 148795.85957140 6427.98143753
0.24000001 145660.90649472 6318.77042262
0.24100001 142579.85878447 8281.03858990
0.24200001 139551.24431211 5086.64309578
0.24300001 136574.90697807 5998.37019822
0.24400001 133649.99467874 5893.96504414
0.24500001 130776.80924559 6273.36383627
0.24600001 127954.54900370 5688.85951782
0.24700001 125184.02238814 5122.53043845
0.24800001 122462.26426464 6403.55210133
0.24900001 119789.73736368 5390.53843638
0.25000001 117167.22171398 6617.01915934
0.25100001 114592.64820187 6064.24322974
0.25200001 112067.33083356 4252.95540634
0.25300001 109589.41730429 5845.49979556
0.25400001 107158.12761649 6967.95757792
0.25500001 104773.47122291 4827.96178237
0.25600001 102435.83129097 3948.90148310
0.25700001 100143.45444213 4263.10705730
0.25800001 97896.21516843  5704.90220886
0.25900001 95693.93110867  4105.26983880
0.26000001 93536.47756343  4760.53925084
0.26100001 91420.75785728  4311.40314455
0.26200001 89350.74274841  3877.37566503
0.26300001 87322.27666899  5532.73971154
0.26400001 85335.82051032  4070.51883095
0.26500001 83391.96306611  3992.80738054
0.26600001 81488.76418899  3589.98767622
0.26700001 79627.18820068  4801.51967571
0.26800001 77805.89331890  4081.30832717
0.26900001 76023.76408361  4002.65136841
0.27000001 74281.67084501  3925.41508156
0.27100001 72578.29171676  3257.31388639
0.27200001 70913.57763604  3194.30225578
0.27300001 69286.18244957  3132.42845678
0.27400001 67695.05169865  4188.63152208
0.27500001 66143.26122070  3285.99737296
0.27600001 64625.88885368  3490.76755164
0.27700001 63145.62947832  4213.07659818
0.27800001 61700.47511248  3098.59800680
0.27900001 60290.18188443  3291.84408669
0.28000001 58914.50932574  2979.89602273
0.28100001 57572.49716204  2678.84841974
0.28200001 56264.61066177  3582.64925345
0.28300001 54989.67895468  2811.07252121
0.28400001 53747.41345230  2757.24244061
0.28500001 52537.65763160  2253.86561907
0.28600001 51358.74416805  2210.99404109
0.28700001 50211.32556265  2386.04230367
0.28800001 49094.27798399  2128.23705134
0.28900001 48009.06544456  2506.07333483
0.29000001 46952.02515486  2254.40159452
0.29100001 45925.66911502  2816.16216344
0.29200001 44927.68543858  2172.02905534
0.29300001 43958.15268294  2713.97647511
0.29400001 43016.46060437  2284.17416622
0.29500001 42103.24887290  2804.07650767
0.29600001 41216.39498108  2019.80953166
0.29700001 40355.97262303  1803.91206164
0.29800001 39522.59421573  2127.10612138
0.29900001 38714.66841317  1742.16016106
0.30000001 37932.20574061  2055.16700432
0.30100001 37175.69700164  2189.27690007
0.30200001 36442.65751758  2981.37395265
0.30300001 35733.99533791  1792.41729100
0.30400001 35049.93516384  1924.24153159
0.30500001 34387.97581869  1578.40816480
0.30600001 33749.10230611  1864.97548173
0.30700001 33133.39339031  1836.91541652
0.30800001 32539.70037804  1960.67973910
0.30900001 31967.59806262  1783.79205635
0.31000001 31417.53860862  2198.44236822
0.31100001 30886.82946234  1445.50368728
0.31200001 30377.73034958  1854.10485967
0.31300001 29888.48637335  1548.52255232
0.31400001 29420.36852384  1668.13497428
0.31500001 28970.33831434  1785.15233145
0.31600002 28539.89419635  1628.48643995
0.31700002 28127.46312371  1744.18407088
0.31800002 27733.88345741  1327.06638627
0.31900002 27358.28582109  1707.15711607
0.32000002 27000.35729886  1560.08071860
0.32100002 26659.86451749  1416.43866888
0.32200002 26336.23452202  1658.78780991
0.32300002 26028.42155516  1517.97761697
0.32400002 25737.43359103  2007.51991516
0.32500002 25461.79808186  1743.11477922
0.32600002 25202.01793397  1483.39084584
0.32700002 24957.43162692  1350.69626361
0.32800002 24728.32805944  1586.44596178
0.32900002 24512.47340680  1577.37773842
0.33000002 24312.66449776  1448.54861937
0.33100002 24124.12033787  1441.65749966
0.33200002 23951.81387915  1674.95042389
0.33300002 23791.24884598  1311.13578599
0.33400002 23644.55751417  1306.95297849
0.33500002 23509.97294020  1421.88323076
0.33600002 23387.69441919  1655.14721243
0.33700002 23276.85844753  1770.20516877
0.33800002 23179.15284402  1532.25797132
0.33900002 23091.75416053  1413.21542155
0.34000002 23016.07681072  1530.45410001
0.34100002 22951.08128559  1295.12957828
0.34200002 22897.77892998  1413.70893809
0.34300002 22853.27899127  1650.92095252
0.34400002 22820.08199711  1771.40894892
0.34500002 22795.80237957  1419.72263944
0.34600002 22782.50748710  1304.41252795
0.34700002 22776.28755391  1426.70671995
0.34800002 22780.92150550  1550.35568648
0.34900002 22793.63586099  1435.99912725
0.35000002 22815.11478903  1681.70219075
0.35100002 22844.85243574  1688.69157203
0.35200002 22881.74493524  1211.58845171
0.35300002 22927.09239451  1582.65726295
0.35400002 22980.29048896  1468.44063180
0.35500002 23040.39785541  1476.42876450
0.35600002 23107.29057954  1732.35365680
0.35700002 23181.04155520  1369.30418952
0.35800002 23262.20858828  1628.47098936
0.35900002 23349.11188802  1513.02252201
0.36000002 23442.93180133  1269.43481717
0.36100002 23541.89016417  2173.15198399
0.36200002 23647.79932001  1287.62273396
0.36300002 23757.49997096  1686.30742781
0.36400002 23873.33184580  1699.18447461
0.36500002 23993.83265526  1844.16606524
0.36600002 24119.82623626  2124.47439552
0.36700002 24250.17693911  1874.05376263
0.36800002 24386.46823255  1484.77018867
0.36900002 24525.87534260  1769.54198979
0.37000002 24668.77295148  1372.81727978
0.37100002 24815.97792016  2354.04377702
0.37200002 24967.63674700  1676.32721060
0.37300002 25122.14273641  1550.28750170
0.37400002 25281.22046789  1564.27559055
0.37500002 25442.27800153  1865.42791144
0.37600002 25607.59011340  1882.54207637
0.37700002 25774.57835591  1607.56052821
0.37800002 25945.17792891  1917.47846567
0.37900002 26118.28323006  1637.61643610
0.38000002 26293.80055270  1953.49800461
0.38100002 26471.10068792  1820.15296953
0.38200002 26650.90165451  1684.20380984
0.38300002 26832.30525222  2163.75719804
0.38400002 27016.18708855  2184.25882959
0.38500002 27200.97187145  2047.41724976
0.38600002 27388.12963442  2702.79770102
0.38700002 27575.58864092  2246.85906891
0.38800002 27764.37669338  1782.05660249
0.38900002 27954.50195740  2125.93997458
0.39000002 28146.18531393  1815.85123156
0.39100002 28337.67611257  1999.50652123
0.39200002 28530.86918857  1681.89481835
0.39300002 28723.87871660  2546.37196887
0.39400002 28918.33576594  2570.11721296
0.39500002 29112.00456299  2075.10378356
0.39600002 29306.11672276  2268.73313358
0.39700002 29499.89209919  2289.48673429
0.39800002 29695.03866298  2310.42259264
0.39900002 29888.91446692  2331.33543888
0.40000002 30082.30415093  1809.45068041
0.40100002 30275.62473785  2555.86836146
0.40200002 30469.31328200  2762.80511275
0.40300002 30661.33982408  3901.96229089
0.40400002 30853.01976138  2249.18524717
0.40500002 31043.95375938  2079.63456088
0.40600002 31234.24380784  2097.53574230
0.40700002 31423.19787565  2692.33972155
0.40800002 31611.42506816  2133.29712180
0.40900002 31797.91520501  2346.68625332
0.41000002 31983.94325757  2760.53427336
0.41100002 32168.37983451  2186.80656477
0.41200002 32350.62653750  2605.35783165
0.41300002 32532.20022820  2424.29967588
0.41400002 32711.62746163  2647.18857776
0.41500002 32890.25344605  2873.29267719
0.41600002 33065.87178931  2895.57852979
0.41700002 33240.49099280  2084.17888400
0.41800002 33414.17605981  3150.12159730
0.41900002 33583.83106700  2538.93774897
0.42000002 33752.26384689  2131.45556293
0.42100002 33919.22848855  2576.50471808
0.42200002 34083.86985420  2811.40813814
0.42300002 34245.80295436  2395.83648821
0.42400002 34405.43843025  3509.35488618
0.42500002 34563.27937271  2650.31238789
0.42600002 34717.28811039  2890.73513149
0.42700002 34870.23503070  3134.13687307
0.42800002 35020.22298730  3380.32718403
0.42900002 35168.18881096  3175.68760012
0.43000002 35313.52503533  2511.32145189
0.43100002 35454.87256380  2527.22343611
0.43200002 35594.34629449  2543.03819152
0.43300002 35730.76721278  3489.10958367
0.43400002 35864.88293124  3042.23883881
0.43500002 35995.42958606  3295.74168908
0.43600002 36124.35790761  2604.74695036
0.43700002 36249.42007862  2619.74571323
0.43800002 36370.67459668  3113.51174640
0.43900002 36490.16494645  2408.35100060
0.44000002 36605.86423301  3147.92144390
0.44100002 36719.01692751  2434.47093766
0.44200002 36828.99964554  2447.28714242
0.44300002 36936.01680352  3443.91436997
0.44400002 37039.28509511  2966.84687672
0.44500002 37138.73804260  2981.49803136
0.44600002 37235.79684855  2746.32632672
0.44700002 37329.95900959  2759.43070076
0.44800002 37419.34499312  2772.21230520
0.44900002 37507.27397063  2784.91522430
0.45000002 37591.53454167  3305.98766194
0.45100002 37671.11240500  3575.74215895
0.45200002 37748.30792574  2564.99764512
0.45300002 37821.44155857  2575.64029221
0.45400002 37892.01500014  2844.74316096
0.45500002 37959.02297316  2856.03702386
0.45600002 38022.43806054  2867.08207784
0.45700002 38082.20795130  2616.24781025
0.45800002 38138.00805048  3413.54257234
0.45900002 38190.85698154  3425.72003360
0.46000002 38240.77653868  2908.78480528
0.46100002 38286.01933759  2918.54339243
0.46200002 38328.77040009  2661.93323045
0.46300002 38367.68133870  3471.50797206
0.46400002 38402.54056609  3482.15053087
0.46500002 38435.00097633  3492.58870425
0.46600002 38462.90857615  3502.62493550
0.46700002 38487.50561802  2701.82302244
0.46800002 38509.26673968  2980.03974789
0.46900002 38526.91462665  4074.22141487
0.47000002 38540.43643017  3267.45835542
0.47100002 38551.19433822  4367.07950162
0.47200002 38558.16464349  3009.27210223
0.47300002 38562.55594191  3564.33721465
0.47400002 38561.60884228  3297.01771229
0.47500002 38558.63735482  2753.08683762
0.47600002 38552.45038838  3585.95634284
