# SAXS profile: number of points = 501, q_min = 0, q_max = 0.5, delta_q = 0.001
#    q    intensity    error
0.00000000 1682732.95097188 328.13292544
0.00100000 1682663.41940114 656.23874915
0.00200000 1682454.76744363 984.23607012
0.00300000 1682107.17293766 1312.04364163
0.00400000 1681620.49025866 1765.70158186
0.00500000 1680995.18570627 1664.18529972
0.00600000 1680231.02162357 2117.09117344
0.00700000 1679328.62073586 3828.86941441
0.00800000 1678287.44987636 2945.39459889
0.00900000 1677108.82745489 3270.36235334
0.01000000 1675791.97092934 4700.59668143
0.01100000 1674338.12600467 4520.71313704
0.01200000 1672746.73413094 3588.04190202
0.01300000 1671019.22897787 5614.62485700
0.01400000 1669154.80241000 5633.39770787
0.01500000 1667155.25537940 4001.17279108
0.01600000 1665019.51344671 6368.69992364
0.01700000 1662749.66253007 5387.30914827
0.01800000 1660345.23570303 4731.98413468
0.01900000 1657807.00108133 7957.47396425
0.02000000 1655135.66048877 6256.41307966
0.02100000 1652332.70990384 5997.96800889
0.02200000 1649396.45148030 6259.45981775
0.02300000 1646329.78739870 6519.46625485
0.02400000 1643132.65269557 7394.09727428
0.02500000 1639806.32571944 8313.81845109
0.02600000 1636350.92402378 7952.66585450
0.02700000 1632767.79286927 8229.15005297
0.02800000 1629056.43537999 7795.03540077
0.02900000 1625219.73388120 7313.48913826
0.03000000 1621257.91193892 12062.15941927
0.03100000 1617171.08169614 8538.66370425
0.03200000 1612960.45601614 10379.40101252
0.03300000 1608628.91003277 13126.41251100
0.03400000 1604174.09931101 10106.29729197
0.03500000 1599599.81490395 11229.19121917
0.03600000 1594905.56516447 10622.07155488
0.03700000 1590093.21507934 9969.88491963
0.03800000 1585164.19639081 13909.81646707
0.03900000 1580119.62236030 9480.71817321
0.04000000 1574958.51146165 12591.79388263
0.04100000 1569684.90377180 10877.91688751
0.04200000 1564298.88942801 11098.70113539
0.04300000 1558800.90805813 15432.12970610
0.04400000 1553194.34248263 12580.87475839
0.04500000 1547479.02385257 12813.12691286
0.04600000 1541655.24376427 15216.13796330
0.04700000 1535726.30612997 11057.22991838
0.04800000 1529692.21292153 16864.85743215
0.04900000 1523555.88847628 14854.67060409
0.05000000 1517316.86462941 12768.22201042
0.05100000 1510978.48061403 17678.44904672
0.05200000 1504538.92432512 16745.51900810
0.05300000 1498003.70571849 14560.59669837
0.05400000 1491371.33224000 17225.33969066
0.05500000 1484645.52430502 14965.22758311
0.05600000 1477824.81219001 16426.02355400
0.05700000 1470914.58835803 16636.04477088
0.05800000 1463913.00904244 15546.75688195
0.05900000 1456822.24901388 22289.38145096
0.06000000 1449645.26390572 13264.25478443
0.06100000 1442383.59606383 16097.00168431
0.06200000 1435037.44642093 16273.32540309
0.06300000 1427610.02651248 17816.57396389
0.06400000 1420099.83433698 17999.76624201
0.06500000 1412512.92789645 22374.20582450
0.06600000 1404847.22445062 19766.20137285
0.06700000 1397105.59595578 17100.57329479
0.06800000 1389291.37595486 21568.74962131
0.06900000 1381404.71730455 14504.75021079
0.07000000 1373445.69032834 20478.07620175
0.07100000 1365419.20015050 17695.83366278
0.07200000 1357323.92126360 20807.77668775
0.07300000 1349164.79438201 16473.30291127
0.07400000 1340941.02119332 15085.58719540
0.07500000 1332655.26907829 16711.49785755
0.07600000 1324307.31938626 16825.32528158
0.07700000 1315903.04169781 18475.27957172
0.07800000 1307440.56757801 17042.48859761
0.07900000 1298921.98433624 18704.47745175
0.08000000 1290351.13049702 15677.76697100
0.08100000 1281728.36987185 22071.36356474
0.08200000 1273054.37239951 17434.48044813
0.08300000 1264332.85392209 22302.83258990
0.08400000 1255563.58008782 19210.12367704
0.08500000 1246751.11786606 17691.39919304
0.08600000 1237894.66798570 17769.97879326
0.08700000 1228997.15181698 21089.59211550
0.08800000 1220058.04823220 19545.33085060
0.08900000 1211083.20470380 24524.43604716
0.09000000 1202071.34409098 19689.92954115
0.09100000 1193024.98892112 18110.12018266
0.09200000 1183945.43917083 23122.45551345
0.09300000 1174835.92346067 23191.26221892
0.09400000 1165694.77586056 18272.26647036
0.09500000 1156526.54925432 16653.98309204
0.09600000 1147332.22246869 16693.68462165
0.09700000 1138114.77832863 23422.40323916
0.09800000 1128875.07126446 23469.31383506
0.09900000 1119614.92587368 25191.33701672
0.10000000 1110333.98136289 20185.87273046
0.10100000 1101035.46565087 18530.42775842
0.10200000 1091721.39414339 25300.64449932
0.10300000 1082392.56473018 20262.38976491
0.10400000 1073051.95497486 18590.62599454
0.10500000 1063701.98979655 20295.43492021
0.10600001 1054339.27826785 16922.14621245
0.10700001 1044971.16710283 16928.53370368
0.10800001 1035595.35447460 16931.98484251
0.10900001 1026215.88635193 18625.81921392
0.11000001 1016832.98236938 22009.35093936
0.11100001 1007448.62058459 22002.67890931
0.11200001 998065.27287458 16917.20717164
0.11300001 988682.01521181 23669.04855853
0.11400001 979303.20073797 16892.98100813
0.11500001 969929.09818983 21939.79723415
0.11600001 960560.63773879 21915.19198203
0.11700001 951201.26573508 23570.76847498
0.11800001 941848.71694401 21855.60050605
0.11900001 932507.40713194 20142.16094278
0.12000001 923177.77448993 23457.94835477
0.12100001 913863.07276308 21740.80352520
0.12200001 904561.78448648 18358.08228103
0.12300001 895277.51347734 19982.59504228
0.12400001 886009.82573452 18273.95351680
0.12500001 876761.15506881 16570.78661162
0.12600001 867534.12907514 24789.78890650
0.12700001 858328.49062924 21423.88013574
0.12800001 849144.35344790 18074.03841495
0.12900001 839985.11713616 18017.68161178
0.13000001 830851.14753621 26121.96130979
0.13100001 821742.68787151 16270.50598681
0.13200001 812663.32425210 17833.89749141
0.13300001 803614.00675275 16152.64229721
0.13400001 794593.32352656 22526.72178401
0.13500001 785605.01248839 20834.24591349
0.13600001 776648.18386089 19152.14511705
0.13700001 767726.03214885 19070.31553781
0.13800001 758837.22398198 17403.93255272
0.13900001 749986.52775407 18899.66139068
0.14000001 741171.44038505 17243.35437376
0.14100001 732394.71830662 15600.00823567
0.14200001 723655.87014734 18626.90297614
0.14300001 714959.81021721 18531.75915493
0.14400001 706300.58677864 16898.24233577
0.14500001 697687.23109289 21391.09151437
0.14600001 689114.33736522 15194.97185572
0.14700001 680588.15459102 18130.86929366
0.14800001 672104.39911705 15021.53402896
0.14900001 663665.69751161 19412.22256810
0.15000001 655274.68097875 19294.56389179
0.15100001 646930.54420621 16225.01881427
0.15200001 638635.64786744 16122.35769118
0.15300001 630389.63248752 18930.60155692
0.15400001 622191.09737240 18805.72680554
0.15500001 614045.28518133 17242.39242161
0.15600001 605948.51885195 27113.16775563
0.15700001 597907.41923080 15587.44715503
0.15800001 589914.09225287 15476.39694072
0.15900001 581977.54396149 19554.44640009
0.16000001 574092.13166782 15250.75819763
0.16100001 566264.55160622 17888.29802964
0.16200001 558490.00843286 15020.58948586
0.16300001 550772.39554078 13549.00156992
0.16400001 543110.65094372 13441.98924545
0.16500001 535506.05671367 22667.97245087
0.16600001 527958.41537409 13225.35892953
0.16700001 520468.60313263 17050.55224366
0.16800001 513035.82713372 13005.45883191
0.16900001 505664.32587114 12894.44091856
0.17000001 498351.11542626 12782.70671428
0.17100001 491097.69730417 15204.38542651
0.17200001 483904.09887044 12557.31195868
0.17300001 476771.36796464 13688.10662068
0.17400001 469700.53404598 14795.56752118
0.17500001 462689.92368114 15879.51893069
0.17600001 455739.28806206 14519.85440342
0.17700001 448852.80776106 15579.68169322
0.17800001 442027.61195090 13055.28613560
0.17900001 435264.68349137 15277.79111217
0.18000001 428565.21771638 17453.31931591
0.18100001 421929.47323730 12670.54267983
0.18200001 415354.11581974 18242.35362853
0.18300001 408844.99289291 13540.94680428
0.18400001 402397.42322552 13399.83482643
0.18500001 396014.75467900 12153.69339526
0.18600001 389695.52345194 17489.53591879
0.18700001 383439.98291526 12975.60963488
0.18800001 377247.90403002 14972.97001837
0.18900001 371122.17629707 11634.68077662
0.19000001 365056.67770489 11504.76174146
0.19100001 359060.22546269 10340.93498194
0.19200001 353124.62304581 13289.84581629
0.19300001 347255.90215152 16168.23556817
0.19400001 341450.44407751 11984.91115345
0.19500001 335709.95154333 10856.86034595
0.19600001 330032.48300442 13653.44446710
0.19700001 324420.35948415 11562.34215842
0.19800001 318872.47909634 11422.01274102
0.19900001 313389.87546867 10341.86637922
0.20000001 307969.18265497 10213.79842547
0.20100001 302614.69762090 11003.07092553
0.20200001 297322.50568513 13580.20608902
0.20300001 292095.32020366 8938.11722069
0.20400001 286931.77426825 10587.78297094
0.20500001 281831.22326149 10450.30225249
0.20600001 276794.58597722 10313.36676100
0.20700001 271821.05549791 11873.14426538
0.20800001 266910.32616217 14224.98650523
0.20900001 262064.81771852 9080.54636320
0.21000001 257279.76873595 10585.77658506
0.21100001 252557.36839173 8031.32469453
0.21200001 247897.27978504 11880.47769534
0.21300001 243298.97626413 8590.88725802
0.21400001 238763.48861951 10010.15973362
0.21500001 234290.08290710 9868.29875860
0.21600001 229876.34066481 8230.72276664
0.21700001 225524.54849740 7374.65308454
0.21800001 221233.47992829 9447.77620703
0.21900001 217001.52325265 7877.15566652
0.22000001 212829.58652889 9877.42157784
0.22100001 208719.88377126 8340.44694987
0.22200001 204668.43529860 8215.39138135
0.22300001 200675.98386060 7416.98471420
0.22400001 196740.81787753 7304.00320908
0.22500001 192867.05271270 7192.01273575
0.22600001 189049.64998617 6437.14088643
0.22700001 185290.91482196 8238.03446255
0.22800001 181588.86180667 6237.57769803
0.22900001 177943.47132340 7366.86006117
0.23000001 174354.89528452 8457.95637024
0.23100001 170823.95722482 7133.60879108
0.23200001 167346.96148975 8773.16487101
0.23300001 163926.48913067 6904.58404873
0.23400001 160561.27625304 6225.76378116
0.23500001 157249.15325370 10019.91651923
0.23600001 153992.17788672 6021.86440108
0.23700001 150788.85098937 5921.47845843
0.23800001 147638.66031709 6351.41546726
0.23900001 144541.65592765 6244.19983142
0.24000001 141496.71763389 6138.12790129
0.24100001 138504.95466421 7038.82212898
0.24200001 135564.29820342 5929.58268390
0.24300001 132674.52241565 4855.88775011
0.24400001 129834.93142213 4771.43395547
0.24500001 127046.04530399 6563.19901087
0.24600001 124306.84182159 5526.68244883
0.24700001 121617.90448442 5429.02351301
0.24800001 118976.47908762 4443.77170414
0.24900001 116383.50744298 4800.81990914
0.25000001 113838.93295062 4714.63963119
0.25100001 111341.05071410 4629.56110771
0.25200001 108891.39934077 4545.67168053
0.25300001 106488.00971206 4057.19336198
0.25400001 104129.97944964 6372.75504382
0.25500001 101817.48371869 4691.74987173
0.25600001 99550.53326370  4605.20788666
0.25700001 97327.81162856  4519.90378588
0.25800001 95149.15135739  5175.16258719
0.25900001 93014.27229739  3990.31247036
0.26000001 90923.01079862  4983.49045767
0.26100001 88872.39916992  4889.75963369
0.26200001 86866.25995946  3426.87411755
0.26300001 84900.51897519  3362.06071050
0.26400001 82975.71129970  3957.94161628
0.26500001 81092.49411068  3235.59066812
0.26600001 79248.48355845  4126.07249171
0.26700001 77445.29924165  3113.30117684
0.26800001 75681.12637018  3969.85367160
0.26900001 73955.13532894  4193.25637158
0.27000001 72267.98717029  3231.46319924
0.27100001 70618.39623479  4321.84605409
0.27200001 69006.51550893  2825.81694382
0.27300001 67430.90918271  4157.11574785
0.27400001 65890.57897492  2717.98651134
0.27500001 64388.44542562  2932.24994345
0.27600001 62919.47747495  3398.59573665
0.27700001 61487.12233730  3076.81574737
0.27800001 60088.19928736  4023.50601470
0.27900001 58723.76722191  2713.03817405
0.28000001 57392.46244286  2661.00164710
0.28100001 56094.06056473  2372.77887419
0.28200001 54828.71354416  3258.47060015
0.28300001 53595.24971859  2968.10506990
0.28400001 52393.73760541  2239.83238864
0.28500001 51223.52995197  3515.98326232
0.28600001 50083.26638408  2587.30166386
0.28700001 48973.73061246  4654.46357772
0.28800001 47893.34620029  2491.41198727
0.28900001 46843.88310174  3667.87622048
0.29000001 45821.83739779  2800.17261592
0.29100001 44829.62545203  2159.89145652
0.29200001 43864.70324423  2506.20993849
0.29300001 42927.41507613  2082.40900392
0.29400001 42017.09874132  2417.03371951
0.29500001 41134.74018984  2739.57382633
0.29600001 40277.30665017  1973.78950583
0.29700001 39445.80173580  2468.51838948
0.29800001 38640.24164390  2946.12536360
0.29900001 37859.63763768  1874.05215178
0.30000001 37103.48283408  2177.78902804
0.30100001 36372.41195084  2471.50550906
0.30200001 35663.93834186  1620.92607437
0.30300001 34979.33873362  1754.56371394
0.30400001 34318.47496983  1727.07733462
0.30500001 33678.89076871  2164.20562326
0.30600001 33061.84370920  1826.99756987
0.30700001 32467.03959296  1799.97276025
0.30800001 31893.31725651  1773.90638979
0.30900001 31340.68237578  1457.34179947
0.31000001 30809.42834479  1868.43787043
0.31100001 30296.72443735  1559.67544788
0.31200001 29805.07950439  1539.28340388
0.31300001 29332.20953537  1657.85656143
0.31400001 28879.93370578  1501.03462543
0.31500001 28445.53937237  1483.15049310
0.31600002 28029.54822240  1466.08558919
0.31700002 27631.16698259  1845.20941846
0.31800002 27250.97680920  1303.95930206
0.31900002 26888.11172605  1290.62942396
0.32000002 26542.19843407  1917.01037267
0.32100002 26213.23826673  2025.75914917
0.32200002 25900.65285256  1631.35269716
0.32300002 25603.23716766  1244.31738527
0.32400002 25321.82990128  1357.88319275
0.32500002 25055.52704029  1837.82299543
0.32600002 24804.49478550  1703.32473758
0.32700002 24567.98248364  1450.49375452
0.32800002 24346.47831982  1561.94839057
0.32900002 24137.75903035  1314.30104144
0.33000002 23944.40826705  1664.37589746
0.33100002 23762.05143355  1183.35021743
0.33200002 23595.27020887  1650.01732384
0.33300002 23439.88337214  1174.33821256
0.33400002 23297.82956061  1287.78758995
0.33500002 23167.45198178  1751.45945276
0.33600002 23048.88021203  1631.16932985
0.33700002 22941.38347774  1279.44101714
0.33800002 22846.51390232  1974.96698782
0.33900002 22761.46870934  1509.08544690
0.34000002 22687.86559768  1276.53281831
0.34100002 22624.59588795  1973.09110083
0.34200002 22572.43048320  1277.48676370
0.34300002 22528.89792793  1743.73678220
0.34400002 22495.98295499  1513.41732497
0.34500002 22471.88702952  1282.92009127
0.34600002 22458.37473570  1519.64599846
0.34700002 22451.58078515  1757.95885874
0.34800002 22455.27912271  1410.64070130
0.34900002 22466.81504937  1651.31098434
0.35000002 22486.58245029  1183.91862208
0.35100002 22514.52486888  1545.39706019
0.35200002 22549.31479672  1790.97941256
0.35300002 22592.18971247  2159.36159499
0.35400002 22642.63597410  1446.86450727
0.35500002 22699.74680419  1212.16653676
0.35600002 22763.31613976  1462.77076442
0.35700002 22833.60865930  1226.16484308
0.35800002 22910.96576678  1603.88223447
0.35900002 22993.85839675  1365.83525346
0.36000002 23083.48155901  1249.97058563
0.36100002 23177.90830990  1258.56048084
0.36200002 23279.12297899  1267.54830625
0.36300002 23383.92123077  2170.49567145
0.36400002 23494.62911099  1286.33100476
0.36500002 23609.94866245  1425.80486726
0.36600002 23730.49822478  1437.00038807
0.36700002 23855.14945680  1711.84560611
0.36800002 23985.61003458  1327.60357830
0.36900002 24119.22322196  1472.47864745
0.37000002 24255.98075488  1619.81447154
0.37100002 24397.06043327  1769.76284766
0.37200002 24542.19525398  1647.76306741
0.37300002 24690.25847518  1523.63592268
0.37400002 24842.69325123  1956.36218621
0.37500002 24997.04274776  1550.81660554
0.37600002 25155.49403566  1707.05190613
0.37700002 25315.59037850  2009.55165944
0.37800002 25479.14757043  1593.33856880
0.37900002 25645.04700781  1607.94452356
0.38000002 25813.49449894  1622.76540855
0.38100002 25983.53325934  1786.62783155
0.38200002 26155.95390539  1652.92558536
0.38300002 26330.04823981  1668.27193551
0.38400002 26506.43410281  1530.74664196
0.38500002 26683.55724374  2008.47144889
0.38600002 26863.24451859  1715.35256000
0.38700002 27043.26952678  1573.91836102
0.38800002 27224.43629436  1906.25511964
0.38900002 27406.89409984  1603.30338080
0.39000002 27591.04482426  1780.03634117
0.39100002 27774.93626737  1959.79959587
0.39200002 27960.30731565  2472.39029152
0.39300002 28145.74323038  2827.80295633
0.39400002 28332.54926602  1678.70362354
0.39500002 28518.64508644  2541.01139759
0.39600002 28705.18810709  2564.09104915
0.39700002 28891.47386446  2069.78528571
0.39800002 29078.83174359  2610.55224346
0.39900002 29265.16435767  2282.68292805
0.40000002 29451.24932966  2657.23909667
0.40100002 29636.97234630  2323.24237230
0.40200002 29823.34015184  1983.10309736
0.40300002 30008.07447649  2182.18727932
0.40400002 30192.40660576  2384.44542467
0.40500002 30376.08226912  2034.89384762
0.40600002 30559.15352231  2611.89097531
0.40700002 30741.03910938  2257.62201916
0.40800002 30922.39673463  2276.50695547
0.40900002 31101.73331322  2104.03235833
0.41000002 31280.95278188  2121.31791342
0.41100002 31458.58438465  2332.96872851
0.41200002 31634.22602607  2743.63655324
0.41300002 31809.05832941  1975.34261585
0.41400002 31982.07800183  1990.88444995
0.41500002 32154.30260556  2006.42857766
0.41600002 32323.55149747  2224.02206617
0.41700002 32492.00062418  3055.87280350
0.41800002 32659.55835527  2668.44934186
0.41900002 32823.18483350  2688.21896524
0.42000002 32985.77234186  2291.35678430
0.42100002 33146.96505935  3986.58567659
0.42200002 33306.03021247  2113.26771712
0.42300002 33462.37886802  2128.20739685
0.42400002 33616.73189866  2357.37343610
0.42500002 33769.29435754  2589.42961404
0.42600002 33918.24089921  2824.20246230
0.42700002 34066.24585838  2624.46370529
0.42800002 34211.35852637  2641.80123059
0.42900002 34354.61272225  2215.87262559
0.43000002 34495.38073659  2676.15176436
0.43100002 34632.23160788  2244.16871454
0.43200002 34767.52243937  2483.96575839
0.43300002 34899.85348703  2726.37668360
0.43400002 35029.93525038  2742.84406008
0.43500002 35156.76572895  2759.10310516
0.43600002 35282.00613894  2312.73561201
0.43700002 35403.40928374  3489.00615025
0.43800002 35521.38176700  2572.99141022
0.43900002 35637.60212786  3763.33096304
0.44000002 35750.22304150  2364.87736627
0.44100002 35860.62126432  2377.55930250
0.44200002 35967.80659022  2629.06694730
0.44300002 36072.31561872  2882.89960087
0.44400002 36173.18655901  3621.84047586
0.44500002 36270.38545009  2669.13779177
0.44600002 36365.34589194  2438.29655761
0.44700002 36457.48520071  2694.93743375
0.44800002 36545.36335714  2707.46337262
0.44900002 36631.67343848  3214.42949656
0.45000002 36714.49105777  3725.60315665
0.45100002 36792.73280836  2744.00214289
0.45200002 36868.95653077  3757.86857249
0.45300002 36941.24452223  3521.97841967
0.45400002 37011.09227670  3283.80931788
0.45500002 37077.54324400  3296.93530151
0.45600002 37140.41751589  3309.76846379
0.45700002 37200.10490451  3322.34152648
0.45800002 37255.90087604  2565.06889688
0.45900002 37308.78141553  2831.73664365
0.46000002 37359.08871547  3875.07166067
0.46100002 37404.87599222  3110.58963494
0.46200002 37448.26949466  3120.93892760
0.46300002 37487.88846720  3652.82002537
0.46400002 37523.77413705  4187.65339217
0.46500002 37557.30741355  4462.93505147
0.46600002 37586.62568242  2896.23757923
0.46700002 37612.74327061  3696.58058384
0.46800002 37636.12480819  2647.70150575
0.46900002 37655.51635660  3451.12823765
0.47000002 37671.19038920  2927.61669986
0.47100002 37684.03233682  3201.63553908
0.47200002 37693.42105164  3209.21802044
0.47300002 37700.10783038  3484.62113192
0.47400002 37701.95489004  3223.51729588
0.47500002 37701.72628915  3230.28406156
0.47600002 37698.46372132  3236.79024853
0.47700002 37690.68107606  3513.14854962
