# SAXS profile: number of points = 501, q_min = 0, q_max = 0.5, delta_q = 0.001
#    q    intensity    error
0.00000000 1700912.83420644 280.65061764
0.00100000 1700842.72805153 612.30339664
0.00200000 1700632.35558419 841.81304267
0.00300000 1700281.88892971 1122.18608667
0.00400000 1699791.18700193 1784.78081417
0.00500000 1699160.72580787 1988.01812788
0.00600000 1698390.23626457 2318.30276688
0.00700000 1697480.37876867 2444.37184702
0.00800000 1696430.60969504 2748.21770374
0.00900000 1695242.24662384 2797.14982650
0.01000000 1693914.50872127 3353.95087209
0.01100000 1692448.63845913 3655.68921824
0.01200000 1690844.09285348 3297.14612562
0.01300000 1689102.29373016 4256.53796793
0.01400000 1687222.42804809 4935.12582082
0.01500000 1685206.34764999 6471.19266313
0.01600000 1683052.88900915 8154.39161178
0.01700000 1680764.21710319 4991.86994873
0.01800000 1678339.86377246 5261.59570969
0.01900000 1675780.55889046 5530.07609387
0.02000000 1673087.06040087 7905.33671800
0.02100000 1670260.81953510 6063.04704980
0.02200000 1667300.20799812 5752.18597893
0.02300000 1664207.98398583 5991.14901506
0.02400000 1660984.24245542 6851.56031254
0.02500000 1657630.26611523 7757.70999972
0.02600000 1654146.06119996 7369.22103970
0.02700000 1650533.05119789 6932.23913254
0.02800000 1646790.80256354 11461.66451147
0.02900000 1642922.02527225 12568.35407040
0.03000000 1638927.02321423 8383.11210907
0.03100000 1634806.08863974 10201.19046250
0.03200000 1630560.18837629 8878.40063463
0.03300000 1626192.29655975 9122.93920427
0.03400000 1621700.21774974 9365.31918962
0.03500000 1617087.52827319 11351.95497269
0.03600000 1612353.73544905 9843.42000982
0.03700000 1607501.00899614 10995.30741004
0.03800000 1602530.41483540 13124.72470491
0.03900000 1597443.39272356 13418.52512029
0.04000000 1592238.75502633 15667.63007548
0.04100000 1586920.54600798 13996.63986477
0.04200000 1581489.03931086 11220.66525447
0.04300000 1575944.54209424 14561.72824488
0.04400000 1570290.39645573 10599.46066834
0.04500000 1564526.56942486 10795.23383063
0.04600000 1558653.35344632 14285.05864840
0.04700000 1552673.85359593 15650.95317214
0.04800000 1546588.39992996 15914.39537575
0.04900000 1540399.67341039 13863.59770601
0.05000000 1534107.46198318 15256.69941987
0.05100000 1527714.81991818 11916.17615047
0.05200000 1521220.17711881 15721.81126318
0.05300000 1514628.77791208 12268.49367302
0.05400000 1507939.51481796 13684.55173514
0.05500000 1501155.76697804 16392.62174010
0.05600000 1494276.34370056 14053.66966831
0.05700000 1487306.41722449 14233.52307724
0.05800000 1480244.40257531 20960.26171915
0.05900000 1473092.14048789 13257.82988361
0.06000000 1465853.01098449 13412.55567713
0.06100000 1458528.30319602 18990.03939504
0.06200000 1451118.19068983 13713.06754302
0.06300000 1443626.04664091 19402.33497402
0.06400000 1436050.37986584 16801.79023019
0.06500000 1428397.10447734 18383.47159456
0.06600000 1420664.12462456 17133.21014461
0.06700000 1412854.55907688 18734.45233011
0.06800000 1404971.71638466 21812.18691788
0.06900000 1397015.52503401 17602.39643955
0.07000000 1388986.36060629 16271.97597649
0.07100000 1380888.79209864 17896.31958382
0.07200000 1372721.79049445 22546.95646512
0.07300000 1364490.22019536 18175.01058460
0.07400000 1356193.33135879 18308.61083136
0.07500000 1347833.73076974 15365.30525099
0.07600000 1339411.30904683 18564.24161369
0.07700000 1330931.72401945 17129.09209129
0.07800000 1322393.32766083 15670.36166766
0.07900000 1313798.18971569 18918.69481926
0.08000000 1305150.12984047 17443.33230360
0.08100000 1296449.75564743 20730.23256543
0.08200000 1287697.27920127 22444.56462969
0.08300000 1278896.55896683 17725.50713917
0.08400000 1270047.74806702 22670.35336711
0.08500000 1261154.95411646 19522.67960622
0.08600000 1252217.57655077 16341.44014124
0.08700000 1243238.77849674 18051.82791145
0.08800000 1234217.81572573 18124.48947513
0.08900000 1225160.42827451 21501.56652614
0.09000000 1216065.50700444 18259.22444541
0.09100000 1206935.57938625 28314.71002266
0.09200000 1197771.91495980 20050.70279854
0.09300000 1188577.89184737 16758.94906259
0.09400000 1179351.89406051 20166.91833623
0.09500000 1170098.15330492 21904.23845943
0.09600000 1160817.77928776 21956.86932737
0.09700000 1151514.04223536 22005.43438165
0.09800000 1142187.47170450 30530.67255414
0.09900000 1132839.96240517 22090.38030565
0.10000000 1123471.28081898 25530.88605726
0.10100000 1114084.74063949 18750.04706681
0.10200000 1104682.29518014 22187.54494231
0.10300000 1095264.61802072 22211.96749833
0.10400000 1085834.86380767 18812.08990048
0.10500000 1076395.35995387 18826.15573135
0.10600001 1066943.00104952 17124.43597261
0.10700001 1057484.46453797 23983.74878434
0.10800001 1048018.08406314 20562.11577701
0.10900001 1038547.84067545 18849.64419543
0.11000001 1029074.05053670 20560.90049752
0.11100001 1019598.34787648 27406.80488105
0.11200001 1010123.29620583 22258.06787974
0.11300001 1000648.07908952 18822.19125384
0.11400001 991177.17726176 17097.80711281
0.11500001 981710.66861047 23914.47301344
0.11600001 972249.77083996 20475.58113812
0.11700001 962797.58534386 23858.12528842
0.11800001 953352.21730974 17017.33788047
0.11900001 943917.81443926 25485.78219028
0.12000001 934494.83164024 20353.29839186
0.12100001 925086.89087918 23700.72726082
0.12200001 915691.90197116 20273.41966475
0.12300001 906314.03210299 21914.67432875
0.12400001 896952.47533003 20181.43164582
0.12500001 887609.96462045 25163.74368272
0.12600001 878289.03759866 20077.68834564
0.12700001 868989.18774694 21689.97114833
0.12800001 859711.02446175 19962.49092882
0.12900001 850457.46795562 21559.09782880
0.13000001 841229.48266813 21489.20814765
0.13100001 832026.58424076 21416.36528787
0.13200001 822853.03528080 16415.91882770
0.13300001 813709.39304496 17991.11552838
0.13400001 804594.51473641 19551.64762987
0.13500001 795511.74277604 22719.81644488
0.13600001 786460.69176974 19394.12157349
0.13700001 777444.29352164 17702.40739821
0.13800001 768461.43308171 20829.14812589
0.13900001 759516.52985040 30304.71097015
0.14000001 750607.38443037 17462.88162233
0.14100001 741736.81820206 17378.89447011
0.14200001 732904.27314208 17292.87714041
0.14300001 724114.49293767 17204.96116372
0.14400001 715361.55769293 17115.02607512
0.14500001 706654.64765569 17023.31126505
0.14600001 697988.59503774 20007.84402061
0.14700001 689369.16165013 18364.79533275
0.14800001 680792.35969183 31952.99090964
0.14900001 672260.90695802 16638.45823223
0.15000001 663777.23595861 19544.92163499
0.15100001 655340.46934630 17930.11608735
0.15200001 646953.33940887 16332.33782405
0.15300001 638615.29460493 22128.02100226
0.15400001 630324.97675858 29310.11280245
0.15500001 622087.55244008 16012.53435549
0.15600001 613899.69672200 21686.00781017
0.15700001 605767.29002474 17228.02254141
0.15800001 597683.16962296 14254.74426831
0.15900001 589655.80764389 14151.74005142
0.16000001 581680.41494599 18261.85748923
0.16100001 573762.78956414 15336.68008901
0.16200001 565898.54167499 16603.46399653
0.16300001 558091.51771267 15101.95718224
0.16400001 550340.71034051 20431.39983595
0.16500001 542647.54470900 21619.07920187
0.16600001 535011.48538646 16082.44601002
0.16700001 527433.55487448 14620.45883142
0.16800001 519913.15017918 19769.69846902
0.16900001 512454.40569238 13067.58796218
0.17000001 505054.28370589 19431.96448316
0.17100001 497714.30322111 14125.13259242
0.17200001 490434.66786546 15272.13627852
0.17300001 483216.11870594 12611.94129382
0.17400001 476059.97770898 17495.20500703
0.17500001 468964.39391156 17332.92481756
0.17600001 461929.30420697 13490.64596652
0.17700001 454958.73558745 14576.87857670
0.17800001 448050.08696789 18045.21810495
0.17900001 441203.87539824 16677.50727779
0.18000001 434421.64151524 16512.36737396
0.18100001 427703.71933202 12843.94329824
0.18200001 421046.48528026 13869.27188029
0.18300001 414456.02955924 18302.37912993
0.18400001 407927.64472386 12451.99194344
0.18500001 401464.77367730 12320.95448622
0.18600001 395065.60644008 13297.90894101
0.18700001 388730.82252897 17539.53554116
0.18800001 382459.86346084 11927.01140553
0.18900001 376255.77222501 17157.26402410
0.19000001 370112.47355926 12724.46744218
0.19100001 364038.73295233 14678.04240618
0.19200001 358026.55445247 11401.35616527
0.19300001 352081.59759277 12294.68996890
0.19400001 346200.47006051 11139.00065056
0.19500001 340384.86250777 12008.77851675
0.19600001 334632.95241478 9888.40421115
0.19700001 328946.74173479 12700.63429858
0.19800001 323325.46520179 9651.26559238
0.19900001 317769.92130180 11439.71770751
0.20000001 312277.02667382 12239.69863894
0.20100001 306850.75154632 10227.33603241
0.20200001 301487.49982159 10098.32428381
0.20300001 296189.86139715 11782.43324327
0.20400001 290956.49108338 14315.06003791
0.20500001 285786.64464071 13246.21160520
0.20600001 280681.17416193 11329.69613058
0.20700001 275639.57174210 11179.94155833
0.20800001 270661.34504718 9333.75692516
0.20900001 265748.92942410 9208.20083983
0.21000001 260897.61034884 9908.89170947
0.21100001 256109.51277798 10587.56775875
0.21200001 251384.40956461 8834.90549181
0.21300001 246721.70801090 8711.74392172
0.21400001 242122.48051991 7808.45036592
0.21500001 237585.85919893 8467.56042218
0.21600001 233109.59724065 8346.48952381
0.21700001 228695.92751570 9721.86433834
0.21800001 224343.59651600 8106.65624339
0.21900001 220051.03995744 9440.19006052
0.22000001 215819.16183567 7869.84610844
0.22100001 211650.26163156 8457.54485470
0.22200001 207540.00599287 9024.87758734
0.22300001 203489.66342206 6837.25301428
0.22400001 199497.02731733 9426.23498648
0.22500001 195566.50130030 9281.58659061
0.22600001 191693.17696503 7179.86828275
0.22700001 187878.99566427 7068.00815113
0.22800001 184122.18442332 8221.97653424
0.22900001 180422.61545460 8091.95468582
0.23000001 176780.71642413 7350.54253654
0.23100001 173196.84576740 6027.25051775
0.23200001 169667.82058821 5929.89061000
0.23300001 166195.95283327 5833.47822034
0.23400001 162779.87095871 7459.38793948
0.23500001 159417.64257873 6207.72329562
0.23600001 156111.11402144 7769.65051233
0.23700001 152858.80171075 5457.05947918
0.23800001 149660.68035881 9657.60416035
0.23900001 146515.97615907 5802.03293033
0.24000001 143424.35478142 5184.79067059
0.24100001 140386.33064757 8153.63846969
0.24200001 137400.05337961 5509.05540084
0.24300001 134465.43406053 5905.72214330
0.24400001 131581.63399434 4835.62527803
0.24500001 128749.08519542 6176.09390898
0.24600001 125966.91233848 6067.19661979
0.24700001 123235.70112135 4584.36829858
0.24800001 120552.78876181 5853.44093524
0.24900001 117918.61632693 5748.53281789
0.25000001 115333.78369087 4776.54887753
0.25100001 112796.30849835 4690.07072924
0.25200001 110307.57728552 6697.87640965
0.25300001 107865.70249176 6575.49353499
0.25400001 105469.92393280 5244.49221568
0.25500001 103120.23420733 5147.76233518
0.25600001 100816.95082564 4275.14300203
0.25700001 98558.35749582  7246.99636955
0.25800001 96344.41982186  4117.27897589
0.25900001 94174.92801682  5141.95131301
0.26000001 92049.69238731  3964.12019022
0.26100001 89965.66198217  3535.65068319
0.26200001 87926.85303192  3815.58596786
0.26300001 85928.97239091  4083.34496123
0.26400001 83972.65426157  5006.86974726
0.26500001 82058.44338749  3928.95845531
0.26600001 80184.25284753  3211.37947850
0.26700001 78351.29041157  3464.69422595
0.26800001 76558.04913484  3398.02917165
0.26900001 74803.51875789  3635.45118367
0.27000001 73088.56062596  3862.36516905
0.27100001 71411.70480625  3204.95746337
0.27200001 69773.04319624  4285.80938115
0.27300001 68171.29646067  3082.02445884
0.27400001 66605.35348113  4395.95353779
0.27500001 65078.17999190  3502.50781292
0.27600001 63584.93619637  2641.95422399
0.27700001 62128.51483087  2590.75919106
0.27800001 60706.50406984  2794.62404712
0.27900001 59319.16029075  3986.24776020
0.28000001 57965.74574257  3420.55881816
0.28100001 56645.69125622  2875.33542425
0.28200001 55359.22337603  2819.99897224
0.28300001 54105.26752464  3226.83830790
0.28400001 52883.64263113  2486.85341243
0.28500001 51693.98184478  2439.43911872
0.28600001 50534.79294245  3263.28440872
0.28700001 49406.76725449  2134.37244642
0.28800001 48308.51034219  2513.00882695
0.28900001 47241.72856413  2877.02140574
0.29000001 46202.68594038  2218.42207043
0.29100001 45194.03181295  2375.39842453
0.29200001 44213.29004303  2526.12644618
0.29300001 43260.55288917  2289.34856726
0.29400001 42335.36538641  2248.00800843
0.29500001 41438.32546651  1839.86173781
0.29600001 40567.07025555  1987.98937198
0.29700001 39721.98450046  2130.68734947
0.29800001 38903.54940245  1919.30670063
0.29900001 38110.20500525  1886.45523706
0.30000001 37341.98116354  2360.38674109
0.30100001 36599.31333188  1989.53876691
0.30200001 35879.69840285  2446.09855441
0.30300001 35184.25190574  1604.40196286
0.30400001 34513.02689041  1894.76526599
0.30500001 33863.53386529  2020.63716140
0.30600001 33236.84322400  2142.77938410
0.30700001 32632.95693924  2713.75682755
0.30800001 32050.64010452  2673.98503052
0.30900001 31489.74290158  1464.27311425
0.31000001 30950.54430638  1588.22725628
0.31100001 30430.40292530  1708.97150920
0.31200001 29931.58209567  1967.40298430
0.31300001 29452.13560540  1387.19565269
0.31400001 28993.59190981  1643.93673912
0.31500001 28553.07486268  1488.75739383
0.31600002 28131.54709466  1471.42064045
0.31700002 27727.94526102  1454.88535673
0.31800002 27342.85612164  1308.35572737
0.31900002 26975.48286380  1294.82323877
0.32000002 26625.39078317  2051.22020306
0.32100002 26292.60356988  1650.91265632
0.32200002 25976.39925438  1636.12358451
0.32300002 25675.77177939  1247.84256756
0.32400002 25391.60788745  1361.62503744
0.32500002 25122.62565733  1474.19574338
0.32600002 24869.33096078  1707.77703794
0.32700002 24630.86620333  1575.39027696
0.32800002 24407.67725371  1565.87460836
0.32900002 24197.54597002  1197.77858223
0.33000002 24003.14866480  1549.28330393
0.33100002 23819.93095544  1423.47914130
0.33200002 23652.60859742  1654.02699754
0.33300002 23496.90377315  1177.19493478
0.33400002 23354.85596673  1525.65603828
0.33500002 23224.64083088  1287.57414864
0.33600002 23106.56408937  1284.84055704
0.33700002 22999.75784600  1399.30533362
0.33800002 22905.86339059  1281.23952943
0.33900002 22822.04784514  1280.31694475
0.34000002 22749.81343008  1280.01831326
0.34100002 22688.11724946  1513.07061102
0.34200002 22637.81162333  1630.60164845
0.34300002 22596.30036542  1399.16298489
0.34400002 22565.71571819  1518.10859684
0.34500002 22544.08512181  1638.05330253
0.34600002 22533.16228704  1172.85115259
0.34700002 22529.22190774  1881.64070285
0.34800002 22535.85156696  1179.75188541
0.34900002 22550.58969421  1420.68721802
0.35000002 22573.78662166  1901.61587507
0.35100002 22605.20891063  1432.26610441
0.35200002 22643.60632241  1798.46851734
0.35300002 22690.33665534  1204.85693346
0.35400002 22744.72646441  1211.15674159
0.35500002 22805.98709564  1826.75965288
0.35600002 22873.79971375  1837.33804903
0.35700002 22948.43873036  1602.03058365
0.35800002 23030.27945908  1612.23478990
0.35900002 23117.84474214  1248.36367520
0.36000002 23212.13011792  1885.40535813
0.36100002 23311.49435147  1518.97704389
0.36200002 23417.67874642  1402.60193495
0.36300002 23527.55586619  1926.90691671
0.36400002 23643.45645909  1812.27102343
0.36500002 23763.94378931  1435.10463341
0.36600002 23889.83382798  1315.13541453
0.36700002 24019.95251614  1591.08173004
0.36800002 24155.92617137  1470.73363461
0.36900002 24295.02853931  1483.21156258
0.37000002 24437.44821473  1495.93846333
0.37100002 24584.13181530  1646.15354433
0.37200002 24735.08705425  1799.10664211
0.37300002 24888.94240076  2094.40460224
0.37400002 25047.23994708  1831.57950789
0.37500002 25207.46206873  1848.21120643
0.37600002 25371.86702059  2152.16872197
0.37700002 25537.92799335  1592.80064440
0.37800002 25707.46614966  2046.05732778
0.37900002 25879.47917981  1917.66949807
0.38000002 26053.89721659  1488.98029647
0.38100002 26230.03183661  2705.36561179
0.38200002 26408.54542723  1517.17100667
0.38300002 26588.67183100  1990.95984102
0.38400002 26771.22450437  1700.64211721
0.38500002 26954.55932005  2184.93668199
0.38600002 27140.30273214  1890.59357789
0.38700002 27326.35133873  1749.43309558
0.38800002 27513.63925818  1765.96301945
0.38900002 27702.19271143  1944.69402047
0.39000002 27892.32986746  1635.88522423
0.39100002 28082.30483038  1981.48752271
0.39200002 28273.76733889  2333.43412903
0.39300002 28465.17997794  3196.35521116
0.39400002 28657.94138883  2207.37804005
0.39500002 28849.96556681  1885.05683944
0.39600002 29042.34156278  2248.31297860
0.39700002 29234.44038879  2268.88502607
0.39800002 29427.74498820  2289.62580729
0.39900002 29619.83406837  1954.90914113
0.40000002 29811.53711425  2869.06246781
0.40100002 30003.00229482  2351.93546132
0.40200002 30194.95271684  2737.92746732
0.40300002 30385.18642270  2762.01357669
0.40400002 30575.04500294  2228.92088632
0.40500002 30764.13088944  2060.88922593
0.40600002 30952.58707087  2078.62108323
0.40700002 31139.77329654  2096.32963765
0.40800002 31326.26798979  2498.42662190
0.40900002 31510.89206074  2131.71194891
0.41000002 31695.09649895  3321.80474597
0.41100002 31877.76055262  2561.05940415
0.41200002 32058.25092391  2383.21048661
0.41300002 32237.95062363  2001.97682859
0.41400002 32415.69259838  2219.66465585
0.41500002 32592.56675965  2643.90914082
0.41600002 32766.42660065  2459.44809718
0.41700002 32939.31194077  2271.82445220
0.41800002 33111.26887157  2289.14768191
0.41900002 33279.22836144  2306.25063473
0.42000002 33445.96289911  2323.32392288
0.42100002 33611.24139830  2978.62835386
0.42200002 33774.30126409  2142.97951675
0.42300002 33934.57052821  3669.00593937
0.42400002 34092.63732353  2390.74630560
0.42500002 34248.89904622  2407.35522803
0.42600002 34401.40669001  2644.09224349
0.42700002 34552.84075531  2440.12172977
0.42800002 34701.33559745  3349.54657727
0.42900002 34847.84018251  2921.99153777
0.43000002 34991.75827417  3167.10419148
0.43100002 35131.65196854  3187.14361762
0.43200002 35269.79293687  2748.92779177
0.43300002 35404.90697997  2765.83146434
0.43400002 35537.63900208  3710.12968763
0.43500002 35666.98449908  3498.93134517
0.43600002 35794.64448814  3519.50858608
0.43700002 35918.46187240  2831.81166822
0.43800002 36038.56264546  2610.45340893
0.43900002 36156.90120444  2624.99115184
0.44000002 36271.48169431  2639.29449056
0.44100002 36383.65479573  2412.23642727
0.44200002 36492.58415862  3152.41203194
0.44300002 36598.66475696  3412.45966366
0.44400002 36700.97541611  2449.79022512
0.44500002 36799.52928754  2708.07748861
0.44600002 36895.72190575  3463.40157943
0.44700002 36989.02065468  3231.36099753
0.44800002 37077.73150254  2996.62240205
0.44900002 37164.90551058  2759.49436494
0.45000002 37248.44763215  2771.84336191
0.45100002 37327.33808912  2783.87300662
0.45200002 37403.99141323  3304.08173808
0.45300002 37476.62568531  2807.37416314
0.45400002 37546.66507918  3331.32801703
0.45500002 37613.20591007  3087.29208742
0.45600002 37676.11845332  3874.04706357
0.45700002 37735.59267167  3110.92240729
0.45800002 37791.07984243  5203.83194093
0.45900002 37843.58153233  2872.32797444
0.46000002 37893.34402749  3406.42232280
0.46100002 37938.43424123  3154.96034103
0.46200002 37981.05193827  2901.56260034
0.46300002 38019.79590502  3175.41350449
0.46400002 38054.68728866  3185.17747702
0.46500002 38087.05997554  2662.28561847
0.46600002 38115.09019358  3203.95463353
0.46700002 38139.81163778  3480.63937503
0.46800002 38161.68402458  3490.07697788
0.46900002 38179.49404250  4306.64713211
0.47000002 38193.37311050  2698.36193815
0.47100002 38204.38564413  3786.81888453
0.47200002 38211.74996325  2982.23616723
0.47300002 38216.40811498  3260.62409491
0.47400002 38216.04351981  3267.47187581
0.47500002 38213.53003636  3001.29079131
0.47600002 38207.83924231  3827.27943831
0.47700002 38197.47202597  3286.51064889
