# SAXS profile: number of points = 501, q_min = 0, q_max = 0.5, delta_q = 0.001
#    q    intensity    error
0.00000000 1682732.95097188 328.13292544
0.00100000 1682663.49101572 555.27896522
0.00200000 1682455.04876602 1211.36767347
0.00300000 1682107.81068526 1211.11766684
0.00400000 1681621.63154166 1639.58115305
0.00500000 1680996.97150072 2269.34600135
0.00600000 1680233.59215103 2469.94348102
0.00700000 1679332.08334786 2619.75815890
0.00800000 1678292.00025255 2265.69429600
0.00900000 1677114.55936620 3521.94072522
0.01000000 1675799.06788919 3594.58915583
0.01100000 1674346.68664720 3315.20658390
0.01200000 1672756.92158155 4566.62659614
0.01300000 1671031.18110689 4561.91532562
0.01400000 1669168.65507580 3755.62964041
0.01500000 1667171.14280319 5201.57419717
0.01600000 1665037.57862869 5095.01521837
0.01700000 1662770.02625388 4938.42719951
0.01800000 1660368.05140339 5205.25407537
0.01900000 1657832.46950148 5470.84739621
0.02000000 1655163.71068766 7820.64888677
0.02100000 1652363.66066219 6543.36039289
0.02200000 1649430.41529787 6828.64222957
0.02300000 1646366.86293556 5926.92097635
0.02400000 1643172.93670288 8626.65831104
0.02500000 1639849.91083261 6395.41494433
0.02600000 1636398.04085259 6627.41236858
0.02700000 1632818.50098453 7543.62182005
0.02800000 1629110.89781381 7795.29600353
0.02900000 1625278.17921581 9507.87778496
0.03000000 1621320.26872394 9046.96751533
0.03100000 1617237.59844386 8539.01491269
0.03200000 1613031.06335867 8782.95454451
0.03300000 1608703.83196430 9845.26790549
0.03400000 1604253.59190850 9264.56492074
0.03500000 1599683.88437004 10365.95204940
0.03600000 1594994.30063304 10622.66253313
0.03700000 1590186.68735766 11783.28389827
0.03800000 1585262.56859252 9273.78645545
0.03900000 1580222.96398994 16118.27497913
0.04000000 1575067.15121241 16467.32782900
0.04100000 1569798.68508270 14834.59826186
0.04200000 1564418.02153022 14126.69538980
0.04300000 1558925.47474049 12346.69033305
0.04400000 1553324.31148962 13630.42146634
0.04500000 1547614.65984066 10678.54164908
0.04600000 1541796.66647686 15217.53380554
0.04700000 1535873.39424602 15481.60453402
0.04800000 1529845.26955968 15742.10855622
0.04900000 1523714.88717425 17141.79327862
0.05000000 1517481.97129310 12769.61138306
0.05100000 1511149.74723938 15323.05915082
0.05200000 1504716.41933144 15551.24491850
0.05300000 1498187.60738865 13348.85220413
0.05400000 1491561.44743867 12305.38251522
0.05500000 1484842.21508285 18709.01278281
0.05600000 1478028.01278547 12637.14009902
0.05700000 1471124.42581382 19198.17465301
0.05800000 1464129.51456929 16844.81085164
0.05900000 1457045.55441222 19670.11590327
0.06000000 1449875.31378596 15919.63168912
0.06100000 1442620.44213195 21466.19318207
0.06200000 1435281.05813850 17632.42862343
0.06300000 1427860.82794716 19190.45042487
0.06400000 1420357.70410355 19387.88356772
0.06500000 1412777.88028255 19581.10233668
0.06600000 1405119.25857729 16945.73905131
0.06700000 1397384.79777942 15678.65816483
0.06800000 1389577.93665738 17258.55878114
0.06900000 1381698.39850432 14507.83386354
0.07000000 1373746.77475377 14630.40383625
0.07100000 1365727.64865879 14749.85929637
0.07200000 1357639.80847227 14866.15659920
0.07300000 1349487.96273633 20971.04392353
0.07400000 1341271.77745438 18107.16984421
0.07500000 1332993.26118824 18235.34866779
0.07600000 1324652.90517181 18359.69012639
0.07700000 1316255.94764352 18480.23437143
0.07800000 1307801.15349892 17047.18883531
0.07900000 1299289.98525336 15591.48055434
0.08000000 1290726.80543306 17250.56456386
0.08100000 1282111.84724081 26808.95998363
0.08200000 1273445.22431210 15854.39378666
0.08300000 1264731.21909006 17529.17551927
0.08400000 1255969.50278778 16013.61191220
0.08500000 1247164.61190714 20914.95152354
0.08600000 1238315.72142713 19392.02510803
0.08700000 1229425.85366269 19474.10643648
0.08800000 1220494.25827794 19552.31893586
0.08900000 1211526.87203883 17991.17489482
0.09000000 1202522.75037239 19697.32357639
0.09100000 1193483.65381474 21411.09775535
0.09200000 1184411.61484951 16522.54280349
0.09300000 1175309.63538626 21543.42662900
0.09400000 1166175.85008375 21603.40863811
0.09500000 1157015.29427877 21659.32732695
0.09600000 1147828.03679005 20041.07846444
0.09700000 1138618.06282677 25106.52946566
0.09800000 1129385.61861415 23479.92811496
0.09900000 1120132.64981432 21842.58769847
0.10000000 1110858.89410558 18512.46434086
0.10100000 1101567.71678168 16853.98685943
0.10200000 1092260.86216438 16875.43111420
0.10300000 1082939.07560032 21962.00548628
0.10400000 1073605.39720777 23673.00012213
0.10500000 1064262.42595396 20306.12804259
0.10600001 1054906.68815377 20317.50376985
0.10700001 1045545.51634862 23712.97342666
0.10800001 1036176.48356954 18635.63493402
0.10900001 1026803.69138248 23719.16638729
0.11000001 1017427.61568464 20328.20471822
0.11100001 1008049.80868906 18628.76134149
0.11200001 998673.26360546 18620.26387651
0.11300001 989296.17868591 18608.66199719
0.11400001 979923.91708300 18594.05720214
0.11500001 970555.86127231 20265.20733761
0.11600001 961193.67548823 18555.84477912
0.11700001 951840.30450624 18532.33160152
0.11800001 942494.07010558 18505.87193812
0.11900001 933158.58120595 25195.28287930
0.12000001 923834.84525967 23474.64452382
0.12100001 914525.85660445 26777.31834281
0.12200001 905230.31802973 18371.65016993
0.12300001 895951.78766510 21664.11524643
0.12400001 886689.62934551 23275.60386701
0.12500001 877446.33986487 24875.60490732
0.12600001 868224.56328999 21501.58232311
0.12700001 859024.31030709 18142.59428868
0.12800001 849845.32989006 23022.31107175
0.12900001 840690.91818559 22950.86314819
0.13000001 831561.86730371 17974.21060898
0.13100001 822458.25526576 19541.60906626
0.13200001 813383.48182651 19472.40147286
0.13300001 804338.80075270 16167.21065730
0.13400001 795322.59341415 22547.39658630
0.13500001 786338.50298813 16041.30621728
0.13600001 777385.82579724 17572.80742072
0.13700001 768467.83374101 20679.47038108
0.13800001 759582.98795110 15837.30604560
0.13900001 750736.03600091 17342.00324944
0.14000001 741924.74953131 23537.56378893
0.14100001 733151.61096092 15616.13004997
0.14200001 724416.25710543 15538.72944780
0.14300001 715723.43174744 23189.44028241
0.14400001 707067.52793587 19992.33529542
0.14500001 698457.19069158 19885.07715701
0.14600001 689887.22782473 18254.41690938
0.14700001 681363.86502647 15126.27851719
0.14800001 672882.66998682 18046.71406047
0.14900001 664446.58960652 16445.05386865
0.15000001 656057.83152590 14859.71058519
0.15100001 647716.04199094 17721.51174506
0.15200001 639423.25979135 16142.24095514
0.15300001 631179.17138161 17496.28745633
0.15400001 622982.50594400 21726.51592009
0.15500001 614838.50960077 15825.94398400
0.15600001 606743.19514923 15717.68321214
0.15700001 598703.41215077 17027.12584519
0.15800001 590711.57969389 16906.16620879
0.15900001 582776.02516879 19581.27536992
0.16000001 574891.59270626 18048.72240496
0.16100001 567064.82301093 15157.64343459
0.16200001 559290.83878928 13674.66165392
0.16300001 551573.86087659 20353.07642717
0.16400001 543912.46764109 16154.20105157
0.16500001 536308.11442457 14689.47994760
0.16600001 528760.59530157 19868.18030649
0.16700001 521270.38754156 22331.22445664
0.16800001 513837.79711941 18236.10428081
0.16900001 506465.84937209 15497.85572256
0.17000001 499152.17932506 14083.57940468
0.17100001 491898.20977357 21574.65649945
0.17200001 484703.75455960 13835.86932727
0.17300001 477569.92122678 13711.03308592
0.17400001 470498.13354556 12350.57658884
0.17500001 463486.22286413 12236.03686149
0.17600001 456534.29934243 13333.08484201
0.17700001 449646.40228254 14406.67140957
0.17800001 442819.34534578 13078.66998252
0.17900001 436054.47727276 18837.55430795
0.18000001 429353.16309154 16319.71449997
0.18100001 422715.37481308 11540.13027751
0.18200001 416137.61587525 12565.27590491
0.18300001 409625.86646596 12436.24189339
0.18400001 403175.85190352 17901.00867017
0.18500001 396790.59121496 12177.50381968
0.18600001 390468.54422951 12047.90750139
0.18700001 384209.95856154 13001.66561198
0.18800001 378014.74068796 15003.40576676
0.18900001 371885.72900437 12718.49253287
0.19000001 365816.75235011 13624.84558504
0.19100001 359816.84913820 13471.54346827
0.19200001 353877.41170791 13318.17701893
0.19300001 348004.90830772 11139.63764131
0.19400001 342195.47857886 12011.06186569
0.19500001 336450.97979762 10880.82520083
0.19600001 330769.21820912 13683.92320396
0.19700001 325152.61890544 13519.84653300
0.19800001 319600.27949256 11448.08255245
0.19900001 314112.93734499 10365.72742227
0.20000001 308687.54016914 13960.39466393
0.20100001 303328.18996538 10109.92904936
0.20200001 298031.04775661 16335.08249959
0.20300001 292798.64258720 13439.45832996
0.20400001 287629.79209759 8844.61652505
0.20500001 282523.85473850 11348.98378128
0.20600001 277481.90396291 9477.39487783
0.20700001 272502.56155223 11052.70441901
0.20800001 267586.20987238 10905.47649885
0.20900001 262734.74645758 9931.37388557
0.21000001 257943.58899199 12245.87246629
0.21100001 253215.00338860 13688.80373030
0.21200001 248548.81635175 8735.24856364
0.21300001 243944.18890045 9396.73060068
0.21400001 239402.14355811 11581.07924214
0.21500001 234922.15616543 9894.92168550
0.21600001 230501.99879420 10503.97658166
0.21700001 226143.13917007 8134.36910054
0.21800001 221845.37832328 8016.38312473
0.21900001 217606.44564765 7899.11435049
0.22000001 213427.41126814 8490.14282168
0.22100001 209310.68482347 9061.05997445
0.22200001 205251.66327427 7552.23530728
0.22300001 201251.97527728 7438.27335797
0.22400001 197309.33714634 6659.19044358
0.22500001 193428.07727619 7212.93334271
0.22600001 189603.07253510 6455.98492511
0.22700001 185836.64533173 8262.29764217
0.22800001 182126.81905491 7507.26783646
0.22900001 178473.51682155 6157.33662153
0.23000001 174877.04046027 7877.33666007
0.23100001 171338.07560897 7751.33490713
0.23200001 167853.03221115 6453.11012855
0.23300001 164424.43340161 8656.94682802
0.23400001 161050.92327909 9083.27250254
0.23500001 157730.31691009 7258.74952751
0.23600001 154465.13252945 7687.73000960
0.23700001 151253.20018067 8099.60925277
0.23800001 148094.70399290 6371.03446712
0.23900001 144989.00237620 6785.48563216
0.24000001 141935.49649066 5644.06528492
0.24100001 138935.02162639 7565.01228539
0.24200001 135985.59969198 6939.34548053
0.24300001 133087.14229732 8767.78134929
0.24400001 130238.75833103 4786.27459507
0.24500001 127440.95469789 5172.82859588
0.24600001 124692.84997774 5081.85734124
0.24700001 121994.92764113 4992.03267523
0.24800001 119344.60167519 4903.27319178
0.24900001 116742.46493699 4815.62690647
0.25000001 114188.84687338 4299.21028817
0.25100001 111681.90522156 5065.89146051
0.25200001 109223.16352217 6217.52887765
0.25300001 106810.60476816 6104.22635129
0.25400001 104443.37853375 5193.44724330
0.25500001 102121.71298086 3921.47396400
0.25600001 99845.60444323  5388.66752675
0.25700001 97613.56469354  4533.17415885
0.25800001 95425.73611935  4448.74802837
0.25900001 93281.48007676  5093.16905317
0.26000001 91181.07144348  3926.71302751
0.26100001 89121.13684733  3502.46084382
0.26200001 87105.57948207  3436.31527316
0.26300001 85130.69539676  4382.52840640
0.26400001 83196.56638277  3637.77003722
0.26500001 81303.99162530  3244.02941935
0.26600001 79450.79604486  3182.00453217
0.26700001 77638.14897528  3745.26448379
0.26800001 75864.81928042  4285.60384395
0.26900001 74129.56142402  3602.69685569
0.27000001 72433.13101222  3827.72898948
0.27100001 70774.32613154  3176.35190710
0.27200001 69153.09970460  3398.18348030
0.27300001 67568.36065071  3610.17768042
0.27400001 66018.92828595  3812.59328894
0.27500001 64507.42666442  3204.72910835
0.27600001 63029.44236894  3928.31018156
0.27700001 61587.84136477  2825.03441710
0.27800001 60180.01774224  2518.53386171
0.27900001 58806.37002646  3704.80148701
0.28000001 57466.13501139  4359.95586966
0.28100001 56158.80435981  3088.17279791
0.28200001 54884.51536145  2795.81734484
0.28300001 53642.22259821  2513.67466992
0.28400001 52431.73618724  2689.74819371
0.28500001 51252.69914964  2418.61498735
0.28600001 50103.69789684  2156.96429655
0.28700001 48985.43941815  2327.78819133
0.28800001 47896.39294639  2283.93960575
0.28900001 46838.29856354  2648.70590914
0.29000001 45807.72809162  3399.16262394
0.29100001 44807.09446665  2158.80591359
0.29200001 43833.64694340  2119.13776179
0.29300001 42887.83089276  2080.48877509
0.29400001 41969.28848896  2228.56932426
0.29500001 41078.53123747  2006.27556061
0.29600001 40213.04067496  2328.93836094
0.29700001 39373.24325164  2111.98086800
0.29800001 38559.69246910  2248.22297584
0.29900001 37771.08580059  2039.63872979
0.30000001 37007.02136610  1837.95380316
0.30100001 36268.03475525  1807.23625741
0.30200001 35551.89396512  1777.41702293
0.30300001 34859.44406969  2066.46794228
0.30400001 34190.94011777  2033.50625977
0.30500001 33543.94202693  1539.66701193
0.30600001 32919.36583369  1667.53055525
0.30700001 32317.11452120  2090.27106619
0.30800001 31736.17876877  1765.16634669
0.30900001 31176.21060945  1739.63263437
0.31000001 30637.91344096  1572.18460266
0.31100001 30118.13934772  1550.48188703
0.31200001 29619.48668874  1390.63496588
0.31300001 29139.84138772  1784.23257265
0.31400001 28680.83107892  1761.72013243
0.31500001 28239.65176084  1338.55955684
0.31600002 27817.18637951  1984.06091246
0.31700002 27412.23817759  1438.32020528
0.31800002 27025.60512556  1422.49279314
0.31900002 26656.57847337  1407.46741004
0.32000002 26304.42723035  1266.55823111
0.32100002 25969.34726441  1756.04734517
0.32200002 25650.73847094  1491.33400532
0.32300002 25347.43118783  1601.45077828
0.32400002 25060.34545049  1588.19946813
0.32500002 24788.28687828  1697.00620004
0.32600002 24531.63664494  1684.58756818
0.32700002 24289.70999915  1195.05378855
0.32800002 24062.72267248  1306.24496213
0.32900002 23848.77298291  1180.51431856
0.33000002 23650.28486040  1409.08403871
0.33100002 23462.89031464  1285.29719230
0.33200002 23291.10689131  1279.72992874
0.33300002 23130.90808900  1390.63026016
0.33400002 22984.15671774  1616.93550166
0.33500002 22849.13655984  1497.07549830
0.33600002 22726.13219795  1493.44784811
0.33700002 22614.15504610  1261.19148665
0.33800002 22515.05332355  1373.86861887
0.33900002 22425.90185169  1829.95367776
0.34000002 22348.22380817  1600.35638269
0.34100002 22280.95665639  1257.31444366
0.34200002 22225.03561904  1486.52157778
0.34300002 22177.63541688  1716.54906256
0.34400002 22141.27514846  1260.39214752
0.34500002 22113.68196942  1606.78020800
0.34600002 22096.81818875  1380.16732943
0.34700002 22086.78212541  2075.27414679
0.34800002 22087.26899874  1503.14916290
0.34900002 22095.76654823  1740.04169808
0.35000002 22112.67399142  1746.34851118
0.35100002 22137.82422636  1402.65260942
0.35200002 22169.95581740  1173.89921613
0.35300002 22210.13987735  1415.23018001
0.35400002 22258.21452435  1422.29997547
0.35500002 22313.00092348  1429.81716690
0.35600002 22374.39812985  1437.77889192
0.35700002 22442.59309868  1687.23422907
0.35800002 22517.91793439  1576.36691966
0.35900002 22598.89813078  1708.47677961
0.36000002 22686.81200493  1228.49092826
0.36100002 22779.57714437  1608.01042679
0.36200002 22879.28047322  1619.50994501
0.36300002 22982.66570682  1380.33896773
0.36400002 23092.05342815  1896.43497762
0.36500002 23206.15156758  1656.22311583
0.36600002 23325.65042907  1412.48482864
0.36700002 23449.33365855  1682.72426305
0.36800002 23578.93419182  1696.62229014
0.36900002 23711.84401150  1974.01110746
0.37000002 23847.99865272  1857.99766305
0.37100002 23988.50750414  1338.55878214
0.37200002 24133.22819352  1620.30501767
0.37300002 24281.00537564  1770.81380593
0.37400002 24433.21760829  2061.55283336
0.37500002 24587.52953586  1386.73673151
0.37600002 24745.96220290  2099.07634330
0.37700002 24906.15452720  1412.17902859
0.37800002 25069.99325590  1567.75210253
0.37900002 25236.28611677  2013.85572752
0.38000002 25405.08149502  1742.28057147
0.38100002 25575.69092577  1905.13330731
0.38200002 25748.75685544  1923.04599685
0.38300002 25923.57838141  1642.51800406
0.38400002 26100.92248123  1658.06117917
0.38500002 26278.95362124  2130.17208145
0.38600002 26459.73594582  1535.98774442
0.38700002 26640.91957693  1705.55175212
0.38800002 26823.27253349  1565.13802648
0.38900002 27007.12618388  1579.91695661
0.39000002 27192.70820395  1913.82289406
0.39100002 27378.13596632  2253.76825952
0.39200002 27565.17984947  1949.96091493
0.39300002 27752.37254896  2296.23141349
0.39400002 27940.91708144  1655.49941551
0.39500002 28129.03651328  2005.03781766
0.39600002 28317.48257774  1686.30616740
0.39700002 28505.91604694  2042.16392236
0.39800002 28695.43490762  2060.90623271
0.39900002 28884.04730956  1906.34721275
0.40000002 29072.56458300  2448.20077953
0.40100002 29260.66826588  1940.86021803
0.40200002 29449.64605669  1958.25430732
0.40300002 29636.95494482  2155.19946570
0.40400002 29823.95960978  1992.98619535
0.40500002 30010.38412114  2010.39572753
0.40600002 30196.32978610  2212.18322494
0.40700002 30381.13038347  1859.32526757
0.40800002 30565.49217808  2250.23164077
0.40900002 30747.98787639  2458.30174720
0.41000002 30930.27467445  1906.85152403
0.41100002 31111.16965249  2114.93741319
0.41200002 31290.13061780  2519.95078871
0.41300002 31468.42923140  2345.02745744
0.41400002 31644.87935758  2560.86198335
0.41500002 31820.54050223  2184.16200357
0.41600002 31993.39693586  2001.18707316
0.41700002 32165.49951297  3428.52075554
0.41800002 32336.74283871  2642.07369883
0.41900002 32504.18861247  2252.54037758
0.42000002 32670.60324673  3301.03790847
0.42100002 32835.75703050  2702.05457408
0.42200002 32998.71716922  2512.52244432
0.42300002 33159.18519219  2952.49398942
0.42400002 33317.55564552  2973.59198227
0.42500002 33474.28685328  2566.80843754
0.42600002 33627.38030995  2799.98395419
0.42700002 33779.65959437  2819.25052334
0.42800002 33929.02396506  2838.33263430
0.42900002 34076.63278537  2637.53150257
0.43000002 34221.79749547  3539.90290068
0.43100002 34363.08507506  2672.07362206
0.43200002 34502.87729151  2465.05818491
0.43300002 34639.75724591  2480.55313393
0.43400002 34774.38520831  2722.83449084
0.43500002 34905.78805011  2739.40637599
0.43600002 35035.75774261  2526.25343175
0.43700002 35161.84216927  2541.14645400
0.43800002 35284.56781591  3020.53557102
0.43900002 35405.63448364  2804.12638399
0.44000002 35523.02839130  2819.81812733
0.44100002 35638.24604118  2362.81582450
0.44200002 35750.27088420  2613.16617412
0.44300002 35859.74858244  3343.56311628
0.44400002 35965.66594857  3120.92081059
0.44500002 36067.74809403  3136.81220039
0.44600002 36167.71633001  2667.55004434
0.44700002 36264.94813200  2680.70509296
0.44800002 36357.86654206  3183.31315595
0.44900002 36449.17883607  2952.38362564
0.45000002 36537.07191206  3213.25294159
0.45100002 36620.50206518  2482.87015769
0.45200002 36701.87564213  3242.06033850
0.45300002 36779.34109537  2755.14057203
0.45400002 36854.31668492  4024.49157273
0.45500002 36925.94231598  2778.30803153
0.45600002 36994.04350316  3043.13016279
0.45700002 37058.91152812  3564.32627970
0.45800002 37120.00694562  3066.85511920
0.45900002 37178.16521156  3078.35222541
0.46000002 37233.70248143  3862.06597293
0.46100002 37284.70871270  3358.97956712
0.46200002 37333.40833623  4667.04959731
0.46300002 37378.27185418  2861.68062879
0.46400002 37419.41675162  4437.00755162
0.46500002 37458.30144998  3403.83601409
0.46600002 37492.82272241  3151.64682742
0.46700002 37524.22010105  3687.88052632
0.46800002 37552.92559492  2906.03328490
0.46900002 37577.62664626  3973.83420619
0.47000002 37598.54495284  3453.23852487
0.47100002 37616.68871938  3462.24019383
0.47200002 37631.33302535  3470.92616610
0.47300002 37643.30463845  2944.08299531
0.47400002 37650.39267821  3755.62684766
0.47500002 37655.46195484  3495.18014431
0.47600002 37657.39765013  2963.82562253
0.47700002 37654.86627149  3509.81025152
