# SAXS profile: number of points = 501, q_min = 0, q_max = 0.5, delta_q = 0.001
#    q    intensity    error
0.00000000 1700912.83420644 255.13692513
0.00100000 1700842.79823161 561.27813675
0.00200000 1700632.63321874 994.87012194
0.00300000 1700282.51589765 1224.20345506
0.00400000 1699792.30320680 1529.81313102
0.00500000 1699162.47805140 2599.71869432
0.00600000 1698392.75822100 3209.96244372
0.00700000 1697483.77452626 2444.37673691
0.00800000 1696435.07204808 3206.26242154
0.00900000 1695247.87734729 3305.73350214
0.01000000 1693921.47146391 3353.96465832
0.01100000 1692457.03621316 3351.06507761
0.01200000 1690854.08639798 3626.88217434
0.01300000 1689114.02785016 4611.28149941
0.01400000 1687236.02548281 4935.16559332
0.01500000 1685221.95509998 5662.34602127
0.01600000 1683070.62070666 4721.01330213
0.01700000 1680784.20839569 4538.11756624
0.01800000 1678362.25500097 7653.33222719
0.01900000 1675805.56029124 6535.64198004
0.02000000 1673114.57764631 5270.31115799
0.02100000 1670291.19829808 7716.74568600
0.02200000 1667333.53289818 8053.22132977
0.02300000 1664244.38273227 5991.28005055
0.02400000 1661023.79509091 6851.72346717
0.02500000 1657673.02839049 7111.41761658
0.02600000 1654192.30140654 9379.27077797
0.02700000 1650582.81188756 9012.18256567
0.02800000 1646844.21012444 8596.52717108
0.02900000 1642979.33889165 8872.08883737
0.03000000 1638988.19219902 11431.94316606
0.03100000 1634871.35377857 12555.81257475
0.03200000 1630629.47629792 8071.61627944
0.03300000 1626265.81801033 9123.35165963
0.03400000 1621778.17889761 11920.07016489
0.03500000 1617170.00059503 14845.62129100
0.03600000 1612440.79801282 10738.85621105
0.03700000 1607592.71666718 12828.59047229
0.03800000 1602626.91256996 13125.51502139
0.03900000 1597544.75287016 13419.37654556
0.04000000 1592345.35823872 12730.80172905
0.04100000 1587032.14122141 15997.28472525
0.04200000 1581605.84614594 12241.62981709
0.04300000 1576066.73365832 12482.44910998
0.04400000 1570417.84894854 14840.44936178
0.04500000 1564659.60444356 11875.76694953
0.04600000 1558792.03031370 16484.22648687
0.04700000 1552818.09831685 14534.37807621
0.04800000 1546738.50921510 12505.38142886
0.04900000 1540555.61844656 15020.41797902
0.05000000 1534269.38151072 15258.30970964
0.05100000 1527882.75466163 16684.48045814
0.05200000 1521394.16095459 14514.10097188
0.05300000 1514809.08003424 13496.94953230
0.05400000 1508125.90110577 17418.85497008
0.05500000 1501348.60681550 12611.32888556
0.05600000 1494475.53887747 14055.54309903
0.05700000 1487512.13806078 18117.89868730
0.05800000 1480456.63138316 14412.24597946
0.05900000 1473311.04001484 17237.73997328
0.06000000 1466078.49721431 17439.00453909
0.06100000 1458760.43698005 14923.11996768
0.06200000 1451356.96891624 15086.85639710
0.06300000 1443871.87425228 16633.40476909
0.06400000 1436303.03220649 15404.35074083
0.06500000 1428656.70159144 18386.81260958
0.06600000 1420930.70967587 17136.42516048
0.06700000 1413128.16208572 15855.29872061
0.06800000 1405252.46545846 21816.54554746
0.06900000 1397303.25837389 17606.02187981
0.07000000 1389281.30368783 17755.01589257
0.07100000 1381190.92977208 19391.92156227
0.07200000 1373031.24152754 16538.16207896
0.07300000 1364806.80611242 19694.16313498
0.07400000 1356517.33103005 16786.90275820
0.07500000 1348164.79679373 23053.61910575
0.07600000 1339749.76291594 20116.34363325
0.07700000 1331277.34800294 18691.13484236
0.07800000 1322746.44079627 21944.36448192
0.07900000 1314158.56273795 20500.87454028
0.08000000 1305517.99908706 17448.24887631
0.08100000 1296825.19810315 19141.14082207
0.08200000 1288079.91662472 19243.91485740
0.08300000 1279286.63835062 20954.71611963
0.08400000 1270445.06230913 17817.99283524
0.08500000 1261559.75775825 17901.53380298
0.08600000 1252629.75814521 16346.81911130
0.08700000 1243658.31670938 21341.17771687
0.08800000 1234644.63389530 26372.01061853
0.08900000 1225594.55260665 18200.07996106
0.09000000 1216507.16892822 24907.98545387
0.09100000 1207384.30586894 18328.09462417
0.09200000 1198227.99353001 16715.28129514
0.09300000 1189041.38307179 21795.12957591
0.09400000 1179822.46062498 26899.95336648
0.09500000 1170576.13524842 16856.29713987
0.09600000 1161302.65356159 25345.43160541
0.09700000 1152006.20127570 18627.94115038
0.09800000 1142686.69355703 20362.67783659
0.09900000 1133346.25363274 18700.21406427
0.10000000 1123984.51766243 18731.20286772
0.10100000 1114605.02723566 20464.14926251
0.10200000 1105209.66221224 18783.03909278
0.10300000 1095798.82049634 23932.24736543
0.10400000 1086375.82512201 22243.54606582
0.10500000 1076943.10749209 18835.73583625
0.10600001 1067497.43773488 18846.66815001
0.10700001 1058045.65383673 18854.37443861
0.10800001 1048585.81940065 29145.44422187
0.10900001 1039122.04140380 20574.61738815
0.11000001 1029654.94333888 20572.50673625
0.11100001 1020185.49146318 22280.85218239
0.11200001 1010716.92448474 22271.14847948
0.11300001 1001247.76551966 18833.47135612
0.11400001 991783.21736880 22240.73969669
0.11500001 982322.53717523 22220.13683721
0.11600001 972867.71666416 30732.89261668
0.11700001 963421.28532762 27284.09208542
0.11800001 953982.00739583 23840.01148765
0.11900001 944553.20445701 22102.54602536
0.12000001 935136.02254198 25459.07941295
0.12100001 925733.49731875 22023.20093868
0.12200001 916343.98570135 21978.51153248
0.12300001 906971.67002877 32052.38032895
0.12400001 897615.42425748 21879.37699718
0.12500001 888278.05381408 16788.45600817
0.12600001 878962.17906431 21767.49939029
0.12700001 869667.50566252 16697.61689562
0.12800001 860394.25626426 21643.21853636
0.12900001 851145.36213683 21576.53594712
0.13000001 841922.02802161 23161.27608258
0.13100001 832723.73555649 21434.30996359
0.13200001 823554.47070585 21358.88620462
0.13300001 814415.34270710 18006.72407614
0.13400001 805304.64075676 17938.16171856
0.13500001 796225.94796492 19491.61212518
0.13600001 787178.82231664 27500.09345428
0.13700001 778166.41605878 16108.04557196
0.13800001 769187.27516544 17641.31098781
0.13900001 760245.96332632 17561.68258101
0.14000001 751340.36405334 19069.01933898
0.14100001 742473.09784956 22140.54882209
0.14200001 733643.68266935 18883.98928258
0.14300001 724857.13658651 15656.91488877
0.14400001 716107.32495958 17132.86855781
0.14500001 707403.11809921 20139.76772232
0.14600001 698739.79105014 21570.09836727
0.14700001 690122.95529263 16852.80336330
0.14800001 681548.50033425 15232.60970112
0.14900001 673019.37570146 22714.40500161
0.15000001 664537.90158349 18062.14101726
0.15100001 656103.23314443 16455.06986369
0.15200001 647717.97980264 17838.15400549
0.15300001 639381.56917248 16246.68643934
0.15400001 631092.95605669 16140.20311282
0.15500001 622857.12814070 17489.82898359
0.15600001 614670.41149782 18818.13553613
0.15700001 606539.17763196 14374.97918833
0.15800001 598456.35316973 18555.14010581
0.15900001 590429.85663917 17004.38067382
0.16000001 582455.10327132 18286.17883036
0.16100001 574538.20715240 19545.79072997
0.16200001 566674.24799316 22168.29762797
0.16300001 558867.71020073 15122.96095195
0.16400001 551117.04040526 15004.16213337
0.16500001 543423.95626742 14884.38286488
0.16600001 535787.70311806 14763.63085645
0.16700001 528209.24932566 17304.13582492
0.16800001 520688.85237270 15839.35563705
0.16900001 513229.45333375 18322.29234916
0.17000001 505828.57773669 12974.50363160
0.17100001 498487.93435138 16719.28610765
0.17200001 491207.13390923 12746.82572689
0.17300001 483987.26682986 16421.68873904
0.17400001 476830.07476403 13768.46905904
0.17500001 469732.99403897 13641.04679113
0.17600001 462696.49049191 12284.59240275
0.17700001 455724.27801516 15818.19043701
0.17800001 448813.49927591 14460.77162968
0.17900001 441965.20752138 11933.06116672
0.18000001 435180.89221323 16541.22649435
0.18100001 428460.78184764 12866.67788666
0.18200001 421800.97886259 15051.96864174
0.18300001 415207.76840099 12605.70844414
0.18400001 408676.74935192 17011.17049539
0.18500001 402211.08624125 15710.36577077
0.18600001 395809.00690811 12212.68748512
0.18700001 389470.80885764 13179.69279441
0.18800001 383196.63285791 11949.98756026
0.18900001 376989.14554163 16116.28673336
0.19000001 370842.14978419 19124.33056797
0.19100001 364764.79288771 11555.74918469
0.19200001 358748.57021149 16617.23455738
0.19300001 352799.71090742 14373.06090153
0.19400001 346914.42412750 11161.97212375
0.19500001 341094.60050921 13036.63624751
0.19600001 335338.27225913 12882.02033759
0.19700001 329647.35300178 10769.57953151
0.19800001 324021.50672691 11606.45091946
0.19900001 318461.24901149 9553.83792186
0.20000001 312963.32519960 14153.76705108
0.20100001 307532.15991050 13045.51483996
0.20200001 302163.72463356 10120.97443495
0.20300001 296860.73627830 10900.72675136
0.20400001 291621.82507287 16141.26878071
0.20500001 286446.56929278 12391.67917332
0.20600001 281335.57486354 11356.11101615
0.20700001 276288.06255956 11206.24434712
0.20800001 271303.92644240 9355.91634562
0.20900001 266385.42891558 13425.82625200
0.21000001 261527.89599604 9105.09412952
0.21100001 256733.65384427 13062.60892511
0.21200001 252002.25932772 9661.76707938
0.21300001 247333.08571557 8733.33166949
0.21400001 242727.18135815 7827.95196888
0.21500001 238183.91509809 12347.45474244
0.21600001 233701.01593216 9128.36211389
0.21700001 229280.17691142 10496.44699527
0.21800001 224921.07371974 8866.38914524
0.21900001 220621.41930427 9464.65933566
0.22000001 216382.29799968 8607.68822142
0.22100001 212206.28211138 9893.05733981
0.22200001 208088.46192389 9048.72719462
0.22300001 204030.63379791 13710.85923954
0.22400001 200030.53123254 10801.64919733
0.22500001 196092.35521592 7312.28427178
0.22600001 192211.27913129 9162.71210948
0.22700001 188389.39064358 7731.50095763
0.22800001 184624.61979650 6341.85598992
0.22900001 180917.15527105 6241.64215202
0.23000001 177267.21641223 7985.00214091
0.23100001 173675.38115157 6648.29390490
0.23200001 170138.00624833 7730.22067948
0.23300001 166657.96741784 6434.66442633
0.23400001 163233.51803983 6904.77813965
0.23500001 159862.70028862 8488.70978681
0.23600001 156547.93752330 6678.33533061
0.23700001 153287.03274350 5472.34732777
0.23800001 150080.40719974 6456.45942311
0.23900001 146927.08246120 7405.12530630
0.24000001 143826.68110984 5719.26824486
0.24100001 140779.92080826 5621.34250377
0.24200001 137784.83103175 6528.93452727
0.24300001 134841.42173426 6415.75514960
0.24400001 131948.79364412 5334.03023538
0.24500001 129107.32123272 5240.46641673
0.24600001 126316.16075959 5616.01677304
0.24700001 123575.99817477 6435.83828940
0.24800001 120884.00640918 5869.52320887
0.24900001 118240.82958901 7094.45011096
0.25000001 115646.81505206 5224.92335123
0.25100001 113100.23552769 7267.82147884
0.25200001 110602.37558956 4617.09638742
0.25300001 108151.34430068 5768.79297792
0.25400001 105746.27750315 4449.27483645
0.25500001 103387.46249608 3970.07874768
0.25600001 101074.87544102 4286.08029586
0.25700001 98806.87014440  5353.35647771
0.25800001 96583.89094320  3752.28434068
0.25900001 94404.97616061  3681.79424447
0.26000001 92270.51558862  4696.10811308
0.26100001 90177.18522188  4607.15261098
0.26200001 88128.98695067  4867.36417959
0.26300001 86121.95410817  5115.64431608
0.26400001 84156.24619921  4683.29532259
0.26500001 82232.76534943  3609.19624197
0.26600001 80349.35114630  3861.58999882
0.26700001 78506.91142690  4102.77138531
0.26800001 76704.55584238  5261.54925699
0.26900001 74940.76886261  4552.65192384
0.27000001 73216.44627789  2976.24868204
0.27100001 71530.38681925  3210.28391237
0.27200001 69882.47498137  3720.19373169
0.27300001 68271.60988309  4208.94494848
0.27400001 66696.52689429  3026.35505105
0.27500001 65160.18726868  3776.68463283
0.27600001 63657.81832224  3702.97546705
0.27700001 62192.27984407  3112.10183068
0.27800001 60761.21724710  3305.71418078
0.27900001 59364.79251303  2991.98568426
0.28000001 58002.44689361  2689.28357750
0.28100001 56673.55304423  2637.02054796
0.28200001 55378.19819708  2585.88508720
0.28300001 54115.37438997  3227.44108137
0.28400001 52884.94710927  2260.83159593
0.28500001 51686.46363822  2882.55421354
0.28600001 50518.54006365  2609.78790321
0.28700001 49381.85001942  2773.28482836
0.28800001 48274.93940018  2511.26246646
0.28900001 47199.60333693  2669.13769504
0.29000001 46152.16511606  2014.54210267
0.29100001 45135.11935664  1976.91832140
0.29200001 44145.84356977  2328.25190008
0.29300001 43184.73966970  2094.89182054
0.29400001 42251.31935074  1869.62096977
0.29500001 41346.11682681  2019.34444141
0.29600001 40466.78342563  2163.35434434
0.29700001 39613.57986395  1770.72710374
0.29800001 38787.06681220  2087.52003465
0.29900001 37985.91977910  2051.23976518
0.30000001 37209.88315646  1680.02630405
0.30100001 36459.36209098  2312.25285327
0.30200001 35732.13590297  2598.44104588
0.30300001 35028.92776323  2875.17452692
0.30400001 34350.11874484  1728.66980767
0.30500001 33693.32712827  2010.48092492
0.30600001 33059.30678923  2131.33360960
0.30700001 32448.08326638  1948.83197324
0.30800001 31858.54371663  1624.30792829
0.30900001 31290.51481582  1455.00900782
0.31000001 30744.40755951  1864.49468472
0.31100001 30217.25394349  2121.25132726
0.31200001 29711.55904838  2231.93242139
0.31300001 29225.39380532  1376.51611340
0.31400001 28760.20785060  1494.81187381
0.31500001 28313.11181461  1744.65403262
0.31600002 27885.16607294  1591.12765146
0.31700002 27475.07739201  1965.84188048
0.31800002 27083.71039755  1425.55116427
0.31900002 26710.26597848  1666.72067597
0.32000002 26354.12001836  1395.84603287
0.32100002 26015.36397039  1382.19635319
0.32200002 25693.23166049  1742.77198605
0.32300002 25386.82414448  1357.17968303
0.32400002 25097.05213955  1345.82948471
0.32500002 24822.50244470  1699.34859783
0.32600002 24563.74845768  1325.33711079
0.32700002 24320.01601614  1555.50829805
0.32800002 24091.50852457  1664.48240278
0.32900002 23876.30722573  1536.44044273
0.33000002 23676.90419120  1293.11418364
0.33100002 23488.79890763  1403.69068919
0.33200002 23316.65800279  1281.13383463
0.33300002 23156.21956707  1508.16465182
0.33400002 23009.62417997  1271.85703678
0.33500002 22875.01138188  1152.90062824
0.33600002 22752.62008499  1495.18849969
0.33700002 22641.50840452  1262.71698352
0.33800002 22543.48306564  1260.96978499
0.33900002 22455.74505610  1488.81596773
0.34000002 22379.53898293  1488.12751514
0.34100002 22314.14741907  1259.18739849
0.34200002 22260.24499688  1374.34759119
0.34300002 22215.06569668  1719.44616636
0.34400002 22181.12722818  1492.23540495
0.34500002 22156.15510017  1379.88540499
0.34600002 22142.05362027  1959.23970738
0.34700002 22134.99622042  1386.53622892
0.34800002 22138.70748685  1738.44208774
0.34900002 22150.53945029  1395.48405146
0.35000002 22171.02732664  1634.22650165
0.35100002 22199.87421937  1172.15341430
0.35200002 22235.79190924  1412.86228483
0.35300002 22279.97201511  1537.98654105
0.35400002 22332.24339105  1308.11121859
0.35500002 22391.32447054  1673.97549670
0.35600002 22457.17631061  1683.61458775
0.35700002 22529.91848274  1330.84234781
0.35800002 22609.92209816  1339.29879892
0.35900002 22695.74149594  1593.24112848
0.36000002 22788.49933362  1357.39702710
0.36100002 22886.42347071  1367.00613866
0.36200002 22991.23346946  1752.62181039
0.36300002 23099.93285594  1261.25639368
0.36400002 23214.63694534  1525.20171955
0.36500002 23334.21514549  1409.15331938
0.36600002 23459.21323260  1678.85867452
0.36700002 23588.55873404  2083.34160608
0.36800002 23723.85478875  1838.36159466
0.36900002 23862.51403490  1854.11742834
0.37000002 24004.47156432  1469.43379642
0.37100002 24150.80892039  1482.37672175
0.37200002 24301.57280072  1495.64036887
0.37300002 24455.32912109  1783.52723729
0.37400002 24613.62540340  1661.41979343
0.37500002 24773.98768217  1536.97826861
0.37600002 24938.63976053  1551.30815979
0.37700002 25104.99485813  1423.45327589
0.37800002 25275.01491238  1580.57313242
0.37900002 25447.60528142  1740.61628371
0.38000002 25622.62010077  2342.93249301
0.38100002 25799.53689757  1626.14488769
0.38200002 25978.91167900  1641.73740133
0.38300002 26160.03358487  1506.81800587
0.38400002 26343.64276971  1673.47998623
0.38500002 26528.15307240  1689.57814922
0.38600002 26715.15587203  2016.05933339
0.38700002 26902.67103971  2192.02974016
0.38800002 27091.32316241  2055.01241584
0.38900002 27281.48978097  1755.56395058
0.39000002 27473.32566089  2094.70381425
0.39100002 27664.98075856  1626.70094567
0.39200002 27858.29673500  2134.92067143
0.39300002 28051.70482802  1989.42700066
0.39400002 28246.44288253  1840.96200209
0.39500002 28440.71746955  1689.37869773
0.39600002 28635.23278009  1875.75101213
0.39700002 28829.65207643  2065.35637261
0.39800002 29025.33999861  1910.88334934
0.39900002 29219.94488703  2103.83613154
0.40000002 29414.27875907  2123.12274142
0.40100002 29608.32828601  2142.45873628
0.40200002 29803.13661204  2882.55950969
0.40300002 29996.23714264  2544.88087976
0.40400002 30188.97485312  2567.57243291
0.40500002 30381.02914850  1850.20476281
0.40600002 30572.58544052  2986.33028732
0.40700002 30762.84523063  2447.49208251
0.40800002 30952.63729979  2468.62770481
0.40900002 31140.50613072  2106.65533956
0.41000002 31328.13750353  3090.20762977
0.41100002 31514.21975273  1947.57887300
0.41200002 31698.24489418  2552.81827351
0.41300002 31881.62211473  3167.75812342
0.41400002 32063.01496590  2195.51505382
0.41500002 32243.58474423  2816.79969672
0.41600002 32421.24657517  3244.71851099
0.41700002 32598.01581272  2248.28525714
0.41800002 32773.87800757  2883.77366253
0.41900002 32945.81524574  2490.70375060
0.42000002 33116.68021301  2091.31845455
0.42100002 33286.11884208  2317.71256480
0.42200002 33453.28074398  3820.69937481
0.42300002 33617.83244894  2993.33194309
0.42400002 33780.24184463  2799.53767553
0.42500002 33940.81736210  2385.70016543
0.42600002 34097.66589969  2839.14228567
0.42700002 34253.64125321  2638.90064720
0.42800002 34406.59251831  2435.47076682
0.42900002 34557.67662887  3120.55834746
0.43000002 34706.17605345  2692.50526582
0.43100002 34850.70617642  2258.32586725
0.43200002 34993.56814250  3636.53177370
0.43300002 35133.42006111  2973.34148067
0.43400002 35271.01898274  3682.29455630
0.43500002 35405.09699057  2547.04279820
0.43600002 35537.72784361  2329.49817054
0.43700002 35666.37635023  3983.57776333
0.43800002 35791.48965782  3535.30455849
0.43900002 35914.83129373  2607.41687549
0.44000002 36034.39720297  3337.14568311
0.44100002 36151.63423007  2636.53880934
0.44200002 36265.59463171  3373.78842847
0.44300002 36376.77357300  2422.69323477
0.44400002 36484.39342353  2678.86671408
0.44500002 36588.00639515  3916.38039014
0.44600002 36689.39738694  2952.02905365
0.44700002 36787.96379842  2472.15128441
0.44800002 36881.94050415  2483.99881068
0.44900002 36974.33459075  3494.07478442
0.45000002 37063.21673559  3259.52475029
0.45100002 37147.39904469  2770.45315205
0.45200002 37229.43441820  3035.68822633
0.45300002 37307.38172248  2794.69609728
0.45400002 37382.74886814  3061.64727740
0.45500002 37454.69407891  4355.23203390
0.45600002 37523.05865878  4115.52926874
0.45700002 37587.83676808  3873.42676253
0.45800002 37648.85070873  2851.33584356
0.45900002 37706.81501347  3642.47850293
0.46000002 37761.97514966  2611.24070536
0.46100002 37812.46310769  3406.52496282
0.46200002 37860.59309224  3155.30197785
0.46300002 37904.77446722  2901.98967075
0.46400002 37945.06141993  3705.33542327
0.46500002 37983.00743432  2920.51358004
0.46600002 38016.41504989  2929.35500051
0.46700002 38046.57693954  2670.86982774
0.46800002 38074.01314719  4285.61112297
0.46900002 38097.27189053  2954.44357514
0.47000002 38116.56477144  3231.52251449
0.47100002 38133.03659023  3239.78294226
0.47200002 38145.87220749  3518.38468982
0.47300002 38155.97915575  4069.33536984
0.47400002 38160.93161513  2990.86315710
0.47500002 38163.89256888  2997.39226443
0.47600002 38163.61768719  3549.78906743
0.47700002 38158.61608559  3556.76477392
