# SAXS profile: number of points = 501, q_min = 0, q_max = 0.5, delta_q = 0.001
#    q    intensity    error
0.00000000 1719190.39626458 283.66641538
0.00100000 1719119.70064037 670.45669917
0.00200000 1718907.55079038 928.21010682
0.00300000 1718554.12091864 1134.24576021
0.00400000 1718059.27357801 1803.96230580
0.00500000 1717423.50671813 2163.95370412
0.00600000 1716646.49882632 2883.96623544
0.00700000 1715728.94032428 2676.53725814
0.00800000 1714670.31973861 4166.64905288
0.00900000 1713471.93373293 3084.24961256
0.01000000 1712132.95854116 3672.52535465
0.01100000 1710654.69367910 3387.09644096
0.01200000 1709036.58394003 4665.67007872
0.01300000 1707280.06108393 5019.40360097
0.01400000 1705384.27676012 4988.24923066
0.01500000 1703351.15727841 4905.65155140
0.01600000 1701179.46653191 5639.41018365
0.01700000 1698871.42040834 5045.64834495
0.01800000 1696426.48799107 7252.22356249
0.01900000 1693845.53026007 5589.69050208
0.02000000 1691129.09461408 7990.58533351
0.02100000 1688278.92962208 9471.24522459
0.02200000 1685293.23232227 8721.39287350
0.02300000 1682174.73474378 6661.41225280
0.02400000 1678923.59987200 8184.75292258
0.02500000 1675541.05003339 8494.99351164
0.02600000 1672027.22606752 9480.39480542
0.02700000 1668383.49516530 10510.81650095
0.02800000 1664609.35827831 10861.57656087
0.02900000 1660707.55799399 8220.50278951
0.03000000 1656678.49192459 9244.26640985
0.03100000 1652522.38517243 8725.31859519
0.03200000 1648240.19248886 8974.66826146
0.03300000 1643834.90654634 10898.62593283
0.03400000 1639304.41761059 12048.88802538
0.03500000 1634652.23387374 12357.97145875
0.03600000 1629877.93652070 11759.56985545
0.03700000 1624983.57960340 11114.88819852
0.03800000 1619970.19960073 12319.87393812
0.03900000 1614839.44702623 10657.94084394
0.04000000 1609590.17838210 10888.87806133
0.04100000 1604226.14339415 13138.61272359
0.04200000 1598747.74276596 13405.50044501
0.04300000 1593155.52108696 15772.24039088
0.04400000 1587452.47449555 13929.89611063
0.04500000 1581638.79056953 17461.29305922
0.04600000 1575714.74915436 18884.94214652
0.04700000 1569683.41663136 18082.75380058
0.04800000 1563545.24604998 14939.67552112
0.04900000 1557302.72210838 15183.70224732
0.05000000 1550955.81980221 14237.77508878
0.05100000 1544507.48583570 13251.87484580
0.05200000 1537956.31881381 17117.45462609
0.05300000 1531307.36634636 16124.66731932
0.05400000 1524559.53839760 12577.61677832
0.05500000 1517716.60580861 12748.82008352
0.05600000 1510776.74723503 18083.99850828
0.05700000 1503745.72840826 23548.65920609
0.05800000 1496621.67870373 19867.65371246
0.05900000 1489406.46177945 16085.59053851
0.06000000 1482103.45232185 18985.74611123
0.06100000 1474714.14595941 21943.74751734
0.06200000 1467238.47922511 23571.18727055
0.06300000 1459680.11321875 16815.51569049
0.06400000 1452037.42176345 15573.10207672
0.06500000 1444316.08394353 21448.09484986
0.06600000 1436514.39338972 15880.66736196
0.06700000 1428635.32560097 18943.70530401
0.06800000 1420682.30401927 22056.09380232
0.06900000 1412655.01316112 17799.45399918
0.07000000 1404553.98724186 23933.60106338
0.07100000 1396383.92762513 21113.32597459
0.07200000 1388143.54547447 15200.17253502
0.07300000 1379837.92200040 16847.82181704
0.07400000 1371466.45924412 23143.49758434
0.07500000 1363031.28975737 23307.83614735
0.07600000 1354532.74505251 15644.85393880
0.07700000 1345976.30937808 17322.71591393
0.07800000 1337360.50186836 22186.81176647
0.07900000 1328687.11069992 17538.67068387
0.08000000 1319960.48299910 20848.77680701
0.08100000 1311180.88377490 19353.03075253
0.08200000 1302348.16868788 32428.47092204
0.08300000 1293467.14300459 16297.68676674
0.08400000 1284536.90756389 18015.63097421
0.08500000 1275562.49865171 21391.18410660
0.08600000 1266542.72985464 21486.89842083
0.08700000 1257480.85665686 18258.62289604
0.08800000 1248376.50878381 18332.40989245
0.08900000 1239235.21281884 21748.57900649
0.09000000 1230055.73264038 25185.39230891
0.09100000 1220840.79023507 18532.36406644
0.09200000 1211591.76711494 20282.04713449
0.09300000 1202311.87660064 22038.37773372
0.09400000 1192999.39799436 25500.36333058
0.09500000 1183658.91973949 18749.15816993
0.09600000 1174290.94105774 22211.71419423
0.09700000 1164899.52667178 22261.23100126
0.09800000 1155484.89615413 24022.53212053
0.09900000 1146048.78471666 18909.80583701
0.10000000 1136591.16554197 20663.22836129
0.10100000 1127115.19126132 24142.80853230
0.10200000 1117623.11271290 17267.27790360
0.10300000 1108115.53819545 19015.26352993
0.10400000 1098595.34243288 20763.45294880
0.10500000 1089065.12088511 27705.81797886
0.10600001 1079521.80315457 19058.95833149
0.10700001 1069971.78875559 17333.54379352
0.10800001 1060413.95670649 17337.76900810
0.10900001 1050851.88277937 24274.67963471
0.11000001 1041285.95341694 24272.37671664
0.11100001 1031717.98735631 17332.86300350
0.11200001 1022150.15470209 20790.53512540
0.11300001 1012582.01091392 22509.69916239
0.11400001 1003018.16459597 19032.27056933
0.11500001 993458.33982213 17286.17592688
0.11600001 983904.02718823 20721.01978837
0.11700001 974358.14527417 20695.36798027
0.11800001 964819.15476509 24110.83181316
0.11900001 955290.83482648 20634.28300416
0.12000001 945773.84392535 17165.79607584
0.12100001 936271.87680821 18847.15376800
0.12200001 926782.45896040 17099.13717338
0.12300001 917310.27837761 18768.16917986
0.12400001 907854.28350042 18724.49547945
0.12500001 898417.25499010 25470.13037913
0.12600001 889001.78792719 18629.03334388
0.12700001 879607.42065780 18577.30959977
0.12800001 870234.44446617 18522.94102343
0.12900001 860886.21567519 20144.73839626
0.13000001 851563.54705600 21753.19183488
0.13100001 842265.89619885 23347.61174318
0.13200001 832997.97628981 19941.97249245
0.13300001 823759.55290399 19869.08135273
0.13400001 814549.87250861 24741.95354392
0.13500001 805372.70795810 29573.28723055
0.13600001 796227.14546115 17998.71547180
0.13700001 787116.50022040 26069.29971655
0.13800001 778039.11199373 19466.53950004
0.13900001 769000.02607960 17763.90144015
0.14000001 759996.64031457 22503.50158099
0.14100001 751032.19612422 25595.17845106
0.14200001 742105.63609687 20693.61663858
0.14300001 733222.37783202 17421.36451901
0.14400001 724375.86425856 18906.21094895
0.14500001 715575.36334651 18805.32143583
0.14600001 706816.15682828 20260.88609128
0.14700001 698103.57215008 23246.85004930
0.14800001 689433.91570414 23113.27311443
0.14900001 680809.83736548 22977.33309517
0.15000001 672233.64395261 16748.70202933
0.15100001 663704.69253773 18158.96124466
0.15200001 655225.79189108 19548.66242351
0.15300001 646795.87902671 14940.98551057
0.15400001 638414.05013775 22264.69104925
0.15500001 630085.35651816 14743.99803834
0.15600001 621806.76960874 19036.61515000
0.15700001 613583.53595420 21812.89573267
0.15800001 605409.03874453 15882.90688112
0.15900001 597291.73361324 18635.50296834
0.16000001 589226.60031673 25613.68152480
0.16100001 581219.72922862 15536.00409565
0.16200001 573266.28528459 15417.99747055
0.16300001 565370.72984652 18080.55679404
0.16400001 557531.52875784 15178.79658702
0.16500001 549750.24668702 17795.41632540
0.16600001 542026.41099921 19008.86713121
0.16700001 534361.32387198 14812.49659710
0.16800001 526754.21967654 17359.18612908
0.16900001 519208.94583993 14563.81161848
0.17000001 511722.71807618 18375.96367382
0.17100001 504297.24843103 15613.04354869
0.17200001 496932.18573324 19343.08624310
0.17300001 489628.87958877 15335.17723292
0.17400001 482388.44048804 20260.31545731
0.17500001 475208.91021666 17563.72215110
0.17600001 468090.44519922 14913.36228839
0.17700001 461036.84912700 18464.52667963
0.17800001 454045.62614319 17067.57589286
0.17900001 447117.31005371 14486.60152999
0.18000001 440253.39623054 17929.32040838
0.18100001 433454.47989059 17749.96178997
0.18200001 426716.48888091 17570.05225964
0.18300001 420045.92613938 13911.92173093
0.18400001 413437.95460586 14914.77491699
0.18500001 406895.99025604 15893.35813024
0.18600001 400418.41411676 15724.43186524
0.18700001 394005.53519754 12222.05227926
0.18800001 387656.73711363 15386.09662297
0.18900001 381375.84944027 10869.21222259
0.19000001 375156.03092909 12897.86495275
0.19100001 369006.31982571 18066.55027231
0.19200001 362918.95267979 14709.10584714
0.19300001 356899.14443880 11424.34215332
0.19400001 350943.79419407 13344.63840482
0.19500001 345054.36051762 15216.89801790
0.19600001 339229.48473545 14033.92444670
0.19700001 333470.60951907 12875.30084199
0.19800001 327777.29244316 15654.64422690
0.19900001 322150.54247717 12563.87175038
0.20000001 316586.71961681 11454.10805707
0.20100001 311090.39937350 11311.24745582
0.20200001 305657.63208718 13960.91300542
0.20300001 300290.85609904 14702.24100950
0.20400001 294989.06967335 9070.91432120
0.20500001 289751.65980101 13429.99006657
0.20600001 284578.96611944 10603.41277881
0.20700001 279470.91987787 8719.49311235
0.20800001 274426.50382781 13765.23408269
0.20900001 269448.78142387 8487.63701607
0.21000001 264532.81003629 9209.71021678
0.21100001 259680.81973310 8257.85045789
0.21200001 254892.23837268 13844.47258170
0.21300001 250166.56613749 9636.41658318
0.21400001 245505.32432393 7917.54708376
0.21500001 240907.21430174 11708.09116859
0.21600001 236369.92519911 10771.37800058
0.21700001 231896.03317727 9099.60077210
0.21800001 227483.97495718 7472.84893066
0.21900001 223132.36772415 8099.70533135
0.22000001 218842.18701866 8705.54261122
0.22100001 214615.77697113 8576.04685327
0.22200001 210448.36411235 8447.39773490
0.22300001 206341.65434999 9706.31187959
0.22400001 202293.28965190 6827.39884859
0.22500001 198307.53018576 7394.88815031
0.22600001 194379.87813006 9266.08922864
0.22700001 190511.89901184 7167.05797975
0.22800001 186701.89959150 8337.17372052
0.22900001 182949.78279360 6942.94458536
0.23000001 179256.13379996 8074.59292888
0.23100001 175621.08469699 8556.25965109
0.23200001 172041.41214835 6614.13240285
0.23300001 168519.68237281 5915.04113103
0.23400001 165054.41814738 5818.16851487
0.23500001 161643.47269596 6294.39712448
0.23600001 158289.06654910 5627.17658197
0.23700001 154989.39012344 6639.74578693
0.23800001 151744.68607634 5984.05197846
0.23900001 148554.03324280 6417.53453964
0.24000001 145417.10461143 6308.19429642
0.24100001 142334.19489337 5683.40467092
0.24200001 139303.96122204 6093.15555207
0.24300001 136325.88154123 5987.43300051
0.24400001 133399.29932835 6373.15182688
0.24500001 130524.68662706 4816.36116437
0.24600001 127700.84508362 6150.71149441
0.24700001 124928.97064077 5112.09372045
0.24800001 122205.72617825 5477.26090642
0.24900001 119532.07136885 4482.45288839
0.25000001 116908.20096866 4841.75337217
0.25100001 114332.45066349 4753.94352349
0.25200001 111805.99025557 5515.94879022
0.25300001 109327.05738550 5831.50551683
0.25400001 106894.79936728 4088.72626924
0.25500001 104509.33862341 4414.47467231
0.25600001 102170.77406599 4726.42023191
0.25700001 99877.67484928  5411.37267936
0.25800001 97629.71733305  3792.91469785
0.25900001 95426.85817406  4465.97717385
0.26000001 93268.76974108  4381.76700976
0.26100001 91152.50794238  5731.66997062
0.26200001 89082.11862507  4217.14769525
0.26300001 87053.41694967  4136.77856919
0.26400001 85066.64811281  4057.67930698
0.26500001 83122.64330109  3648.25298712
0.26600001 81219.26343926  3578.11482013
0.26700001 79357.65074338  3828.21325301
0.26800001 77536.39550159  3441.45307719
0.26900001 75754.47905602  3988.47351104
0.27000001 74012.46611597  3309.46757899
0.27100001 72309.37267917  4425.33381738
0.27200001 70645.01161705  3182.20469888
0.27300001 69017.98868233  3971.29525672
0.27400001 67427.43991115  3337.65843356
0.27500001 65876.19525805  3818.18445785
0.27600001 64359.45026264  4278.61645595
0.27700001 62879.92217508  3933.13931819
0.27800001 61435.58186276  3085.29506717
0.27900001 60026.13016935  2773.20734507
0.28000001 58651.44762322  2719.37449775
0.28100001 57310.52348613  3636.35288730
0.28200001 56003.70253993  3566.03592801
0.28300001 54729.98042684  3497.24591480
0.28400001 53488.94376948  2515.31769981
0.28500001 52280.55596230  2242.83595694
0.28600001 51102.97156585  2639.97963605
0.28700001 49957.15559254  2373.96414612
0.28800001 48841.56794606  2752.46669188
0.28900001 47758.03408931  2492.96949746
0.29000001 46702.73612487  3261.71924535
0.29100001 45678.17848595  2400.84517486
0.29200001 44682.02533112  3338.41768064
0.29300001 43714.41937426  2506.14778136
0.29400001 42774.79059907  2082.06303097
0.29500001 41863.74104858  2044.62520960
0.29600001 40978.94816149  2555.85711782
0.29700001 40120.79878787  1972.73976979
0.29800001 39289.66788073  2290.78419423
0.29900001 38484.20440180  1904.96820807
0.30000001 37704.12272706  2723.74595474
0.30100001 36950.11930492  2008.60858050
0.30200001 36219.65730712  2304.65690356
0.30300001 35513.66357674  2267.19239007
0.30400001 34832.35325848  1593.58023702
0.30500001 34173.16033179  2039.11257353
0.30600001 33537.21820905  2316.58345746
0.30700001 32924.48826650  1521.11142993
0.30800001 32333.70873865  1798.40096519
0.30900001 31764.61763383  1772.46574788
0.31000001 31217.74239701  1601.93852695
0.31100001 30690.19890753  1867.19178994
0.31200001 30184.35653268  1558.87116694
0.31300001 29698.35828343  1538.67201551
0.31400001 29233.59052652  1795.67338311
0.31500001 28787.03132004  1500.95588409
0.31600002 28360.06966668  1348.52137650
0.31700002 27951.19219520  1733.25351009
0.31800002 27561.18775304  1582.56347571
0.31900002 27189.26348508  1566.10165089
0.32000002 26835.03076706  1679.73883040
0.32100002 26498.25795472  1791.81228774
0.32200002 26178.44699049  1648.84956177
0.32300002 25874.48669015  1257.50011268
0.32400002 25587.36747978  1372.12264608
0.32500002 25315.75810845  1485.52875615
0.32600002 25059.93674183  1352.10895093
0.32700002 24819.39334815  1709.55989477
0.32800002 24594.38942278  1456.47981059
0.32900002 24382.70535530  1569.02716391
0.33000002 24187.03139639  1441.06339884
0.33100002 24002.74715156  1553.93792418
0.33200002 23834.65827759  1428.64948481
0.33300002 23678.37888084  2135.31630859
0.33400002 23536.02901030  1892.29682204
0.33500002 23405.84241420  1179.65451354
0.33600002 23287.90516025  1765.80549240
0.33700002 23181.59306782  1292.83750662
0.33800002 23088.29367455  1174.03978895
0.33900002 23005.47817331  1994.57505208
0.34000002 22934.25129995  1525.01311241
0.34100002 22873.87727926  1408.11595200
0.34200002 22825.15033511  1291.78944439
0.34300002 22785.24140092  1646.00591676
0.34400002 22756.65327222  1295.42254887
0.34500002 22736.97388212  1416.05880044
0.34600002 22728.39421034  1537.91686708
0.34700002 22726.87734858  1660.88027529
0.34800002 22736.21839353  1904.38574284
0.34900002 22753.64113413  1314.02283773
0.35000002 22779.84197747  1918.97397907
0.35100002 22814.38507765  1445.51950698
0.35200002 22855.96227892  1573.29023799
0.35300002 22906.07907592  1459.57542785
0.35400002 22964.04971649  1345.11927585
0.35500002 23028.93744780  1598.66891335
0.35600002 23100.63262727  1360.74282936
0.35700002 23179.18782912  1244.72244538
0.35800002 23265.16629058  1378.11219050
0.35900002 23356.86314177  1387.39773634
0.36000002 23455.45174378  1397.12404929
0.36100002 23559.22137822  1535.11893772
0.36200002 23669.89594991  1417.70848507
0.36300002 23784.42049611  1558.35530472
0.36400002 23904.97859309  1832.31669595
0.36500002 24030.32313695  1583.11776325
0.36600002 24161.07756456  1995.10107440
0.36700002 24296.15425468  1877.60688974
0.36800002 24437.17621792  1758.37709805
0.36900002 24581.39461113  1364.26746554
0.37000002 24728.96599469  1651.40042735
0.37100002 24880.88653065  1527.18888759
0.37200002 25037.14164872  1680.99376992
0.37300002 25196.34228105  1696.21784271
0.37400002 25360.05486488  1854.45409984
0.37500002 25525.74062710  1583.61702352
0.37600002 25695.62232306  1598.39626232
0.37700002 25867.22996719  1613.33920948
0.37800002 26042.29843416  2072.70663056
0.37900002 26219.89077343  1942.89399835
0.38000002 26399.94042146  1659.63233322
0.38100002 26581.67563622  1827.75610333
0.38200002 26765.91278756  2614.09299624
0.38300002 26951.73263474  2173.38782263
0.38400002 27139.95958520  2507.73238447
0.38500002 27329.03640167  1740.58641088
0.38600002 27520.41590070  1597.56021872
0.38700002 27712.18316725  1774.13405042
0.38800002 27905.14241721  2279.57119206
0.38900002 28099.40565768  2465.72296328
0.39000002 28295.27194915  2157.37311197
0.39100002 28490.80474789  2177.83721811
0.39200002 28688.03373280  1691.15966867
0.39300002 28885.02286623  2389.94690518
0.39400002 29083.43471547  2067.83230624
0.39500002 29281.00047967  1913.22066199
0.39600002 29478.94461369  1931.01835841
0.39700002 29676.55535934  2480.36661445
0.39800002 29875.36657258  1788.04077408
0.39900002 30072.97550425  1984.81647732
0.40000002 30270.01539226  2731.11226816
0.40100002 30466.88665424  1837.15335229
0.40200002 30664.16649445  2224.37874290
0.40300002 30859.64846585  2618.13269989
0.40400002 31054.75908916  2263.89204486
0.40500002 31249.05411745  3235.21472607
0.40600002 31442.65644538  2495.44654702
0.40700002 31634.84466774  1936.05258540
0.40800002 31826.23403297  2147.79350548
0.40900002 32015.78997998  2559.66253018
0.41000002 32204.92834091  2382.52071155
0.41100002 32392.33186870  2202.03082477
0.41200002 32577.51855287  2421.81284397
0.41300002 32761.97383567  2237.97053876
0.41400002 32944.20891115  3486.32107321
0.41500002 33125.54019899  2687.14394827
0.41600002 33303.88571068  2499.78977989
0.41700002 33481.12680130  2938.97344988
0.41800002 33657.30214505  2538.43384806
0.41900002 33829.40668074  2344.37799406
0.42000002 34000.27678607  2147.11758078
0.42100002 34169.55332387  2595.51939347
0.42200002 34336.45525466  2178.64818914
0.42300002 34500.61480717  3291.35880857
0.42400002 34662.41478882  3093.62066650
0.42500002 34822.27324953  3560.22938574
0.42600002 34978.23384231  2688.42718051
0.42700002 35133.13152497  3157.76601110
0.42800002 35284.94095299  3632.93769267
0.42900002 35434.63494481  2514.08746847
0.43000002 35581.68538895  2530.39167634
0.43100002 35724.63728423  2777.94792686
0.43200002 35865.64540177  3261.26329093
0.43300002 36003.56232016  2812.59842173
0.43400002 36139.10353907  4244.53791180
0.43500002 36270.96241520  3083.75737068
0.43600002 36401.16797211  2624.70634101
0.43700002 36527.37370107  2879.81827906
0.43800002 36649.74122917  2654.72413174
0.43900002 36770.28280055  3154.89041380
0.44000002 36886.88181525  2440.06734771
0.44100002 37000.94564081  3679.74421836
0.44200002 37111.70340588  3205.89465065
0.44300002 37219.47520702  2974.58059951
0.44400002 37323.46885513  2740.47583056
0.44500002 37423.45473014  3755.44386014
0.44600002 37520.99463294  4025.25249498
0.44700002 37615.57507292  2527.76676469
0.44800002 37705.36437079  2539.45641072
0.44900002 37793.55126216  2806.17131421
0.45000002 37878.07657872  2562.45200199
0.45100002 37957.74382366  3345.59569917
0.45200002 38035.02241739  3101.37587490
0.45300002 38108.15428252  5190.33085926
0.45400002 38178.70701114  3126.83625240
0.45500002 38245.51769465  2615.99353429
0.45600002 38308.67699940  2888.66592604
0.45700002 38368.15440994  2635.89233289
0.45800002 38423.65889690  3968.20356065
0.45900002 38476.04726776  5575.17951333
0.46000002 38525.46494919  2930.43963025
0.46100002 38570.12755913  3474.78295649
0.46200002 38612.29270048  4022.43578272
0.46300002 38650.42233548  2690.06952205
0.46400002 38684.49329780  2968.06788895
0.46500002 38716.18302080  2976.88745356
0.46600002 38743.11626020  3528.14204945
0.46700002 38766.74624979  5170.70885987
0.46800002 38787.49493086  3820.18055680
0.46900002 38803.97879835  3282.81676193
0.47000002 38816.37276031  3290.85223859
0.47100002 38825.83012289  3023.75579329
0.47200002 38831.53713808  3857.13676674
0.47300002 38834.55697224  3037.25084476
0.47400002 38832.15719079  3320.14959718
0.47500002 38827.69751918  3326.75728112
0.47600002 38819.96501676  3610.83921718
0.47700002 38807.31874681  3617.23035184
