# SAXS profile: number of points = 501, q_min = 0, q_max = 0.5, delta_q = 0.001
#    q    intensity    error
0.00000000 1719190.39626458 335.24212727
0.00100000 1719119.70854366 773.60388722
0.00200000 1718907.58764855 1005.56097062
0.00300000 1718554.20654392 1031.13256066
0.00400000 1718059.42008069 1675.10799823
0.00500000 1717423.73072578 1854.81770260
0.00600000 1716646.82802513 1982.72716709
0.00700000 1715729.38470320 2470.65041665
0.00800000 1714670.89735288 3009.24755190
0.00900000 1713472.66668829 2827.23002089
0.01000000 1712133.86923194 4237.53150932
0.01100000 1710655.77935707 3695.01664429
0.01200000 1709037.89709381 4998.93606817
0.01300000 1707281.59957239 3585.29151723
0.01400000 1705386.05784463 4988.25444033
0.01500000 1703353.20309143 4905.65744335
0.01600000 1701181.79764123 4771.81515570
0.01700000 1698874.04697163 5045.65614585
0.01800000 1696429.42976554 5318.30650163
0.01900000 1693848.82271121 5589.70136717
0.02000000 1691132.70835789 7457.89558122
0.02100000 1688282.93643240 6685.60073139
0.02200000 1685297.62195925 8721.41558987
0.02300000 1682179.53134590 8478.18522390
0.02400000 1678928.78870197 6925.58156919
0.02500000 1675546.68535006 8495.02208270
0.02600000 1672033.32782253 8803.25587363
0.02700000 1668390.05676025 7707.96241527
0.02800000 1664616.38651878 10861.62242014
0.02900000 1660715.16998267 8220.54046885
0.03000000 1656686.58999793 11555.38949638
0.03100000 1652531.05624788 11105.00920896
0.03200000 1648249.39558981 8974.71837235
0.03300000 1643844.69492761 10898.69082980
0.03400000 1639314.80843521 9467.04345553
0.03500000 1634663.24649849 10592.61832646
0.03600000 1629889.52099400 9045.88725956
0.03700000 1624995.83557812 12041.21969851
0.03800000 1619983.09229676 12319.97198708
0.03900000 1614853.01923765 10658.03042054
0.04000000 1609604.51165674 11878.88184648
0.04100000 1604241.08302648 12128.06315002
0.04200000 1598763.43036580 14436.83444597
0.04300000 1593171.99428352 13669.41634546
0.04400000 1587469.63573344 16073.13080827
0.04500000 1581656.74173973 18552.83444266
0.04600000 1575733.52874105 11108.92189404
0.04700000 1569702.92565387 18082.97854453
0.04800000 1563565.60003026 17238.31154240
0.04900000 1557323.89871277 12847.92276242
0.05000000 1550977.88359506 13051.47949821
0.05100000 1544530.39737719 13252.07142683
0.05200000 1537980.01161391 13449.63582833
0.05300000 1531332.03579050 12403.79006814
0.05400000 1524585.10645776 13835.61048631
0.05500000 1517743.02880716 14023.94624039
0.05600000 1510804.19290382 15500.85174253
0.05700000 1503774.14059126 17007.68632398
0.05800000 1496650.98199752 18543.50653279
0.05900000 1489436.80177537 18766.90457889
0.06000000 1482134.76979508 14917.68715492
0.06100000 1474746.48098682 16458.17149693
0.06200000 1467271.77418297 15252.29080558
0.06300000 1459714.50606703 19618.56387881
0.06400000 1452072.76072266 18405.02310290
0.06500000 1444352.52834417 20018.72697928
0.06600000 1436551.87152469 15881.08168276
0.06700000 1428673.88531848 23315.95889956
0.06800000 1420721.92127146 19115.81434550
0.06900000 1412695.69876119 17799.96663777
0.07000000 1404595.82805274 16454.84089619
0.07100000 1396426.81310807 18097.69234554
0.07200000 1388187.66573761 19760.85234751
0.07300000 1379883.20855949 15316.70433268
0.07400000 1371512.81469030 16972.47187719
0.07500000 1363078.84643562 24862.55932436
0.07600000 1354581.47446265 15645.41676351
0.07700000 1346026.19553167 17323.35794876
0.07800000 1337411.58090021 15848.32797689
0.07900000 1328739.42537397 20728.33600807
0.08000000 1320014.00602794 16038.17092561
0.08100000 1311235.65002149 20966.65902756
0.08200000 1302404.20614557 17836.42644014
0.08300000 1293524.35224497 21187.92988416
0.08400000 1284595.33158124 18016.45037109
0.08500000 1275622.21987539 19746.63289068
0.08600000 1266603.71508637 19835.01510954
0.08700000 1257543.21339952 21579.44255526
0.08800000 1248439.98867982 20000.00955793
0.08900000 1239299.98935790 18403.60570638
0.09000000 1230121.89866176 18470.28117606
0.09100000 1220908.15604670 18533.38667951
0.09200000 1211660.40486876 20283.19613054
0.09300000 1202381.94540698 16953.58622692
0.09400000 1193070.73918826 18701.38471569
0.09500000 1183731.54779507 18750.30859839
0.09600000 1174364.90379720 22213.11319951
0.09700000 1164974.90556405 18837.64510858
0.09800000 1155561.53662631 22308.11651345
0.09900000 1146126.81315349 18911.09330628
0.10000000 1136670.47508281 20664.67020881
0.10100000 1127195.93975944 32767.58750993
0.10200000 1117705.22492977 22449.11049864
0.10300000 1108198.96736369 17287.90470411
0.10400000 1098680.15726494 20765.05594920
0.10500000 1089151.33188747 31171.51258522
0.10600001 1079609.30024487 24258.82211797
0.10700001 1070060.71436090 20801.98126607
0.10800001 1060504.12378427 22541.01621185
0.10900001 1050943.43621698 20808.68101647
0.11000001 1041379.05885408 17338.96214606
0.11100001 1031812.35513961 22534.78289704
0.11200001 1022245.89794548 20792.48254306
0.11300001 1012679.11770465 24243.53921925
0.11400001 1003116.64490091 25955.64440892
0.11500001 993558.13468343 20745.49482905
0.11600001 984005.16440608 17269.29144856
0.11700001 974460.64024976 18972.74955918
0.11800001 964923.02866773 24113.42762211
0.11900001 955396.05388170 18916.84275787
0.12000001 945880.52329249 25751.59845966
0.12100001 936379.80380649 20562.90146027
0.12200001 926891.73921668 18811.26873363
0.12300001 917421.04000882 18770.43536294
0.12400001 907966.31865754 22131.68006007
0.12500001 898530.65045628 28869.79115952
0.12600001 889116.49845842 22018.97112193
0.12700001 879723.49540772 18579.76109861
0.12800001 870351.94026485 16841.31083784
0.12900001 861004.99010894 18468.55790830
0.13000001 851683.69266141 21756.26095451
0.13100001 842387.32832737 21683.05085323
0.13200001 833120.51962087 23269.05720992
0.13300001 823883.51331657 19872.07127802
0.13400001 814675.19517371 19796.60817604
0.13500001 805499.31351373 24648.28015564
0.13600001 796354.94976405 18001.60448821
0.13700001 787245.59552405 27703.17381279
0.13800001 778169.53965139 17847.31923351
0.13900001 769131.70431492 17766.94320753
0.14000001 760129.64312685 19292.09125239
0.14100001 751166.31159775 19199.81182996
0.14200001 742240.91773218 23881.60265442
0.14300001 733358.96065933 17424.60972714
0.14400001 724513.68558279 18909.80808568
0.14500001 715714.39026614 20376.38965207
0.14600001 706956.28955392 21823.74168805
0.14700001 698244.95782787 15501.03879506
0.14800001 689576.35387784 16953.23545992
0.14900001 680953.43549274 18385.74362576
0.15000001 672378.54788912 19798.18727673
0.15100001 663850.59210188 22703.69132116
0.15200001 655372.71732396 15040.80457232
0.15300001 646943.93200400 20922.16774831
0.15400001 638563.22530713 16331.25525792
0.15500001 630235.69117217 17697.01904329
0.15600001 621957.97645780 29294.22207370
0.15700001 613735.87140389 17454.64900653
0.15800001 605562.54300746 18775.46753212
0.15900001 597446.12197009 20074.19064571
0.16000001 589381.90471313 21350.36050602
0.16100001 581376.06397753 19778.41463014
0.16200001 573423.50771237 18226.26705303
0.16300001 565528.88747146 16694.41354626
0.16400001 557690.50647444 15183.12475556
0.16500001 549910.37224025 15062.04580676
0.16600001 542187.27750404 14939.97113699
0.16700001 534522.98184565 13469.97977849
0.16800001 526916.83655492 14693.07668109
0.16900001 519372.39228808 14568.39629157
0.17000001 511886.92971172 13129.90036710
0.17100001 504462.29233080 14316.64053240
0.17200001 497097.86863352 16769.59739026
0.17300001 489795.24698625 15340.38786005
0.17400001 482555.65496918 13933.79519527
0.17500001 475376.84701330 13804.94428924
0.17600001 468258.99335524 13675.50454682
0.17700001 461206.12612108 16008.46539375
0.17800001 454215.42432902 18293.52707889
0.17900001 447287.69515843 13284.44517368
0.18000001 440424.38847705 14349.02725436
0.18100001 433626.10778321 15389.39129217
0.18200001 426888.63739111 14061.71237991
0.18300001 420218.53888543 11598.03222112
0.18400001 413611.09102297 12625.47914991
0.18500001 407069.67956015 13628.69351552
0.18600001 400592.43230963 15731.26556000
0.18700001 394179.88691698 11115.87333623
0.18800001 387831.64518685 14293.53595868
0.18900001 381551.02975166 11961.62534787
0.19000001 375331.59056053 15054.55080869
0.19100001 369182.19473910 15948.67156630
0.19200001 363094.99195035 10511.60051365
0.19300001 357075.55601453 13508.16892233
0.19400001 351120.37624712 13351.35293770
0.19500001 345231.19835689 10149.79771132
0.19600001 339406.45827293 10029.46131592
0.19700001 333647.63819152 13873.06945161
0.19800001 327954.59925490 12726.27882551
0.19900001 322327.94781460 16438.72611544
0.20000001 316764.12617334 11460.52662659
0.20100001 311267.91316236 12260.84367894
0.20200001 305835.11936714 9312.67982488
0.20300001 300468.39930273 12872.06683452
0.20400001 295166.55154623 10891.64626686
0.20500001 289929.01855788 12542.32993565
0.20600001 284756.22192519 11494.18544132
0.20700001 279647.93750215 12215.02248749
0.20800001 274603.44799584 9469.70035177
0.20900001 269625.47571920 9342.52317530
0.21000001 264709.24310903 10053.65752854
0.21100001 259857.05014407 9089.80004375
0.21200001 255068.19624107 13039.08680826
0.21300001 250342.27900399 8839.58628953
0.21400001 245680.58061657 10300.15882931
0.21500001 241082.10473810 9373.27267536
0.21600001 236544.49789873 10009.38090181
0.21700001 232069.91954573 10624.16141911
0.21800001 227657.62158224 9722.11918934
0.21900001 223305.51621264 9579.80709847
0.22000001 219014.72836191 7986.37244733
0.22100001 214787.85157818 8582.92295489
0.22200001 210619.71186577 9158.79860355
0.22300001 206512.39600189 9020.46188390
0.22400001 202463.35379305 8883.08006772
0.22500001 198476.97094387 7401.20659648
0.22600001 194548.48941641 9936.56456683
0.22700001 190679.84330291 7173.37604428
0.22800001 186868.98091112 7060.84477763
0.22900001 183116.09653107 6949.25619199
0.23000001 179421.58667712 6838.65409961
0.23100001 175785.79754692 7340.81525273
0.23200001 172205.12232575 6018.56930992
0.23300001 168682.52876598 7104.90844765
0.23400001 165216.15519753 5823.86974615
0.23500001 161804.18977508 8019.01602452
0.23600001 158448.85666637 6759.42854509
0.23700001 155148.02671966 6092.66329745
0.23800001 151902.30828410 7079.40741243
0.23900001 148710.47019759 7495.00805247
0.24000001 145572.31827159 5788.68350988
0.24100001 142488.29926936 8275.72081302
0.24200001 139456.69940431 7624.79540060
0.24300001 136477.40262393 5994.08780678
0.24400001 133549.61973353 4907.94875737
0.24500001 130673.65994633 5786.22993614
0.24600001 127848.59663840 6631.50702134
0.24700001 125075.20237333 6048.63707291
0.24800001 122350.63188349 5940.73521214
0.24900001 119675.50097795 5834.18094868
0.25000001 117050.16457967 5288.32668589
0.25100001 114472.89193706 6057.90572790
0.25200001 111944.91507353 4248.30972803
0.25300001 109464.42959945 5421.77345457
0.25400001 107030.54430160 5322.09406719
0.25500001 104643.51297989 4420.14219740
0.25600001 102303.32553293 4338.17272447
0.25700001 100008.41149706 5031.42342047
0.25800001 97758.93187133  6076.69549263
0.25900001 95554.25739899  5589.92432233
0.26000001 93394.37950725  4387.66815685
0.26100001 91276.42705672  4663.31287898
0.26200001 89204.20307441  4574.83777114
0.26300001 87173.70721929  3452.07896923
0.26400001 85184.98212816  4063.32383978
0.26500001 83239.09593084  3985.48810176
0.26600001 81333.89383870  4886.13390357
0.26700001 79470.23422787  4153.11463727
0.26800001 77647.11985261  4072.97986461
0.26900001 75863.11269937  3994.19307263
0.27000001 74119.02236998  3916.81992249
0.27100001 72413.94698262  3249.93809438
0.27200001 70747.51878916  3766.24434097
0.27300001 69118.41990111  4261.15078856
0.27400001 67525.68745050  3342.52168698
0.27500001 65972.37050819  3004.38189513
0.27600001 64453.46274009  3213.64980431
0.27700001 62971.77164510  2625.92300188
0.27800001 61525.09247471  2832.30776612
0.27900001 60113.44061209  3534.67047528
0.28000001 58736.51430329  2475.74419506
0.28100001 57393.29575323  4369.92574548
0.28200001 56084.30137329  3333.09018837
0.28300001 54808.16511809  2801.79353345
0.28400001 53564.88969721  2747.87897153
0.28500001 52354.08399233  2245.99030958
0.28600001 51174.19526865  3084.26889483
0.28700001 50025.90146945  2809.45475950
0.28800001 48907.96751188  2120.16049199
0.28900001 47822.03554751  2080.25864478
0.29000001 46764.30916625  2449.51463007
0.29100001 45737.22768871  2604.27786787
0.29200001 44738.63859495  2162.88958525
0.29300001 43768.52645138  2702.26895102
0.29400001 42826.40528406  2653.09593294
0.29500001 41912.80185123  2605.29988640
0.29600001 41025.63097464  2010.46114108
0.29700001 40164.89443683  1974.90795295
0.29800001 39331.09908324  1940.39986513
0.29900001 38523.12595447  2080.24890002
0.30000001 37740.53116618  1874.38356910
0.30100001 36983.93820217  2177.98422383
0.30200001 36250.87535635  1977.12283553
0.30300001 35542.20285955  2269.01433797
0.30400001 34858.25102788  2073.19457803
0.30500001 34196.46919189  1569.61801022
0.30600001 33557.91740386  1699.87638657
0.30700001 32942.46417882  1521.94191712
0.30800001 32349.08582510  2099.13227857
0.30900001 31777.34453404  1625.41124987
0.31000001 31227.78284684  1602.45375265
0.31100001 30697.59943141  1436.64772141
0.31200001 30189.06544030  2126.06503429
0.31300001 29700.39564046  2657.88853171
0.31400001 29232.98001152  1795.63588222
0.31500001 28783.67198777  1500.78072850
0.31600002 28354.04413533  1348.23486247
0.31700002 27942.35128736  1599.42026342
0.31800002 27549.71070134  1450.07909142
0.31900002 27175.16347272  1695.73028099
0.32000002 26818.23798772  2195.20697443
0.32100002 26478.79413980  1534.71098101
0.32200002 26156.22840389  1393.99625879
0.32300002 25849.53616068  2512.57503379
0.32400002 25559.79179098  1869.05986322
0.32500002 25285.41157802  1483.74802166
0.32600002 25026.99075122  1473.08874537
0.32700002 24783.70265604  1341.29405126
0.32800002 24556.02946952  1454.20813405
0.32900002 24341.66218515  1325.40356874
0.33000002 24143.38372800  1318.59096475
0.33100002 23956.41899639  1550.93863927
0.33200002 23785.69756858  1544.52434476
0.33300002 23626.80386550  1893.92468755
0.33400002 23481.80507141  1415.95291286
0.33500002 23348.94566435  1294.46560893
0.33600002 23228.50810450  1174.20114029
0.33700002 23119.45081902  1289.37183324
0.33800002 23023.60402008  1521.97541582
0.33900002 22938.23495517  1637.79005336
0.34000002 22864.39568139  1403.41667339
0.34100002 22801.47825610  1286.68747893
0.34200002 22750.24616297  1404.60026462
0.34300002 22707.77155583  1288.89317455
0.34400002 22676.61520427  1408.21787088
0.34500002 22654.52842242  1410.92409697
0.34600002 22643.41288807  1414.30763597
0.34700002 22639.42859769  1654.48952028
0.34800002 22646.25750107  1304.08479996
0.34900002 22661.27483201  1546.63208054
0.35000002 22685.14414862  1313.81018559
0.35100002 22717.21887875  1799.20382041
0.35200002 22756.45340220  1445.94511766
0.35300002 22804.11821828  1695.25822864
0.35400002 22859.84738962  1339.01562427
0.35500002 22922.36010854  1224.05408777
0.35600002 22991.83617913  1231.21288571
0.35700002 23068.07964188  1858.13390316
0.35800002 23151.80131606  1745.41438389
0.35900002 23241.28147249  2384.55559202
0.36000002 23337.65566488  1642.85434834
0.36100002 23439.22376873  1527.29989311
0.36200002 23547.75895163  1666.82819634
0.36300002 23660.12914675  1550.21173512
0.36400002 23778.58550136  1822.62866501
0.36500002 23901.87327283  1968.31935725
0.36600002 24030.58130882  2248.90205831
0.36700002 24163.65572045  1467.21724485
0.36800002 24302.62706327  1748.69561317
0.36900002 24444.84986925  1628.02707841
0.37000002 24590.51599945  1505.30850821
0.37100002 24740.47694831  1794.67428284
0.37200002 24894.98957070  1810.73715220
0.37300002 25052.26898073  1686.51882767
0.37400002 25214.17037931  1418.29715102
0.37500002 25377.99381884  2003.84648686
0.37600002 25546.21329222  1878.02995914
0.37700002 25716.01663383  1458.09821221
0.37800002 25889.46044184  2207.72384376
0.37900002 26065.43610983  1634.30292151
0.38000002 26243.80272114  2549.71677416
0.38100002 26423.94551006  1968.31979429
0.38200002 26606.62297520  1987.11573104
0.38300002 26790.92189335  2006.10432641
0.38400002 26977.69060415  2025.35021806
0.38500002 27165.29748041  2202.01911808
0.38600002 27355.31301873  2699.55919314
0.38700002 27545.64378564  1923.78785313
0.38800002 27737.24383084  1780.31507963
0.38900002 27930.27495375  2287.48962708
0.39000002 28124.84849827  1814.47468683
0.39100002 28319.13324038  2164.71464745
0.39200002 28515.15528711  1849.06533219
0.39300002 28711.03938830  1866.50475906
0.39400002 28908.28193676  2055.37894308
0.39500002 29104.83506031  2420.35819829
0.39600002 29301.67583099  1744.91487841
0.39700002 29498.29502554  1761.04829646
0.39800002 29696.19080813  1955.04881448
0.39900002 29892.75417692  1972.92186915
0.40000002 30088.95340594  1809.85063312
0.40100002 30285.03014882  1826.18740450
0.40200002 30481.46951347  2395.38639521
0.40300002 30676.27493972  2416.67705425
0.40400002 30870.58651095  1875.38821940
0.40500002 31064.23503478  2080.99320358
0.40600002 31257.12320877  3434.84543216
0.40700002 31448.78878260  2117.13256116
0.40800002 31639.60783887  2911.63504933
0.40900002 31828.68465691  2544.70345889
0.41000002 32017.31472863  2566.02781051
0.41100002 32204.29437284  2587.29313251
0.41200002 32389.06205161  3210.40398267
0.41300002 32573.14802148  2629.63036437
0.41400002 32755.16265592  3670.21614950
0.41500002 32936.21512300  3082.82988159
0.41600002 33114.29012006  2485.55873419
0.41700002 33291.34092314  3339.78747966
0.41800002 33467.37010343  2313.76674174
0.41900002 33639.34850801  2331.20696207
0.42000002 33810.25774063  3202.67681624
0.42100002 33979.48793550  2796.17219471
0.42200002 34146.38602892  2383.24712582
0.42300002 34310.63128494  3055.01875437
0.42400002 34472.54705868  3296.43746869
0.42500002 34632.56583702  2434.32316804
0.42600002 34788.67921561  2896.67951215
0.42700002 34943.85716450  2916.41445715
0.42800002 35095.93514211  2258.42353341
0.42900002 35245.98617713  3410.04932423
0.43000002 35393.36794048  2288.18134578
0.43100002 35536.74551759  3914.72807173
0.43200002 35678.19913606  3475.94871555
0.43300002 35816.56563663  2797.99024013
0.43400002 35952.67886736  3049.68612944
0.43500002 36085.07154795  2595.96017018
0.43600002 36215.88775325  3086.13702114
0.43700002 36342.76726653  3820.35187610
0.43800002 36465.80042632  3121.65499343
0.43900002 36587.05119567  3380.64369069
0.44000002 36704.45429105  3399.19967298
0.44100002 36819.33583827  3661.68312264
0.44200002 36930.93680325  2454.06086687
0.44300002 37039.56481517  3946.93621375
0.44400002 37144.43349926  2975.26926429
0.44500002 37245.46685774  3488.41059121
0.44600002 37343.99194967  2754.30625678
0.44700002 37439.62772333  3522.32034314
0.44800002 37530.51530734  2527.68032574
0.44900002 37619.77579755  3555.06898135
0.45000002 37705.40593835  3571.07916566
0.45100002 37786.31049386  3330.48556477
0.45200002 37864.85010793  2830.20835545
0.45300002 37939.27614266  3358.76427609
0.45400002 38011.03405901  3113.10383697
0.45500002 38079.22440047  3125.54288692
0.45600002 38143.75290274  3137.70526249
0.45700002 38204.60553534  3149.58782960
0.45800002 38261.56346512  3688.03227719
0.45900002 38315.46161039  3701.27376698
0.46000002 38366.37117442  3448.94510019
0.46100002 38412.51524518  4259.17989225
0.46200002 38456.27472574  4006.18260943
0.46300002 38496.02326757  3215.18801569
0.46400002 38531.70642880  3762.62131110
0.46500002 38565.05123108  2965.26692970
0.46600002 38593.68223618  2973.83632566
0.46700002 38619.02744073  3253.26702580
0.46800002 38641.52871799  2990.27484157
0.46900002 38659.81148730  3543.17189075
0.47000002 38673.98929644  3278.78096795
0.47100002 38685.33972555  3560.59883710
0.47200002 38692.90385709  3019.78782466
0.47300002 38697.82606904  2751.41556392
0.47400002 38697.32914432  4135.77724832
0.47500002 38694.86416901  3867.93880567
0.47600002 38689.06958271  4429.12489576
0.47700002 38678.40812247  3327.89039259
