# SAXS profile: number of points = 501, q_min = 0, q_max = 0.5, delta_q = 0.001
#    q    intensity    error
0.00000000 1700912.83420644 306.16431016
0.00100000 1700842.72248800 510.25282886
0.00200000 1700632.32454578 1071.39839839
0.00300000 1700281.82337544 1734.28752162
0.00400000 1699791.07147897 1529.81202246
0.00500000 1699160.55095673 1988.01792331
0.00600000 1698389.98515877 1961.64051272
0.00700000 1697480.01995332 2444.37133032
0.00800000 1696430.15741409 3435.27121380
0.00900000 1695241.67818729 2797.14888858
0.01000000 1693913.79616891 3633.44524967
0.01100000 1692447.76469683 4874.24977455
0.01200000 1690843.06715396 3956.57295061
0.01300000 1689101.09334705 4965.95743346
0.01400000 1687221.03200895 3796.24749031
0.01500000 1685204.74098368 5257.83902599
0.01600000 1683051.10097192 5150.13659920
0.01700000 1680762.21232132 5899.47562989
0.01800000 1678337.59027251 6218.24105177
0.01900000 1675778.09815214 5530.06797343
0.02000000 1673084.20592827 5797.23703578
0.02100000 1670257.76406251 7165.40613270
0.02200000 1667296.87414410 6902.60937256
0.02300000 1664204.37960229 8986.70405891
0.02400000 1660980.32375309 11211.61769656
0.02500000 1657625.97024970 7757.68989507
0.02600000 1654141.46665834 8039.12789566
0.02700000 1650528.15278462 9011.88412696
0.02800000 1646785.48668249 10028.92407382
0.02900000 1642916.42203755 12568.31120565
0.03000000 1638921.09400912 7620.98343744
0.03100000 1634799.74256550 8631.74303792
0.03200000 1630553.43319287 8071.23986605
0.03300000 1626185.14062483 10781.60797938
0.03400000 1621692.66476629 9365.27557114
0.03500000 1617079.60183808 12225.12235443
0.03600000 1612345.49460909 8948.51790862
0.03700000 1607492.27764987 16492.87153144
0.03800000 1602521.23830835 13124.64954915
0.03900000 1597433.72713328 9584.60280666
0.04000000 1592228.81715863 11750.64921514
0.04100000 1586910.15647281 14996.30167399
0.04200000 1581478.13729051 12240.64135051
0.04300000 1575933.23677002 10401.15984548
0.04400000 1570278.64142845 10599.38132190
0.04500000 1564514.37345594 11874.66464629
0.04600000 1558640.72946849 12087.25941893
0.04700000 1552660.79860940 13414.98992389
0.04800000 1546574.96258594 13640.79180469
0.04900000 1540385.76567448 12708.18315835
0.05000000 1534093.08834217 16430.13774123
0.05100000 1527700.00761084 11916.06061446
0.05200000 1521204.92381994 14512.29564953
0.05300000 1514613.19311410 18402.55115422
0.05400000 1507923.34387991 14928.44180058
0.05500000 1501139.32496482 16392.44219331
0.05600000 1494259.34884876 16608.69343748
0.05700000 1487289.11885001 12939.41593799
0.05800000 1480226.57205859 18340.00808415
0.05900000 1473074.03184260 15909.20028695
0.06000000 1465834.32226593 17436.10007795
0.06100000 1458509.25554137 13564.13671041
0.06200000 1451098.63759436 19198.03587276
0.06300000 1443606.25073353 16630.34478601
0.06400000 1436030.21710356 15401.42479871
0.06500000 1428376.52198768 18383.20669791
0.06600000 1420643.26950240 15705.21207917
0.06700000 1412833.35269047 18734.17113342
0.06800000 1404950.24373672 15995.35927367
0.06900000 1396993.70741515 20535.80846047
0.07000000 1388964.20138850 20709.45721249
0.07100000 1380866.45966600 19387.36600177
0.07200000 1372699.15139638 16534.16205314
0.07300000 1364467.30072374 21203.82284676
0.07400000 1356170.26504170 15256.91619672
0.07500000 1347810.29348631 18438.04567913
0.07600000 1339387.63868233 15469.92795202
0.07700000 1330907.84229501 28028.92047297
0.07800000 1322369.34935947 18804.09302973
0.07900000 1313773.92005303 18918.34533610
0.08000000 1305125.86601635 15857.28001598
0.08100000 1296425.41131064 27108.25662238
0.08200000 1287672.65105502 16031.52525792
0.08300000 1278872.09755068 20947.92594101
0.08400000 1270022.95699126 24289.19019256
0.08500000 1261130.27130738 16268.58126360
0.08600000 1252192.89210168 19609.34161100
0.08700000 1243213.93221756 18051.46714345
0.08800000 1234192.89313612 21419.41866631
0.08900000 1225135.60155240 18193.26453759
0.09000000 1216040.77722545 21578.64460553
0.09100000 1206910.84532578 19986.44453758
0.09200000 1197747.38003677 21721.14975757
0.09300000 1188553.57602249 20110.32745133
0.09400000 1179327.53674130 23527.58546373
0.09500000 1170074.13327968 20218.88197341
0.09600000 1160793.74488721 21956.41471666
0.09700000 1151490.24667858 27083.05187513
0.09800000 1142163.98193540 25441.70389382
0.09900000 1132816.74419333 16992.25196192
0.10000000 1123448.35452608 17020.24337148
0.10100000 1114062.18765572 22158.69795464
0.10200000 1104660.02297883 22187.09760513
0.10300000 1095242.83222682 25628.68347970
0.10400000 1085813.41003897 18811.71821392
0.10500000 1076374.34560558 20537.22348042
0.10600001 1066922.25665085 17124.10302500
0.10700001 1057464.31775303 18844.01502911
0.10800001 1047998.54903888 17134.77708318
0.10900001 1038528.87290122 22276.44537219
0.11000001 1029055.56260391 18847.15351622
0.11100001 1019580.46653256 23980.53370169
0.11200001 1010106.10459900 18833.42920687
0.11300001 1000631.40006903 18821.87752145
0.11400001 991161.27851801 18807.28614541
0.11500001 981695.43285750 30746.70240490
0.11600001 972235.15238700 20475.27327348
0.11700001 962783.69320097 22153.65382388
0.11800001 953339.22228860 20420.52710319
0.11900001 943905.53464751 18689.33046632
0.12000001 934483.48954537 18656.96374761
0.12100001 925076.35679096 23700.45737747
0.12200001 915682.24498233 16894.33821584
0.12300001 906305.42178609 18543.00980339
0.12400001 896944.83226188 21863.03131651
0.12500001 887603.26921225 18453.27283645
0.12600001 878283.21383650 20077.55521443
0.12700001 868984.63383555 20021.40690711
0.12800001 859707.41446329 18298.87317926
0.12900001 850454.95441609 19900.64687130
0.13000001 841228.04423036 16530.13184827
0.13100001 832026.34838185 21416.35921687
0.13200001 822854.09360394 16415.93994125
0.13300001 813711.57566758 21262.28447456
0.13400001 804597.81842215 17922.41725032
0.13500001 795516.50609275 17851.39123838
0.13600001 786466.70151569 21010.45892165
0.13700001 777451.73652078 20921.22721628
0.13800001 768470.05041288 17624.86143733
0.13900001 759526.65223318 19140.07253889
0.14000001 750618.87243521 20638.26687092
0.14100001 741749.71616097 26858.75848893
0.14200001 732918.43672240 15721.10120919
0.14300001 724130.29936238 20333.57976518
0.14400001 715378.93976022 18671.39120847
0.14500001 706673.50936646 15476.15058517
0.14600001 698008.87541896 16930.20607196
0.14700001 689391.03022020 15304.48159290
0.14800001 680815.72649963 21302.72508721
0.14900001 672285.87697166 22689.64941831
0.15000001 663803.80645987 19545.70400343
0.15100001 655368.77295246 17930.89047405
0.15200001 646983.36204695 16333.09574559
0.15300001 638646.94492907 25079.66671085
0.15400001 630358.28178662 19052.57996611
0.15500001 622122.58905189 21836.50390625
0.15600001 613936.34511694 17349.84193183
0.15700001 605805.70238696 17229.11498904
0.15800001 597723.38227090 22809.12534402
0.15900001 589697.96301521 18398.57731450
0.16000001 581724.18713937 22477.82365207
0.16100001 573808.46965005 19520.96505897
0.16200001 565945.98440117 19372.33196054
0.16300001 558140.92589225 16476.32091015
0.16400001 550391.93133596 16346.64113240
0.16500001 542700.50773707 13513.24328063
0.16600001 535066.25172110 14743.75126227
0.16700001 527490.19508156 14622.02889804
0.16800001 519971.90837470 17135.67504957
0.16900001 512515.01170797 18296.78678191
0.17000001 505116.77548411 14251.87049325
0.17100001 497778.86610716 12842.69535201
0.17200001 490500.91841188 16547.04926402
0.17300001 483284.31160809 15136.46535438
0.17400001 476130.17676130 14998.10127628
0.17500001 469036.59482460 13620.82335698
0.17600001 462003.45074332 18399.28829483
0.17700001 455034.87128209 18224.14745559
0.17800001 448128.01745991 18048.35675566
0.17900001 441283.75323993 19063.45904040
0.18000001 434503.49847126 14156.12464886
0.18100001 427787.54893250 14014.32076502
0.18200001 421132.18338396 15028.10267395
0.18300001 414543.67026706 13729.68700783
0.18400001 408017.24356772 12454.72694827
0.18500001 401556.28016181 13444.10489494
0.18600001 395159.17321099 16626.32299834
0.18700001 388826.26248321 10964.90112006
0.18800001 382557.03010447 17352.78770539
0.18900001 376355.02280544 12871.34238808
0.19000001 370213.61043813 12727.94452824
0.19100001 364141.71118557 13633.46631097
0.19200001 358131.38042631 15551.85592986
0.19300001 352188.37594695 15373.02333650
0.19400001 346309.09112743 11142.49553355
0.19500001 340495.30561157 14014.78744124
0.19600001 334745.21398706 11870.06584892
0.19700001 329060.79811724 10750.41678253
0.19800001 323441.30355482 10620.19570412
0.19900001 317887.63754943 13351.28140806
0.20000001 312396.41481793 11302.50282228
0.20100001 306972.09445889 13951.88235255
0.20200001 301610.58048601 13776.06391480
0.20300001 296314.53750430 11787.39285905
0.20400001 291082.79660969 8950.79641881
0.20500001 285914.66614694 13252.14540230
0.20600001 280810.99040811 9591.09983074
0.20700001 275771.00639375 9464.46138681
0.20800001 270794.25610145 11036.22042910
0.20900001 265883.46325638 9212.86243734
0.21000001 261033.67023996 9087.88765901
0.21100001 256247.22837218 8963.52847220
0.21200001 251523.65581002 8036.18118304
0.21300001 246862.38072919 10301.56763484
0.21400001 242264.51670892 10156.94034321
0.21500001 237729.41705597 8472.67682444
0.21600001 233254.57129445 9870.16765097
0.21700001 228842.21164640 7483.14067464
0.21800001 224491.21637408 11799.25889050
0.21900001 220199.95199832 9446.57838738
0.22000001 215969.26725425 8591.25785759
0.22100001 211801.74487854 9168.89796933
0.22200001 207692.62715222 9031.51431876
0.22300001 203643.52022702 7526.66486349
0.22400001 199652.02467678 8085.90738176
0.22500001 195722.56054743 8625.49365120
0.22600001 191850.28695439 6532.50257971
0.22700001 188037.14996019 7717.04499930
0.22800001 184281.27931677 8229.08091704
0.22900001 180582.73526986 8722.14652601
0.23000001 176941.72433382 7970.34034955
0.23100001 173358.82645162 8446.04242416
0.23200001 169830.49444636 9496.92169858
0.23300001 166359.46290270 5839.21742405
0.23400001 162944.18326215 8041.29582430
0.23500001 159582.50185276 7908.90916588
0.23600001 156276.77951295 6666.76772934
0.23700001 153025.08369846 7101.89447035
0.23800001 149827.50846867 6445.57971919
0.23900001 146683.47907918 6864.78714561
0.24000001 143592.26795364 6229.03287846
0.24100001 140554.63343484 6122.56012203
0.24200001 137568.80013845 7020.13620313
0.24300001 134634.53132917 5913.14889569
0.24400001 131751.07811267 7262.77852452
0.24500001 128918.87182148 5232.81725477
0.24600001 126136.83250032 5140.70685173
0.24700001 123405.93923683 4590.70115678
0.24800001 120722.99839885 8116.20756631
0.24900001 118089.07759341 7528.17905272
0.25000001 115504.21490898 5653.35406617
0.25100001 112966.71589504 4270.14206285
0.25200001 110477.94048427 4611.90184370
0.25300001 108036.00307358 6174.25786776
0.25400001 105640.05707992 4444.80561193
0.25500001 103290.23492233 5552.88329214
0.25600001 100986.60377852 5060.94388781
0.25700001 98727.74801075  4202.84043167
0.25800001 96513.52281984  5249.37075454
0.25900001 94343.61218405  5887.04167883
0.26000001 92217.92059829  4332.39811470
0.26100001 90133.36787277  3896.46567751
0.26200001 88093.98192019  4170.36930143
0.26300001 86095.66430846  4432.20500832
0.26400001 84138.66064927  4682.31668669
0.26500001 82223.83380620  3936.87734893
0.26600001 80348.83686649  3217.97106878
0.26700001 78515.09691817  3471.93775001
0.26800001 76721.09820284  3405.26610487
0.26900001 74965.75482388  3643.33585685
0.27000001 73249.72821927  4168.64223023
0.27100001 71571.94483163  3504.16258478
0.27200001 69932.25866116  4295.58919154
0.27300001 68329.43705716  3089.17399555
0.27400001 66762.46551204  3029.34701597
0.27500001 65234.14214699  4051.04041904
0.27600001 63739.63467591  2913.22014073
0.27700001 62282.01149393  3376.30800287
0.27800001 60858.69315604  3820.40464368
0.27900001 59469.96575829  2497.73868006
0.28000001 58115.19389906  2449.55553878
0.28100001 56793.78671414  3603.56593757
0.28200001 55505.86489851  2827.46889175
0.28300001 54250.34246074  3004.38410767
0.28400001 53027.17269424  2493.60291397
0.28500001 51835.89500132  2890.88800105
0.28600001 50675.01323041  3708.65101880
0.28700001 49545.33342488  2996.50190737
0.28800001 48445.26804013  2310.11271584
0.28900001 47376.72709198  2679.15404387
0.29000001 46335.95343223  2831.59024827
0.29100001 45325.47828340  2779.35845990
0.29200001 44342.75860109  2923.29649915
0.29300001 43388.09476327  2104.75657660
0.29400001 42460.92566771  2254.67525968
0.29500001 41561.95064882  2029.88576578
0.29600001 40688.62286454  2175.21388131
0.29700001 39841.46506236  2137.09628711
0.29800001 39020.77546928  2100.09823517
0.29900001 38225.38953745  2408.19965486
0.30000001 37454.95444626  3043.96429195
0.30100001 36710.02472334  1829.26061856
0.30200001 35988.13509078  2289.92514423
0.30300001 35290.34530918  1770.16380451
0.30400001 34616.79676774  1742.09037981
0.30500001 33964.98996377  2182.59035840
0.30600001 33335.97644472  1688.63396675
0.30700001 32729.64973296  2570.58681173
0.30800001 32144.88810793  1787.89876121
0.30900001 31581.44595359  1909.09849828
0.31000001 31039.81345921  1737.60883971
0.31100001 30517.09109614  1571.01992401
0.31200001 30015.73306110  2254.78197430
0.31300001 29533.68049336  2225.65826736
0.31400001 29072.50481992  1511.04350956
0.31500001 28629.38396412  1628.43943698
0.31600002 28205.27127120  1475.27678369
0.31700002 27798.92183263  2254.21467814
0.31800002 27411.12642136  1573.94695364
0.31900002 27041.03714302  1946.95476648
0.32000002 26688.27898166  1799.05697134
0.32100002 26352.66011187  1654.68360677
0.32200002 26033.71799255  1892.00054470
0.32300002 25730.28868069  1750.68892473
0.32400002 25443.27607440  1984.57562778
0.32500002 25171.57286285  1353.97896841
0.32600002 24915.38194561  1710.93935922
0.32700002 24674.07298574  1578.15378290
0.32800002 24448.05276196  1568.46489922
0.32900002 24235.06046489  1559.52621476
0.33000002 24037.79925137  1670.86750508
0.33100002 23851.68845135  1306.59555524
0.33200002 23681.49429872  2484.07046210
0.33300002 23522.84990101  1414.19380302
0.33400002 23377.90173609  1879.58338859
0.33500002 23244.83004707  1640.15528579
0.33600002 23123.82330483  1753.36398512
0.33700002 23014.08764168  1166.81429869
0.33800002 22917.27920972  1165.34370300
0.33900002 22830.58431320  1280.79584063
0.34000002 22755.42304515  1280.33393827
0.34100002 22690.86677143  1396.84982460
0.34200002 22637.66276838  1164.70780459
0.34300002 22593.18611554  1515.55099641
0.34400002 22559.70677413  1517.70434511
0.34500002 22535.13756755  1988.27528175
0.34600002 22521.39979935  1523.91058960
0.34700002 22514.53154989  1645.36204359
0.34800002 22518.36578522  1296.72015516
0.34900002 22530.14566992  1537.68251480
0.35000002 22550.48417794  1306.01135302
0.35100002 22579.08173180  1669.04580067
0.35200002 22614.65440811  1556.67980991
0.35300002 22658.51394908  1443.80057722
0.35400002 22710.15153204  1572.11031427
0.35500002 22768.55227584  1580.59297385
0.35600002 22833.63974753  2323.20878615
0.35700002 22905.54261526  1476.03323604
0.35800002 22984.68114799  1856.58770767
0.35900002 23069.47323529  1494.90193645
0.36000002 23161.10185123  1254.17372465
0.36100002 23257.74541291  1389.18519931
0.36200002 23361.24437041  1399.22179784
0.36300002 23468.52198660  1409.51949728
0.36400002 23581.74171742  1420.21046220
0.36500002 23699.73280917  1691.45001071
0.36600002 23823.06039319  1704.89739780
0.36700002 23950.61440579  1586.48877339
0.36800002 24084.07615868  1466.35904638
0.36900002 24220.76762833  1344.25266705
0.37000002 24360.70585073  1355.67334481
0.37100002 24505.00073326  1504.11701626
0.37200002 24653.52180637  2344.91983769
0.37300002 24805.02853814  2922.28055051
0.37400002 24960.98570628  1684.86661499
0.37500002 25118.96949309  1558.38094117
0.37600002 25281.10117026  1429.64633890
0.37700002 25444.94834434  1875.54723131
0.37800002 25612.26847342  1601.66328486
0.37900002 25782.08868615  2645.24242451
0.38000002 25954.42300505  2076.61348301
0.38100002 26128.46659885  1646.87732774
0.38200002 26304.97152069  1511.22068546
0.38300002 26483.11239720  1983.05555025
0.38400002 26663.69436203  1847.79410683
0.38500002 26845.05272515  2020.62721435
0.38600002 27028.91585268  2196.64009541
0.38700002 27213.17161422  1742.18732928
0.38800002 27398.61481128  2398.06387497
0.38900002 27585.44496046  2743.37263129
0.39000002 27773.94506394  2443.41293276
0.39100002 27962.13941694  2301.84342586
0.39200002 28152.00728342  2323.38527117
0.39300002 28341.83720399  1842.50292392
0.39400002 28533.07735501  2366.81887873
0.39500002 28723.62247031  2559.27488336
0.39600002 28914.55929448  2410.60692259
0.39700002 29105.31026328  2258.86323655
0.39800002 29297.20397354  1928.78151498
0.39900002 29487.98060399  1946.20681207
0.40000002 29678.49277099  1963.67756723
0.40100002 29868.72279130  2341.40929054
0.40200002 30059.57831809  1998.81175496
0.40300002 30248.72106090  2199.68709977
0.40400002 30437.50725717  1849.07865348
0.40500002 30625.59974724  2238.11893557
0.40600002 30813.11857533  2821.71146723
0.40700002 30999.36894865  2656.02605737
0.40800002 31185.02720087  2104.52166037
0.40900002 31368.77204440  2122.09752935
0.41000002 31552.31713909  2334.24053255
0.41100002 31734.22600362  2157.29278594
0.41200002 31914.08151360  2174.78518779
0.41300002 32093.26776270  2590.88962925
0.41400002 32270.45787712  2209.71970784
0.41500002 32446.82595019  2632.08664580
0.41600002 32620.27296256  2856.55743869
0.41700002 32792.78001845  2261.71814504
0.41800002 32964.38083944  3107.71715089
0.41900002 33132.00837880  2922.24327748
0.42000002 33298.60706812  2943.92999039
0.42100002 33463.76447898  2330.08203108
0.42200002 33626.63088192  3413.77572889
0.42300002 33786.89401472  2578.61587339
0.42400002 33944.97066282  2813.18957699
0.42500002 34101.26576787  3050.69938015
0.42600002 34253.81846760  2193.95717681
0.42700002 34405.46614002  2650.59723703
0.42800002 34554.14777978  2890.62736949
0.42900002 34700.89529352  3581.13256399
0.43000002 34845.07919641  3153.82826752
0.43100002 34985.34940553  2720.46089869
0.43200002 35123.91115640  2281.29813771
0.43300002 35259.49114855  3213.55017556
0.43400002 35392.80544129  2540.31873093
0.43500002 35522.67647268  2787.81978169
0.43600002 35651.01739739  3038.00159149
0.43700002 35775.43393143  2585.49073275
0.43800002 35896.30403707  2836.52607943
0.43900002 36015.44037222  2852.42301265
0.44000002 36130.81867728  3107.06989940
0.44100002 36243.84147812  3364.15352543
0.44200002 36353.68854220  2898.84326173
0.44300002 36460.73680899  2913.94222387
0.44400002 36564.15854103  2928.78923793
0.44500002 36663.74386779  3433.92641339
0.44600002 36761.03501693  2711.31026617
0.44700002 36855.47654063  2724.35695499
0.44800002 36945.46233797  2985.93240766
0.44900002 37033.86942832  2749.76493537
0.45000002 37118.75074663  2762.19196772
0.45100002 37198.94980524  4539.76004938
0.45200002 37277.05086513  3799.46358949
0.45300002 37351.07276053  2797.96899309
0.45400002 37422.65632959  3320.32534020
0.45500002 37490.70327010  4359.41918285
0.45600002 37555.18238034  3604.17102386
0.45700002 37616.25531917  3876.35529436
0.45800002 37673.45742793  3371.96296690
0.45900002 37727.67264654  3123.85144319
0.46000002 37779.13668692  2873.67016829
0.46100002 37825.99917371  2883.47605367
0.46200002 37870.49435478  2630.10595759
0.46300002 37911.10232657  3430.19670108
0.46400002 37947.81968204  3176.23265793
0.46500002 37982.24038262  2654.95872858
0.46600002 38012.17417242  2929.02821968
0.46700002 38038.93259251  3204.39983347
0.46800002 38062.90411064  3213.27051732
0.46900002 38082.79006949  3221.80419258
0.47000002 38098.76944896  2691.67818915
0.47100002 38111.90713333  2968.15546823
0.47200002 38121.48073749  2704.71918652
0.47300002 38128.40149969  3795.30126517
0.47400002 38130.20792533  3260.13293214
0.47500002 38129.98210642  2994.72893658
0.47600002 38126.63543368  3546.34916295
0.47700002 38118.59546461  3826.34479410
