# SAXS profile: number of points = 501, q_min = 0, q_max = 0.5, delta_q = 0.001
#    q    intensity    error
0.00000000 1719190.39626458 386.81783916
0.00100000 1719119.73655617 567.30952654
0.00200000 1718907.70200621 1005.56103751
0.00300000 1718554.46406738 1031.13271517
0.00400000 1718059.88503449 1546.25395529
0.00500000 1717424.45189465 2163.95489504
0.00600000 1716647.87538411 2162.97641104
0.00700000 1715730.81529837 2058.87706393
0.00800000 1714672.76984348 3009.25083813
0.00900000 1713475.00129150 3598.29765653
0.01000000 1712136.78392202 3955.03614164
0.01100000 1710659.28504035 4002.94290128
0.01200000 1709042.07635668 3665.89541451
0.01300000 1707286.49596961 3943.83197963
0.01400000 1705391.75724665 4604.55794869
0.01500000 1703359.72625957 4496.86987757
0.01600000 1701189.19493797 4338.03264102
0.01700000 1698882.38609777 6880.47397235
0.01800000 1696438.80269325 7252.27620785
0.01900000 1693859.26235406 5081.57801636
0.02000000 1691144.27458651 6392.52564711
0.02100000 1688295.68283996 5571.37600597
0.02200000 1685311.59012007 7558.62282509
0.02300000 1682194.79941297 8478.26217496
0.02400000 1678945.37366092 6925.64998214
0.02500000 1675564.67462741 11762.46455308
0.02600000 1672052.73010259 10157.72079997
0.02700000 1668410.96694490 8408.79165853
0.02800000 1664638.83057148 10137.65094309
0.02900000 1660739.30725310 8967.99267092
0.03000000 1656712.37206066 7703.71288419
0.03100000 1652558.58591327 10311.96605058
0.03200000 1648278.60099559 11422.57123100
0.03300000 1643875.68719837 8383.76639121
0.03400000 1639347.73008704 9467.23357807
0.03500000 1634698.13408117 13241.05549750
0.03600000 1629926.32413103 10855.30982038
0.03700000 1625034.61596504 11115.23728725
0.03800000 1620023.99011802 14215.71117118
0.03900000 1614896.03478680 14534.06498615
0.04000000 1609649.76292664 10889.28115080
0.04100000 1604288.50592614 12128.42166715
0.04200000 1598813.14712945 11343.57980514
0.04300000 1593223.99229428 11566.80672096
0.04400000 1587523.99483557 13930.52370164
0.04500000 1581713.44845575 17462.11728233
0.04600000 1575792.76065688 12220.27342698
0.04700000 1569764.56105341 11302.30536523
0.04800000 1563629.75273648 18388.28674775
0.04900000 1557390.68268621 11680.43066384
0.05000000 1551047.26979320 15425.16581638
0.05100000 1544602.49227628 14457.48000119
0.05200000 1538054.74652983 12227.53580473
0.05300000 1531409.55725407 12404.41799203
0.05400000 1524665.44025666 13836.33951557
0.05500000 1517826.15432541 14024.71432021
0.05600000 1510890.21891647 20668.97915928
0.05700000 1503863.02121768 18317.05245344
0.05800000 1496742.92380684 15895.41059302
0.05900000 1489531.62931827 18768.09940599
0.06000000 1482232.67481409 17631.15849062
0.06100000 1474847.45848799 17830.90660638
0.06200000 1467375.71715590 18026.71152789
0.06300000 1459821.65297894 23824.29049053
0.06400000 1452183.05663024 19822.29965003
0.06500000 1444466.00672517 21450.32120327
0.06600000 1436668.57766744 18770.07584545
0.06700000 1428793.78505452 17488.43674751
0.06800000 1420845.16085969 19117.47253424
0.06900000 1412822.09019771 22251.94896243
0.07000000 1404725.63455079 16456.36157939
0.07100000 1396559.91258799 22624.27164360
0.07200000 1388324.27859786 18242.58187538
0.07300000 1380023.27856840 16850.08502084
0.07400000 1371656.34222978 20060.47494523
0.07500000 1363225.75148082 20203.00658391
0.07600000 1354731.99400931 23470.73289653
0.07700000 1346180.09880014 20475.40026281
0.07800000 1337569.05903154 19020.23291141
0.07900000 1328900.51279110 17541.48759160
0.08000000 1320178.60390619 19248.20494791
0.08100000 1311403.95640470 17743.29636264
0.08200000 1302576.06693208 22703.90191201
0.08300000 1293699.74613820 16300.61756636
0.08400000 1284774.42614178 18018.96217242
0.08500000 1275804.86145842 21395.24853106
0.08600000 1266790.13787256 16531.61207542
0.08700000 1257733.41662359 18262.29006693
0.08800000 1248633.78629592 16669.26182990
0.08900000 1239497.59138401 18406.54009660
0.09000000 1230323.36154588 31908.43788061
0.09100000 1221113.19951589 16851.36294502
0.09200000 1211869.14717420 27048.92063587
0.09300000 1202594.46867179 22043.55764663
0.09400000 1193287.05133461 23806.07779295
0.09500000 1183951.72299477 18753.79617372
0.09600000 1174588.87577309 20508.32273505
0.09700000 1165202.59062580 22267.02255369
0.09800000 1155792.96936976 20596.23168256
0.09900000 1146362.00810119 24073.60330213
0.10000000 1136909.37244263 18946.59558276
0.10100000 1127438.67989093 22424.75639771
0.10200000 1117951.92618864 22454.06549366
0.10300000 1108449.34062687 17291.81052720
0.10400000 1098934.34287499 20769.86005746
0.10500000 1089409.28601188 20785.93015507
0.10600001 1079871.12066428 24264.70522307
0.10700001 1070326.27074870 22541.07232270
0.10800001 1060773.39624669 20812.37501383
0.10900001 1051216.34114880 19079.57748984
0.11000001 1041655.91381486 19077.92895951
0.11100001 1032092.78944421 19073.07564676
0.11200001 1022530.19948934 19065.07646701
0.11300001 1012967.12506471 25982.60798119
0.11400001 1003408.40889982 19039.67545535
0.11500001 993853.46313171 24210.27150190
0.11600001 984304.26622277 20729.44882283
0.11700001 974763.33814153 25879.96784647
0.11800001 965229.51291119 20675.21714033
0.11900001 955706.03717338 25804.06421909
0.12000001 946194.12473671 22325.45142480
0.12100001 936696.96177973 30854.79937454
0.12200001 927212.39438074 17107.06948226
0.12300001 917745.35639021 22191.08376303
0.12400001 908294.08772496 17030.51494728
0.12500001 898862.06040674 23783.89123907
0.12600001 889451.32905857 23721.66806384
0.12700001 880061.78797245 16897.18712537
0.12800001 870693.70914701 21902.30128583
0.12900001 861350.01243388 18475.95863752
0.13000001 852032.18105724 18416.67646162
0.13100001 842739.18648471 21692.10768263
0.13200001 833475.59087178 23278.97435043
0.13300001 824241.96202284 21537.44348300
0.13400001 815036.92616425 16504.49853294
0.13500001 805864.12140275 23015.48039240
0.13600001 796722.87549391 21284.45262240
0.13700001 787616.71081850 19564.40001926
0.13800001 778543.85018085 16232.64004173
0.13900001 769508.93589034 21007.59494049
0.14000001 760509.93019956 16084.78578229
0.14100001 751549.63094681 28814.41420947
0.14200001 742627.37924640 20708.16544699
0.14300001 733748.05351217 17433.85457376
0.14400001 724905.79052951 20496.71219405
0.14500001 716109.12885745 18819.34879412
0.14600001 707353.96424841 17156.87121221
0.14700001 698645.41678740 17060.92188282
0.14800001 689979.51354989 16963.14714092
0.14900001 681359.24053635 18396.70036245
0.15000001 672786.98814150 22857.93900061
0.15100001 664261.61507981 18174.19864613
0.15200001 655786.04044249 15050.29033833
0.15300001 647359.73358798 17944.81266186
0.15400001 638981.49952057 16341.95262143
0.15500001 630656.41215082 19184.56896300
0.15600001 622380.84941083 19054.19060397
0.15700001 614161.10352820 16011.18072466
0.15800001 605989.91216551 24569.86214842
0.15900001 597875.65996480 14349.01651644
0.16000001 589813.56663238 14243.99830652
0.16100001 581809.66752219 18379.36826461
0.16200001 573859.11675734 16837.02728047
0.16300001 565966.40923141 16707.32918923
0.16400001 558129.86283025 19339.20066006
0.16500001 550351.51213280 23296.38060843
0.16600001 542630.30978106 17670.75687231
0.16700001 534967.46278199 18873.65297806
0.16800001 527363.00250077 14705.51801908
0.16900001 519820.16982842 14580.95645217
0.17000001 512336.07862237 14455.56314092
0.17100001 504912.97061368 16934.78183407
0.17200001 497549.84961206 14202.56112786
0.17300001 490248.46338521 15354.58259834
0.17400001 483010.29804273 15214.82510688
0.17500001 475832.49847266 13818.17640825
0.17600001 468715.90351872 13688.84860878
0.17700001 461664.02159630 17257.00194233
0.17800001 454674.33160215 15870.40829417
0.17900001 447747.36219146 18133.76902528
0.18000001 440885.03807329 16758.04108873
0.18100001 434087.52771316 15405.76708625
0.18200001 427350.73972753 14076.93403159
0.18300001 420681.20354006 15094.04229605
0.18400001 414074.44418281 16086.79291645
0.18500001 407533.52629768 11370.18592086
0.18600001 401056.73463496 11249.64193798
0.18700001 394644.41685474 12241.87038920
0.18800001 388296.62740447 12109.03089771
0.18900001 382016.12913633 11976.20621427
0.19000001 375796.83323589 11843.23775901
0.19100001 369647.61201202 13839.60724765
0.19200001 363560.26185592 13682.59110147
0.19300001 357540.77302988 12485.32438417
0.19400001 351585.46647630 13369.03799450
0.19500001 345696.17073481 19310.58900977
0.19600001 339871.02094965 12051.82697240
0.19700001 334111.84950968 11907.74687926
0.19800001 328418.41047914 16665.59302736
0.19900001 322791.27469203 14525.60804762
0.20000001 317226.84464764 13390.14574541
0.20100001 311730.00191818 11334.50340544
0.20200001 306296.37438663 11192.07004906
0.20300001 300928.88270610 9208.42424604
0.20400001 295626.12178160 9090.50367445
0.20500001 290387.76429181 11664.87704296
0.20600001 285213.96537231 9741.48344775
0.20700001 280104.53890718 14856.74544590
0.20800001 275058.90830072 8623.09718284
0.20900001 270079.56102664 8507.50657450
0.21000001 265162.09341782 10070.85678408
0.21100001 260308.46225675 10761.15233841
0.21200001 255518.14757600 8163.80520099
0.21300001 250790.64315304 9660.45603096
0.21400001 246127.33656995 7937.60697964
0.21500001 241527.15369662 8608.02816471
0.21600001 236987.86975429 12342.32884033
0.21700001 232511.40160572 12164.99710717
0.21800001 228097.24607317 9740.89335411
0.21900001 223743.15667224 10336.93432700
0.22000001 219450.27479134 8729.73234396
0.22100001 215221.25385097 7883.55490132
0.22200001 211050.85838323 8471.58185608
0.22300001 206941.28826739 9734.51866040
0.22400001 202889.83492162 6847.53225240
0.22500001 198901.13769098 8091.29866388
0.22600001 194970.22338148 6638.73642007
0.22700001 191099.01161903 7189.14515708
0.22800001 187285.50471846 7719.90886957
0.22900001 183529.90419747 11397.20758965
0.23000001 179832.63422791 6854.32117775
0.23100001 176193.93714743 7357.85916325
0.23200001 172610.43876616 8445.82916826
0.23300001 169084.78992394 7715.33932912
0.23400001 165615.46586352 6421.73999258
0.23500001 162200.41083148 8038.65274101
0.23600001 158841.85622943 7340.87673284
0.23700001 155537.73762820 6107.96724555
0.23800001 152288.80401088 7643.37543483
0.23900001 149093.54666155 6977.57831380
0.24000001 145951.91180164 6331.39423343
0.24100001 142864.45527713 5704.57796905
0.24200001 139829.33477100 7645.16924024
0.24300001 136846.41498900 6010.29483062
0.24400001 133914.99292823 7382.06433437
0.24500001 131035.21159408 4835.19953655
0.24600001 128206.30017931 4750.04364634
0.24700001 125429.16865084 4665.96529454
0.24800001 122700.69570621 6416.01968200
0.24900001 120021.49199045 5851.04801133
0.25000001 117392.21206276 5745.76209123
0.25100001 114810.90136347 4773.83750454
0.25200001 112278.76891465 5539.27332647
0.25300001 109794.06568579 4601.46951059
0.25400001 107355.88196182 5748.90775104
0.25500001 104964.49337366 4836.76408349
0.25600001 102620.05970552 4747.20418658
0.25700001 100320.63094141 5435.37204157
0.25800001 98066.75933481  4571.87253650
0.25900001 95857.47546370  4112.28589196
0.26000001 93693.22185736  5135.32573298
0.26100001 91570.66477792  3958.60002566
0.26200001 89493.68221205  4589.68370941
0.26300001 87458.51573376  4156.02886432
0.26400001 85465.07030179  3736.96037577
0.26500001 83514.42620080  3665.44833940
0.26600001 81604.41188013  3595.08253550
0.26700001 79735.82336517  4166.99432625
0.26800001 77907.86035007  5972.80639638
0.26900001 76118.88114940  3391.09631568
0.27000001 74369.89326721  3325.44993481
0.27100001 72659.69533982  3853.87042320
0.27200001 70988.18267974  4069.75270562
0.27300001 69354.09695271  3420.54422358
0.27400001 67756.24724963  3912.92346384
0.27500001 66197.67454185  2740.58385573
0.27600001 64673.64706658  3762.06622791
0.27700001 63186.63861308  2898.37125035
0.27800001 61734.89547124  3875.40824662
0.27900001 60317.82613570  2786.68369936
0.28000001 58935.61351911  3229.37709562
0.28100001 57587.13744765  2679.52963226
0.28200001 56272.73665553  2627.65556250
0.28300001 54991.24335610  3045.41520120
0.28400001 53742.53393099  2986.74146458
0.28500001 52526.35144765  3154.73281726
0.28600001 51340.94988416  2873.29639627
0.28700001 50187.25422978  2384.89843388
0.28800001 49063.78543040  2764.98975881
0.28900001 47972.39174526  2712.83888160
0.29000001 46909.15371945  2457.10158813
0.29100001 45876.62269140  3215.03387040
0.29200001 44872.38028978  2760.99768992
0.29300001 43896.74032115  2323.01560776
0.29400001 42949.09964151  3040.79639856
0.29500001 42029.93647938  2612.58097523
0.29600001 41137.10505813  1832.65811709
0.29700001 40270.75364854  2700.15415995
0.29800001 39431.44579027  1945.35047015
0.29900001 38617.85107019  2259.14439455
0.30000001 37829.71177437  2220.41503771
0.30100001 37067.43841037  2350.81705527
0.30200001 36328.86600881  1981.37644592
0.30300001 35614.54836170  1786.42583039
0.30400001 34924.92764397  2077.16016996
0.30500001 34257.63817389  2201.39593327
0.30600001 33613.49360127  2012.27188971
0.30700001 32992.47179873  2133.95317697
0.30800001 32393.47708262  1951.86905402
0.30900001 31816.18141247  1627.39775630
0.31000001 31261.13665607  1749.99851286
0.31100001 30725.34429242  1725.53541716
0.31200001 30211.22786696  1560.25893706
0.31300001 29717.09745803  1399.67535654
0.31400001 29244.11086124  1658.14116434
0.31500001 28789.33645801  2319.84484162
0.31600002 28354.23643608  1483.06840701
0.31700002 27937.09732961  1465.85956629
0.31800002 27539.00736808  1581.28987795
0.31900002 27159.01269792  1825.08573972
0.32000002 26796.68098134  1935.39037552
0.32100002 26451.91164609  1533.15287160
0.32200002 26123.94410146  1392.27566681
0.32300002 25811.93565340  1379.90614537
0.32400002 25516.91047134  1492.73933326
0.32500002 25237.27445296  1480.92333502
0.32600002 24973.53811116  1592.43773306
0.32700002 24725.18033500  1703.07050212
0.32800002 24492.20563949  1329.55944610
0.32900002 24272.74730004  1201.50104825
0.33000002 24069.30784825  1673.05766776
0.33100002 23877.32201365  1189.09069259
0.33200002 23701.49434853  2131.00145779
0.33300002 23537.50757537  1532.99794098
0.33400002 23387.58771617  1645.31687375
0.33500002 23249.89523597  1171.79477538
0.33600002 23124.46764069  1753.41284189
0.33700002 23010.55927373  1516.62603355
0.33800002 22909.89767658  1630.95569283
0.33900002 22819.71829661  1396.56682589
0.34000002 22741.21461949  1744.81977431
0.34100002 22673.60539986  1512.10281573
0.34200002 22617.74083127  1629.15594923
0.34300002 22570.65335648  1397.57492202
0.34400002 22535.04511831  1399.42636812
0.34500002 22508.35486245  1518.63877449
0.34600002 22492.79212041  1287.82487385
0.34700002 22484.43374534  1173.68749709
0.34800002 22486.98072849  1177.19349689
0.34900002 22497.68614555  1771.69286787
0.35000002 22517.22977285  1659.74508517
0.35100002 22545.18780063  1309.42456948
0.35200002 22580.29316863  1315.18923790
0.35300002 22623.84942620  1441.59175372
0.35400002 22675.59674553  1328.22314228
0.35500002 22734.13551388  1456.80347273
0.35600002 22799.71254230  1587.20206381
0.35700002 22872.11383088  1351.05582798
0.35800002 22952.01816734  1606.75610791
0.35900002 23037.77077072  1492.84761665
0.36000002 23130.47273419  1252.51515788
0.36100002 23228.47536180  2018.09003502
0.36200002 23333.45923211  1524.60829844
0.36300002 23442.35705408  1535.94330694
0.36400002 23557.33273384  1547.71683392
0.36500002 23677.33532154  1559.86292487
0.36600002 23802.75015449  1965.51218711
0.36700002 23932.54614624  1453.18427083
0.36800002 24068.39451830  1332.18569969
0.36900002 24207.60534625  1746.57880847
0.37000002 24350.20279580  1355.08884978
0.37100002 24497.22443218  1777.02874449
0.37200002 24648.75084537  1517.00744264
0.37300002 24803.26500227  1391.46323254
0.37400002 24962.42182387  2246.61807057
0.37500002 25123.61107669  1416.97173185
0.37600002 25289.17914724  1859.13409308
0.37700002 25456.46986213  2598.08743720
0.37800002 25627.43519029  1602.61173554
0.37900002 25800.98940666  1617.72211243
0.38000002 25977.02365905  1929.96306418
0.38100002 26154.95633625  1648.54697597
0.38200002 26335.41906022  2269.45484503
0.38300002 26517.63268246  1985.64042933
0.38400002 26702.27411457  2158.87896444
0.38500002 26887.97967157  1712.49550641
0.38600002 27076.06989547  1728.94252508
0.38700002 27264.71089890  2380.20937424
0.38800002 27454.44968176  1601.96721482
0.38900002 27645.77253262  2264.18887769
0.39000002 27838.78616590  2122.56835178
0.39100002 28031.51884536  2142.72940205
0.39200002 28226.12412469  1996.71611518
0.39300002 28420.61878042  2687.45383920
0.39400002 28616.54622086  2034.63653270
0.39500002 28811.91201918  2395.99871703
0.39600002 29007.56687974  2072.88082744
0.39700002 29203.06524137  1917.76538526
0.39800002 29399.92276475  1935.54400692
0.39900002 29595.62637267  1953.31143314
0.40000002 29790.98123636  2150.31312752
0.40100002 29986.20983153  1988.98539236
0.40200002 30182.02008562  2371.85416081
0.40300002 30376.12645543  2024.87268546
0.40400002 30569.95003181  2599.97437339
0.40500002 30763.01211503  2060.81427923
0.40600002 30955.55667205  2267.80418924
0.40700002 31146.72735124  2096.79778463
0.40800002 31337.38730799  2499.31344317
0.40900002 31526.20493052  1938.86169509
0.41000002 31714.75453750  1955.21470988
0.41100002 31901.60487162  2365.82312938
0.41200002 32086.44541081  2981.63308108
0.41300002 32270.70066243  2204.41166670
0.41400002 32452.76859652  2828.25891720
0.41500002 32634.08782603  2036.36717683
0.41600002 32812.42668623  2257.65912512
0.41700002 32989.83487084  2895.84784218
0.41800002 33166.36355761  2501.40725804
0.41900002 33338.86920744  2310.38374555
0.42000002 33510.25247862  2327.78979873
0.42100002 33680.26060339  2984.74483610
0.42200002 33847.84489505  2791.93961846
0.42300002 34012.83022769  2812.18093648
0.42400002 34175.64683200  2396.56734766
0.42500002 34336.57443241  2632.92865224
0.42600002 34493.67930161  2651.18431675
0.42700002 34649.89981188  2669.42840800
0.42800002 34803.09804808  2239.57946552
0.42900002 34954.28434609  2930.91688131
0.43000002 35102.94748760  3404.10849392
0.43100002 35247.57020270  2740.85118884
0.43200002 35390.40366406  3447.91024036
0.43300002 35530.21263293  3006.92203762
0.43400002 35667.84493948  2560.05969185
0.43500002 35801.73499201  3043.86365326
0.43600002 35934.23046273  2591.03781030
0.43700002 36062.72505956  2369.32114869
0.43800002 36187.54627119  2382.95003488
0.43900002 36310.62625710  2875.80173584
0.44000002 36429.83708852  2891.80060513
0.44100002 36546.61448891  2665.34472099
0.44200002 36660.18268596  3410.49695690
0.44300002 36770.80172509  3183.61616423
0.44400002 36877.88881676  2707.75911469
0.44500002 36980.88697798  3711.03218411
0.44600002 37081.65096276  2486.32481488
0.44700002 37179.50854252  2998.15571096
0.44800002 37272.64052541  3765.46868753
0.44900002 37364.28480744  2774.29827843
0.45000002 37452.34944577  3547.11218411
0.45100002 37535.59154215  3562.87851803
0.45200002 37616.63305399  3578.47047202
0.45300002 37693.53752771  2823.62303002
0.45400002 37767.86731846  3608.71989331
0.45500002 37838.70965579  2846.98464943
0.45600002 37905.95416290  3897.67992152
0.45700002 37969.42300888  3130.19938120
0.45800002 38029.18183448  2618.30929340
0.45900002 38085.82434458  3679.09080605
0.46000002 38139.56808253  3428.55663527
0.46100002 38188.64834486  2911.12080130
0.46200002 38235.28746911  3186.52900870
0.46300002 38277.98102639  3729.80664799
0.46400002 38316.61371106  3741.61750622
0.46500002 38353.05782996  2948.96675631
0.46600002 38384.71324996  2957.73421966
0.46700002 38413.14352199  2966.26308336
0.46800002 38438.80142846  2974.58678953
0.46900002 38460.26662546  3253.73871073
0.47000002 38477.61351689  3262.13222858
0.47100002 38492.15989352  3542.81856452
0.47200002 38503.00819063  2731.78856060
0.47300002 38511.17247621  3559.58784069
0.47400002 38513.93972674  3841.76566983
0.47500002 38514.82538314  3574.94626151
0.47600002 38512.43194696  3857.79049098
