# SAXS profile: number of points = 501, q_min = 0, q_max = 0.5, delta_q = 0.001
#    q    intensity    error
0.00000000 1682732.95097188 252.40994265
0.00100000 1682663.47269859 757.19858070
0.00200000 1682454.97579030 832.81523939
0.00300000 1682107.64767824 1211.11754947
0.00400000 1681621.33813954 1639.58086699
0.00500000 1680996.50765341 1512.89691677
0.00600000 1680232.93299640 1940.66911662
0.00700000 1679331.21005903 2216.71728941
0.00800000 1678290.84338246 3625.10837476
0.00900000 1677113.09865890 2767.23673108
0.01000000 1675797.25851223 3594.58527472
0.01100000 1674344.49777008 3616.58427265
0.01200000 1672754.33498982 4566.61953474
0.01300000 1671028.13951239 3860.07517252
0.01400000 1669165.11552983 4506.74601172
0.01500000 1667167.07216868 4801.44138165
0.01600000 1665032.97842624 4245.83428479
0.01700000 1662764.83826824 4938.41179119
0.01800000 1660362.23223359 5205.23583228
0.01900000 1657825.98169818 5470.82598646
0.02000000 1655156.56257831 6777.86643036
0.02100000 1652355.78051614 6543.32918751
0.02200000 1649421.74371885 6259.55580180
0.02300000 1646357.38835613 6519.57555465
0.02400000 1643162.64947135 6778.04623813
0.02500000 1639838.79793646 7674.44592484
0.02600000 1636385.97758735 7290.09986359
0.02700000 1632805.56796808 8229.34043947
0.02800000 1629096.98183940 8503.88663519
0.02900000 1625263.23638501 15358.73828902
0.03000000 1621304.39118936 8292.97234212
0.03100000 1617220.61777186 10867.72305149
0.03200000 1613013.07809907 7984.41510434
0.03300000 1608684.71928984 11486.00942524
0.03400000 1604233.27875170 10948.89263267
0.03500000 1599662.41318239 12093.44840211
0.03600000 1594971.66275645 8852.09313739
0.03700000 1590162.84275820 10876.71434749
0.03800000 1585237.50156753 10201.00379469
0.03900000 1580196.56959295 12325.53381362
0.04000000 1575039.45523630 11623.79171828
0.04100000 1569769.66467342 12856.41414978
0.04200000 1564387.60744412 11099.33058975
0.04300000 1558893.69794497 11317.56877242
0.04400000 1553291.15673151 11533.18737436
0.04500000 1547580.00474376 12813.96303468
0.04600000 1541760.54082101 14130.23601349
0.04700000 1535835.90899155 18798.63240034
0.04800000 1529806.24886147 13492.89174276
0.04900000 1523674.31620467 12570.31369381
0.05000000 1517439.90278820 13930.09895627
0.05100000 1511106.06172803 14143.95339666
0.05200000 1504671.15188532 19139.41794390
0.05300000 1498140.70549764 20629.39847640
0.05400000 1491512.96561541 15996.47730220
0.05500000 1484792.02522592 13719.47895309
0.05600000 1477976.21768375 20218.71560140
0.05700000 1471070.91676614 14078.14933060
0.05800000 1464074.29665976 19435.58719565
0.05900000 1456988.59140828 14424.18772864
0.06000000 1449816.60451165 14592.40480615
0.06100000 1442560.09667594 20123.71428904
0.06200000 1435218.87142863 17631.66465967
0.06300000 1427796.82947056 19189.59028530
0.06400000 1420291.87055220 13847.84638550
0.06500000 1412710.29521784 15384.41583457
0.06600000 1405049.93331710 21181.12873579
0.06700000 1397313.55867001 19953.63855162
0.06800000 1389504.83796638 15819.51332074
0.06900000 1381623.43078111 23211.27472385
0.07000000 1373669.93984758 14629.58554446
0.07100000 1365648.93381347 14749.00917600
0.07200000 1357559.18109993 20811.38322121
0.07300000 1349405.52427688 20969.76282981
0.07400000 1341187.36855470 19614.86618435
0.07500000 1332907.03780723 19753.68322621
0.07600000 1324564.69123393 18358.46748116
0.07700000 1316165.95092900 18478.97081749
0.07800000 1307709.11284350 21694.89519948
0.07900000 1299196.11565332 32739.74365008
0.08000000 1290630.97790537 17249.28382889
0.08100000 1282013.97219991 17345.64985769
0.08200000 1273345.49920272 23779.72831348
0.08300000 1264629.67958260 17527.76818163
0.08400000 1255865.99179848 20815.97979113
0.08500000 1247059.09322188 25739.30089244
0.08600000 1238208.33603496 19390.34345271
0.08700000 1229316.39198510 25963.16341790
0.08800000 1220382.89386188 21179.74611765
0.08900000 1211413.69126100 16354.08560017
0.09000000 1202407.55642672 19695.43669947
0.09100000 1193366.63907019 19762.15247145
0.09200000 1184292.65716878 19825.06001252
0.09300000 1175188.76970173 19884.19491775
0.09400000 1166053.10393185 26586.01201912
0.09500000 1156890.57003784 18325.14749073
0.09600000 1147701.57746964 16699.05873717
0.09700000 1138489.56870062 16735.79744670
0.09800000 1129255.31090535 21800.27480203
0.09900000 1120000.58693613 23520.01343163
0.10000000 1110724.87329762 18510.23088399
0.10100000 1101431.88123433 23592.67200564
0.10200000 1092123.14205889 25309.95500770
0.10300000 1082799.61573695 21959.17724012
0.10400000 1073464.21693625 20288.47465457
0.10500000 1064119.39464738 21995.34892223
0.10600001 1054761.78899997 23700.49851402
0.10700001 1045398.90985960 18629.00945034
0.10800001 1036028.18805752 22020.78017350
0.10900001 1026653.70573936 22021.72302458
0.11000001 1017275.86022242 16937.64386995
0.11100001 1007896.30087362 18625.92451693
0.11200001 998517.97271754 20309.85652120
0.11300001 989139.42298832 18605.71342238
0.11400001 979765.49588059 16900.95559971
0.11500001 970395.89567217 16884.88937977
0.11600001 961032.06918384 21925.94769095
0.11700001 951677.16852886 23582.56134676
0.11800001 942329.39011954 26912.92864937
0.11900001 932992.28283399 16793.86188203
0.12000001 923667.09129912 18441.01434645
0.12100001 914356.66370534 23425.81882768
0.12200001 905059.51834881 20038.01868026
0.12300001 895779.64270593 24992.25320899
0.12400001 886515.99440031 23271.04594948
0.12500001 877271.38686222 19896.51599157
0.12600001 868048.19836784 18189.95085397
0.12700001 858846.63615944 16489.85619137
0.12800001 849666.18747512 24661.56225375
0.12900001 840510.62991035 18028.95386132
0.13000001 831380.27084881 22871.27232909
0.13100001 822275.37055186 16281.05310438
0.13200001 813199.37079410 22712.65949696
0.13300001 804153.56337034 16163.48738574
0.13400001 795136.17839314 19321.81004589
0.13500001 786151.04710664 16037.48211711
0.13600001 777197.28398744 19165.68592681
0.13700001 768278.20867320 22264.70353720
0.13800001 759392.36751000 23749.99741382
0.13900001 750544.42563913 25218.29389072
0.14000001 741732.22376582 15687.63727249
0.14100001 732958.12160828 20295.61134453
0.14200001 724221.81919251 17088.01462981
0.14300001 715528.16655115 17000.95003915
0.14400001 706871.46449525 24599.12812477
0.14500001 698260.20213875 16821.08906301
0.14600001 689689.47656350 19769.94977833
0.14700001 681165.51415828 19658.43766602
0.14800001 672683.60240669 16537.92714541
0.14900001 664246.76141836 14945.55283706
0.15000001 655857.52052087 17826.20824885
0.15100001 647515.05756673 14763.34400913
0.15200001 639221.73637486 23472.22326727
0.15300001 630977.09685711 26236.02892537
0.15400001 622779.97770231 18823.52571435
0.15500001 614635.44136654 15820.71700740
0.15600001 606539.72555509 19997.61569534
0.15700001 598499.67249847 17021.33148921
0.15800001 590507.34470806 14083.60083602
0.15900001 582571.51691719 19574.40389234
0.16000001 574686.86088053 18042.29484898
0.16100001 566859.77418719 17907.10111186
0.16200001 559085.74374235 15036.61178777
0.16300001 551368.53219679 13563.66653235
0.16400001 543706.95599203 18839.44691453
0.16500001 536102.49373674 17353.63854155
0.16600001 528554.98005085 14564.33316293
0.16700001 521064.88332040 17070.08638354
0.16800001 513632.13059465 18228.80517550
0.16900001 506260.31061830 15491.56623640
0.17000001 498946.77405372 14077.78389467
0.17100001 491692.94586495 13954.24646258
0.17200001 484498.55226069 18859.10703733
0.17300001 477365.07084432 16196.99761864
0.17400001 470293.51848624 17283.28762059
0.17500001 463281.94210061 15899.83700380
0.17600001 456330.26034697 14538.68278130
0.17700001 449442.65761263 14400.14343004
0.17800001 442616.07551673 17826.36328341
0.17900001 435851.63528833 14121.59365036
0.18000001 429150.75396057 15146.87657650
0.18100001 422513.45688808 12688.07970969
0.18200001 415936.26604288 12559.19614643
0.18300001 409425.27852997 13560.16586549
0.18400001 402975.85310056 12300.83849699
0.18500001 396591.19710359 17703.83187507
0.18600001 390269.72919999 10947.06642124
0.18700001 384011.95483608 10829.13763800
0.18800001 377817.54535256 12853.35350017
0.18900001 371689.27180523 11652.45922164
0.19000001 365621.28488306 13617.56539888
0.19100001 359622.07605106 15535.67441947
0.19200001 353683.58731086 14334.79647105
0.19300001 347812.01438491 11133.46310655
0.19400001 342003.68584464 15005.41242550
0.19500001 336260.16904540 12851.86426823
0.19600001 330579.34769114 13676.06826026
0.19700001 324963.90553078 9651.42845037
0.19800001 319412.70253722 10487.91658346
0.19900001 313926.54198351 12243.13571597
0.20000001 308502.33306547 15812.28782858
0.20100001 303144.24793011 9185.27114640
0.20200001 297848.29282025 12697.27332304
0.20300001 292617.15603286 9849.49393760
0.20400001 287449.66099005 9722.98524255
0.20500001 282345.07684628 11341.80227301
0.20600001 277304.35499999 10332.36075569
0.20700001 272326.49726343 9346.24582787
0.20800001 267411.47413926 11736.69015477
0.20900001 262561.55579159 9924.82727808
0.21000001 257771.94096659 10606.02701244
0.21100001 253045.04264056 10460.88255728
0.21200001 248380.26724669 14284.34984464
0.21300001 243777.24341808 9390.29986040
0.21400001 239236.79851871 10030.00325208
0.21500001 234758.50361644 8366.79346445
0.21600001 230339.94452607 8247.32210368
0.21700001 225982.95010504 7389.64281781
0.21800001 221686.81922548 9467.13606264
0.21900001 217449.63604446 12198.92515888
0.22000001 213272.37931726 7776.97767952
0.22100001 209157.43096378 9750.91989259
0.22200001 205100.34181625 8232.72810978
0.22300001 201102.53320402 9459.86360923
0.22400001 197161.70805652 6654.20796156
0.22500001 193282.36981596 6552.27264660
0.22600001 189459.28049202 9031.52432814
0.22700001 185694.78867111 7620.91448745
0.22800001 181986.90639617 10002.00084853
0.22900001 178335.63415094 9228.86950375
0.23000001 174741.21137623 9082.17489079
0.23100001 171204.21136376 8341.06957211
0.23200001 167721.21986327 8206.59967603
0.23300001 164294.66236311 6920.09150602
0.23400001 160923.29336129 6239.80099520
0.23500001 157604.92141524 8926.74317116
0.23600001 154341.72439525 6584.21827412
0.23700001 151131.99875140 6474.49513274
0.23800001 147975.65500310 8487.88397244
0.23900001 144872.20112651 6258.47938469
0.24000001 141820.78314526 5639.50370852
0.24100001 138822.56077859 5039.25919463
0.24200001 135875.40828331 4952.65886620
0.24300001 132979.13373405 4867.03652489
0.24400001 130132.98751178 5260.62626901
0.24500001 127337.49082060 6578.25508697
0.24600001 124591.62713650 4616.12000377
0.24700001 121896.07053754 5894.89425006
0.24800001 119248.01099136 4899.30476335
0.24900001 116648.22195806 5249.17023644
0.25000001 114096.91874570 6014.04887160
0.25100001 111592.28777245 4640.00754509
0.25200001 109135.91939647 4555.87917074
0.25300001 106725.66156370 5286.12226734
0.25400001 104360.79041175 4790.16050653
0.25500001 102041.48418332 6269.42908484
0.25600001 99767.74267110  4615.25599433
0.25700001 97538.04688005  5662.08388928
0.25800001 95352.61705104  4815.78415202
0.25900001 93210.81393631  5452.83287327
0.26000001 91112.71864096  5350.59465536
0.26100001 89055.21882970  4549.83134529
0.26200001 87042.13541869  4463.95612617
0.26300001 85069.56541279  5726.88341457
0.26400001 83137.85078503  3965.67567009
0.26500001 81247.73696128  3565.96334397
0.26600001 79396.84268300  4769.76554988
0.26700001 77586.72068341  3742.78358288
0.26800001 75815.81009920  3976.91850694
0.26900001 74082.94184798  5100.61078760
0.27000001 72388.87921773  4708.17292712
0.27100001 70732.44250480  4328.82568615
0.27200001 69113.65021530  3113.22452128
0.27300001 67531.31476887  2775.53716835
0.27400001 65984.26354041  2994.03609984
0.27500001 64475.20189059  2669.27348459
0.27600001 62999.51288953  2617.62988444
0.27700001 61560.36509916  3080.48081535
0.27800001 60154.90458157  2769.23116347
0.27900001 58783.65715125  3456.47920408
0.28000001 57445.77452551  3389.87531519
0.28100001 56140.78848059  3799.60874420
0.28200001 54868.84524863  2562.10085015
0.28300001 53628.74477753  3655.33541704
0.28400001 52420.71078316  3585.57678728
0.28500001 51244.04207885  2418.20646016
0.28600001 50097.31674687  2372.35854684
0.28700001 48981.35038533  2115.99443680
0.28800001 47894.53422305  2283.85097253
0.28900001 46838.75209411  2241.23439379
0.29000001 45810.47603592  1999.62737362
0.29100001 44811.98666915  2551.59464172
0.29200001 43840.86117854  2119.48653400
0.29300001 42897.28721111  2459.30159223
0.29400001 41980.94095905  2229.18807045
0.29500001 41092.45411836  2006.95555414
0.29600001 40229.07201277  2150.64629161
0.29700001 39391.49551572  1936.87992620
0.29800001 38580.04289816  2768.50400943
0.29900001 37793.56987525  2040.85286988
0.30000001 37031.63337999  2006.37399151
0.30100001 36294.78296477  1808.56912075
0.30200001 35580.69180729  1778.85677112
0.30300001 34890.33649276  1909.19930327
0.30400001 34223.86086199  1878.89005027
0.30500001 33578.88171015  1849.52489216
0.30600001 32956.31554849  1821.16608343
0.30700001 32356.07497014  1943.30595471
0.30800001 31777.06641873  1767.44051789
0.30900001 31219.14850733  1596.85952175
0.31000001 30682.72486033  2290.15869200
0.31100001 30164.85940595  2258.74477926
0.31200001 29668.13821866  1810.79490191
0.31300001 29190.29735869  1512.34937776
0.31400001 28733.06468937  1357.63737085
0.31500001 28293.76780177  2145.79945168
0.31600002 27873.08624867  1722.97490804
0.31700002 27469.92726432  1441.34715180
0.31800002 27085.07393984  1555.22501926
0.31900002 26717.67102923  1667.18275116
0.32000002 26367.26903012  1777.41768948
0.32100002 26033.95925516  1886.16043735
0.32200002 25716.92618340  1245.98513258
0.32300002 25415.24150511  1729.25311389
0.32400002 25129.68930149  1592.59413489
0.32500002 24859.29312712  1458.74338977
0.32600002 24604.17434393  1930.93569395
0.32700002 24363.71858222  1198.69501101
0.32800002 24138.27982878  1429.46899915
0.32900002 23925.78923922  1658.05727279
0.33000002 23728.75528418  1767.19913347
0.33100002 23542.79106580  1524.16036578
0.33200002 23372.41553360  1167.45221119
0.33300002 23213.49634954  1279.29584440
0.33400002 23068.12338426  1275.09058045
0.33500002 22934.41131011  1387.07326172
0.33600002 22812.65889988  1499.13395060
0.33700002 22701.98620079  1150.99075489
0.33800002 22604.03866681  1264.35696270
0.33900002 22516.07433680  1492.81579923
0.34000002 22439.59898831  1262.56409687
0.34100002 22373.49958644  1377.31269977
0.34200002 22318.62578613  2066.92803194
0.34300002 22272.39603431  1379.10682776
0.34400002 22236.98442334  1150.76399841
0.34500002 22210.39292861  1383.26333711
0.34600002 22194.54866821  1501.79420676
0.34700002 22185.47495137  1158.08184731
0.34800002 22186.94210748  1393.78376920
0.34900002 22196.30502582  1165.30606905
0.35000002 22214.05475978  1286.52704235
0.35100002 22240.02317690  1409.12793523
0.35200002 22273.00004672  1533.16203083
0.35300002 22314.03713733  1777.31314217
0.35400002 22362.81916755  1190.82017707
0.35500002 22418.25531272  1316.84837944
0.35600002 22480.33376329  1444.58631605
0.35700002 22549.17706975  1331.97995260
0.35800002 22625.14584423  1705.70982599
0.35900002 22706.79109611  1716.63348818
0.36000002 22795.18810127  1357.79544357
0.36100002 22888.50999165  1491.41538170
0.36200002 22988.70503906  2002.77607787
0.36300002 23092.58736585  1386.94086289
0.36400002 23202.40536965  1397.36492958
0.36500002 23316.97490140  1408.11218099
0.36600002 23436.83936379  1806.27729533
0.36700002 23560.86998883  1430.61609349
0.36800002 23690.76324440  1835.79733077
0.36900002 23823.96739975  1454.45327865
0.37000002 23960.38316490  1733.41400218
0.37100002 24101.16191735  1748.29836830
0.37200002 24246.02559526  1899.19127484
0.37300002 24394.01265268  1368.50417464
0.37400002 24546.36305746  1380.73298739
0.37500002 24700.79974820  1532.43768897
0.37600002 24859.30444112  1546.37310601
0.37700002 25019.61584015  1844.19597094
0.37800002 25183.45201119  2433.85483492
0.37900002 25349.65225236  1589.42327152
0.38000002 25518.54804000  1458.38508957
0.38100002 25689.02670582  1619.17942997
0.38200002 25862.07463176  2080.08676117
0.38300002 26036.75790679  1799.66079177
0.38400002 26213.86357282  2270.77603957
0.38500002 26391.77138470  2444.93381691
0.38600002 26572.34096272  1542.52446596
0.38700002 26753.30050130  1712.74637923
0.38800002 26935.38548188  1728.84779906
0.38900002 27118.99640927  2379.69204765
0.39000002 27304.26722584  2241.95348813
0.39100002 27489.31094623  1778.00871624
0.39200002 27676.02591041  2284.10252660
0.39300002 27862.84753735  2305.37211446
0.39400002 28051.02559436  1828.22567973
0.39500002 28238.59650596  2683.79633908
0.39600002 28426.65961275  2708.49225623
0.39700002 28614.53476922  1708.28780666
0.39800002 28803.55487844  1896.28212526
0.39900002 28991.60758513  2609.24480628
0.40000002 29179.54043828  1930.66438457
0.40100002 29367.08110885  1947.91858224
0.40200002 29555.39346032  1786.62361933
0.40300002 29742.06349185  2162.84295960
0.40400002 29928.44516372  2363.59906879
0.40500002 30114.23055634  2200.74807333
0.40600002 30299.42657840  2959.64812841
0.40700002 30483.51391752  2238.70936818
0.40800002 30667.06641172  2822.13692025
0.40900002 30848.73526318  2466.35650115
0.41000002 31030.27495149  2295.61984968
0.41100002 31210.30167599  2507.43575546
0.41200002 31388.46516611  2333.41861101
0.41300002 31565.84156023  1960.23885377
0.41400002 31741.40550997  2371.08310394
0.41500002 31916.20353469  3186.51391189
0.41600002 32088.10823838  2809.95577158
0.41700002 32259.27007665  2427.18759558
0.41800002 32429.58094114  2242.01918460
0.41900002 32595.95532047  2053.54528250
0.42000002 32761.37798313  2068.88111767
0.42100002 32925.52689410  2709.44173650
0.42200002 33087.40715718  2939.15451704
0.42300002 33246.79733115  2960.29497464
0.42400002 33404.14816193  3407.22327397
0.42500002 33559.79113434  2787.81198163
0.42600002 33711.71103663  3454.77631074
0.42700002 33862.87846409  2608.79628050
0.42800002 34011.09314829  3064.05952693
0.42900002 34157.54562498  2643.79415666
0.43000002 34301.53896746  3326.39189900
0.43100002 34441.61721448  2678.18028151
0.43200002 34580.17960798  2695.17932636
0.43300002 34715.77767422  3389.99585053
0.43400002 34849.20697803  2728.69303569
0.43500002 34979.39030000  3431.47835104
0.43600002 35108.09127740  3452.00323844
0.43700002 35232.87070318  2314.79971490
0.43800002 35354.30021187  2560.88885721
0.43900002 35474.04736071  2575.41596043
0.44000002 35590.13103803  2589.71600771
0.44100002 35703.98582788  4734.34874514
0.44200002 35814.73081769  3093.85566830
0.44300002 35922.84903098  3349.44660238
0.44400002 36027.30860075  2404.82296307
0.44500002 36128.08972549  3383.75704405
0.44600002 36226.68175220  3157.69886458
0.44700002 36322.44756296  2929.04231029
0.44800002 36413.97368678  2942.97749284
0.44900002 36503.92697845  3696.02278173
0.45000002 36590.43157072  3960.54850091
0.45100002 36672.34298853  3729.57745869
0.45200002 36752.29579410  3246.51420283
0.45300002 36828.31364911  2758.80910620
0.45400002 36901.88153103  3525.97494740
0.45500002 36972.05201656  4046.22156446
0.45600002 37038.69104247  2539.00239129
0.45700002 37102.09148201  2803.80518618
0.45800002 37161.64973452  3326.15361713
0.45900002 37218.30632497  3338.48223557
0.46000002 37272.39078680  3866.07891759
0.46100002 37321.94313788  2845.05186024
0.46200002 37369.12528118  2595.28587378
0.46300002 37412.48020839  3385.08136969
0.46400002 37452.11935592  3918.42817333
0.46500002 37489.48237408  2882.56643636
0.46600002 37522.56782477  3679.83840098
0.46700002 37552.46572268  2899.80154054
0.46800002 37579.64634147  4758.71084176
0.46900002 37602.83598725  3181.20007530
0.47000002 37622.21872420  3455.41284250
0.47100002 37638.83992730  3464.27899110
0.47200002 37651.99250737  2671.40899501
0.47300002 37662.42152107  4552.25710502
0.47400002 37668.01078086  3220.61507441
0.47500002 37671.55511201  3227.69899498
0.47600002 37671.96325362  3773.60073798
0.47700002 37667.93321113  2700.79093925
