# SAXS profile: number of points = 501, q_min = 0, q_max = 0.5, delta_q = 0.001
#    q    intensity    error
0.00000000 1682732.95097188 277.65093691
0.00100000 1682663.47880771 656.23877232
0.00200000 1682455.00096318 1211.36763905
0.00300000 1682107.70114786 1211.11758797
0.00400000 1681621.43555209 1765.70257442
0.00500000 1680996.66097890 1664.18676024
0.00600000 1680233.15423975 1940.66937216
0.00700000 1679331.49900478 2216.71767081
0.00800000 1678291.22445211 2718.83189840
0.00900000 1677113.58976773 4025.07278751
0.01000000 1675797.86156442 4147.59988646
0.01100000 1674345.23722020 3315.20371404
0.01200000 1672755.19309092 3914.24732345
0.01300000 1671029.14902420 4561.90977804
0.01400000 1669166.28834989 4131.18674681
0.01500000 1667168.42945862 5601.68617242
0.01600000 1665034.50258202 4670.42198853
0.01700000 1662766.56209057 6734.20487855
0.01800000 1660364.16771216 6151.64951818
0.01900000 1657828.13847100 8454.92388771
0.02000000 1655158.95072732 6256.50111677
0.02100000 1652358.40016777 7088.61785811
0.02200000 1649424.63457231 6828.61829737
0.02300000 1646360.54267024 6519.58804574
0.02400000 1643166.07047855 8010.43495884
0.02500000 1639842.48507274 9593.07897580
0.02600000 1636389.99685901 7290.11776944
0.02700000 1632809.86217475 8915.14225580
0.02800000 1629101.63418062 12047.20713725
0.02900000 1625268.22671352 8045.07809162
0.03000000 1621309.67020731 8292.99934430
0.03100000 1617226.27623265 10091.49242803
0.03200000 1613019.09408409 8782.88937181
0.03300000 1608691.09066966 9024.75743470
0.03400000 1604240.04617546 10106.71275723
0.03500000 1599669.57746857 12957.32417584
0.03600000 1594979.21180089 9737.34853804
0.03700000 1590170.80587872 14502.35842031
0.03800000 1585245.86154074 10201.05759112
0.03900000 1580205.37913970 14221.84907087
0.04000000 1575048.68696306 14529.82481053
0.04100000 1569779.34818205 10878.57138730
0.04200000 1564397.82106211 14126.51297956
0.04300000 1558904.33780794 11317.64601783
0.04400000 1553302.22971088 13630.22769873
0.04500000 1547591.59228663 16017.57372442
0.04600000 1541772.61455904 16304.24615690
0.04700000 1535848.45720957 16587.16410930
0.04800000 1529819.30023700 15741.84133188
0.04900000 1523687.87359832 19427.02129266
0.05000000 1517454.01824996 13930.22853621
0.05100000 1511120.68214606 12965.41605679
0.05200000 1504686.34374243 14354.70838825
0.05300000 1498156.42528591 13348.57437158
0.05400000 1491529.23026668 15996.65174060
0.05500000 1484808.84338389 16214.11332613
0.05600000 1477993.63768941 17691.58466871
0.05700000 1471088.88256224 14078.32126328
0.05800000 1464092.82184279 14252.94428614
0.05900000 1457007.73644173 18358.29833661
0.06000000 1449836.35401427 14592.60358490
0.06100000 1442580.33973556 13415.99778649
0.06200000 1435239.75751661 17631.92124527
0.06300000 1427818.33966233 23301.99639278
0.06400000 1420314.00537631 20772.09330007
0.06500000 1412733.04884446 16783.26940536
0.06600000 1405073.26544118 16945.18437406
0.06700000 1397337.58886429 24229.83492484
0.06800000 1389529.46054954 15819.79364887
0.06900000 1381648.71497105 14507.31218641
0.07000000 1373695.88118186 20481.80654755
0.07100000 1365675.47160767 19174.08451944
0.07200000 1357586.41499519 16352.12913466
0.07300000 1349433.36505561 19472.32437014
0.07400000 1341215.87833262 16597.54727220
0.07500000 1332936.16621940 18234.56760858
0.07600000 1324594.48937769 24478.50731127
0.07700000 1316196.35908593 18479.39774804
0.07800000 1307740.19930714 17046.39429738
0.07900000 1299227.85948002 17149.80854953
0.08000000 1290663.39888347 18817.87323849
0.08100000 1282047.13850287 18923.01665214
0.08200000 1273379.26029857 15853.57253465
0.08300000 1264664.11198698 30276.06026188
0.08400000 1255901.11122444 19215.28790367
0.08500000 1247094.86212620 20913.78181966
0.08600000 1238244.79408835 22622.73345017
0.08700000 1229353.58857422 16227.46813118
0.08800000 1220420.67790119 24438.92522272
0.08900000 1211452.20013442 16354.60546999
0.09000000 1202446.71768120 26261.43754780
0.09100000 1193406.49039586 21409.71344356
0.09200000 1184333.19247424 23130.02833583
0.09300000 1175229.93206458 19884.89138497
0.09400000 1166094.96210632 26586.96638554
0.09500000 1156933.13183698 19991.80545781
0.09600000 1147744.76582788 25049.53069172
0.09700000 1138533.40456884 23431.01856758
0.09800000 1129299.84211218 25155.15516579
0.09900000 1120045.72588576 18480.75534613
0.10000000 1110770.67745113 26925.08248763
0.10100000 1101478.34492203 20223.14336390
0.10200000 1092170.24981758 18561.43426871
0.10300000 1082847.41951014 18581.66259289
0.10400000 1073512.61475197 21980.17182111
0.10500000 1064168.39252183 18612.30606090
0.10600001 1054811.46157807 23701.61465690
0.10700001 1045449.21592403 18629.90590445
0.10800001 1036079.12431300 18633.88392771
0.10900001 1026705.25596964 18634.70127290
0.11000001 1017328.07089356 25407.76976650
0.11100001 1007949.18151328 25400.32056981
0.11200001 998571.43287116 22003.52255918
0.11300001 989193.42382713 16915.20834383
0.11400001 979820.12012220 27043.03658868
0.11500001 970451.06378362 21951.60409644
0.11600001 961087.83001183 18553.80143210
0.11700001 951733.47511722 23583.95662409
0.11800001 942386.26044318 21868.07420353
0.11900001 933049.69458857 26871.83246986
0.12000001 923725.07279175 25148.41629137
0.12100001 914415.24376811 23427.31964896
0.12200001 905118.74380009 20039.32993181
0.12300001 895839.27875300 28326.43932875
0.12400001 886576.24733778 18285.63596291
0.12500001 877332.05594702 19897.89196648
0.12600001 868109.51719767 18191.23579011
0.12700001 858908.37789843 23087.45828594
0.12800001 849728.53470395 21374.92229786
0.12900001 840573.36772413 18030.29958749
0.13000001 831443.51244510 24506.79868444
0.13100001 822339.16927537 22795.24284683
0.13200001 813263.57956801 22714.45284810
0.13300001 804218.15907245 16164.78575941
0.13400001 795201.26818553 22543.95701591
0.13500001 786216.49477703 22454.34414951
0.13600001 777263.19406313 23959.13908669
0.13700001 768344.61547303 27038.04829343
0.13800001 759459.14330154 23752.08582680
0.13900001 750611.57480327 20491.69695848
0.14000001 741799.71248564 26671.40992026
0.14100001 733026.02106518 15613.45498506
0.14200001 724290.07615584 18643.22743956
0.14300001 715596.83915757 15456.89245487
0.14400001 706940.39392015 15375.95429305
0.14500001 698329.56908868 21410.78559825
0.14600001 689759.15364726 16730.10906095
0.14700001 681235.37271191 19660.45378398
0.14800001 672753.77944700 18043.25721603
0.14900001 664317.34793989 22420.71155080
0.15000001 655928.26045479 20799.48612040
0.15100001 647586.18364685 19194.45538898
0.15200001 639293.06238792 16138.95412153
0.15300001 631048.68443821 17492.67035809
0.15400001 622851.82171194 20273.82775347
0.15500001 614707.51949722 20137.81928909
0.15600001 606612.07847911 18571.42965912
0.15700001 598572.09004941 17023.39104446
0.15800001 590580.04823234 14085.33481515
0.15900001 582644.26682897 15381.80937032
0.16000001 574759.84329236 23596.76648019
0.16100001 566932.92776847 20664.70619262
0.16200001 559158.93494136 17772.86758610
0.16300001 551441.85542055 14922.01731212
0.16400001 543780.37198404 14804.42132618
0.16500001 536176.05800111 18691.09826435
0.16600001 528628.54430232 17214.78935797
0.16700001 521138.55306430 17072.49980446
0.16800001 513705.92559704 14324.69041163
0.16900001 506334.11603322 16784.97673906
0.17000001 499020.64053748 15359.85604103
0.17100001 491766.72725564 16493.85681102
0.17200001 484572.36962082 12574.65358547
0.17300001 477438.86528869 13707.27046976
0.17400001 470367.26430152 13581.85539812
0.17500001 463355.63908136 13455.84839441
0.17600001 456403.94312297 14541.03031466
0.17700001 449516.30084221 14402.50295922
0.17800001 442689.61789538 15452.08184247
0.17900001 435925.00706493 14123.97089603
0.18000001 429224.12794207 17480.15343612
0.18100001 422586.70898107 14997.60301017
0.18200001 416009.37769371 11419.45795712
0.18300001 409498.08595336 13562.57724746
0.18400001 403048.58715111 13421.51858617
0.18500001 396663.73777818 14386.99444889
0.18600001 390342.15509176 14233.82735788
0.18700001 384084.16648518 15163.64360924
0.18800001 377889.58296497 10713.17018321
0.18900001 371761.02546588 10595.18972637
0.19000001 365692.76974813 12572.51801798
0.19100001 359693.36751835 13466.92031620
0.19200001 353754.59928349 13313.55497312
0.19300001 347882.74487906 13160.40486064
0.19400001 342074.12679705 12006.80241794
0.19500001 336330.25819883 10876.92106414
0.19600001 330649.16569597 17587.22995448
0.19700001 325033.35552585 12549.53844991
0.19800001 319481.79106394 12397.49148813
0.19900001 313995.29230888 9419.85921445
0.20000001 308570.65013939 11164.08664967
0.20100001 303212.19171250 11943.52879603
0.20200001 297915.88938393 10885.84711259
0.20300001 292684.31684449 10747.36862250
0.20400001 287516.42968331 11493.46981984
0.20500001 282411.36537162 8726.51160246
0.20600001 277370.25321767 12918.52015425
0.20700001 272391.89068591 11048.21560846
0.20800001 267476.41548029 10062.46322602
0.20900001 262626.02126613 9927.26407313
0.21000001 257835.90069033 8976.55730688
0.21100001 253108.39288330 9658.61672902
0.21200001 248443.18535515 10319.08819156
0.21300001 243839.55261666 11740.87501355
0.21400001 239298.65023077 10032.59638523
0.21500001 234819.72087868 7608.15931616
0.21600001 230400.67578093 7499.54235124
0.21700001 226042.95061643 8869.92580155
0.21800001 221746.33415427 9469.67764779
0.21900001 217508.54690967 9331.11710361
0.22000001 213330.65372358 7779.10265585
0.22100001 209215.09712758 6966.86306377
0.22200001 205157.27823585 6862.51128148
0.22300001 201158.84012652 10138.40602178
0.22400001 197217.37563445 7321.69541665
0.22500001 193337.39838273 7864.96573812
0.22600001 189513.62187272 7743.52695590
0.22700001 185748.38137907 6987.85443793
0.22800001 182039.83030346 7503.68215996
0.22900001 178387.81758712 9231.56999670
0.23000001 174792.71493962 7267.88143090
0.23100001 171254.95679195 7747.57461167
0.23200001 167771.31666699 7036.32935379
0.23300001 164344.00385434 8075.86473135
0.23400001 160971.80114557 5674.25625875
0.23500001 157652.63131960 6697.08409520
0.23600001 154388.77069831 6586.22526950
0.23700001 151178.17757360 6476.47343358
0.23800001 148021.06707513 6367.86660676
0.23900001 144916.73659383 7303.80386980
0.24000001 141864.60766744 6154.08697170
0.24100001 138865.51566872 6553.06399437
0.24200001 135917.54884337 6440.45335659
0.24300001 133020.42184440 7789.67627168
0.24400001 130173.46930238 6219.03779010
0.24500001 127377.09239987 5640.25791828
0.24600001 124630.43548335 5079.31363840
0.24700001 121933.93534924 4535.94260957
0.24800001 119285.04208510 5346.35583917
0.24900001 116684.34476364 4813.22944920
0.25000001 114132.21757037 4297.07819481
0.25100001 111626.65294382 5063.38521708
0.25200001 109169.39130135 4557.27645548
0.25300001 106758.26479046 4880.98809714
0.25400001 104392.47637242 5989.51861524
0.25500001 102072.23319966 4703.48872837
0.25600001 99797.64878757  4616.63945134
0.25700001 97567.06648013  4153.43021657
0.25800001 95380.64368047  5558.30727347
0.25900001 93237.93733222  4727.16364641
0.26000001 91138.93959527  4638.51655017
0.26100001 89080.48149162  4201.03570592
0.26200001 87066.39902637  3434.76960411
0.26300001 85092.92711513  4043.61608784
0.26400001 83160.28453224  3966.74575989
0.26500001 81269.14147801  4863.95834762
0.26600001 79417.40914728  4134.86760291
0.26700001 77606.25880251  3743.72610179
0.26800001 75834.38466359  3059.91756597
0.26900001 74100.50727769  3901.39189279
0.27000001 72405.52951723  5003.58435407
0.27100001 70748.16363897  3175.17773438
0.27200001 69128.42533768  4529.29464247
0.27300001 67545.06960614  3053.71274141
0.27400001 65997.03966079  2994.61581633
0.27500001 64486.99577062  2936.73792638
0.27600001 63010.43060851  2879.89186726
0.27700001 61570.24093259  3080.97500208
0.27800001 60163.83118967  4028.57032712
0.27900001 58791.54262375  3456.94286989
0.28000001 57452.72429596  3148.12217679
0.28100001 56146.72305969  2375.00649783
0.28200001 54873.85734294  3028.21396079
0.28300001 53632.87515096  2970.18876644
0.28400001 52423.77790489  2689.33993381
0.28500001 51246.14990181  3297.68990227
0.28600001 50098.42643252  2372.41109600
0.28700001 48981.50948903  2116.00131008
0.28800001 47893.81561668  2699.05610683
0.28900001 46837.01863763  2444.89248861
0.29000001 45807.74326900  1999.50808834
0.29100001 44808.35056126  2158.86643223
0.29200001 43836.22089331  2889.90299919
0.29300001 42891.70921948  3215.59159240
0.29400001 41974.42674542  2971.78955425
0.29500001 41084.95768972  3101.09275322
0.29600001 40220.69929467  2508.56513376
0.29700001 39382.11114576  1936.41849670
0.29800001 38569.77591002  2248.81089089
0.29900001 37782.37135892  2210.26882913
0.30000001 37019.46368061  1671.42886430
0.30100001 36281.66106874  2136.62712149
0.30200001 35566.71591821  2263.11024101
0.30300001 34875.44783353  1908.38459580
0.30400001 34208.05335342  2191.02592101
0.30500001 33562.14552211  1540.50255240
0.30600001 32938.69415103  1820.19232496
0.30700001 32337.57098562  1643.39543529
0.30800001 31757.74682405  1913.56312548
0.30900001 31198.84012164  2031.04458808
0.31000001 30661.59861982  1716.43637200
0.31100001 30142.86445459  1692.82334792
0.31200001 29645.25897383  1670.21396966
0.31300001 29166.56616173  1511.11986439
0.31400001 28708.56843861  1492.12791524
0.31500001 28268.36415843  1875.88873437
0.31600002 27846.83212184  1456.52862310
0.31700002 27442.86061621  1439.92696471
0.31800002 27057.21212110  1294.68766130
0.31900002 26689.05164516  1665.39690151
0.32000002 26337.80635218  1268.16543590
0.32100002 26003.63330849  1758.36576758
0.32200002 25685.89235766  1368.92969802
0.32300002 25383.42619945  1356.99802888
0.32400002 25097.16834799  1345.83571639
0.32500002 24825.93014286  1335.38684562
0.32600002 24570.07331635  1446.19458388
0.32700002 24328.90510306  1436.37862530
0.32800002 24102.70207655  1546.30892494
0.32900002 23889.51608230  1300.78421228
0.33000002 23691.79318904  1764.44638131
0.33100002 23505.08206601  1404.66377078
0.33200002 23333.98014803  1515.19207266
0.33300002 23174.50173283  1393.25111016
0.33400002 23028.44151998  1504.33301353
0.33500002 22894.01046786  1153.85818222
0.33600002 22771.64868912  1611.54965405
0.33700002 22660.25931443  1838.20032264
0.33800002 22561.77839877  1261.99313450
0.33900002 22473.17876023  1375.35860526
0.34000002 22396.10875623  1718.34152570
0.34100002 22329.37157129  1489.14586061
0.34200002 22273.95564326  1604.39310097
0.34300002 22227.08788790  1261.60956827
0.34400002 22191.15828662  1952.26724272
0.34500002 22164.04472494  1265.34537327
0.34600002 22147.66352058  1268.06453493
0.34700002 22138.09280398  1271.16934901
0.34800002 22138.95604218  1738.46160555
0.34900002 22147.88161053  1279.04022359
0.35000002 22165.16279308  1867.19340212
0.35100002 22190.63817071  1523.16547618
0.35200002 22223.16002694  1294.38801707
0.35300002 22263.68875627  1655.08270053
0.35400002 22312.04976823  1425.74004772
0.35500002 22367.06680771  1552.72185133
0.35600002 22428.78097405  1441.27353366
0.35700002 22497.17185289  1449.71782287
0.35800002 22572.76849518  1823.31546156
0.35900002 22654.00351475  1712.64274684
0.36000002 22742.08296022  1600.92900581
0.36100002 22835.05196895  1487.93205677
0.36200002 22934.92748359  1248.80686063
0.36300002 23038.48112351  1886.85169339
0.36400002 23148.00519368  1267.35334439
0.36500002 23262.24130415  1532.51652971
0.36600002 23381.85869440  2059.47421136
0.36700002 23505.61540898  1557.01203844
0.36800002 23635.24455870  1700.67410278
0.36900002 23768.18656568  1582.96130026
0.37000002 23904.39017855  1463.30731410
0.37100002 24044.93215379  1610.04873329
0.37200002 24189.63991950  1353.41041761
0.37300002 24337.40761648  1501.86149516
0.37400002 24489.58053312  1790.80066132
0.37500002 24643.86323681  1528.90534764
0.37600002 24802.23050617  1963.59268219
0.37700002 24962.35446595  1839.97523485
0.37800002 25126.09964988  1714.10259932
0.37900002 25292.26228231  1585.82492023
0.38000002 25460.99516138  2037.13431937
0.38100002 25631.42397430  1762.41679596
0.38200002 25804.36370863  1927.19899488
0.38300002 25978.98340689  1795.66741815
0.38400002 26156.14363029  2265.77604931
0.38500002 26333.97614444  1677.21102010
0.38600002 26514.54867852  2000.92051082
0.38700002 26695.46577147  1709.04379966
0.38800002 26877.59037680  1568.30747279
0.38900002 27061.20009085  2691.23647653
0.39000002 27246.56183095  2397.01639064
0.39100002 27431.67828485  1935.57931148
0.39200002 27618.47485820  1953.73100403
0.39300002 27805.33245966  2300.61331671
0.39400002 27993.58778348  1824.48217023
0.39500002 28181.30937454  2008.76382739
0.39600002 28369.42750735  2534.09923215
0.39700002 28557.51599619  2898.30243577
0.39800002 28746.68589842  2752.78277206
0.39900002 28934.86774127  2083.31057608
0.40000002 29122.98170396  1926.92217574
0.40100002 29310.73985030  2120.92523606
0.40200002 29499.24649878  2674.84430301
0.40300002 29686.13770472  1798.98003014
0.40400002 29872.67061445  2359.19427355
0.40500002 30058.73301790  2013.63462028
0.40600002 30244.15573843  2215.68695438
0.40700002 30428.52709138  2234.67113547
0.40800002 30612.34490574  2629.29442853
0.40900002 30794.37654513  1893.85424726
0.41000002 30976.15960516  3055.48852823
0.41100002 31156.53769514  2118.02153287
0.41200002 31334.96380667  2717.68153972
0.41300002 31512.69466127  2348.32611743
0.41400002 31688.67014334  2564.40575286
0.41500002 31863.77574287  2187.12967062
0.41600002 32036.07321120  2204.24212174
0.41700002 32207.59033161  2221.35761043
0.41800002 32378.27074216  3255.95906011
0.41900002 32545.11614989  3280.54786336
0.42000002 32710.94533242  2478.83555475
0.42100002 32875.51664636  2497.22436279
0.42200002 33037.82534993  2725.12515312
0.42300002 33197.70691901  2744.78653813
0.42400002 33355.44894206  2339.05096790
0.42500002 33511.54984200  2569.66576365
0.42600002 33663.97051741  3665.50160348
0.42700002 33815.64822535  2605.15766273
0.42800002 33964.36554016  2622.72843129
0.42900002 34111.31603755  3080.25198415
0.43000002 34255.82882798  2436.10338254
0.43100002 34396.45440888  2674.66842158
0.43200002 34535.52624536  4710.47332545
0.43300002 34671.73199263  3385.69478952
0.43400002 34805.70117404  2725.28653107
0.43500002 34936.43394739  3884.23291034
0.43600002 35065.69589306  2298.55647472
0.43700002 35191.10138853  2543.26101787
0.43800002 35313.09083094  2325.36714141
0.43900002 35433.47674770  3040.19244903
0.44000002 35550.14446632  2821.97060147
0.44100002 35664.65676698  2601.02354128
0.44200002 35776.00182417  2615.04697727
0.44300002 35884.75202959  3106.90197796
0.44400002 35989.87213330  2642.55648662
0.44500002 36091.30523793  2655.95927833
0.44600002 36190.53324335  2426.57536897
0.44700002 36287.02637097  3657.73243154
0.44800002 36379.21761256  3185.18254902
0.44900002 36469.80602848  2707.88322595
0.45000002 36556.96056636  2720.38634947
0.45100002 36639.64519447  2981.00167430
0.45200002 36720.26313542  2744.65619813
0.45300002 36797.03152556  4259.99254161
0.45400002 36871.25619984  3271.40236137
0.45500002 36942.13990952  2526.84248957
0.45600002 37009.47667833  3044.39969584
0.45700002 37073.61734239  3565.74068499
0.45800002 37133.93638797  3835.00746222
0.45900002 37191.34831795  2822.82347112
0.46000002 37246.14667145  3605.79963016
0.46100002 37296.42943554  3618.49975533
0.46200002 37344.37536642  3630.99378897
0.46300002 37388.49683120  3122.68740334
0.46400002 37428.90128655  3393.86578501
0.46500002 37467.03645857  3404.62976435
0.46600002 37500.84070230  3677.70762198
0.46700002 37531.52437917  2634.71313629
0.46800002 37559.44135434  2906.53750696
0.46900002 37583.42332782  2914.59461721
0.47000002 37603.61529357  3985.04331961
0.47100002 37621.00218304  3196.28049696
0.47200002 37634.93393195  2937.21855793
0.47300002 37646.16798423  3211.97120465
0.47400002 37652.53667966  3219.29203870
0.47500002 37656.89858710  3226.44322387
0.47600002 37658.11139515  2694.43799803
0.47700002 37654.82868123  2969.83647885
