# SAXS profile: number of points = 501, q_min = 0, q_max = 0.5, delta_q = 0.001
#    q    intensity    error
0.00000000 1664650.74656091 274.66737318
0.00100000 1664581.95737761 499.37459907
0.00200000 1664375.52556652 1423.04111942
0.00300000 1664031.64146021 1098.26092249
0.00400000 1663550.15196058 1372.42892752
0.00500000 1662931.51588686 1945.62995060
0.00600000 1662175.49780341 2443.39808125
0.00700000 1661282.70033173 2591.60112023
0.00800000 1660252.63522381 2689.60938262
0.00900000 1659086.55977640 2737.49294065
0.01000000 1657783.77383160 3555.94634841
0.01100000 1656345.42417586 4472.13283999
0.01200000 1654770.97768094 4194.84461234
0.01300000 1653061.90286893 3471.43014913
0.01400000 1651217.36230245 3715.23922988
0.01500000 1649239.13954266 3958.17411116
0.01600000 1647126.17541942 5880.24070911
0.01700000 1644880.52147996 4885.29536794
0.01800000 1642501.73812870 7021.69524646
0.01900000 1639990.62980767 5411.96932257
0.02000000 1637347.71687037 5673.41009560
0.02100000 1634574.70051518 6472.91610751
0.02200000 1631669.80592213 6192.18719480
0.02300000 1628635.84467089 5863.08930769
0.02400000 1625472.83000585 6705.07572951
0.02500000 1622181.97195025 6326.50997954
0.02600000 1618763.44772875 7211.59148948
0.02700000 1615218.51881850 8819.09351667
0.02800000 1611546.85930433 7010.22915946
0.02900000 1607751.14972454 8681.85660713
0.03000000 1603831.57897141 10440.94405902
0.03100000 1599788.44252684 9982.68034070
0.03200000 1595622.65904817 9477.99903129
0.03300000 1591337.43956432 8927.40344751
0.03400000 1586930.25972567 11663.93794716
0.03500000 1582404.85685153 11108.48260807
0.03600000 1577760.73693894 10507.88699362
0.03700000 1572999.74236623 9862.70884076
0.03800000 1568123.46692386 12842.93178847
0.03900000 1563132.81891610 10316.67708261
0.04000000 1558026.91625494 11498.23917478
0.04100000 1552809.65612772 11739.24154463
0.04200000 1547481.27337313 12975.63107921
0.04300000 1542042.14449736 18319.46152698
0.04400000 1536495.46068971 11408.47932545
0.04500000 1530841.30662648 11619.08605717
0.04600000 1525079.87415659 11826.99497388
0.04700000 1519214.35951145 12032.17828692
0.04800000 1513244.90898234 13346.82071823
0.04900000 1507174.25445803 13564.56892152
0.05000000 1501001.99250341 11482.66577735
0.05100000 1494731.53322305 13990.68780271
0.05200000 1488361.02993503 11832.47073939
0.05300000 1481895.84687643 15604.36399505
0.05400000 1475334.33576779 15822.96148900
0.05500000 1468680.71173633 13570.61040950
0.05600000 1461933.08540133 13749.48130981
0.05700000 1455096.92773239 12659.34386219
0.05800000 1448170.46073275 16661.20192868
0.05900000 1441155.83777427 23346.72566237
0.06000000 1434055.79458962 13121.61113352
0.06100000 1426871.96223935 13269.90986895
0.06200000 1419604.59270235 17439.84323655
0.06300000 1412256.97569497 23048.03492096
0.06400000 1404827.49631806 16436.48247560
0.06500000 1397322.09413076 16600.18725479
0.06600000 1389738.66806883 23743.68625489
0.06700000 1382080.15303500 15506.94004276
0.06800000 1374349.81707160 18491.87765429
0.06900000 1366547.96125289 20088.25597093
0.07000000 1358674.45460828 14469.88361918
0.07100000 1350734.32703896 17505.51769834
0.07200000 1342726.16247043 16173.13738462
0.07300000 1334654.73824875 17777.60194645
0.07400000 1326519.43582031 20892.68209329
0.07500000 1318322.77572094 15028.88034766
0.07600000 1310064.69254486 18157.49748991
0.07700000 1301750.70072666 18276.58069516
0.07800000 1293379.43799225 21457.16588255
0.07900000 1284952.60069205 20045.26151099
0.08000000 1276473.99500124 15509.15976682
0.08100000 1267944.21412275 17155.28602198
0.08200000 1259363.64833235 26654.43286772
0.08300000 1250735.93073508 20487.05550694
0.08400000 1242061.31352458 33256.19323062
0.08500000 1233343.81370676 20683.17672684
0.08600000 1224582.74162603 28765.44995138
0.08700000 1215781.38229479 19257.97799986
0.08800000 1206938.56126764 19335.15665956
0.08900000 1198060.58408162 21025.96423822
0.09000000 1189146.05225607 25970.95100127
0.09100000 1180197.20288497 22801.41103097
0.09200000 1171215.63305727 21239.99650349
0.09300000 1162204.45109798 22941.91694276
0.09400000 1153161.99383490 19719.07102132
0.09500000 1144092.86777376 23064.91329843
0.09600000 1134997.76158396 18165.64002808
0.09700000 1125879.90786616 21515.56605083
0.09800000 1116739.99220490 26533.74346234
0.09900000 1107579.92048534 19936.43950620
0.10000000 1098399.29375132 23297.05011606
0.10100000 1089201.36864790 18331.25989650
0.10200000 1079988.06105655 18354.39796098
0.10300000 1070759.95774157 28396.55541510
0.10400000 1061520.18954392 18390.83814905
0.10500000 1052271.51014182 18404.22957829
0.10600001 1043010.05395806 16740.31215372
0.10700001 1033743.43122994 30143.95987317
0.10800001 1024469.03913352 18425.07653593
0.10900001 1015190.98808565 21775.84771933
0.11000001 1005909.65462157 21772.91549912
0.11100001 996626.78931876 18417.66393359
0.11200001 987345.17725014 20082.60185070
0.11300001 978063.41569924 23414.83927423
0.11400001 968786.26259185 18382.72019822
0.11500001 959513.39635720 21704.19404761
0.11600001 950246.37209204 23347.55446177
0.11700001 940988.33025716 16655.49422994
0.11800001 931737.09677655 24947.26194117
0.11900001 922496.86626404 24907.41656231
0.12000001 913268.20336142 23206.14614054
0.12100001 904054.33726517 29779.55127237
0.12200001 894853.85666813 18161.05987667
0.12300001 885670.14751738 21415.50517595
0.12400001 876502.75730320 18077.87022116
0.12500001 867354.34100078 22950.19694431
0.12600001 858227.17342825 21253.99695151
0.12700001 849121.27564876 21194.06803899
0.12800001 840036.62813472 19505.65142457
0.12900001 830976.59947635 17824.44889887
0.13000001 821941.29975350 20996.49149187
0.13100001 812931.69153258 22534.46755150
0.13200001 803950.48877571 16038.81300715
0.13300001 794999.21603704 17577.43349523
0.13400001 786076.16319685 22285.26027728
0.13500001 777185.10622172 20610.94998877
0.13600001 768325.21676715 20525.80913374
0.13700001 759499.59989159 18865.97095090
0.13800001 750706.89269662 15652.23945082
0.13900001 741951.91475572 20255.28822803
0.14000001 733232.23647890 24812.58005262
0.14100001 724550.37908423 21606.09332330
0.14200001 715906.04339227 19963.04096156
0.14300001 707303.80825573 16805.53927683
0.14400001 698738.27420136 16717.31399882
0.14500001 690217.98868932 21162.08453148
0.14600001 681737.59831785 18038.77770246
0.14700001 673303.56664537 17936.80786163
0.14800001 664911.31812424 22291.15299178
0.14900001 656563.77049992 16249.95408656
0.15000001 648263.00825908 17619.78939583
0.15100001 640008.99701504 17510.64698457
0.15200001 631803.53608183 23199.82693966
0.15300001 623646.41458150 15846.85614231
0.15400001 615536.15939744 14311.21638135
0.15500001 607478.14981045 14214.98937641
0.15600001 599468.43914233 16940.97888969
0.15700001 591513.90783912 15420.76830518
0.15800001 583606.67250610 18094.72573510
0.15900001 575755.27151523 15199.93988545
0.16000001 567954.62437646 15087.71530874
0.16100001 560211.02917629 14974.44151674
0.16200001 552519.70370453 16210.92887194
0.16300001 544884.98090191 18765.83962816
0.16400001 537305.36295728 19947.46254150
0.16500001 529782.14030875 15829.89109978
0.16600001 522315.45487878 14392.40303869
0.16700001 514905.50292917 14273.18121510
0.16800001 507552.43732087 14153.10038295
0.16900001 500259.53351650 20410.58993122
0.17000001 493024.39618059 13910.68399509
0.17100001 485848.38566468 16295.35562468
0.17200001 478731.55735588 22361.55210007
0.17300001 471674.71341631 17234.99484215
0.17400001 464679.06508817 13417.60863808
0.17500001 457742.99801604 14501.29886201
0.17600001 450866.06308986 14364.59344847
0.17700001 444052.87052879 16598.69708433
0.17800001 437299.81784464 16438.10092919
0.17900001 430608.50766823 15114.35933306
0.18000001 423979.94093289 12662.16153406
0.18100001 417414.48307707 12534.95751891
0.18200001 410908.42931761 13535.32430110
0.18300001 404467.72025465 15628.63344893
0.18400001 398088.23518820 13256.33885801
0.18500001 391772.64004369 10930.45717360
0.18600001 385519.87032146 15139.36602276
0.18700001 379329.95214588 11766.81567149
0.18800001 373202.90688965 10580.30291020
0.18900001 367141.26101993 14648.93700682
0.19000001 361139.10012049 12415.96284878
0.19100001 355205.33993869 10229.91427360
0.19200001 349331.37438030 16181.03002587
0.19300001 343523.84244463 10996.19871625
0.19400001 337778.73367064 9880.02842674
0.19500001 332097.94274411 10740.04797587
0.19600001 326479.13572660 11576.95069995
0.19700001 320925.09795687 10484.62344573
0.19800001 315434.50527062 12240.43655549
0.19900001 310008.30270554 13020.34932897
0.20000001 304643.47700904 9185.00126592
0.20100001 299344.00156950 12698.17314672
0.20200001 294106.21566642 9851.08815934
0.20300001 288932.50116194 9725.46844878
0.20400001 283821.65273406 9600.26785749
0.20500001 278773.04266129 9475.49616793
0.20600001 273787.77714290 14451.88849960
0.20700001 268864.56886384 8388.57494507
0.20800001 264003.79779656 10759.47528780
0.20900001 259207.29962750 11431.04245393
0.21000001 254470.37839211 12080.98178526
0.21100001 249795.45317039 11120.89410087
0.21200001 245182.12229543 10183.63993097
0.21300001 240629.88392678 12358.75142275
0.21400001 236139.65023806 8377.05448823
0.21500001 231710.78914888 9759.65890036
0.21600001 227341.19660534 8879.94755924
0.21700001 223032.35042343 8751.78984440
0.21800001 218783.82135933 10780.57330719
0.21900001 214593.61111053 9206.06635192
0.22000001 210462.68419954 9767.57363554
0.22100001 206393.24713325 7560.18499996
0.22200001 202381.30491011 8123.58596321
0.22300001 198427.75867976 9334.04220966
0.22400001 194530.83637280 8535.04084945
0.22500001 190694.75088459 7111.00759675
0.22600001 186914.09623917 7637.31033349
0.22700001 183191.47613729 8144.69341422
0.22800001 179524.99408361 9250.02575759
0.22900001 175914.47233965 7282.85949927
0.23000001 172360.10186469 7166.73337446
0.23100001 168862.65993925 5876.42084380
0.23200001 165418.65804201 6359.52060919
0.23300001 162030.41674233 6824.72147596
0.23400001 158696.73430013 6153.46616352
0.23500001 155415.50389536 6051.88000792
0.23600001 152188.98065162 7574.44592528
0.23700001 149015.26564940 5851.82975883
0.23800001 145894.23330969 6276.37021385
0.23900001 142825.59512919 5141.72166785
0.24000001 139808.62748315 5559.49033483
0.24100001 136844.24471377 5960.93558169
0.24200001 133930.15396160 4881.75434282
0.24300001 131066.56589814 5756.44384654
0.24400001 128252.51024976 7541.24795941
0.24500001 125488.58765338 4630.52910345
0.24600001 122773.97584234 5913.40882618
0.24700001 120108.66594148 6255.25961814
0.24800001 117490.65747334 4827.10389065
0.24900001 114920.23426417 6464.26348317
0.25000001 112397.96610356 5924.49707360
0.25100001 109921.64413600 4570.54217940
0.25200001 107493.21295195 4895.24114942
0.25300001 105110.49741275 5206.12318316
0.25400001 102772.49081811 4717.25755173
0.25500001 100479.68616571 5015.94617071
0.25600001 98231.83561548  5680.25616321
0.25700001 96027.68963365  4459.52611758
0.25800001 93867.17461208  5105.43586871
0.25900001 91749.93271744  5009.54656340
0.26000001 89675.97031726  3861.89584444
0.26100001 87642.04956809  4477.63252430
0.26200001 85652.08022231  4392.66714205
0.26300001 83702.12193795  4308.98544126
0.26400001 81792.78996448  3251.26355493
0.26500001 79924.46152923  3826.78339910
0.26600001 78094.96896283  4378.78511695
0.26700001 76305.85591829  3987.74421899
0.26800001 74555.35286594  3910.80121965
0.26900001 72842.56482316  2950.12401494
0.27000001 71168.34310137  4339.48992596
0.27100001 69531.23922395  4255.31204188
0.27200001 67931.41374251  3059.97067684
0.27300001 66367.46895026  3818.78434412
0.27400001 64838.58464487  4011.88761476
0.27500001 63347.17975204  3147.08803902
0.27600001 61888.93323088  3342.93088667
0.27700001 60466.80659446  2773.61254975
0.27800001 59077.82197888  3214.12905688
0.27900001 57722.89395902  2666.79782712
0.28000001 56400.88526740  2615.02716919
0.28100001 55111.37043660  2331.21107980
0.28200001 53854.63540708  2286.12938123
0.28300001 52629.54910401  3811.43212651
0.28400001 51435.94736747  2198.88685403
0.28500001 50273.37862144  2156.72804494
0.28600001 49140.51576253  2327.04923408
0.28700001 48038.07752379  2282.76955198
0.28800001 46964.59373922  2239.50675846
0.28900001 45921.51313992  1997.58591614
0.29000001 44905.85949279  2352.16903157
0.29100001 43919.73339333  2116.05285505
0.29200001 42960.49220541  2076.92509398
0.29300001 42028.62871365  2594.84765961
0.29400001 41123.67488622  2729.58404978
0.29500001 40246.29731972  2323.01639126
0.29600001 39393.77362173  2105.99123751
0.29700001 38566.74996719  1723.93380514
0.29800001 37765.65857232  2032.54784058
0.29900001 36989.22423196  1997.41820308
0.30000001 36236.98656538  1636.10002088
0.30100001 35509.56759876  2252.01688372
0.30200001 34804.77584892  2372.81570583
0.30300001 34123.51379757  1711.63553312
0.30400001 33465.82100206  1531.06138333
0.30500001 32829.31963875  1808.23901131
0.30600001 32215.12253458  1928.55840184
0.30700001 31622.92075044  1753.17480941
0.30800001 31051.88602603  1871.03148108
0.30900001 30501.42618854  1701.97966190
0.31000001 29972.50326711  1677.86081233
0.31100001 29461.82892391  1654.57639070
0.31200001 28972.18456765  1632.29295582
0.31300001 28501.02157344  1745.11763357
0.31400001 28050.48920659  1457.92424554
0.31500001 27617.62474518  1570.89056988
0.31600002 27203.03280630  1940.25640678
0.31700002 26806.02128111  1406.51200322
0.31800002 26426.98224944  1770.34362471
0.31900002 26065.33167013  1626.47677323
0.32000002 25720.32122965  1609.96358360
0.32100002 25392.17864245  1226.44228650
0.32200002 25080.50289403  1579.69554958
0.32300002 24783.81548073  1565.84153622
0.32400002 24503.17118172  1552.88854717
0.32500002 24237.31743990  1540.76634261
0.32600002 23986.78564008  1294.20708049
0.32700002 23750.72374290  1519.09636253
0.32800002 23529.49490882  1277.29869161
0.32900002 23321.12376220  1269.83524898
0.33000002 23128.01136214  1148.30581851
0.33100002 22945.86063132  1714.05587033
0.33200002 22779.12367861  1365.38073795
0.33300002 22623.95802167  1473.49845573
0.33400002 22481.96137706  1242.69047397
0.33500002 22351.49848878  1126.51557718
0.33600002 22232.99842132  1348.65374810
0.33700002 22125.30536922  1233.92833888
0.33800002 22030.45071763  1568.34786086
0.33900002 21945.25732603  1231.12899429
0.34000002 21871.61625543  1789.97315911
0.34100002 21808.11247805  1454.38309004
0.34200002 21755.79531549  1567.07001079
0.34300002 21711.96682944  1568.47255804
0.34400002 21678.96597244  1234.07519643
0.34500002 21654.68630631  1461.04175428
0.34600002 21641.00561205  1126.41439545
0.34700002 21634.04729344  1355.15678664
0.34800002 21637.39994552  1359.26152895
0.34900002 21648.81521941  1591.18799399
0.35000002 21668.43568242  1711.26478907
0.35100002 21696.12214795  1260.11083403
0.35200002 21730.86577309  1725.97409577
0.35300002 21773.44854125  1618.63824122
0.35400002 21823.80893755  1626.96503335
0.35500002 21880.84459117  1285.28087216
0.35600002 21944.30239239  1410.14093853
0.35700002 22014.51507049  1536.83336986
0.35800002 22091.77892860  1308.60658682
0.35900002 22174.66608398  1317.17522778
0.36000002 22264.40210549  1928.98788979
0.36100002 22358.78386728  1699.71483010
0.36200002 22460.17220502  1834.43465174
0.36300002 22565.02618242  1232.05048792
0.36400002 22675.92966178  2110.56225324
0.36500002 22791.35452944  1751.74359211
0.36600002 22912.24393214  1765.84672349
0.36700002 23037.14549520  1907.47573736
0.36800002 23167.87523287  1410.57615037
0.36900002 23301.86598556  1422.57898580
0.37000002 23439.12079274  1434.82584729
0.37100002 23580.68566964  1842.12325177
0.37200002 23726.31925278  1327.48762508
0.37300002 23874.93119577  1339.38370353
0.37400002 24027.96619412  2297.67437616
0.37500002 24183.06988189  1500.31772654
0.37600002 24342.19913661  1651.86171166
0.37700002 24503.05126684  1528.25537991
0.37800002 24667.60573431  1542.58879767
0.37900002 24834.42038359  2123.34304338
0.38000002 25003.76774930  1714.75847348
0.38100002 25174.86624690  1586.77189471
0.38200002 25348.36833237  1456.26382968
0.38300002 25523.58028421  1911.20578222
0.38400002 25701.34112602  1632.67777238
0.38500002 25879.63493845  1648.27402732
0.38600002 26060.78723088  2117.96027859
0.38700002 26242.17754414  1832.75376651
0.38800002 26424.83267585  2312.83358952
0.38900002 26608.90493413  1712.28311363
0.39000002 26794.67315921  2514.41224838
0.39100002 26980.32652428  2379.66491218
0.39200002 27167.50981668  1921.82973548
0.39300002 27354.82230144  2263.33810445
0.39400002 27543.46360758  1631.95029607
0.39500002 27731.66042561  2141.43891952
0.39600002 27920.20925628  1662.64853998
0.39700002 28108.71879436  3188.37212390
0.39800002 28298.23376255  2371.10911930
0.39900002 28486.81230688  2051.05058327
0.40000002 28675.43360667  1897.31015448
0.40100002 28863.54455358  2088.56618285
0.40200002 29052.46570137  2458.71028880
0.40300002 29239.77298714  1949.12335967
0.40400002 29426.68946146  1787.67146948
0.40500002 29613.19215582  2705.16523161
0.40600002 29799.06244838  2183.07941840
0.40700002 29983.91647752  2202.01893044
0.40800002 30168.26052349  2035.90515789
0.40900002 30350.75236458  2053.22849475
0.41000002 30532.99810162  2258.83130659
0.41100002 30713.87910761  2087.92960067
0.41200002 30892.83816689  2487.95483966
0.41300002 31071.03466043  2701.31588137
0.41400002 31247.63994043  2139.68224631
0.41500002 31423.27151654  2156.89345910
0.41600002 31596.18719487  2766.87824376
0.41700002 31768.29608373  3784.55729178
0.41800002 31939.56056505  2208.14162430
0.41900002 32107.11241229  2427.29781339
0.42000002 32273.55355109  2853.30500466
0.42100002 32438.75673928  2464.04807867
0.42200002 32601.88709172  3102.88475099
0.42300002 32762.48853969  3125.54155479
0.42400002 32920.96090496  2518.45362857
0.42500002 33077.87659937  2747.77933932
0.42600002 33231.21086882  2554.15098841
0.42700002 33383.72180782  3214.85256243
0.42800002 33533.31206862  2157.86873387
0.42900002 33681.18440048  3258.65474516
0.43000002 33826.63243949  2405.58107993
0.43100002 33968.24783439  2421.25682037
0.43200002 34108.36398857  2658.40601524
0.43300002 34245.62134951  2452.32906105
0.43400002 34380.61910558  2467.66905324
0.43500002 34512.54305342  3385.68063398
0.43600002 34642.90401826  3860.43219222
0.43700002 34769.53508284  2969.66613215
0.43800002 34892.72702716  2527.45480199
0.43900002 35014.40218119  3004.23584952
0.44000002 35132.37194006  2788.80781676
0.44100002 35248.24651461  4206.52593840
0.44200002 35360.97757707  2819.68448562
0.44300002 35471.16371534  2598.61757694
0.44400002 35577.74810982  2612.29627876
0.44500002 35680.71182841  2387.03973444
0.44600002 35781.47502813  3598.72202150
0.44700002 35879.51405333  2893.32415038
0.44800002 35973.42378149  2907.37224781
0.44900002 36065.64958757  3408.20404755
0.45000002 36154.47403428  3179.60536963
0.45100002 36238.99485092  3931.20634774
0.45200002 36321.36085208  3208.44756292
0.45300002 36400.06122946  2726.72871593
0.45400002 36476.17836890  3236.34907916
0.45500002 36548.98927583  2749.94608344
0.45600002 36618.24389932  2761.19881209
0.45700002 36684.48602760  3024.26917145
0.45800002 36746.89843491  2783.02648487
0.45900002 36806.41380871  3555.49974243
0.46000002 36863.43678384  2549.10677442
0.46100002 36915.98822665  4349.07277910
0.46200002 36966.19285016  2824.03243663
0.46300002 37012.58925758  3606.50686819
0.46400002 37055.40279317  3876.92170098
0.46500002 37095.88052037  2852.30238840
0.46600002 37132.15873713  3901.66176423
0.46700002 37165.36452996  3391.71132776
0.46800002 37195.82830281  4186.76263220
0.46900002 37222.37456370  3149.01303734
0.47000002 37245.30265240  2631.38075711
0.47100002 37265.40944562  2902.23022518
0.47200002 37282.04829085  3438.70988709
0.47300002 37296.00438935  3977.61905665
0.47400002 37305.29829855  3987.00394463
0.47500002 37312.53356015  3463.34952921
0.47600002 37316.64441478  4806.01086197
0.47700002 37316.41956008  2943.14615020
