# SAXS profile: number of points = 501, q_min = 0, q_max = 0.5, delta_q = 0.001
#    q    intensity    error
0.00000000 1682732.95097188 328.13292544
0.00100000 1682663.58845069 555.27899738
0.00200000 1682455.44256037 832.81547044
0.00300000 1682108.69288696 1312.04482719
0.00400000 1681623.19771705 1513.46093545
0.00500000 1680999.43028986 2118.05936600
0.00600000 1680237.10285950 2822.79844773
0.00700000 1679336.87270661 2821.28606340
0.00800000 1678298.24773203 2718.84327612
0.00900000 1677122.45328667 2767.25216622
0.01000000 1675808.82357759 3871.11854962
0.01100000 1674358.48331653 3917.99902155
0.01200000 1672770.92803940 3914.28414323
0.01300000 1671047.61695634 4211.04018046
0.01400000 1669187.68921617 5633.50870084
0.01500000 1667192.98824294 4401.38968495
0.01600000 1665062.37306348 4670.50016523
0.01700000 1662797.95683414 5836.42109030
0.01800000 1660399.31119187 6151.77972478
0.01900000 1657867.23265938 6963.04269136
0.02000000 1655202.19071709 5213.88713661
0.02100000 1652405.98792161 7088.82200958
0.02200000 1649476.80414022 9674.18189580
0.02300000 1646417.37459093 5927.10281832
0.02400000 1643227.85314648 6778.31520330
0.02500000 1639909.45009434 6395.64714746
0.02600000 1636462.19486548 8615.97385005
0.02700000 1632887.50996726 8229.75342717
0.02800000 1629185.04482217 8504.34632398
0.02900000 1625357.37124020 8045.51935704
0.03000000 1621404.74338731 10555.34536463
0.03100000 1617327.62450900 10092.12484131
0.03200000 1613126.66566994 10380.47057169
0.03300000 1608805.23964243 9025.39781047
0.03400000 1604360.91529009 8422.89519391
0.03500000 1599797.24201484 11230.57715755
0.03600000 1595113.70450970 13279.32220373
0.03700000 1590312.46044754 9971.25958815
0.03800000 1585394.75761266 11129.47171351
0.03900000 1580361.78786922 9482.17116633
0.04000000 1575212.54924620 11625.06915213
0.04100000 1569950.80853007 13846.96677327
0.04200000 1564577.09289865 15137.28407606
0.04300000 1559091.57354473 12348.00583564
0.04400000 1553497.51732044 12583.33047469
0.04500000 1547795.01245416 13883.72190682
0.04600000 1541984.28356347 14132.28661582
0.04700000 1536068.38627242 14377.60076418
0.04800000 1530047.78198633 12370.43689293
0.04900000 1523924.91043449 16001.21230438
0.05000000 1517699.61802227 12771.44288037
0.05100000 1511375.09853274 14146.47158127
0.05200000 1504949.67528939 13160.78552372
0.05300000 1498428.52812937 12137.27164366
0.05400000 1491810.29841949 14768.92264308
0.05500000 1485098.99231668 12474.83211740
0.05600000 1478292.79812522 15167.28481653
0.05700000 1471397.20318243 15361.38751827
0.05800000 1464410.43242092 20736.05269130
0.05900000 1457334.58575639 19674.01782660
0.06000000 1450172.56099546 17249.80341893
0.06100000 1442925.94025493 16103.05424576
0.06200000 1435594.82130161 16279.64603453
0.06300000 1428182.72095278 16452.66571463
0.06400000 1420687.93793896 18007.22045551
0.06500000 1413116.41686550 20984.77977207
0.06600000 1405465.98149296 19774.90728484
0.06700000 1397739.72531649 15682.64045198
0.06800000 1389940.98572309 18701.65683831
0.06900000 1382069.82721080 17414.08063816
0.07000000 1374126.44857024 17561.33683510
0.07100000 1366115.52200922 20655.66766024
0.07200000 1358035.86547458 16357.54276594
0.07300000 1349892.26615772 25472.46825592
0.07400000 1341684.09618832 21131.52550528
0.07500000 1333413.79964266 16721.00983127
0.07600000 1325081.51381325 19896.09986265
0.07700000 1316692.51502941 18486.36377781
0.07800000 1308245.60408654 15502.71113544
0.07900000 1299742.50654585 17156.60189111
0.08000000 1291186.96694222 17256.71462271
0.08100000 1282579.81498348 18930.87895736
0.08200000 1273921.06234643 17446.34976751
0.08300000 1265214.44364471 25506.72438096
0.08400000 1256460.48259959 17621.85909561
0.08500000 1247662.96418725 17704.33829295
0.08600000 1238821.31140012 19399.94264738
0.08700000 1229938.89493736 17858.71359309
0.08800000 1221014.54956169 22820.76300306
0.08900000 1212054.33312310 19635.28111886
0.09000000 1203056.96443893 19706.07400321
0.09100000 1194024.91763944 24716.31695634
0.09200000 1184959.45443111 19836.22219922
0.09300000 1175864.17642348 16579.68566669
0.09400000 1166737.16918427 19951.20653071
0.09500000 1157582.79151578 16669.19298132
0.09600000 1148401.90974326 23392.94800112
0.09700000 1139198.08354090 18420.83387687
0.09800000 1129971.63278699 20136.09544302
0.09900000 1120724.59794567 18491.95673564
0.10000000 1111456.41348640 21890.13509305
0.10100000 1102170.84859628 18549.53625429
0.10200000 1092869.51951407 23638.76881897
0.10300000 1083552.84178766 21974.45266515
0.10400000 1074224.31789789 16919.03380285
0.10500000 1064886.39596445 23704.37228944
0.10600001 1055535.52150184 20329.61510071
0.10700001 1046178.87624000 25422.14788894
0.10800001 1036814.17646544 22037.48635789
0.10900001 1027445.79509735 20343.42770040
0.11000001 1018073.89554889 18646.02427464
0.11100001 1008699.91185678 22030.00711198
0.11200001 999326.96499923 23714.02999582
0.11300001 989953.54792124 25392.30969967
0.11400001 980584.65902860 21989.61201408
0.11500001 971219.79588468 25348.83786622
0.11600001 961860.72182578 27009.05034076
0.11700001 952510.06904681 16859.42901612
0.11800001 943166.45585485 18519.07423293
0.11900001 933833.49366805 21851.70478108
0.12000001 924511.84448741 21813.85799822
0.12100001 915205.07195906 20097.90432700
0.12200001 905911.13049764 20056.87337412
0.12300001 896634.24276716 20012.87724146
0.12400001 887373.41744314 24957.37854152
0.12500001 878131.50658058 23235.36075898
0.12600001 868910.68454186 18208.02425260
0.12700001 859710.95033460 21458.38633161
0.12800001 850532.60924913 16457.80676461
0.12900001 841378.63417940 19688.26096775
0.13000001 832249.76035130 17989.07941791
0.13100001 823146.04778585 16298.29251442
0.13200001 814070.93230402 21112.93062458
0.13300001 805025.76488868 17799.12050079
0.13400001 796008.85098021 17731.09799153
0.13500001 787023.69891721 22477.39790084
0.13600001 778070.03670154 17588.27400894
0.13700001 769150.45882938 27066.40592248
0.13800001 760264.02724636 15851.50571558
0.13900001 751415.36259464 18935.66803036
0.14000001 742601.93024969 20417.84103513
0.14100001 733826.52465829 21882.70799736
0.14200001 725088.79160388 24885.04850156
0.14300001 716393.34717554 21663.73584041
0.14400001 707734.54133279 16932.54970009
0.14500001 699120.89614576 24497.19735653
0.14600001 690547.78791312 16749.23738597
0.14700001 682020.89753049 19683.12403131
0.14800001 673535.90280109 16558.88095159
0.14900001 665095.91626343 19454.05646856
0.15000001 656702.98154784 16361.75555726
0.15100001 648356.68139598 20695.54624668
0.15200001 640059.32542996 22034.04331765
0.15300001 631810.49940490 18973.27019246
0.15400001 623608.93981817 17398.69024199
0.15500001 615459.70295292 14401.75772876
0.15600001 607359.12984343 14303.30818286
0.15700001 599313.66563233 19885.22836420
0.15800001 591315.98867846 21154.33049343
0.15900001 583374.24673020 16801.17909886
0.16000001 575483.87242540 22236.69788014
0.16100001 567650.74523150 13793.91376026
0.16200001 559870.04755479 19164.35263247
0.16300001 552146.30172468 19015.91952910
0.16400001 544477.93910594 16170.99555487
0.16500001 536866.54942271 13367.97771175
0.16600001 529311.75339651 19888.89007289
0.16700001 521813.99879928 18409.59874684
0.16800001 514373.71190044 16951.18647605
0.16900001 506994.01427333 14221.18277186
0.17000001 499672.21847157 17943.23021259
0.17100001 492410.05546225 12704.18003083
0.17200001 485207.62776450 13850.25238859
0.17300001 478065.15268114 12477.50107422
0.17400001 470984.63229388 16072.35133606
0.17500001 463964.00774060 17148.11053596
0.17600001 457003.05688924 14560.11808015
0.17700001 450106.03035317 12017.83157804
0.17800001 443269.93481341 16662.51763664
0.17900001 436495.64526071 15320.99787232
0.18000001 429784.63341914 17502.98002275
0.18100001 423137.39272048 13861.98164031
0.18200001 416549.82067969 21725.15692380
0.18300001 410028.21440252 12448.45717732
0.18400001 403568.26297487 17918.43172256
0.18500001 397172.81650334 14405.45873512
0.18600001 390840.45675992 12059.38286305
0.18700001 384571.57977955 10844.91906215
0.18800001 378365.92602922 13944.67686264
0.18900001 372226.47656516 12730.14610000
0.19000001 366146.78699542 14686.14832029
0.19100001 360136.06468684 15557.87872958
0.19200001 354185.86257339 10253.68120600
0.19300001 348302.50724612 16216.96550367
0.19400001 342481.97078590 14024.63736640
0.19500001 336726.39132178 9899.75637267
0.19600001 331033.55146425 19564.08381606
0.19700001 325405.72427668 15463.28074838
0.19800001 319842.11028244 10502.01618744
0.19900001 314343.37638965 16031.51295352
0.20000001 308906.68200287 12107.59797332
0.20100001 303535.73990362 9197.13335376
0.20200001 298227.12748471 18162.03292222
0.20300001 292983.35555083 15240.99487611
0.20400001 287802.90934684 12389.91583300
0.20500001 282685.30665487 10481.97166621
0.20600001 277631.63680048 13792.74036820
0.20700001 272640.66224469 11908.94468977
0.20800001 267712.61272519 10071.34896680
0.20900001 262849.56922114 11591.66655060
0.21000001 258046.67799783 8983.89551918
0.21100001 253306.45706594 8055.14571549
0.21200001 248628.45324590 7943.67945674
0.21300001 244012.20041634 12532.46720586
0.21400001 239458.40607164 8494.78735700
0.21500001 234966.75092941 12180.67694405
0.21600001 230534.82114816 7503.90878315
0.21700001 226164.54706158 9614.25535015
0.21800001 221854.94963798 7287.93544019
0.21900001 217604.46145902 7180.94756767
0.22000001 213413.88148658 9197.07165752
0.22100001 209285.55997001 8363.05137184
0.22200001 205215.25379605 7550.89562047
0.22300001 201204.06598415 9464.63971143
0.22400001 197250.01435614 10651.50127890
0.22500001 193357.35418625 9176.74046362
0.22600001 189521.08788925 7098.51268257
0.22700001 185743.42117563 6987.66783507
0.22800001 182022.36600202 6252.46856785
0.22900001 178358.07497174 7384.02465303
0.23000001 174750.58838577 6055.10817392
0.23100001 171200.54657895 7149.33516325
0.23200001 167704.62536580 7033.53232048
0.23300001 164265.30350552 5765.71242573
0.23400001 160881.11367504 7372.37738284
0.23500001 157549.98047564 7808.17740167
0.23600001 154274.16656121 6032.89156871
0.23700001 151051.88391880 6471.06301315
0.23800001 147883.11405393 7422.25384543
0.23900001 144767.17322239 5211.61848251
0.24000001 141703.64376663 7171.62175025
0.24100001 138693.25278499 5538.02184566
0.24200001 135733.79317919 5442.24669495
0.24300001 132825.66096547 6805.98718981
0.24400001 129967.67707087 5253.94359412
0.24500001 127160.38354255 6099.88388709
0.24600001 124402.93148188 5070.04171238
0.24700001 121695.72778976 6790.62193191
0.24800001 119036.32420599 6224.40968719
0.24900001 116425.09632233 5675.72371422
0.25000001 113862.72512897 4715.62498430
0.25100001 111347.14342034 5471.59888653
0.25200001 108879.85614983 6197.98610455
0.25300001 106458.91782524 5272.91044935
0.25400001 104083.42077826 4379.31013644
0.25500001 101753.62451716 3907.33936632
0.25600001 99469.56030974  4218.00690450
0.25700001 97229.77080437  4891.63000061
0.25800001 95034.29679967  4061.29086589
0.25900001 92882.65254645  4709.15070692
0.26000001 90774.87453566  3909.22015684
0.26100001 88707.78187136  3486.21599250
0.26200001 86685.44949263  3761.71525873
0.26300001 84703.52893214  4695.96386620
0.26400001 82762.88480521  3618.80730934
0.26500001 80863.88452328  3549.11605967
0.26600001 79004.30306668  4113.35923381
0.26700001 77185.63580867  4654.29405951
0.26800001 75406.31720664  3955.43855625
0.26900001 73665.22518886  4773.50681813
0.27000001 71963.33777240  2925.30981888
0.27100001 70299.12052532  2868.20425316
0.27200001 68672.71111502  3374.57718389
0.27300001 67082.85466002  3308.52654841
0.27400001 65528.54842830  2973.35802565
0.27500001 64012.43530860  3710.16092607
0.27600001 62529.92057855  3117.74198760
0.27700001 61084.03464412  3566.08611129
0.27800001 59672.00376510  2747.00082333
0.27900001 58294.51391588  4162.22849058
0.28000001 56950.51733670  2640.51086129
0.28100001 55639.65287172  2824.26891344
0.28200001 54361.90061839  2769.19534857
0.28300001 53116.38655689  2489.03399186
0.28400001 51902.98872320  2440.73816023
0.28500001 50721.08716858  2828.71516528
0.28600001 49569.50083599  2774.15724559
0.28700001 48448.68045623  2302.28140425
0.28800001 47357.42244972  2463.53323244
0.28900001 46297.23534308  2215.32281603
0.29000001 45264.82187596  2173.39052525
0.29100001 44262.38443639  3489.64655415
0.29200001 43287.44253411  2663.47646520
0.29300001 42340.36634161  2987.53639048
0.29400001 41420.56811471  2566.00431617
0.29500001 40528.82018553  1979.42767156
0.29600001 39662.53896858  2120.35943363
0.29700001 38822.13327331  1735.34943946
0.29800001 38008.23481688  1704.66941223
0.29900001 37219.24510613  2679.78577450
0.30000001 36455.13874739  1810.54455160
0.30100001 35716.28293860  1941.53723246
0.30200001 35000.40830880  1590.76863294
0.30300001 34308.38490923  2033.80115370
0.30400001 33640.49598848  2154.67387007
0.30500001 32994.27222276  1665.88088339
0.30600001 32370.61439915  2385.06698185
0.30700001 31769.42275932  1908.07162126
0.30800001 31189.83967820  1734.77896503
0.30900001 30631.38479147  1424.35946024
0.31000001 30094.60955545  2386.65312379
0.31100001 29576.57135194  1937.85704673
0.31200001 29079.91332514  1638.36239431
0.31300001 28602.25309748  1616.59942161
0.31400001 28145.51433600  1994.81342301
0.31500001 27706.77594027  1707.29161427
0.31600002 27286.70766526  2075.97281747
0.31700002 26884.58677822  2051.83176006
0.31800002 26500.75085650  1268.06098852
0.31900002 26134.62450186  1379.90823904
0.32000002 25785.63694257  1365.73632533
0.32100002 25453.83644029  1721.18850159
0.32200002 25138.57084915  1339.76019684
0.32300002 24838.77675356  1810.74691107
0.32400002 24555.38444802  1436.49005823
0.32500002 24287.03269255  1425.16314588
0.32600002 24034.34208655  1650.43834924
0.32700002 23796.43616297  1639.09860052
0.32800002 23573.63700030  1396.03084926
0.32900002 23363.94220625  1387.81823277
0.33000002 23169.87884768  1265.42299319
0.33100002 22986.92207356  1259.22365082
0.33200002 22819.83076649  1139.85060076
0.33300002 22664.28465911  1362.57685823
0.33400002 22522.40971999  1923.97694144
0.33500002 22392.29114328  1805.71444331
0.33600002 22274.30959758  1125.96640348
0.33700002 22167.42488888  1123.88849509
0.33800002 22073.60402219  1122.44281768
0.33900002 21989.67677615  1121.47356869
0.34000002 21917.48891372  1233.18757213
0.34100002 21855.76432814  1906.04129732
0.34200002 21805.30391563  1458.44782147
0.34300002 21763.63404886  1459.90464114
0.34400002 21732.98736808  1124.68214956
0.34500002 21711.23028573  1352.17548623
0.34600002 21700.23532066  1468.34649251
0.34700002 21696.10469799  1245.79039076
0.34800002 21702.61968507  1931.42473035
0.34900002 21717.20175446  1482.19908994
0.35000002 21740.28975462  1259.08894077
0.35100002 21771.57354985  1609.35479303
0.35200002 21809.99835382  1154.83946753
0.35300002 21856.51529827  1624.81342423
0.35400002 21910.90300353  1166.75564020
0.35500002 21972.11625971  1525.30438299
0.35600002 22039.84950342  1652.32759553
0.35700002 22114.56016437  1306.30713078
0.35800002 22196.31925484  1912.43495758
0.35900002 22283.96318666  1444.00088289
0.36000002 22378.39171447  1575.32695936
0.36100002 22477.77638519  1708.76064174
0.36200002 22584.14505125  1967.53081006
0.36300002 22694.17405650  1363.01215839
0.36400002 22810.27985943  1248.86288146
0.36500002 22930.98863590  1888.36700361
0.36600002 23057.24270907  1269.30127126
0.36700002 23187.65785974  1279.95877449
0.36800002 23323.98369989  1549.17907073
0.36900002 23463.57233234  1823.11965658
0.37000002 23606.47865805  1576.44071946
0.37100002 23753.73547728  1325.45850242
0.37200002 23905.20053610  1337.49603335
0.37300002 24059.67651653  1349.74791652
0.37400002 24218.61935711  1498.52714371
0.37500002 24379.69189218  1925.02056300
0.37600002 24544.83991624  1526.81183932
0.37700002 24711.72898715  1541.27060994
0.37800002 24882.25138612  1838.92287580
0.37900002 25055.18427864  2285.03291446
0.38000002 25230.63190402  2451.28215876
0.38100002 25407.87284434  2620.56812931
0.38200002 25587.57064958  1911.00780450
0.38300002 25768.85821776  1632.71493403
0.38400002 25952.70615588  2847.66081786
0.38500002 26137.31017942  2118.69046352
0.38600002 26324.56035453  1833.76896117
0.38700002 26512.10287297  1697.30490634
0.38800002 26700.89084147  1869.59646529
0.38900002 26891.13935498  1887.75807215
0.39000002 27082.94370317  1747.25619579
0.39100002 27274.67960228  2245.25173123
0.39200002 27467.91357080  1619.23358171
0.39300002 27661.28131078  1798.25998321
0.39400002 27855.97728774  2145.60675224
0.39500002 28050.10641960  2665.88224042
0.39600002 28244.61955884  1681.96717442
0.39700002 28438.90004482  1697.80241311
0.39800002 28634.45202338  2399.28084871
0.39900002 28828.86965701  2075.67871365
0.40000002 29023.11803166  2793.18501171
0.40100002 29216.97350696  1937.96194454
0.40200002 29411.58682146  2666.89576139
0.40300002 29604.46960328  1794.03094296
0.40400002 29797.01694934  1991.18575198
0.40500002 29988.90763874  2191.58947408
0.40600002 30180.24842060  2211.00510405
0.40700002 30370.38160150  2044.53418629
0.40800002 30559.97351543  2249.82535681
0.40900002 30747.69711424  2458.27850076
0.41000002 30935.10072541  2670.00867012
0.41100002 31120.99193363  2307.93287115
0.41200002 31304.87093161  2909.00526916
0.41300002 31488.00279608  2150.94557292
0.41400002 31669.34778555  2562.84209098
0.41500002 31849.72339852  2782.39196793
0.41600002 32027.29462491  2203.63811108
0.41700002 32203.89609583  4038.36876177
0.41800002 32379.63361776  2849.08409703
0.41900002 32551.48995814  3691.33913616
0.42000002 32722.21584882  2686.33043740
0.42100002 32891.59551849  2498.44571397
0.42200002 33058.72919636  2307.33411359
0.42300002 33223.27896340  2958.20089908
0.42400002 33385.57516242  2341.16356920
0.42500002 33546.22919713  2786.68539146
0.42600002 33703.13947351  2374.55480413
0.42700002 33859.19089222  2825.88820577
0.42800002 34012.23192831  2626.42467396
0.42900002 34163.41416174  3084.95644499
0.43000002 34312.03256650  2440.10031160
0.43100002 34456.73808753  3349.19510082
0.43200002 34599.79525164  3146.15953132
0.43300002 34739.88723391  3844.66350237
0.43400002 34877.66340435  2958.49793847
0.43500002 35012.15049693  4121.63055182
0.43600002 35145.01348714  2994.88246623
0.43700002 35274.03616454  2549.25471442
0.43800002 35399.51118458  2331.05792197
0.43900002 35523.32706113  2813.44763657
0.44000002 35643.35255046  2829.36945954
0.44100002 35761.03796122  2845.14831503
0.44200002 35875.59528646  3337.50678766
0.44300002 35987.38659750  2636.43606708
0.44400002 36095.54852349  2891.25357375
0.44500002 36199.88447301  2421.77238601
0.44600002 36301.98625878  2434.04829400
0.44700002 36401.19774820  3669.24090691
0.44800002 36496.01313268  2703.80726107
0.44900002 36589.25244010  3210.70705378
0.45000002 36678.92409633  2729.46226598
0.45100002 36764.09101292  2492.60548881
0.45200002 36847.01024285  2754.12991113
0.45300002 36926.02580692  3520.52746728
0.45400002 37002.47029225  3283.04433227
0.45500002 37075.47858847  3043.15542677
0.45600002 37144.90508306  2546.28336412
0.45700002 37210.97685448  3067.67307727
0.45800002 37273.14522131  2822.88178712
0.45900002 37332.36001449  3091.11955570
0.46000002 37388.88123426  3619.61776384
0.46100002 37440.83949794  2854.11533020
0.46200002 37490.36079675  3384.81738496
0.46300002 37536.01369965  3396.25868051
0.46400002 37577.88780489  2621.05779862
0.46500002 37617.31256045  2629.45027260
0.46600002 37652.41597862  3428.81742360
0.46700002 37684.29155031  3174.52487066
0.46800002 37713.41990680  3449.08098105
0.46900002 37738.44969594  2926.61691263
0.47000002 37759.66557168  2667.72049908
0.47100002 37778.02008810  2942.15234391
0.47200002 37792.76294164  3485.81565514
0.47300002 37804.78870804  4300.67296727
0.47400002 37811.93881515  4579.97130606
0.47500002 37816.94150374  2970.14272648
0.47600002 37818.78824508  3788.30819807
0.47700002 37816.08048872  3253.69571947
