# SAXS profile: number of points = 501, q_min = 0, q_max = 0.5, delta_q = 0.001
#    q    intensity    error
0.00000000 1682732.95097189 530.06087956
0.00100000 1682663.51951936 504.79906784
0.00200000 1682455.16423850 1135.65727182
0.00300000 1682108.06086158 1211.11784696
0.00400000 1681622.06463747 1513.45991568
0.00500000 1680997.66176303 2118.05713766
0.00600000 1680234.56912229 2293.52028023
0.00700000 1679333.43063541 3022.80030077
0.00800000 1678293.74385222 2945.40564482
0.00900000 1677116.78386447 3018.81034000
0.01000000 1675801.79846213 3594.59501291
0.01100000 1674350.00115594 3315.21314663
0.01200000 1672760.83615553 3588.07215087
0.01300000 1671035.77193247 4561.92785858
0.01400000 1669173.95862695 4506.76988808
0.01500000 1667177.24868192 4801.47069001
0.01600000 1665044.51004693 4670.45005947
0.01700000 1662777.82576069 4938.45036404
0.01800000 1660376.75213901 4732.07395653
0.01900000 1657842.09907436 5968.23182597
0.02000000 1655174.38930186 6256.55947458
0.02100000 1652375.38157370 6543.40680770
0.02200000 1649443.26665526 8535.86929275
0.02300000 1646380.79213439 6519.66823362
0.02400000 1643188.10138604 10475.32462399
0.02500000 1639866.35186474 7035.02697079
0.02600000 1636415.72637751 9941.22599244
0.02700000 1632837.47734844 8229.50126276
0.02800000 1629131.30886244 8504.06582226
0.02900000 1625299.80382831 7313.84945304
0.03000000 1621343.32608058 10554.94553795
0.03100000 1617262.10383873 10091.71599231
0.03200000 1613057.08241366 11178.48609599
0.03300000 1608731.44863702 12306.79614942
0.03400000 1604282.67369704 9264.73286808
0.03500000 1599714.52891517 8638.45885505
0.03600000 1595026.53678031 8852.39768823
0.03700000 1590220.60556749 10877.10944512
0.03800000 1585298.11390732 11128.79327467
0.03900000 1580260.27169244 11377.87448310
0.04000000 1575106.00589366 11624.28286215
0.04100000 1569839.26781729 18790.97690705
0.04200000 1564460.34011632 10090.76966189
0.04300000 1558969.53763062 13375.95925376
0.04400000 1553370.22291167 12582.29938993
0.04500000 1547662.27752000 10678.87021108
0.04600000 1541845.97629000 15218.02049342
0.04700000 1535924.64452086 12164.52375035
0.04800000 1529898.28830461 15742.65411913
0.04900000 1523769.65146408 14856.75479332
0.05000000 1517538.51824184 15091.92126669
0.05100000 1511208.09855237 12966.16608960
0.05200000 1504776.68637622 15551.86777843
0.05300000 1498249.55401524 15776.56853925
0.05400000 1491625.28079910 15997.68188260
0.05500000 1484907.82557171 13720.54894834
0.05600000 1478095.33883991 18956.57360521
0.05700000 1471193.48164870 16639.19905414
0.05800000 1464200.33134019 15549.80824489
0.05900000 1457118.17584450 13114.06419510
0.06000000 1449949.62950144 14593.74370273
0.06100000 1442696.47216926 16100.49338181
0.06200000 1435359.04662600 16276.97234958
0.06300000 1427940.25377380 15079.04978488
0.06400000 1420438.82123709 16619.13498570
0.06500000 1412860.66191349 19582.24969014
0.06600000 1405203.64817787 22595.67571992
0.06700000 1397470.73241132 18530.46277898
0.06800000 1389665.19967580 14383.03548990
0.06900000 1381787.42347077 14508.76862573
0.07000000 1373837.24510791 14631.36734556
0.07100000 1365819.48841465 16225.93628235
0.07200000 1357733.02090383 17840.61273045
0.07300000 1349582.58769854 16478.40416790
0.07400000 1341367.64925241 18108.46411355
0.07500000 1333090.47503457 31914.18746822
0.07600000 1324751.36771390 16830.96691585
0.07700000 1316355.71726436 20021.77139838
0.07800000 1307901.83359876 18598.36494597
0.07900000 1299391.87651114 18711.24389939
0.08000000 1290829.60944494 17251.93853954
0.08100000 1282215.49213592 18925.50155188
0.08200000 1273550.01914174 15855.69848235
0.08300000 1264836.82269678 19124.33365672
0.08400000 1256075.97308621 19217.96329028
0.08500000 1247271.85248964 17698.78841770
0.08600000 1238423.50086066 19393.71293404
0.08700000 1229534.28590143 17852.83866962
0.08800000 1220603.20170766 19554.06420969
0.08900000 1211636.45483057 19628.51149020
0.09000000 1202632.45769377 21340.71396427
0.09100000 1193594.03163848 19765.91809256
0.09200000 1184522.13849219 21481.30999089
0.09300000 1175420.38639920 21545.45669516
0.09400000 1166286.83865644 21605.46470151
0.09500000 1157126.17422271 23327.66476879
0.09600000 1147939.03219713 20043.01644434
0.09700000 1138728.89345469 21761.11017697
0.09800000 1129496.41772971 20127.62711030
0.09900000 1120243.23692638 18484.01427845
0.10000000 1110969.19401789 16831.18408089
0.10100000 1101677.49293370 16855.66643464
0.10200000 1092370.03124685 20252.54133192
0.10300000 1083047.75590340 18585.10036556
0.10400000 1073713.53429922 18602.08785687
0.10500000 1064369.82274498 22000.52527125
0.10600001 1055013.21778670 18626.25923646
0.10700001 1045651.07440958 23715.36748360
0.10800001 1036281.08500433 30497.75376695
0.10900001 1026907.40308264 22027.16483285
0.11000001 1017529.94100585 20330.24917823
0.11100001 1008151.00144061 20324.32514578
0.11200001 998772.88437918 22007.96154337
0.11300001 989394.48316357 20302.37575037
0.11400001 980020.66556193 28739.10737077
0.11500001 970651.20107244 21956.13120213
0.11600001 961287.35331641 18557.65322968
0.11700001 951932.12392009 25273.79908035
0.11800001 942583.88812277 20190.14783451
0.11900001 933246.62329188 20158.12801259
0.12000001 923920.78734716 21799.91200434
0.12100001 914609.87010347 16737.36141136
0.12200001 905311.97508375 18373.30739992
0.12300001 896031.02748867 18332.79568616
0.12400001 886766.47219849 18289.55935085
0.12500001 877520.74413044 23219.19998379
0.12600001 868296.49610404 16541.04903025
0.12700001 859093.30507491 18144.05145825
0.12800001 849911.58922314 19734.94803185
0.12900001 840754.44334853 18034.18365981
0.13000001 831622.43497379 17975.51977923
0.13100001 822515.84087638 17914.39585873
0.13200001 813438.05765125 16228.09001514
0.13300001 804390.00975078 16168.23995821
0.13400001 795370.52066443 17716.87918307
0.13500001 786383.09611622 20854.88069227
0.13600001 777427.21004850 23964.19487967
0.13700001 768505.60279836 22271.29341926
0.13800001 759616.97935030 20589.41919620
0.13900001 750766.51464780 23649.14632666
0.14000001 741951.25851975 17261.49684352
0.14100001 733174.35135428 20301.59874648
0.14200001 724435.08371442 15539.13327858
0.14300001 715738.39901772 17005.94516279
0.14400001 707078.30783602 18454.74470503
0.14500001 698463.76857784 18355.62870410
0.14600001 689889.65754103 15212.06766640
0.14700001 681361.93380983 19664.10633744
0.14800001 672876.43302985 15038.78898773
0.14900001 664435.98517646 16444.79140900
0.15000001 656042.66106524 16345.30367166
0.15100001 647696.23079535 16244.22223483
0.15200001 639399.04134025 17609.05042943
0.15300001 631150.26552355 24785.27209670
0.15400001 622948.87295680 18828.63057366
0.15500001 614799.93750947 21579.47882498
0.15600001 606700.00008194 17145.34281149
0.15700001 598655.12906852 15606.93995141
0.15800001 590658.26178701 14087.20020852
0.15900001 582717.68860435 16782.27022394
0.16000001 574828.35806376 16658.52660301
0.16100001 566996.54573290 19289.22339637
0.16200001 559217.40559800 17774.72607601
0.16300001 551495.14853056 16280.13755317
0.16400001 543828.51007328 22881.58564156
0.16500001 536218.88825362 20027.77642181
0.16600001 528666.01661747 21188.93494642
0.16700001 521170.71056539 17073.55328425
0.16800001 513732.58969948 15627.74611654
0.16900001 506355.24475719 12912.05935099
0.17000001 499036.01100594 16640.35657275
0.17100001 491776.57908379 19031.75450925
0.17200001 484576.88679422 17604.67912858
0.17300001 477437.56623145 16199.45738724
0.17400001 470360.06179769 13581.64742582
0.17500001 463342.69507465 14678.69727320
0.17600001 456385.16758715 13328.72944889
0.17700001 449491.62097203 13201.56953147
0.17800001 442659.10682447 14262.47709553
0.17900001 435888.79716087 15299.69750301
0.18000001 429181.58190262 12817.50854896
0.18100001 422538.33566051 14995.88624094
0.18200001 415955.01174536 12559.76217295
0.18300001 409437.68888100 15820.67304572
0.18400001 402982.22505597 16774.13591038
0.18500001 396591.17335552 15490.85196309
0.18600001 390263.65770973 12041.58572752
0.18700001 383999.54393111 14077.42394560
0.18800001 377798.69015893 11781.65270924
0.18900001 371664.18513979 11651.67275464
0.19000001 365589.73562838 11521.56106271
0.19100001 359584.22793577 11391.62887926
0.19200001 353639.50299124 10237.86409535
0.19300001 347761.54021110 14167.80581767
0.19400001 341946.71516833 11002.13608043
0.19500001 336196.67206524 12849.43741354
0.19600001 330509.69242064 9766.56187256
0.19700001 324887.82468165 16403.58704337
0.19800001 319330.12974717 9532.00482342
0.19900001 313837.61359093 14122.69327903
0.20000001 308407.03842757 14877.55623688
0.20100001 303042.40732900 13773.27806406
0.20200001 297740.16365216 13599.28261756
0.20300001 292502.81603333 12530.82123113
0.20400001 287328.97328757 15020.12278855
0.20500001 282218.08125896 9592.59303540
0.20600001 277170.98884614 9466.77557152
0.20700001 272186.96164100 9341.45696508
0.20800001 267265.76672567 9216.66040121
0.20900001 262409.67132231 9919.08604487
0.21000001 257613.98227028 10599.52780158
0.21100001 252880.84504795 8041.61125268
0.21200001 248210.03990185 10309.40449470
0.21300001 243600.91364254 13293.30248592
0.21400001 239054.72078389 10022.36964269
0.21500001 234570.42240787 9880.10665893
0.21600001 230145.80052226 8240.37077729
0.21700001 225783.15153728 8121.42034477
0.21800001 221481.02494560 8730.78241615
0.21900001 217238.20992746 7885.74739322
0.22000001 213055.39645341 10594.18008957
0.22100001 208934.85301165 7653.28402769
0.22200001 204872.31529829 8908.87305200
0.22300001 200868.77885905 7424.11041768
0.22400001 196922.68355380 9304.59723790
0.22500001 193037.91853446 9161.58004687
0.22600001 189209.61661362 9663.88162553
0.22700001 185440.06859647 7610.46077509
0.22800001 181727.01260016 8739.25244922
0.22900001 178070.69992424 9829.50310066
0.23000001 174471.26097164 8463.60126999
0.23100001 170929.41315313 9517.35017447
0.23200001 167441.55507624 7022.49915202
0.23300001 164010.35426717 6908.11644845
0.23400001 160634.36268514 8493.54232868
0.23500001 157311.40153386 6125.70626545
0.23600001 154043.75725989 7666.75816144
0.23700001 150829.75228344 7000.00913456
0.23800001 147669.07925967 11646.66083208
0.23900001 144561.48365782 5724.63502362
0.24000001 141506.07561257 6138.53385043
0.24100001 138503.83226948 6535.99615396
0.24200001 135552.70401257 6917.25481296
0.24300001 132652.71411649 7282.63434948
0.24400001 129802.88396427 7155.38431701
0.24500001 127003.81395730 4686.44095671
0.24600001 124254.61381019 5524.36039133
0.24700001 121555.49419133 7687.16981631
0.24800001 118904.16449284 4885.17782929
0.24900001 116301.34585607 4797.43074352
0.25000001 113746.89530446 6423.85621622
0.25100001 111239.43572457 5466.30613011
0.25200001 108780.12638420 9494.87378064
0.25300001 106367.24564829 4457.85147602
0.25400001 103999.79547331 4375.79160156
0.25500001 101677.99901894 5466.20948587
0.25600001 99401.80350188  4598.32764756
0.25700001 97170.01034997  5264.67140985
0.25800001 94982.29032607  4428.07458451
0.25900001 92838.49916221  3620.70163864
0.26000001 90738.39808182  4262.89014358
0.26100001 88679.09576040  3833.59749111
0.26200001 86664.40176356  4102.69297361
0.26300001 84690.20769066  4024.47885989
0.26400001 82757.02469928  3618.55107620
0.26500001 80865.57583785  3226.53662861
0.26600001 79013.47610190  4113.83682791
0.26700001 77202.27532747  4034.59109953
0.26800001 75430.16749275  3652.32888283
0.26900001 73696.46932871  3283.17786396
0.27000001 72001.72442524  4682.99237823
0.27100001 70344.61311262  4018.08449114
0.27200001 68725.45487484  3095.73826134
0.27300001 67142.55757620  3587.42702107
0.27400001 65595.20384850  3517.54297284
0.27500001 64085.97679563  3449.10743437
0.27600001 62610.18834063  3121.74413840
0.27700001 61171.12443030  3316.08681231
0.27800001 59765.71703737  2501.19537639
0.27900001 58394.83565550  2697.84153497
0.28000001 57057.35774866  2885.96129151
0.28100001 55752.79358469  3301.68059235
0.28200001 54481.38071111  3006.55513684
0.28300001 53242.13930691  2948.54981437
0.28400001 52034.80821965  2446.93697234
0.28500001 50859.01645692  2400.03710020
0.28600001 49713.44327778  2782.21298473
0.28700001 48598.55829095  2099.45781754
0.28800001 47513.04449319  2883.56680678
0.28900001 46458.57919740  2627.23277797
0.29000001 45431.80589403  2181.40826326
0.29100001 44434.80837319  2335.49363864
0.29200001 43465.38584560  2292.36455801
0.29300001 42523.60822441  1875.29121147
0.29400001 41609.06271866  2577.68155744
0.29500001 40722.51885705  2892.92787655
0.29600001 39861.18787421  1953.39760424
0.29700001 39025.74346344  1744.45081539
0.29800001 38216.64613372  1885.41832626
0.29900001 37432.42189595  2526.68859759
0.30000001 36672.88797793  2152.51526176
0.30100001 35938.54961588  2116.42128707
0.30200001 35227.03748477  2081.38960832
0.30300001 34539.48786558  2835.00129822
0.30400001 33875.77528240  1704.79847179
0.30500001 33233.57065919  1677.96306202
0.30600001 32613.88154936  1501.86931645
0.30700001 32016.70088706  2366.67464162
0.30800001 31440.88912070  1457.28527974
0.30900001 30886.03837029  1867.06110788
0.31000001 30352.85262957  2123.94096331
0.31100001 29838.33909873  1955.00807031
0.31200001 29345.02335549  1653.29869413
0.31300001 28870.59198185  1767.74643074
0.31400001 28417.02520472  1611.24540539
0.31500001 27981.23436126  1591.57268583
0.31600002 27564.15410992  1834.94582598
0.31700002 27164.76251670  2202.79069678
0.31800002 26783.72191789  2563.20230891
0.31900002 26420.20113716  1268.16971463
0.32000002 26073.65836271  1380.99138057
0.32100002 25744.20633797  1367.78974750
0.32200002 25431.26323927  1478.57371474
0.32300002 25133.62862849  1465.79329102
0.32400002 24852.25021197  1211.54725520
0.32500002 24585.91359821  1803.37684782
0.32600002 24335.04965262  1790.45136297
0.32700002 24098.85149257  1304.22990454
0.32800002 23877.66397862  1296.19905046
0.32900002 23669.52519688  1171.64155273
0.33000002 23476.82435490  1282.18682286
0.33100002 23295.25519749  1392.12451653
0.33200002 23129.33226049  1155.31020112
0.33300002 22974.92877018  2417.19237038
0.33400002 22833.94924457  1606.36840543
0.33500002 22704.77081282  1373.18460379
0.33600002 22587.55219865  1141.80081771
0.33700002 22481.48317745  1253.79237618
0.33800002 22388.18990109  1593.81531454
0.33900002 22304.80239761  1706.31746422
0.34000002 22232.94882419  1705.82307932
0.34100002 22171.42375092  1819.83054766
0.34200002 22121.23294049  1251.95123756
0.34300002 22079.69190272  1481.10580298
0.34400002 22048.94130948  1711.54915021
0.34500002 22027.12358039  1714.81165195
0.34600002 22015.94257216  1260.52285167
0.34700002 22011.54760506  1493.70369122
0.34800002 22017.69098394  1498.41403088
0.34900002 22031.81363995  1388.00432505
0.35000002 22054.30133435  1277.27492227
0.35100002 22084.92124878  1632.51745603
0.35200002 22122.54016604  1522.80512445
0.35300002 22168.31005276  1177.13731955
0.35400002 22221.75176988  2366.61667558
0.35500002 22281.97429083  1427.82898018
0.35600002 22348.65187939  1196.77036483
0.35700002 22422.15042442  1685.69734875
0.35800002 22502.74026367  1454.12714471
0.35900002 22589.02861231  1707.73064398
0.36000002 22682.08265608  1719.52876760
0.36100002 22779.94802071  2226.51222501
0.36200002 22884.77421384  1869.11402245
0.36300002 22993.13398114  1632.05272729
0.36400002 23107.57969324  1518.16805776
0.36500002 23226.50082571  1657.67544245
0.36600002 23350.88283089  2185.29247324
0.36700002 23479.38730747  1296.06224076
0.36800002 23613.67870145  1568.42061364
0.36900002 23751.19028299  1977.28668472
0.37000002 23891.98358055  1728.46563401
0.37100002 24037.08365045  1877.77706372
0.37200002 24186.32628334  1488.54752162
0.37300002 24338.47271008  1365.38838371
0.37400002 24495.02522456  1377.84523415
0.37500002 24653.60997808  1390.46366863
0.37600002 24816.30573767  1684.03458713
0.37700002 24980.62055538  1416.40125259
0.37800002 25148.53846675  1715.63337548
0.37900002 25318.85677942  1876.12737623
0.38000002 25491.56681758  2185.26466896
0.38100002 25666.03823533  2058.92968478
0.38200002 25842.91417557  1930.07813664
0.38300002 26021.41440473  2548.01701922
0.38400002 26202.36698798  2421.09882439
0.38500002 26384.01575115  2291.45187654
0.38600002 26568.20647855  1696.51290506
0.38700002 26752.74571918  1712.71086208
0.38800002 26938.51543597  1571.86245016
0.38900002 27125.56360116  2380.26831877
0.39000002 27314.30850116  3043.77011203
0.39100002 27502.86532576  1778.88541355
0.39200002 27692.87331612  1795.74445526
0.39300002 27882.95669440  2142.24766432
0.39400002 28074.41867676  1663.40938541
0.39500002 28265.24252768  2350.53767996
0.39600002 28456.42244286  2711.32805881
0.39700002 28647.39296766  1881.27438532
0.39800002 28839.45055830  2416.45767677
0.39900002 29030.52310663  1916.01461582
0.40000002 29221.35696177  3163.79646815
0.40100002 29411.73309686  1950.88034875
0.40200002 29602.83019330  1789.49116997
0.40300002 29792.26990070  1985.95280567
0.40400002 29981.30033493  1821.36408164
0.40500002 30169.70560064  2021.06867395
0.40600002 30357.46862613  1853.32354744
0.40700002 30544.13637638  1869.30123480
0.40800002 30730.09388741  1885.29134932
0.40900002 30914.23924159  1901.22580344
0.41000002 31098.10583226  2108.91814694
0.41100002 31280.40985812  2513.06824708
0.41200002 31460.74577830  3118.38926930
0.41300002 31640.19953078  2357.82778075
0.41400002 31817.97689307  2178.73607099
0.41500002 31994.68908930  2395.76243253
0.41600002 32168.67487057  2012.15070850
0.41700002 32341.72317013  2433.39136662
0.41800002 32513.86591444  3882.64348215
0.41900002 32682.13835382  2470.76977662
0.42000002 32849.33033407  3111.65296334
0.42100002 33015.02766883  3134.77702570
0.42200002 33178.63440723  2736.73978876
0.42300002 33339.59571117  2756.51790402
0.42400002 33498.37050501  2776.17758715
0.42500002 33655.47210697  2580.70172345
0.42600002 33808.88788745  2382.00530898
0.42700002 33961.40022283  2180.32199762
0.42800002 34110.86815190  2414.53791655
0.42900002 34258.51552302  2209.67435594
0.43000002 34403.70735942  2669.03974342
0.43100002 34544.96915751  2462.36551823
0.43200002 34684.61593947  4280.25523284
0.43300002 34821.19668629  2720.23201404
0.43400002 34955.60134299  3877.45026272
0.43500002 35086.75653246  2983.07618175
0.43600002 35216.25150091  2539.26793481
0.43700002 35341.89360688  2786.35502401
0.43800002 35464.10545270  2335.31145473
0.43900002 35584.47422436  2818.29049213
0.44000002 35701.27532726  2597.80342230
0.44100002 35815.78455686  2612.04529152
0.44200002 35927.10136322  3103.56279834
0.44300002 36035.74884872  3839.96957930
0.44400002 36140.71096635  2653.63182846
0.44500002 36241.89300140  2909.49930804
0.44600002 36340.86467507  2436.65509194
0.44700002 36436.99896082  3183.13638007
0.44800002 36528.82955430  3690.32518061
0.44900002 36619.03010566  3460.49850898
0.45000002 36705.71218967  3228.08401151
0.45100002 36787.91179840  2743.64259195
0.45200002 36867.96202466  3256.73157979
0.45300002 36944.07959539  4277.01629746
0.45400002 37017.70061323  2779.10400525
0.45500002 37087.88086183  2790.49228829
0.45600002 37154.47645773  2801.63343007
0.45700002 37217.87870968  3068.24206624
0.45800002 37277.34162544  3593.16312957
0.45900002 37333.87401485  3606.45240076
0.46000002 37387.84817607  2843.90680630
0.46100002 37437.17707130  3372.71544220
0.46200002 37484.12373227  5206.54503318
0.46300002 37527.30063970  3134.28029798
0.46400002 37566.65926266  2620.27460776
0.46500002 37603.67343605  3679.89565686
0.46600002 37636.45648585  3163.72068215
0.46700002 37665.93186738  2908.56339665
0.46800002 37692.75324726  3447.19091161
0.46900002 37715.41444891  2658.93684467
0.47000002 37734.44653270  2665.93877389
0.47100002 37750.61022204  3741.84066256
0.47200002 37763.25206763  2679.30286119
0.47300002 37773.16055056  3222.80621093
0.47400002 37778.23512408  4037.54907026
0.47500002 37781.18762462  3506.85000153
0.47600002 37781.04855311  3514.20439773
0.47700002 37776.38734787  4062.85065184
