# SAXS profile: number of points = 501, q_min = 0, q_max = 0.5, delta_q = 0.001
#    q    intensity    error
0.00000000 1682732.95097188 302.89193117
0.00100000 1682663.51366977 605.75887931
0.00200000 1682455.13958665 1059.94677150
0.00300000 1682108.00933862 1513.89726233
0.00400000 1681621.97211948 1387.33817971
0.00500000 1680997.50701701 1664.18759782
0.00600000 1680234.35565855 2293.51998885
0.00700000 1679333.14652189 2418.23983149
0.00800000 1678293.36031889 2265.69613209
0.00900000 1677116.30791025 4276.64676799
0.01000000 1675801.21095534 3318.08654096
0.01100000 1674349.28011569 3315.21171897
0.01200000 1672759.99686331 5219.01141903
0.01300000 1671034.77794313 4912.84246383
0.01400000 1669172.81477645 4131.20289971
0.01500000 1667175.91808376 4801.46685789
0.01600000 1665042.99933366 5944.20377335
0.01700000 1662776.13468417 4489.49576504
0.01800000 1660374.85497787 5205.27540458
0.01900000 1657839.96511564 7957.63219162
0.02000000 1655172.05611394 7299.30909765
0.02100000 1652372.80003226 7088.67963353
0.02200000 1649440.42996392 6259.62671610
0.02300000 1646377.71248095 7112.35204166
0.02400000 1643184.74507891 8010.52599752
0.02500000 1639862.71717580 8314.10435579
0.02600000 1636411.78580985 8615.70844636
0.02700000 1632833.24932466 9601.05994577
0.02800000 1629126.72174208 8504.04187749
0.02900000 1625294.90609909 8776.59289591
0.03000000 1621338.14912071 11308.83410993
0.03100000 1617256.54562065 9315.39813141
0.03200000 1613051.20882663 8783.06423659
0.03300000 1608725.18555599 8204.49882457
0.03400000 1604275.99939562 9264.69432399
0.03500000 1599707.50388555 9502.26301188
0.03600000 1595019.13318191 11508.06357774
0.03700000 1590212.77690605 10877.05589707
0.03800000 1585289.88727214 13910.91940460
0.03900000 1580251.63589106 12325.96333077
0.04000000 1575096.92077129 13561.58511627
0.04100000 1569829.77388751 14834.89205108
0.04200000 1564450.33569222 12108.84616002
0.04300000 1558959.12010046 11318.04373729
0.04400000 1553359.33678349 11533.69361126
0.04500000 1547650.89777591 14950.30836718
0.04600000 1541834.13749811 13043.91740960
0.04700000 1535912.31643260 16587.85378894
0.04800000 1529885.48355627 12369.12471006
0.04900000 1523756.35149137 14856.62511858
0.05000000 1517524.69212439 17413.59665301
0.05100000 1511193.75933731 12966.04305912
0.05200000 1504761.79521955 11962.85682948
0.05300000 1498234.10159533 14562.83614639
0.05400000 1491609.35254524 19689.24437178
0.05500000 1484891.31001879 18709.63137903
0.05600000 1478078.26777304 13901.32675710
0.05700000 1471175.86309227 19198.84590953
0.05800000 1464182.14285203 12958.01256928
0.05900000 1457099.35398611 15736.67375804
0.06000000 1449930.28725558 14593.54902302
0.06100000 1442676.63802992 13416.89336067
0.06200000 1435338.53694983 16276.73976984
0.06300000 1427919.16206842 13708.02459678
0.06400000 1420417.12001022 18003.78783811
0.06500000 1412838.33822004 16784.52024320
0.06600000 1405180.72841564 19770.89377386
0.06700000 1397447.20844852 19955.54707054
0.06800000 1389641.08950949 18697.62173457
0.06900000 1381762.65438165 20311.91197039
0.07000000 1373811.79537265 17557.31556704
0.07100000 1365793.48147575 22125.85543623
0.07200000 1357706.33182661 16353.57353296
0.07300000 1349555.32313933 17976.07774650
0.07400000 1341339.71048641 22635.10867523
0.07500000 1333062.00377067 18236.28906636
0.07600000 1324722.20077169 24480.86741794
0.07700000 1316325.89219427 16941.11502688
0.07800000 1307871.38166200 20147.75957936
0.07900000 1299360.77161871 17151.56298984
0.08000000 1290797.79986850 20388.15220535
0.08100000 1282183.01833823 17347.93705205
0.08200000 1273516.88302643 20611.87171900
0.08300000 1264803.08925672 17530.17163982
0.08400000 1256041.59390448 16014.53107398
0.08500000 1247236.82538005 22525.09812381
0.08600000 1238387.83775949 16160.96204154
0.08700000 1229497.83953923 17852.30946841
0.08800000 1220566.14994577 24441.83830054
0.08900000 1211598.75293865 19627.90071952
0.09000000 1202594.15572070 24623.11649506
0.09100000 1193554.95735753 28000.80061512
0.09200000 1184482.55456012 23132.94537750
0.09300000 1175380.05865097 18230.14556635
0.09400000 1166245.85795140 23266.60595960
0.09500000 1157084.48690664 18328.21913408
0.09600000 1147896.77558127 18372.08875681
0.09700000 1138686.01543259 18412.55373517
0.09800000 1129452.84597700 20126.85066163
0.09900000 1120199.04424022 20163.58374447
0.10000000 1110924.39955250 21879.65707813
0.10100000 1101632.01964491 28653.45017859
0.10200000 1092323.94080922 20251.68681517
0.10300000 1083001.02250522 20273.78009499
0.10400000 1073666.13247935 20292.29085851
0.10500000 1064321.90696149 25384.07867534
0.10600001 1054964.70781330 23705.05809997
0.10700001 1045601.87844321 27102.00196460
0.10800001 1036231.33940050 16942.38319654
0.10900001 1026856.96469575 18637.45478641
0.11000001 1017478.91393907 18635.12718594
0.11100001 1008099.37564064 16936.07030800
0.11200001 998720.61743222 20313.97831489
0.11300001 989341.76964067 21993.06857456
0.11400001 979967.33946671 21975.76862226
0.11500001 970597.32087079 25332.59126759
0.11600001 961232.87091516 21930.52898267
0.11700001 951877.23025952 28641.98720740
0.11800001 942528.41501318 21871.37290049
0.11900001 933190.55744425 23516.40315526
0.12000001 923864.18597677 20121.76291841
0.12100001 914552.69487558 16736.31510464
0.12200001 905254.26201387 16701.94192101
0.12300001 895972.88165502 19998.11566074
0.12400001 886707.68794036 21613.50091192
0.12500001 877461.50618937 19900.82789811
0.12600001 868236.70219340 18193.90095182
0.12700001 859033.08502001 21441.46681256
0.12800001 849850.82526995 19733.53709279
0.12900001 840693.27156895 16393.51956826
0.13000001 831560.72365398 19608.20278799
0.13100001 822453.61441410 29312.24819943
0.13200001 813375.55734127 17849.52744729
0.13300001 804327.06022519 19400.36960722
0.13400001 795307.08491566 27378.44768900
0.13500001 786319.33729643 24061.37285572
0.13600001 777362.95554147 19169.77138752
0.13700001 768440.91683304 17497.40050135
0.13800001 759552.01287196 22171.32430124
0.13900001 750701.15814308 18917.67007733
0.14000001 741885.49615937 17259.96688214
0.14100001 733108.25863570 20299.76863902
0.14200001 724368.63660289 18645.24958557
0.14300001 715671.58902305 17004.35775724
0.14400001 707011.15216465 19990.74127042
0.14500001 698396.36908390 15294.88120443
0.14600001 689821.89005765 15210.57339332
0.14700001 681293.91379845 19662.14327981
0.14800001 672808.22507195 18044.71744776
0.14900001 664367.44891663 20927.57562825
0.15000001 655973.92201351 19315.15304503
0.15100001 647627.22686453 23625.44235078
0.15200001 639329.73597096 19074.40357276
0.15300001 631080.81517839 23324.74802967
0.15400001 622879.06660601 18826.52067661
0.15500001 614729.96096335 20138.55447156
0.15600001 606629.85123197 15714.74703782
0.15700001 598584.96862851 15605.11086866
0.15800001 590587.78717765 19719.72714461
0.15900001 582647.13769629 15381.88516122
0.16000001 574757.66297919 13880.39821614
0.16100001 566925.68115164 20664.44205343
0.16200001 559146.45058903 13671.13136226
0.16300001 551424.11307098 14921.53720411
0.16400001 543757.46483399 14803.79767899
0.16500001 536147.69012803 22695.13279459
0.16600001 528594.81443043 17213.69094464
0.16700001 521099.50170809 17071.22048197
0.16800001 513661.23770197 16927.70688773
0.16900001 506283.89109940 20656.38373221
0.17000001 498964.68623501 15358.13376752
0.17100001 491705.30369805 13954.59717790
0.17200001 484505.46359169 17602.08432351
0.17300001 477366.32842074 14951.11411220
0.17400001 470288.88263047 12345.08375206
0.17500001 463271.53604994 15899.47986813
0.17600001 456313.99354623 14538.16452101
0.17700001 449420.57890397 27598.91905401
0.17800001 442588.17734767 11883.49312307
0.17900001 435818.02717216 17650.63093417
0.18000001 429110.98127961 13980.43643046
0.18100001 422467.75502382 13840.04430834
0.18200001 415884.63311608 14840.84383380
0.18300001 409367.61829543 11298.54679869
0.18400001 402912.09791645 12298.89236991
0.18500001 396521.26648743 11062.94385764
0.18600001 390193.98844795 13133.93027165
0.18700001 383930.09384416 16240.24373688
0.18800001 377729.49450435 10708.63167514
0.18900001 371595.19611763 11649.50994870
0.19000001 365521.05895306 11519.39671718
0.19100001 359515.81105666 16566.48935626
0.19200001 353571.36373760 14330.24804941
0.19300001 347693.69420986 12141.46437552
0.19400001 341879.14855769 11999.95868142
0.19500001 336129.53005364 11858.65038067
0.19600001 330442.82478810 9764.58593393
0.19700001 324821.28703977 10611.91194908
0.19800001 319263.99301268 11436.03677017
0.19900001 313771.89620597 10354.47306415
0.20000001 308341.59707885 12085.44946868
0.20100001 302977.47920788 11016.26166465
0.20200001 297675.67145877 12689.91447406
0.20300001 292438.70059688 15212.66192407
0.20400001 287265.31307975 8833.40879472
0.20500001 282154.93006919 9590.44652636
0.20600001 277108.28652903 12045.89778480
0.20700001 272124.75998720 9339.32220422
0.20800001 267204.00517795 8376.84595830
0.20900001 262348.44753297 14048.76002949
0.21000001 257553.25720021 12227.34146359
0.21100001 252820.73897971 11255.57983147
0.21200001 248150.39851850 9514.08672897
0.21300001 243541.82281138 9381.23145820
0.21400001 238996.13710281 8478.38836455
0.21500001 234512.43363975 11397.30481373
0.21600001 230088.41341970 12731.94295853
0.21700001 225726.37196687 7381.25271230
0.21800001 221424.90476373 8001.18931194
0.21900001 217182.66081634 8600.43377497
0.22000001 213000.42610234 9179.25379690
0.22100001 208880.45564482 7651.29145205
0.22200001 204818.67824342 8906.54064456
0.22300001 200815.89588401 7422.15586283
0.22400001 196870.43488018 8637.69073881
0.22500001 192986.35493593 7850.68529003
0.22600001 189158.74394524 9017.19775028
0.22700001 185389.75278016 6974.36282940
0.22800001 181677.41698648 7488.74348233
0.22900001 178021.89756876 10440.98478617
0.23000001 174423.12035891 6043.76140626
0.23100001 170882.07870829 5946.69662028
0.23200001 167394.95486286 7605.59013389
0.23300001 163964.52283060 6330.67052590
0.23400001 160589.28503107 7925.08159110
0.23500001 157267.12287998 6123.98205459
0.23600001 154000.26470457 5474.70966919
0.23700001 150787.05152180 5921.40779333
0.23800001 147627.10031880 5292.43179675
0.23900001 144520.37429661 8844.64732530
0.24000001 141465.80787396 5113.98919654
0.24100001 138464.44476594 5026.25958275
0.24200001 135514.13227335 6421.33746151
0.24300001 132614.95688090 6309.81994687
0.24400001 129765.95550108 6676.45872635
0.24500001 126967.75578531 6090.64353314
0.24600001 124219.32540626 5522.79146882
0.24700001 121521.19739248 7232.94201096
0.24800001 118870.70289551 5327.78515582
0.24900001 116268.75681523 7412.13359762
0.25000001 113715.27660497 5137.65644007
0.25100001 111208.58292787 4624.05309690
0.25200001 108750.24035615 4952.48618012
0.25300001 106338.21812653 5266.93219299
0.25400001 103971.65897692 5567.68260163
0.25500001 101650.79005493 5855.08578418
0.25600001 99375.55036004  4597.11317716
0.25700001 97144.63439609  4887.34678770
0.25800001 94957.85715133  5164.75809483
0.25900001 92814.99358310  4343.74190521
0.26000001 90715.86008435  4261.83130841
0.26100001 88657.43762553  4877.93244896
0.26200001 86643.69560727  4443.52213947
0.26300001 84670.41547448  5700.01263945
0.26400001 82738.19664690  4275.49651404
0.26500001 80847.76001197  4838.73866568
0.26600001 78996.52734198  3480.19217673
0.26700001 77186.32204138  3723.46835147
0.26800001 75415.18358990  3347.30308204
0.26900001 73682.42299769  3879.37975441
0.27000001 71988.64267437  2926.33846319
0.27100001 70332.52422320  3443.48054892
0.27200001 68714.28280376  4220.77502096
0.27300001 67132.36361593  3310.96833023
0.27400001 65585.99872888  2705.42257560
0.27500001 64077.76208545  2918.10142347
0.27600001 62602.92433598  3641.61228097
0.27700001 61164.80982907  2805.62995964
0.27800001 59760.37935634  3001.16639331
0.27900001 58390.42204184  2942.87741019
0.28000001 57053.87582103  3126.26727357
0.28100001 55750.31901792  2829.88632729
0.28200001 54479.90130217  3006.47349566
0.28300001 53241.60248591  2948.52008522
0.28400001 52035.24245918  2669.40806450
0.28500001 50860.44781826  3491.06130348
0.28600001 49715.70765823  2996.36584239
0.28700001 48601.88166801  2939.44194241
0.28800001 47517.31154225  3501.78843986
0.28900001 46463.76913339  2223.29145827
0.29000001 45437.89993811  2181.70086880
0.29100001 44441.92193914  2725.17878230
0.29200001 43473.38495961  2101.72089536
0.29300001 42532.57905063  2813.53023738
0.29400001 41618.98758659  2209.96834546
0.29500001 40733.36039717  2893.69805959
0.29600001 39872.90771690  2309.23955974
0.29700001 39038.46220358  1745.01934311
0.29800001 38230.18728481  1886.08637898
0.29900001 37446.94131481  2022.13492673
0.30000001 36688.33746041  1822.12636623
0.30100001 35954.88131871  1628.75620084
0.30200001 35244.22604027  2242.59020911
0.30300001 34557.60510279  2363.74030093
0.30400001 33894.78104389  1550.68630617
0.30500001 33253.46591548  1526.33415778
0.30600001 32634.68206982  2404.52348874
0.30700001 32038.43493164  1924.22849309
0.30800001 31463.37955391  2041.65879591
0.30900001 30909.40285367  2587.11714134
0.31000001 30377.11425548  1983.92942595
0.31100001 29863.41389946  2236.17253866
0.31200001 29370.93565799  2068.44824165
0.31300001 28897.31250064  1497.16983154
0.31400001 28444.53304237  1747.20552485
0.31500001 28009.62563170  1593.18758136
0.31600002 27593.34803872  1705.68288977
0.31700002 27194.76277957  1556.62829521
0.31800002 26814.51026348  1411.38181454
0.31900002 26451.72687623  1269.68295018
0.32000002 26105.96510575  1634.10296317
0.32100002 25777.24192317  1494.04901261
0.32200002 25465.09978317  1357.16255721
0.32300002 25168.20896410  1712.44501900
0.32400002 24887.51962296  1334.59330298
0.32500002 24621.93754474  1324.41408324
0.32600002 24371.78514051  2032.24140017
0.32700002 24136.29698087  1781.25880154
0.32800002 23915.86532904  1534.32241284
0.32900002 23708.39285181  1173.56550174
0.33000002 23516.34499305  1167.58658419
0.33100002 23335.44073928  1162.10500385
0.33200002 23170.19124651  1273.08621833
0.33300002 23016.41862044  1383.74715299
0.33400002 22876.08703018  1264.47577047
0.33500002 22747.56483852  1490.42051880
0.33600002 22630.89988311  1372.79045192
0.33700002 22525.40333594  1484.64940418
0.33800002 22432.70480810  1596.98433092
0.33900002 22349.91725313  1139.84583389
0.34000002 22278.57349847  1367.45890610
0.34100002 22217.71196018  1481.69928080
0.34200002 22168.03760430  1254.60014763
0.34300002 22127.04683112  1255.93123761
0.34400002 22096.78431022  1829.61382754
0.34500002 22075.46972766  1374.86031975
0.34600002 22064.78281760  1148.47200005
0.34700002 22060.87581221  1381.89332632
0.34800002 22067.50582415  1501.80417999
0.34900002 22082.09369701  1391.17196880
0.35000002 22104.97300885  1629.35763765
0.35100002 22136.06952288  1402.54143140
0.35200002 22174.10749417  1408.94285691
0.35300002 22220.29397520  1533.86696576
0.35400002 22274.12216728  1779.14559238
0.35500002 22334.70438582  1789.00990604
0.35600002 22401.72227241  1319.57351296
0.35700002 22475.61007912  1327.63435026
0.35800002 22556.54364896  1579.07091294
0.35900002 22643.10654147  1345.00059227
0.36000002 22736.48123892  1231.18051740
0.36100002 22834.68278971  1859.88500132
0.36200002 22939.72797488  1748.69554636
0.36300002 23048.42662956  1258.44415358
0.36400002 23163.06239777  1521.81327162
0.36500002 23282.28207419  1278.19734642
0.36600002 23406.90003173  1417.40489856
0.36700002 23535.58695128  1429.08090738
0.36800002 23670.10036910  1572.16814099
0.36900002 23807.82551433  1321.33437864
0.37000002 23948.78321351  1466.02483386
0.37100002 24094.02721217  1478.89146034
0.37200002 24243.35743484  1627.69909528
0.37300002 24395.67276838  2052.89596071
0.37400002 24552.35775513  2071.60528372
0.37500002 24711.04560272  1393.70303801
0.37600002 24873.83177906  1828.59982986
0.37700002 25038.26311925  1703.60350334
0.37800002 25206.19399933  1432.97219674
0.37900002 25376.52141892  1591.10796834
0.38000002 25549.30176520  1606.15693156
0.38100002 25723.80911982  1916.16663211
0.38200002 25900.64656888  2380.78754540
0.38300002 26079.21481335  2103.02798218
0.38400002 26260.09495964  1516.52055576
0.38500002 26441.70355099  1684.07217894
0.38600002 26625.79451899  1700.19018956
0.38700002 26810.30047596  2340.53934243
0.38800002 26995.99295327  1890.25951614
0.38900002 27182.92469732  1908.24140416
0.39000002 27371.58405260  2247.48087304
0.39100002 27559.98386423  1944.63255359
0.39200002 27749.88678677  1963.02708430
0.39300002 27939.80292379  1981.49091723
0.39400002 28131.13066649  1833.44652805
0.39500002 28321.77732916  3028.16457550
0.39600002 28512.74457340  1867.72742177
0.39700002 28703.53053157  2056.32102471
0.39800002 28895.35865570  2767.01967597
0.39900002 29086.17198546  3141.30672326
0.40000002 29276.78709257  1760.99882705
0.40100002 29466.90793094  2309.91102215
0.40200002 29657.74622580  1792.81084429
0.40300002 29846.86202953  1808.71992469
0.40400002 30035.59994726  2189.59533990
0.40500002 30223.66644031  2944.99419748
0.40600002 30411.17552622  2784.90353076
0.40700002 30597.44474096  2621.58918962
0.40800002 30783.11013992  2266.25267588
0.40900002 30966.79673157  2475.79551600
0.41000002 31150.35979849  2304.50372708
0.41100002 31332.26981204  2710.86811258
0.41200002 31512.16448292  2342.61441866
0.41300002 31691.24258460  2164.82888353
0.41400002 31868.55548421  2578.96297476
0.41500002 32044.88219861  1999.60074394
0.41600002 32218.40845619  3022.89231664
0.41700002 32390.96722226  2437.09648928
0.41800002 32562.65210048  2251.21905964
0.41900002 32730.41093868  2268.21758553
0.42000002 32897.07510170  2285.19543022
0.42100002 33062.28263796  3139.26388523
0.42200002 33225.40491168  2740.59765400
0.42300002 33385.75098977  2335.66724992
0.42400002 33544.05230042  2352.27677903
0.42500002 33700.56216149  3230.19903624
0.42600002 33853.43475645  2601.97511868
0.42700002 34005.34006573  2619.77152281
0.42800002 34154.25917852  2417.60935051
0.42900002 34301.33735172  3761.14181885
0.43000002 34445.89027872  2449.61960325
0.43100002 34586.53172589  2913.56957066
0.43200002 34725.52063550  2706.50720659
0.43300002 34861.52112051  3177.27918549
0.43400002 34995.27152445  2511.78573270
0.43500002 35125.73602496  2297.22324489
0.43600002 35254.57544345  2773.12503580
0.43700002 35379.52808764  2324.43510551
0.43800002 35501.05809373  2571.51926488
0.43900002 35620.74929170  2821.16347760
0.44000002 35736.80384107  2836.78762334
0.44100002 35850.65453609  3327.65791174
0.44200002 35961.25961624  2867.55097769
0.44300002 36069.13306730  3603.30656419
0.44400002 36173.36542514  3138.94393352
0.44500002 36273.81911286  3154.73419775
0.44600002 36372.02393682  2682.61875259
0.44700002 36467.39464428  2695.66993986
0.44800002 36558.46939865  3447.09824296
0.44900002 36647.90248973  2721.10688882
0.45000002 36733.83958799  2485.04436590
0.45100002 36815.19133403  3744.10513611
0.45200002 36894.46159604  4011.16605482
0.45300002 36969.76123439  2517.64085938
0.45400002 37042.60182296  3539.42077193
0.45500002 37111.96642344  2792.30448604
0.45600002 37177.75925299  3058.24262109
0.45700002 37240.31072108  3070.09136135
0.45800002 37298.96911043  3081.64097395
0.45900002 37354.64216597  3866.20564741
0.46000002 37407.77994005  2845.42291600
0.46100002 37456.28893801  3634.00932500
0.46200002 37502.37426081  3906.81002378
0.46300002 37544.69484925  3397.04415096
0.46400002 37583.21369038  3145.71513498
0.46500002 37619.36578370  3155.51255149
0.46600002 37651.23524496  3164.96298470
0.46700002 37679.88558729  2645.12809360
0.46800002 37705.83275352  3183.12655192
0.46900002 37727.63724426  4787.63739321
0.47000002 37745.78131803  2933.41353416
0.47100002 37761.04713415  2940.83049019
0.47200002 37772.81855283  3215.97792402
0.47300002 37781.85554357  3492.17707341
0.47400002 37785.99010365  3499.92749924
0.47500002 37788.06324205  3237.68141204
0.47600002 37787.05484569  4596.22863401
0.47700002 37781.48305791  4063.39869548
