# SAXS profile: number of points = 501, q_min = 0, q_max = 0.5, delta_q = 0.001
#    q    intensity    error
0.00000000 1700912.83420644 357.19169518
0.00100000 1700842.81622465 510.25285699
0.00200000 1700632.70050501 765.28473946
0.00300000 1700282.65751919 1428.23748319
0.00400000 1699792.55071764 1529.81335378
0.00500000 1699162.87483194 1682.17131267
0.00600000 1698393.31640575 2318.30697128
0.00700000 1697484.55880544 2444.37786627
0.00800000 1696436.07393203 2748.22655580
0.00900000 1695249.16565245 3305.73601433
0.01000000 1693923.03838059 3353.96776082
0.01100000 1692458.94419250 3351.06885540
0.01200000 1690856.33520145 3956.60399784
0.01300000 1689116.65340515 4256.57415432
0.01400000 1687239.05176981 3796.28803478
0.01500000 1685225.43306444 4448.99534140
0.01600000 1683074.57752210 6437.76054681
0.01700000 1680788.67062490 4538.12961426
0.01800000 1678367.18672171 5740.01603688
0.01900000 1675810.99515331 6032.91985477
0.02000000 1673120.63212420 5797.36325256
0.02100000 1670297.81956763 7165.57797082
0.02200000 1667340.78321704 7478.02375247
0.02300000 1664252.20733519 7189.56986295
0.02400000 1661032.33011254 7474.64582633
0.02500000 1657682.28058109 8404.44954638
0.02600000 1654202.18815115 6699.51916844
0.02700000 1650593.43917714 7625.74203827
0.02800000 1646855.63278504 7880.20456426
0.02900000 1642991.27323325 8872.15328282
0.03000000 1639000.97703673 7621.35489354
0.03100000 1634884.81162845 10986.42643966
0.03200000 1630643.79596834 12914.69945890
0.03300000 1626281.02455812 9123.43696837
0.03400000 1621794.06598181 10217.30308712
0.03500000 1617186.66777851 9606.08925020
0.03600000 1612458.35632436 9844.05872029
0.03700000 1607611.09781093 13745.07552196
0.03800000 1602646.12371978 13125.67236072
0.03900000 1597564.87272906 15336.62348844
0.04000000 1592366.09696789 16648.18831526
0.04100000 1587053.81106480 11998.12736796
0.04200000 1581628.30121870 12241.80361937
0.04300000 1576090.00116385 14563.07228674
0.04400000 1570442.09362685 15900.72693643
0.04500000 1564684.54078591 10796.32383307
0.04600000 1558817.66301473 16484.49755269
0.04700000 1552844.75158686 11180.48273141
0.04800000 1546765.92938669 12505.60312095
0.04900000 1540583.80029698 12709.81694406
0.05000000 1534298.24980138 12911.12037330
0.05100000 1527912.39475489 17876.57585140
0.05200000 1521424.68360184 13304.85947812
0.05300000 1514840.12889851 17178.28786252
0.05400000 1508157.69029837 16174.99198275
0.05500000 1501381.15103140 13872.76248268
0.05600000 1494508.54996931 15333.65843822
0.05700000 1487545.76686549 18118.30828616
0.05800000 1480490.90126710 22273.98664959
0.05900000 1473345.85946986 15912.13602546
0.06000000 1466113.80347204 14756.43612135
0.06100000 1458796.33292752 14923.48718324
0.06200000 1451393.62042137 16458.80442492
0.06300000 1443908.66594343 18019.98099350
0.06400000 1436340.32130845 18205.61442400
0.06500000 1428694.34488716 16972.88961121
0.06600000 1420968.73615427 17136.88375983
0.06700000 1413166.46817228 14414.29864993
0.06800000 1405290.85265671 17453.71320699
0.06900000 1397342.09030819 22008.13895275
0.07000000 1389320.17038648 17755.51260900
0.07100000 1381229.97661234 19392.46977994
0.07200000 1373070.23661150 16538.63177477
0.07300000 1364845.89486294 16664.76915711
0.07400000 1356556.30315840 16787.38503831
0.07500000 1348203.83867156 16906.47692939
0.07600000 1339788.60978897 24759.29466963
0.07700000 1331316.14968648 18691.67961802
0.07800000 1322784.82440740 17242.50099476
0.07900000 1314196.75551860 25232.57888946
0.08000000 1305555.76185705 20621.25422590
0.08100000 1296862.27886665 20736.82881201
0.08200000 1288116.70361130 19244.46445500
0.08300000 1279322.91151404 19343.36332992
0.08400000 1270480.80033541 19438.35715754
0.08500000 1261594.79227303 22784.40301807
0.08600000 1252664.04427939 17981.99319991
0.08700000 1243691.56530607 31191.78592257
0.08800000 1234677.15952863 21427.82310995
0.08900000 1225626.23724727 26473.52796799
0.09000000 1216537.54346363 19926.88589801
0.09100000 1207413.92039386 23327.23803795
0.09200000 1198256.48929961 21730.38245449
0.09300000 1189068.45382430 20119.03918414
0.09400000 1179848.40144087 21856.69266390
0.09500000 1170600.51149896 26970.63705263
0.09600000 1161325.66239029 21966.47593671
0.09700000 1152027.57889581 22015.24806770
0.09800000 1142706.61579287 20363.03285085
0.09900000 1133364.49922745 17000.46828782
0.10000000 1124001.14553714 18731.47997127
0.10100000 1114619.62597217 20464.41729533
0.10200000 1105222.22658197 17075.68420387
0.10300000 1095809.50497921 18804.09199000
0.10400000 1086384.39653264 29087.94358561
0.10500000 1076949.59565310 18835.84931419
0.10600001 1067501.69310158 20560.08357656
0.10700001 1058047.40726528 17140.36880428
0.10800001 1048585.38548520 24002.12060334
0.10900001 1039119.28791466 27432.75049209
0.11000001 1029649.23439550 17143.66055963
0.11100001 1020177.40659616 18852.87936137
0.11200001 1010705.85184506 20557.75799433
0.11300001 1001234.08035721 22257.43465424
0.11400001 991766.57041767 20529.56897427
0.11500001 982303.15567558 20510.49085630
0.11600001 972845.32099660 18780.77980625
0.11700001 963395.83517776 17052.10708571
0.11800001 953953.15989545 23839.29058858
0.11900001 944521.30141126 22101.79949405
0.12000001 935100.64243065 20366.49295150
0.12100001 925694.99787863 20328.26311104
0.12200001 916301.82284552 21977.50025634
0.12300001 906925.71827721 20242.58298566
0.12400001 897565.82765306 20195.23207374
0.12500001 888224.82173248 18466.19491395
0.12600001 878905.19943747 16743.14483828
0.12700001 869606.42195364 20035.73290602
0.12800001 860329.05323725 16647.36796472
0.12900001 851076.35099009 23234.38547711
0.13000001 841848.78390623 23159.26113687
0.13100001 832646.37273019 21432.31864434
0.13200001 823473.17724421 24642.43599069
0.13300001 814329.47419449 19641.62784354
0.13400001 805214.30197949 17936.14942220
0.13500001 796131.31561076 19489.29552504
0.13600001 787079.87788909 25879.18760522
0.13700001 778062.79653781 30601.21123078
0.13800001 769078.81760444 19242.35292385
0.13900001 760133.00597253 22347.91142948
0.14000001 751222.40701013 17477.19012333
0.14100001 742350.49840533 17393.27299796
0.14200001 733516.22938364 17307.31624861
0.14300001 724724.80256538 17219.46212115
0.14400001 715969.88256387 20244.04938440
0.14500001 707260.61963752 23233.51245107
0.14600001 698592.25077461 20025.14781313
0.14700001 689970.26211965 15317.34054168
0.14800001 681390.77832117 18274.90153676
0.14900001 672856.44405877 18167.12484673
0.15000001 664369.45153901 19562.35942357
0.15100001 655929.54512261 20937.27206824
0.15200001 647539.23853797 16347.12884826
0.15300001 639197.48816682 22148.19401013
0.15400001 630903.30617761 17602.20307302
0.15500001 622661.86757137 16027.31722766
0.15600001 614470.04839195 14470.77032258
0.15700001 606333.17469028 14370.09691838
0.15800001 598244.56169001 21402.20020462
0.15900001 590212.70342976 15581.61610601
0.16000001 582232.44911712 19685.28003384
0.16100001 574310.11583532 15351.31012093
0.16200001 566440.46912781 19389.25817354
0.16300001 558628.37245953 13742.25861125
0.16400001 550872.10757903 20451.12795936
0.16500001 543173.18962975 14877.51436635
0.16600001 535531.30652405 16098.07183415
0.16700001 527947.63519299 22617.27775954
0.16800001 520421.26717097 19789.01961854
0.16900001 512956.18075898 18312.53651778
0.17000001 505549.69010715 14264.08517992
0.17100001 498203.36406993 16709.74161996
0.17200001 490917.16175277 20382.88151851
0.17300001 483691.89926675 16411.66691715
0.17400001 476528.84670316 15010.65938004
0.17500001 469426.17882285 14871.42204745
0.17600001 462384.02377912 13503.92605225
0.17700001 455406.18890758 15807.14956356
0.17800001 448490.11919517 14450.35232299
0.17900001 441636.47824738 15501.44111867
0.18000001 434846.42815541 15347.90540670
0.18100001 428120.93580467 15194.01272942
0.18200001 421455.80055044 16196.54718024
0.18300001 414857.37070273 13740.07676675
0.18400001 408320.94414480 18129.45077648
0.18500001 401849.77079467 13453.93096180
0.18600001 395442.61625254 12201.38250091
0.18700001 389099.38223383 15361.64433635
0.18800001 382819.84397358 15194.12032517
0.18900001 376607.34566550 11806.64084445
0.19000001 370455.37460083 10613.54698379
0.19100001 364372.92616167 11543.33484623
0.19200001 358352.12589342 12449.15344178
0.19300001 352398.22932660 12305.74674956
0.19400001 346508.25213906 11148.90353940
0.19500001 340683.58851806 12019.31757089
0.19600001 334922.69221519 13855.75243171
0.19700001 329227.30480036 14667.07712199
0.19800001 323596.83716387 13523.11246416
0.19900001 318032.19899223 10495.06306274
0.20000001 312529.97802034 12249.61306744
0.20100001 307094.39499020 10235.45666877
0.20200001 301721.94795528 11024.92049936
0.20300001 296414.84141330 9070.29457595
0.20400001 291171.94982882 8953.53788043
0.20500001 285992.71598088 15023.19808058
0.20600001 280877.78671193 9593.38125861
0.20700001 275826.69975033 12048.11081460
0.20800001 270838.88704685 9339.87946131
0.20900001 265917.00913054 12564.57927536
0.21000001 261056.17959898 8262.42847489
0.21100001 256258.61752110 8963.92686464
0.21200001 251523.89973757 8036.18897652
0.21300001 246851.53580939 8716.32814150
0.21400001 242242.96519544 8593.56959658
0.21500001 237696.79904651 9241.65198385
0.21600001 233210.86787698 10627.41975160
0.21700001 228787.81551962 11222.04288181
0.21800001 224425.83572617 10321.34467305
0.21900001 220123.79917392 10169.72000268
0.22000001 215882.56911067 9303.45975572
0.22100001 211704.29488513 7754.72868831
0.22200001 207584.73471301 9026.82261582
0.22300001 203524.82109411 8889.96460576
0.22400001 199523.00819524 6733.90184501
0.22500001 195583.16071889 7293.29640809
0.22600001 191700.69065337 8485.63147304
0.22700001 187877.36149296 8353.02788698
0.22800001 184111.41405026 8853.91832038
0.22900001 180402.78848268 7468.67579638
0.23000001 176751.84293736 6124.45164742
0.23100001 173159.18158220 10244.09766687
0.23200001 169621.13890013 7706.73681041
0.23300001 166140.51529703 7580.99207154
0.23400001 162715.74448795 6309.30329092
0.23500001 159344.74230134 6768.96497311
0.23600001 156029.72360356 8874.97109833
0.23700001 152768.99755111 7635.39485874
0.23800001 149562.39049165 5897.99314801
0.23900001 146409.47777444 6324.88973902
0.24000001 143309.60206096 6734.83506742
0.24100001 140263.30466578 6619.02566027
0.24200001 137269.03534520 7505.18486251
0.24300001 134326.54204366 5899.62200563
0.24400001 131434.86666653 5313.25473633
0.24500001 128594.67477711 7592.22995799
0.24600001 125804.86319993 5593.28448246
0.24700001 123066.11506004 5035.86566648
0.24800001 120375.69341014 5844.84207003
0.24900001 117734.47766504 7064.06899409
0.25000001 115142.30111244 4335.10784197
0.25100001 112597.79811463 5533.05606112
0.25200001 110102.10645816 6685.40022042
0.25300001 107653.49563903 5332.07789126
0.25400001 105251.05234685 4428.43823701
0.25500001 102894.88537815 4346.28016400
0.25600001 100585.06671036 3877.55450514
0.25700001 98320.22856801  3804.99302561
0.25800001 96100.12550630  4853.53706834
0.25900001 93924.65451799  4395.67403942
0.26000001 91793.40747292  3593.71207260
0.26100001 89703.59014104  3525.35125935
0.26200001 87659.26207103  3803.97385756
0.26300001 85655.92349085  4409.56714996
0.26400001 83694.26028817  4324.90110504
0.26500001 81774.93804721  4241.66623722
0.26600001 79895.64002467  4159.76669472
0.26700001 78057.83978393  4393.09543092
0.26800001 76259.78843708  3384.79086995
0.26900001 74500.74728920  3922.46453039
0.27000001 72781.24817806  4733.69260551
0.27100001 71100.11656103  3771.15036086
0.27200001 69457.41933555  4835.27847587
0.27300001 67851.62128499  3625.31229682
0.27400001 66281.94072445  3007.54320270
0.27500001 64751.00720221  4557.17610256
0.27600001 63254.21150154  3416.67639595
0.27700001 61794.46136732  2834.51207707
0.27800001 60369.17727466  3284.38524507
0.27900001 58978.81140157  3220.24325493
0.28000001 57622.56577338  2671.67038853
0.28100001 56299.78988155  2381.48122470
0.28200001 55010.66892332  2568.72330695
0.28300001 53754.34886920  2747.92244425
0.28400001 52530.37170391  3143.94289528
0.28500001 51338.65486135  3303.64259669
0.28600001 50177.41981786  2592.16563048
0.28700001 49047.61662847  2330.74285250
0.28800001 47947.72559612  2286.38740327
0.28900001 46879.41861637  2243.18028697
0.29000001 45839.19721667  2401.05726386
0.29100001 44829.25464401  2356.22573562
0.29200001 43847.49330073  2119.80716397
0.29300001 42893.89796246  3215.75568247
0.29400001 41967.98303031  2599.91667180
0.29500001 41070.42551154  2370.58507274
0.29600001 40198.68873092  1969.93683451
0.29700001 39353.36627442  2286.82422246
0.29800001 38534.78038371  2246.77047663
0.29900001 37741.58559443  2377.72000501
0.30000001 36973.47668601  1836.28780654
0.30100001 36231.12256825  1805.39692304
0.30200001 35511.96689205  2259.62656031
0.30300001 34817.15843708  2222.72749985
0.30400001 34146.74351188  2030.87766651
0.30500001 33498.13487529  2306.34669535
0.30600001 32872.55615563  1665.15941090
0.30700001 32269.94105218  1789.04561663
0.30800001 31688.93796340  1468.78234414
0.30900001 31129.42652809  1881.77392271
0.31000001 30591.92287392  2426.09255838
0.31100001 30073.48342195  1970.41472710
0.31200001 29576.59687720  1388.62128913
0.31300001 29099.07336828  2467.01955697
0.31400001 28642.71810270  1488.70534387
0.31500001 28204.45109814  1470.58014988
0.31600002 27785.35168605  1585.43224227
0.31700002 27384.29313171  1567.47701308
0.31800002 27001.83795223  1550.44560863
0.31900002 26637.26934822  2173.60128173
0.32000002 26290.04336095  2025.38503643
0.32100002 25960.23420670  1504.65524587
0.32200002 25647.16593187  1615.38682271
0.32300002 25349.76970596  1355.19875265
0.32400002 25068.94342011  1344.32215456
0.32500002 24803.41242918  1698.04169531
0.32600002 24553.66298709  1445.22867185
0.32700002 24318.88843456  1555.43617793
0.32800002 24099.46644814  1308.23959809
0.32900002 23893.24331752  1774.07340033
0.33000002 23702.79515345  1294.52821861
0.33100002 23523.65026308  1288.62562243
0.33200002 23360.49692254  1166.85687654
0.33300002 23208.99795965  1627.87919398
0.33400002 23071.24400178  1275.26307259
0.33500002 22945.53819062  1619.03725140
0.33600002 22831.87827637  1269.56665168
0.33700002 22729.77433498  1267.63957469
0.33800002 22640.48123204  1151.26852517
0.33900002 22561.51792907  1265.70121576
0.34000002 22494.00451657  2186.07993247
0.34100002 22437.27047904  1611.44484212
0.34200002 22391.96158437  1152.06647808
0.34300002 22355.43021233  1614.95635502
0.34400002 22329.98553368  1386.69216732
0.34500002 22313.45135204  1389.68181602
0.34600002 22307.82588704  1625.57134938
0.34700002 22309.13796719  1863.25929127
0.34800002 22321.13194489  1752.76696899
0.34900002 22341.24134320  1524.78979389
0.35000002 22369.86513732  1531.10549184
0.35100002 22406.79841758  1774.61851872
0.35200002 22450.70573703  1545.39440260
0.35300002 22502.99370295  2987.27255555
0.35400002 22563.03772264  1321.62999720
0.35500002 22629.92738777  1208.43817974
0.35600002 22703.40288437  1945.22765127
0.35700002 22783.83634674  1345.84127675
0.35800002 22871.39442226  1477.94957757
0.35900002 22964.71074006  1240.09443870
0.36000002 23064.83850912  1498.75327731
0.36100002 23170.03095983  1635.57256293
0.36200002 23282.06817215  1648.02127363
0.36300002 23397.84431217  1660.77906794
0.36400002 23519.63334079  1545.23998368
0.36500002 23646.00986494  1687.61580400
0.36600002 23777.84650576  1832.55871700
0.36700002 23913.90273790  1584.05699239
0.36800002 24055.76223057  1464.63515279
0.36900002 24200.85981746  1343.14778349
0.37000002 24349.20990850  1490.53695515
0.37100002 24501.86725934  2050.80638675
0.37200002 24658.72137592  1655.58663160
0.37300002 24818.52028364  1531.55095925
0.37400002 24982.74202741  1967.39102786
0.37500002 25148.91838707  1560.23897064
0.37600002 25319.22156560  1574.98225210
0.37700002 25491.19384819  1589.88583563
0.37800002 25666.61221710  2772.37924996
0.37900002 25844.47453160  2209.70267713
0.38000002 26024.76457512  1636.04690252
0.38100002 26206.70101915  1801.97284744
0.38200002 26391.06453264  1971.01674799
0.38300002 26577.02610238  1837.00413122
0.38400002 26765.29891617  1854.83530276
0.38500002 26954.38968274  2028.85700754
0.38600002 27145.73187683  2048.55275313
0.38700002 27337.53014142  2068.35762849
0.38800002 27530.42160794  2248.96024770
0.38900002 27724.57863631  2270.64309789
0.39000002 27920.31119039  1801.27896179
0.39100002 28115.80069745  1653.20915933
0.39200002 28312.74487781  1835.94002858
0.39300002 28509.56556985  2527.37310751
0.39400002 28707.77746693  2211.21666415
0.39500002 28905.16858962  1888.66380513
0.39600002 29102.86235867  1906.38308913
0.39700002 29300.20890530  2273.98932088
0.39800002 29498.69883123  2471.69609217
0.39900002 29696.03620458  2138.11470803
0.40000002 29892.87372452  2517.27901561
0.40100002 30089.33754239  3084.45813761
0.40200002 30286.35140221  2563.13404061
0.40300002 30481.48656129  2401.33162507
0.40400002 30676.28693979  2422.65987586
0.40500002 30870.22686083  2443.99597637
0.40600002 31063.51515848  1896.42769028
0.40700002 31255.42689344  3060.53154642
0.40800002 31446.50793754  2122.16768872
0.40900002 31635.71709674  2140.15636300
0.41000002 31824.52830235  2158.18048908
0.41100002 32011.62999926  2176.15071046
0.41200002 32196.55406053  2194.03428041
0.41300002 32380.58430262  2815.16813266
0.41400002 32562.64727749  3040.53733361
0.41500002 32743.62067773  2860.48283795
0.41600002 32921.70694706  2265.17815382
0.41700002 33098.70121489  2490.34639741
0.41800002 33274.63089291  2300.44171579
0.41900002 33446.52722028  2528.55757767
0.42000002 33617.17754913  2547.50983539
0.42100002 33786.18438393  2566.39868741
0.42200002 33952.96418239  3446.90508713
0.42300002 34116.92310977  2169.83641260
0.42400002 34278.62176986  2403.78846552
0.42500002 34438.38092133  3961.10276127
0.42600002 34594.29158386  4653.10540998
0.42700002 34749.14463509  2900.16374867
0.42800002 34900.85868438  2245.87036276
0.42900002 35050.53299301  3165.06327925
0.43000002 35197.63519395  2958.18539006
0.43100002 35340.61339095  3206.10059876
0.43200002 35481.72497425  2765.44577554
0.43300002 35619.73535136  2318.84488126
0.43400002 35755.37610351  2566.34224144
0.43500002 35887.49768391  2347.04245975
0.43600002 36017.86156790  2833.16512519
0.43700002 36144.26386299  3324.54954766
0.43800002 36266.94620416  4059.90348522
0.43900002 36387.72705826  3602.38514948
0.44000002 36504.67068044  2897.74089594
0.44100002 36619.21991857  2670.63983522
0.44200002 36730.39414399  2928.88176784
0.44300002 36838.67461807  3434.83818417
0.44400002 36943.14112495  3205.74122304
0.44500002 37043.66421391  3469.50975470
0.44600002 37141.77193280  3237.46270395
0.44700002 37236.95035594  3253.02013726
0.44800002 37327.48384833  3268.20800323
0.44900002 37416.37529997  2778.16599769
0.45000002 37501.60524365  3551.77720095
0.45100002 37582.09846172  4076.90623434
0.45200002 37660.25108896  3582.61985588
0.45300002 37734.30510275  2569.70629928
0.45400002 37805.78214814  2838.26922929
0.45500002 37873.56576836  3367.71762773
0.45600002 37937.72166621  3640.88332086
0.45700002 37998.34506294  3132.58371545
0.45800002 38054.97090153  3406.11033197
0.45900002 38108.48752949  3681.28006982
0.46000002 38159.23198421  3430.32432180
0.46100002 38205.18595869  3971.42926863
0.46200002 38248.64773929  3187.64245367
0.46300002 38288.17318418  3464.31407390
0.46400002 38323.71025976  3207.69470077
0.46500002 38356.81563815  3217.36984822
0.46600002 38385.34315280  2957.78275683
0.46700002 38410.54355073  3235.70434207
0.46800002 38432.98040987  3785.26441998
0.46900002 38451.04163660  2981.87842025
0.47000002 38465.29105060  2989.33023568
0.47100002 38476.56365923  3268.96900343
0.47200002 38484.13271178  3276.53921438
0.47300002 38488.96896493  2736.56582311
0.47400002 38488.58885374  3290.77450297
0.47500002 38486.12193190  4396.65477789
0.47600002 38480.40792242  3579.25531255
0.47700002 38469.92442776  2758.29371221
