# SAXS profile: number of points = 501, q_min = 0, q_max = 0.5, delta_q = 0.001
#    q    intensity    error
0.00000000 1700912.83420644 357.19169518
0.00100000 1700842.82358261 561.27814511
0.00200000 1700632.73523054 841.81323060
0.00300000 1700282.73872146 1326.22058345
0.00400000 1699792.69481252 1274.84456955
0.00500000 1699163.09463838 1682.17153027
0.00600000 1698393.63751104 1783.31339199
0.00700000 1697484.99246824 2648.07669831
0.00800000 1696436.64097038 2977.24643060
0.00900000 1695249.87194043 3305.73739160
0.01000000 1693923.93018965 3353.96952660
0.01100000 1692460.00435064 3351.07095452
0.01200000 1690857.61234519 3297.17248863
0.01300000 1689118.15151262 4256.57792955
0.01400000 1687240.79711884 7212.95472744
0.01500000 1685227.41659499 4449.00057792
0.01600000 1683076.85156906 4291.84616336
0.01700000 1680791.22254685 5445.76380534
0.01800000 1678370.06393650 5261.69038720
0.01900000 1675814.20173666 7541.16424809
0.02000000 1673124.16543163 6851.44376737
0.02100000 1670301.72217267 8819.19349292
0.02200000 1667345.05839687 6327.57478409
0.02300000 1664256.87434790 8986.98753055
0.02400000 1661037.37478039 7474.66852734
0.02500000 1657687.79286236 9050.97576239
0.02600000 1654208.13355681 7369.49757206
0.02700000 1650599.83354603 8319.02354209
0.02800000 1646862.49478558 9313.00783510
0.02900000 1642998.71588404 7393.49456094
0.03000000 1639008.88605035 7621.39167045
0.03100000 1634893.28595048 8632.23694701
0.03200000 1630652.76490609 12107.59733708
0.03300000 1626290.55389086 8294.08220720
0.03400000 1621804.21163985 11068.81425516
0.03500000 1617197.41748428 10479.43974922
0.03600000 1612469.62975779 9844.12754461
0.03700000 1607623.02360608 13745.17748751
0.03800000 1602658.68797192 13125.77526195
0.03900000 1597578.10806832 11502.56291078
0.04000000 1592380.04123435 10772.45147813
0.04100000 1587068.39670480 16997.50331682
0.04200000 1581643.62367731 12241.92221520
0.04300000 1576106.04774350 10402.30039796
0.04400000 1570458.85026029 14840.83682420
0.04500000 1564702.02728448 15115.02228589
0.04600000 1558835.98234070 15385.71186094
0.04700000 1552863.76616721 13416.74356367
0.04800000 1546785.75434916 14779.53857047
0.04900000 1540604.40923381 12709.98696780
0.05000000 1534319.70267852 15258.81015368
0.05100000 1527934.70699111 14301.46952366
0.05200000 1521447.78674473 13305.06151512
0.05300000 1514864.15287909 20859.68035758
0.05400000 1508182.62410770 13686.75795204
0.05500000 1501406.90270882 26484.81899928
0.05600000 1494535.29845999 19167.41609718
0.05700000 1487573.44803661 16824.45648263
0.05800000 1480519.40766526 23584.67526533
0.05900000 1473375.38629837 14586.41700562
0.06000000 1466144.31776221 14756.74324769
0.06100000 1458827.84664285 13567.09960779
0.06200000 1451425.99135997 17830.76913733
0.06300000 1443942.11635462 19406.58295117
0.06400000 1436374.77714728 18206.05115178
0.06500000 1428729.84600239 21216.63920560
0.06600000 1421005.19276349 17137.32342656
0.06700000 1413203.94905173 15856.14905041
0.06800000 1405329.40689463 15999.67604643
0.06900000 1397381.65181602 17607.00963722
0.07000000 1389360.88706479 25154.38003825
0.07100000 1381271.74877477 17901.28270258
0.07200000 1373113.11611673 25560.50185394
0.07300000 1364889.91550797 18180.33452642
0.07400000 1356601.36692736 16787.94270248
0.07500000 1348250.04503622 18444.06148061
0.07600000 1339836.00007628 20117.63848427
0.07700000 1331364.65937424 15576.96724506
0.07800000 1322834.49199968 21945.82525145
0.07900000 1314247.60530886 22079.36080479
0.08000000 1305607.71816706 17449.44797187
0.08100000 1296915.50704747 19142.47378215
0.08200000 1288171.15981844 19245.27803078
0.08300000 1279378.43760007 20956.21979141
0.08400000 1270537.57804813 17819.29036854
0.08500000 1261652.77857745 19530.38592924
0.08600000 1252723.19380019 22887.25382532
0.08700000 1243752.17031707 22984.54118676
0.08800000 1234738.85816617 21428.89388986
0.08900000 1225689.20921781 19856.16612197
0.09000000 1216601.77078406 24909.92242696
0.09100000 1207479.33077872 28327.46643093
0.09200000 1198323.02208545 26746.57110968
0.09300000 1189136.40567544 18443.50651873
0.09400000 1179917.62520651 18495.20964434
0.09500000 1170670.98419440 21914.96185418
0.09600000 1161397.46587903 16898.33392289
0.09700000 1152100.71154385 22016.64563267
0.09800000 1142780.96630712 20364.35777708
0.09900000 1133440.18684229 20401.92432251
0.10000000 1124078.01628746 18732.76102238
0.10100000 1114697.94124302 22171.34309408
0.10200000 1105301.80116982 20492.29635757
0.10300000 1095890.29679217 17095.88943416
0.10400000 1086466.58014505 20534.21933078
0.10500000 1077033.09752788 18837.30976205
0.10600001 1067586.46936998 22275.19273153
0.10700001 1058133.58257302 22284.29429763
0.10800001 1048672.71564672 20574.95964928
0.10900001 1039207.98500189 18861.62581552
0.11000001 1029739.32346232 18859.67659693
0.11100001 1020268.70401160 20568.61804111
0.11200001 1010798.53764851 22272.94682563
0.11300001 1001328.03266456 29108.60728002
0.11400001 991861.80200056 17109.61689011
0.11500001 982399.74632128 22221.88330817
0.11600001 972943.19149205 17075.15381478
0.11700001 963494.93527657 18759.24727330
0.11800001 954053.64318035 18732.84416613
0.11900001 944623.08083138 18703.53788143
0.12000001 935203.68356757 23763.52671883
0.12100001 925799.23587071 22024.76485891
0.12200001 916407.36240611 16907.71663294
0.12300001 907032.71276386 21932.05202795
0.12400001 897674.03956399 20197.66684185
0.12500001 888334.33906398 18468.47177938
0.12600001 879015.88215461 23443.35468180
0.12700001 869718.42592259 18368.45402112
0.12800001 860442.40581172 18314.51747085
0.12900001 851190.89801360 24897.33494036
0.13000001 841964.67196494 19853.52790073
0.13100001 832763.47032215 18137.58923858
0.13200001 823591.43800717 26289.03994046
0.13300001 814449.00477141 19644.51092119
0.13400001 805335.10210796 26092.85853846
0.13500001 796253.29243612 17867.92472471
0.13600001 787203.02720482 21030.12986336
0.13700001 778187.05245633 17719.32001995
0.13800001 769204.34944587 17641.70258645
0.13900001 760259.73073832 17562.00060825
0.14000001 751350.34609977 15891.06056944
0.14100001 742479.51275791 18977.77724114
0.14200001 733646.44026037 23605.07532872
0.14300001 724856.08440074 23485.33824233
0.14400001 716102.36809493 18690.27268890
0.14500001 707394.23003239 21688.70811590
0.14600001 698726.93056248 18488.31545486
0.14700001 690106.08202509 22980.53361558
0.14800001 681527.60677959 16755.35700317
0.14900001 672994.36710627 22713.56096148
0.15000001 664508.56667393 19566.45566892
0.15100001 656069.53924140 14958.38620051
0.15200001 647680.16058481 22296.39058023
0.15300001 639339.48928586 17722.49147931
0.15400001 631046.34043455 16139.01091823
0.15500001 622805.99768617 14573.66103363
0.15600001 614614.95692534 15921.60121057
0.15700001 606479.12995745 14373.55605838
0.15800001 598391.49061073 17125.96526960
0.15900001 590360.44039576 17002.38148592
0.16000001 582381.11803684 18283.85606381
0.16100001 574459.60739285 13959.36911859
0.16200001 566590.90854661 13853.14836792
0.16300001 558779.54614883 17869.77072943
0.16400001 551024.04335697 20456.76857538
0.16500001 543326.12190230 17587.46739630
0.16600001 535685.03091461 20128.36598694
0.16700001 528101.92255819 15969.80289217
0.16800001 520576.38520849 15835.93438576
0.16900001 513112.14847468 18318.10456549
0.17000001 505706.26434199 18159.91281003
0.17100001 498360.67514144 20572.32964129
0.17200001 491075.10487232 12743.39957322
0.17300001 483850.35746064 15154.19391132
0.17400001 476687.98682559 17518.28434316
0.17500001 469586.02678835 14876.48603124
0.17600001 462544.33880807 14736.66333042
0.17700001 455567.11783471 12163.64262068
0.17800001 448651.54725541 18069.44191917
0.17900001 441798.37643451 13121.41239988
0.18000001 435008.83464996 12991.53946048
0.18100001 428283.81648338 15199.79336498
0.18200001 421619.11549797 15045.47884726
0.18300001 415021.07912664 17181.87348750
0.18400001 408485.07570996 12469.00752509
0.18500001 402014.34731915 12337.82090209
0.18600001 395607.37130645 14425.82347622
0.18700001 389264.49561549 13172.71115397
0.18800001 382985.23655636 17372.21115097
0.18900001 376773.00207181 13959.44038631
0.19000001 370621.32851630 16989.28250191
0.19100001 364539.07560884 10498.72587360
0.19200001 358518.30495116 11417.01596064
0.19300001 352564.73647922 10259.63431634
0.19400001 346674.72524401 16224.37790808
0.19500001 340850.25066505 10020.99784310
0.19600001 335089.43076160 9901.89314693
0.19700001 329394.01933751 11739.60340397
0.19800001 323763.66649023 13530.08426204
0.19900001 318198.96848874 12409.76035755
0.20000001 312696.72839762 9427.80680676
0.20100001 307261.06630035 10241.01182380
0.20200001 301888.44528122 11031.00431194
0.20300001 296581.32309311 11798.00559027
0.20400001 291338.29165380 9854.51818097
0.20500001 286158.83191942 10610.76998911
0.20600001 281043.70680306 11344.32976133
0.20700001 275992.28346911 12055.34351178
0.20800001 271004.29543095 11044.78058238
0.20900001 266082.04713142 10057.90185702
0.21000001 261220.82267095 9094.40337120
0.21100001 256422.91419148 9785.09886812
0.21200001 251687.82692405 8845.56909542
0.21300001 247015.14076062 9515.02367193
0.21400001 242405.91904400 12508.14601401
0.21500001 237859.32416975 10789.29945443
0.21600001 233372.94742884 8355.91877775
0.21700001 228949.23876299 9732.63259997
0.21800001 224586.74285409 9590.97730705
0.21900001 220284.10172253 10904.06355083
0.22000001 216042.19776549 7877.97911401
0.22100001 211863.27789331 7760.55223618
0.22200001 207742.91319329 9033.70100736
0.22300001 203682.42044265 9581.22151067
0.22400001 199679.74789359 7413.11099109
0.22500001 195739.09069429 8626.22213481
0.22600001 191855.73146115 6532.68796517
0.22700001 188031.64584937 10289.09214744
0.22800001 184264.68975764 7595.39087100
0.22900001 180555.22301256 8097.90213507
0.23000001 176903.29327133 7968.60922226
0.23100001 173309.63090069 6634.29298463
0.23200001 169770.57602886 11273.61563437
0.23300001 166288.94144084 7004.09054474
0.23400001 162863.04158062 6315.01473596
0.23500001 159490.90400404 5645.97826878
0.23600001 156174.72277373 7217.61515436
0.23700001 152912.78024957 7096.68246704
0.23800001 149705.07767163 8050.39093257
0.23900001 146550.86342322 5275.83133278
0.24000001 143449.68985620 6741.41849366
0.24100001 140402.21948980 5096.60080855
0.24200001 137406.43941702 6511.00443976
0.24300001 134462.64380606 7874.13279375
0.24400001 131569.62862996 5318.70248896
0.24500001 128727.97326450 6650.08741342
0.24600001 125936.73440202 6998.93434548
0.24700001 123196.45184362 5499.48987046
0.24800001 120504.59837881 4500.84696237
0.24900001 117861.67760591 4419.81311931
0.25000001 115268.01712238 5207.80925996
0.25100001 112721.92794810 4260.88907802
0.25200001 110224.64607591 6274.53827472
0.25300001 107774.32553237 4516.82219675
0.25400001 105370.17718935 4433.45041499
0.25500001 103012.25694872 4746.80502478
0.25600001 100700.72581092 5046.61711278
0.25700001 98434.07360226  4190.33871151
0.25800001 96212.23356656  4859.19908619
0.25900001 94034.86254320  4767.56775652
0.26000001 91901.77906655  5037.13674897
0.26100001 89810.18073821  4235.44832402
0.26200001 87763.87856322  4847.19924240
0.26300001 85758.60666810  4075.24918170
0.26400001 83794.93315009  4330.10337542
0.26500001 81873.67140652  5226.81542992
0.26600001 79992.36331660  3524.06373267
0.26700001 78152.47678983  3455.90268718
0.26800001 76352.43301841  3388.90289989
0.26900001 74591.23380029  3927.22864543
0.27000001 72869.61623045  3850.79505193
0.27100001 71186.34698786  3194.84340400
0.27200001 69541.46502750  3417.26775317
0.27300001 67933.48293727  4467.30604937
0.27400001 66361.58584244  2737.41554555
0.27500001 64828.48539896  3757.45919155
0.27600001 63329.36379451  2631.33519019
0.27700001 61867.35955060  2837.85591689
0.27800001 60439.76095638  3288.22535045
0.27900001 59047.09436593  2975.97369689
0.28000001 57688.51641234  3404.19951461
0.28100001 56363.36180771  3099.42141250
0.28200001 55071.92015264  2805.36374535
0.28300001 53813.11080438  3897.14566891
0.28400001 52586.78989585  4271.36221146
0.28500001 51392.58086784  2866.16437066
0.28600001 50229.03260313  2811.06794269
0.28700001 49096.64204375  2545.17004402
0.28800001 47994.29327071  2288.60798294
0.28900001 46923.49501870  2245.28934292
0.29000001 45880.78103086  3204.31389887
0.29100001 44868.29749753  2161.75467576
0.29200001 43884.01865580  3278.79460907
0.29300001 42927.83958975  2650.36494173
0.29400001 41999.32956966  2044.31746357
0.29500001 41099.14887605  2007.28252612
0.29600001 40224.93842318  1971.22320074
0.29700001 39376.93827186  1760.14922407
0.29800001 38555.71280023  1902.14618104
0.29900001 37759.86462748  1699.19398868
0.30000001 36989.20457199  2338.08773168
0.30100001 36244.18280165  1806.04771450
0.30200001 35522.35682788  2260.28767196
0.30300001 34824.85007129  1746.81456227
0.30400001 34151.73166338  1874.93015708
0.30500001 33500.51262626  1998.97568305
0.30600001 32872.17393798  2119.26915411
0.30700001 32266.78264121  1937.94305718
0.30800001 31683.16597538  2055.92073748
0.30900001 31120.95583067  1881.26186903
0.31000001 30580.69581290  1854.56638538
0.31100001 30059.55006698  1406.78700974
0.31200001 29559.92443504  1942.97392511
0.31300001 29079.70675418  1917.51595416
0.31400001 28620.65659170  1622.79130558
0.31500001 28179.60479666  1469.28466366
0.31600002 27757.81606839  1319.88421655
0.31700002 27353.91851699  1435.26017254
0.31800002 26968.75787854  1419.50063815
0.31900002 26601.45853256  1532.24408403
0.32000002 26251.54703673  1390.41325464
0.32100002 25919.01704297  1752.64401543
0.32200002 25603.18496007  1612.61668107
0.32300002 25303.02476026  2090.53600468
0.32400002 25019.54191679  1585.61354406
0.32500002 24751.27594615  1210.33745108
0.32600002 24498.83857984  1201.66808924
0.32700002 24261.33305425  1551.75493563
0.32800002 24039.19827600  1304.96794021
0.32900002 23830.27877329  1533.47851168
0.33000002 23637.17762441  1643.02029448
0.33100002 23455.32413357  1518.49775631
0.33200002 23289.55049278  1279.64441242
0.33300002 23135.38774430  1390.89957705
0.33400002 22994.97124620  1271.04709582
0.33500002 22866.59828826  1382.97192997
0.33600002 22750.40797200  1725.04976617
0.33700002 22645.53267453  1262.94141707
0.33800002 22553.75318093  1605.60176499
0.33900002 22472.14414081  1260.68734600
0.34000002 22402.10361824  1260.45441977
0.34100002 22342.78453225  1375.42188094
0.34200002 22294.92022118  1261.78106967
0.34300002 22255.86921102  1263.24319624
0.34400002 22227.86205627  1150.29191589
0.34500002 22208.93143121  1498.43667463
0.34600002 22200.79018341  1848.88189404
0.34700002 22199.61616955  1390.58402272
0.34800002 22209.17879144  1162.65056480
0.34900002 22226.83649208  1516.98166243
0.35000002 22253.13371652  1640.27856393
0.35100002 22287.60807871  1765.17864344
0.35200002 22329.20297716  1300.56448900
0.35300002 22379.13286366  1188.33201134
0.35400002 22436.88322414  1314.24049710
0.35500002 22501.46034001  1682.20925470
0.35600002 22572.68763429  1450.52097608
0.35700002 22650.86681556  1459.62192673
0.35800002 22736.19997950  1469.21331226
0.35900002 22827.36851619  1602.48134574
0.36000002 22925.33733285  1365.54778291
0.36100002 23028.30733709  1750.61200669
0.36200002 23138.26240610  1511.85413723
0.36300002 23251.91451468  1777.37642969
0.36400002 23371.67286216  1919.39872472
0.36500002 23495.99306640  1418.92308849
0.36600002 23625.85692077  1690.78453062
0.36700002 23759.91555499  1442.70214084
0.36800002 23899.83914378  1455.14177520
0.36900002 24042.94407862  1467.82180553
0.37000002 24189.47831595  1615.37343846
0.37100002 24340.25181861  2037.27917372
0.37200002 24495.36187529  1507.56711803
0.37300002 24653.33478627  1936.27300584
0.37400002 24815.78779604  2093.83219448
0.37500002 24980.23379244  1549.77377790
0.37600002 25148.90712301  1564.38784169
0.37700002 25319.16879811  1866.27602052
0.37800002 25493.00996309  1884.06099057
0.37900002 25669.31357300  1755.78113157
0.38000002 25848.00703027  1624.93503894
0.38100002 26028.44865667  1640.57319655
0.38200002 26211.34551705  1807.01024555
0.38300002 26395.84703960  1824.48103381
0.38400002 26582.73594315  1688.66838079
0.38500002 26770.42409605  1705.00839145
0.38600002 26960.54488247  1878.07164549
0.38700002 27150.94651343  1896.22219433
0.38800002 27342.62950954  1754.98675821
0.38900002 27535.62551438  2094.08441958
0.39000002 27730.14057396  1951.64738606
0.39100002 27924.48597342  1806.15583833
0.39200002 28120.32165905  2652.30886454
0.39300002 28316.13183839  2175.52851221
0.39400002 28513.32312732  2196.23881793
0.39500002 28709.75495688  1875.89547776
0.39600002 28906.52121013  1893.52176158
0.39700002 29102.96051480  1737.44682505
0.39800002 29300.65866013  2104.37340467
0.39900002 29497.10533105  2300.77432483
0.40000002 29693.21797645  2500.46600427
0.40100002 29888.98422172  1982.53641736
0.40200002 30085.26798592  2000.51998951
0.40300002 30279.83032666  3119.42826805
0.40400002 30473.99144559  2036.42457484
0.40500002 30667.37218339  2614.70027624
0.40600002 30860.11047746  2449.21278409
0.40700002 31051.61485174  1900.35891897
0.40800002 31242.25864815  2108.38392477
0.40900002 31431.13583942  1933.01494571
0.41000002 31619.59718274  2924.02238802
0.41100002 31806.40090703  2162.19923611
0.41200002 31991.06350926  1981.84647830
0.41300002 32174.89809571  1998.06126642
0.41400002 32356.83249982  2417.05550226
0.41500002 32537.67901141  2436.42151982
0.41600002 32715.68340443  2455.63931269
0.41700002 32892.61183930  2268.60354605
0.41800002 33068.57924831  2701.86839551
0.41900002 33240.50198046  2512.98206880
0.42000002 33411.31110565  2109.92439630
0.42100002 33580.48306212  2550.77361427
0.42200002 33747.43858855  2355.40258790
0.42300002 33911.63142695  2372.45784705
0.42400002 34073.55675463  3041.06508445
0.42500002 34233.68431957  2843.79229118
0.42600002 34389.93851942  3524.28106647
0.42700002 34545.21851578  3104.92438733
0.42800002 34697.39784729  2232.77765728
0.42900002 34847.61415309  2697.20546326
0.43000002 34995.20059182  2714.92779057
0.43100002 35138.79698973  2504.69356812
0.43200002 35280.54902725  2749.76612149
0.43300002 35419.19867779  2997.52692615
0.43400002 35555.55547487  2784.00012561
0.43500002 35688.42960328  3267.63276932
0.43600002 35819.58516718  2347.97391898
0.43700002 35946.82832350  3306.38942588
0.43800002 36070.41679849  3800.37929399
0.43900002 36192.08818500  3344.14910677
0.44000002 36310.05125356  2882.29200510
0.44100002 36425.55215395  2898.01706671
0.44200002 36537.80183917  3156.31816145
0.44300002 36647.15896507  4149.19153466
0.44400002 36752.71332207  2943.89247661
0.44500002 36854.45644628  2712.11957841
0.44600002 36953.81104327  4459.95566618
0.44700002 37050.21385542  2738.75193799
0.44800002 37142.03775712  2501.51636149
0.44900002 37232.25595681  2764.49513581
0.45000002 37318.80001823  3534.46371723
0.45100002 37400.75120514  2535.77105188
0.45200002 37480.35145354  2546.79000197
0.45300002 37555.88856686  2557.55613261
0.45400002 37628.83929252  3081.80208411
0.45500002 37698.22510352  4125.69395086
0.45600002 37763.97580351  2847.59273042
0.45700002 37826.22652418  3118.39426245
0.45800002 37884.47817090  3912.51966853
0.45900002 37939.72753369  2617.84132390
0.46000002 37992.18620974  2627.15980092
0.46100002 38039.90188577  3163.39839075
0.46200002 38085.13782235  2645.01294712
0.46300002 38126.53761929  3715.05000170
0.46400002 38163.94078055  3194.32199473
0.46500002 38198.90268790  3471.13445177
0.46600002 38229.40822273  3213.56420751
0.46700002 38256.55061737  2954.17097869
0.46800002 38280.96141260  3231.67891562
0.46900002 38301.08855005  2700.22687076
0.47000002 38317.34426617  2977.83255078
0.47100002 38330.74249801  3256.58003698
0.47200002 38340.41714108  2992.27799760
0.47300002 38347.38991430  4362.39928342
0.47400002 38349.21290233  3005.61970368
0.47500002 38348.92263419  3833.35848821
0.47600002 38345.41278795  3017.97585652
0.47700002 38337.20683030  2748.77786002
