# SAXS profile: number of points = 501, q_min = 0, q_max = 0.5, delta_q = 0.001
#    q    intensity    error
0.00000000 1682732.95097188 353.37391970
0.00100000 1682663.57091156 504.79908326
0.00200000 1682455.37335362 1059.94691878
0.00300000 1682108.53349874 1211.11818726
0.00400000 1681622.91005742 1261.21723047
0.00500000 1680998.97761137 1512.89913973
0.00600000 1680236.47060374 2293.52287575
0.00700000 1679336.02344729 3224.32529902
0.00800000 1678297.12500544 3171.98170018
0.00900000 1677121.03252705 4528.22698139
0.01000000 1675807.06837860 3318.09813866
0.01100000 1674356.35070097 3315.22571873
0.01200000 1672768.41182172 3914.27825528
0.01300000 1671044.66710922 4211.03274684
0.01400000 1669184.24766299 5633.49708560
0.01500000 1667189.03428495 4801.50463255
0.01600000 1665057.90044162 4245.89783593
0.01700000 1662792.91599328 6734.31161187
0.01800000 1660393.67593540 5678.54662722
0.01900000 1657860.92878954 6963.01621511
0.02000000 1655195.23071116 5213.86521259
0.02100000 1652398.31986371 7634.08058389
0.02200000 1649468.35354372 9105.06572523
0.02300000 1646408.16235708 7705.19055056
0.02400000 1643217.86900473 11091.72112154
0.02500000 1639898.62328963 7035.16541521
0.02600000 1636450.45708951 7953.14958522
0.02700000 1632874.95218059 10972.92018123
0.02800000 1629171.50610607 8504.27565188
0.02900000 1625342.84332697 8776.85175695
0.03000000 1621389.32156845 9801.29889940
0.03100000 1617311.13577955 7763.09380895
0.03200000 1613109.19256601 7984.89087097
0.03300000 1608786.69124528 9845.77500432
0.03400000 1604341.15971185 9265.07062483
0.03500000 1599776.36840903 11230.43062483
0.03600000 1595091.69500923 8852.75931642
0.03700000 1590289.26793613 9064.64924645
0.03800000 1585370.39138683 9274.41721883
0.03900000 1580336.16255064 11378.42089730
0.04000000 1575185.63723670 10656.13132970
0.04100000 1569922.63560565 11868.61567549
0.04200000 1564547.59577663 11100.46570702
0.04300000 1559060.74643765 15434.70210618
0.04400000 1553465.35035782 14680.24824266
0.04500000 1547761.38792504 12815.46488749
0.04600000 1541949.21849500 11957.81674531
0.04700000 1536032.00002573 15483.20328035
0.04800000 1530009.89810557 13494.68792917
0.04900000 1523885.52150407 12572.05613761
0.05000000 1517658.79551882 19737.15355481
0.05100000 1511332.74973896 11788.39599711
0.05200000 1504905.71371681 14356.80117790
0.05300000 1498382.99376295 14564.28337833
0.05400000 1491763.31771424 17229.86712309
0.05500000 1485050.31027865 13721.86550709
0.05600000 1478242.56408934 13902.87196403
0.05700000 1471345.30629133 14080.77523848
0.05800000 1464356.87899258 15551.47078104
0.05900000 1457279.37511536 14427.06648747
0.06000000 1450115.66321551 14595.41483214
0.06100000 1442867.39988498 18786.13442440
0.06200000 1435534.56978731 20348.70347791
0.06300000 1428120.68112753 19193.94285177
0.06400000 1420624.06029532 15236.19375921
0.06500000 1413050.91806043 13989.20474318
0.06600000 1405398.68451824 19773.96041637
0.06700000 1397670.72415669 14256.24205358
0.06800000 1389870.20019627 18700.70441900
0.06900000 1381997.19703039 17413.16549785
0.07000000 1374052.08319767 20487.11751986
0.07100000 1366039.31093457 16228.54777401
0.07200000 1357957.82120921 17843.56660660
0.07300000 1349812.40927014 16481.21028943
0.07400000 1341602.35681953 18111.63266585
0.07500000 1333330.28149785 16719.96251369
0.07600000 1324996.11450231 18364.44700794
0.07700000 1316605.36721017 15404.28351864
0.07800000 1308156.49815267 20152.15179910
0.07900000 1299651.59530908 23393.72981282
0.08000000 1291094.22840910 17255.47517216
0.08100000 1282485.07595050 18929.48060917
0.08200000 1273824.62960572 17445.02912106
0.08300000 1265116.19408265 23910.69719034
0.08400000 1256360.38640475 20824.17438212
0.08500000 1247560.91739205 20921.59756683
0.08600000 1238717.50330733 17781.79059486
0.08700000 1229833.03239013 32467.59357970
0.08800000 1220906.93087654 16299.10829267
0.08900000 1211944.88115208 21269.63366325
0.09000000 1202945.69425369 22988.29329707
0.09100000 1193911.83148786 18123.58245345
0.09200000 1184844.62144059 19834.29989486
0.09300000 1175747.40508673 21551.45094799
0.09400000 1166618.60302814 18286.74746190
0.09500000 1157462.43364738 21667.69777632
0.09600000 1148279.80399638 18378.21912688
0.09700000 1139074.08011733 25116.58464739
0.09800000 1129845.83086113 20133.85365259
0.09900000 1120597.05704821 18489.85231073
0.10000000 1111327.19065071 21887.59004918
0.10100000 1102039.75769719 21919.57181151
0.10200000 1092736.63961800 16882.78187620
0.10300000 1083418.37297362 18591.46015478
0.10400000 1074088.17539060 18608.57851408
0.10500000 1064748.46210242 23701.30188153
0.10600001 1055395.94856473 25408.65865726
0.10700001 1046037.63984152 22029.55373172
0.10800001 1036671.30178913 25424.36487289
0.10900001 1027301.30769123 23730.66132457
0.11000001 1017927.66521086 18643.34606587
0.11100001 1008552.12460779 18638.04414011
0.11200001 999177.56164415 18629.66651389
0.11300001 989802.66972442 22003.31438391
0.11400001 980432.16250137 27059.92895914
0.11500001 971065.87633353 18586.20174821
0.11600001 961705.26693279 18565.72105242
0.11700001 952353.21512008 21913.64851193
0.11800001 943008.18333280 28615.58467098
0.11900001 933673.69523051 20167.35276689
0.12000001 924350.70715971 21810.05596279
0.12100001 915042.49101698 23443.38972423
0.12200001 905747.11206289 23395.44900677
0.12300001 896468.93426827 25011.48444449
0.12400001 887206.74414856 26616.20357855
0.12500001 877963.53023031 23230.91610455
0.12600001 868741.50920766 26479.24244844
0.12700001 859540.49994936 19803.81405212
0.12800001 850360.91135646 16454.48441024
0.12900001 841205.76591305 18043.86452928
0.13000001 832075.69809044 22890.40353340
0.13100001 822970.78204280 19553.78670306
0.13200001 813894.67806545 24355.79938925
0.13300001 804848.44240683 25883.92712805
0.13400001 795830.41910914 20950.23677076
0.13500001 786844.37844397 20867.11390018
0.13600001 777889.73841180 22379.88882934
0.13700001 768969.17762854 17509.42900023
0.13800001 760081.90267657 20602.02094355
0.13900001 751232.29638464 22086.23055525
0.14000001 742417.96064222 17272.35466892
0.14100001 733641.77055829 17189.22749488
0.14200001 724903.25783951 21768.84585965
0.14300001 716207.02779220 17017.07978300
0.14400001 707547.44961307 21544.82085698
0.14500001 698933.08620678 15306.63530997
0.14600001 690359.26332370 22833.63371159
0.14700001 681831.86363390 15136.66808677
0.14800001 673346.31917472 16554.22003792
0.14900001 664905.69749893 22440.56834935
0.15000001 656512.32116764 17844.00573127
0.15100001 648165.51123579 14778.17435348
0.15200001 639867.68481884 19090.45327739
0.15300001 631618.44977222 16049.42556607
0.15400001 623416.41031366 15943.87544618
0.15500001 615266.83529324 18716.41801290
0.15600001 607166.03399651 14298.76077545
0.15700001 599120.29565929 22718.64268365
0.15800001 591122.36594145 15508.09600244
0.15900001 583180.44319876 20994.49694611
0.16000001 575289.89614532 15282.57681248
0.16100001 567456.61211529 15168.11595784
0.16200001 559675.96706004 21894.52486494
0.16300001 551952.06005122 23082.63624102
0.16400001 544283.65155196 14818.12311306
0.16500001 536672.31282380 20044.71183031
0.16600001 529117.63513554 14579.83712452
0.16700001 521620.04417123 14459.30830712
0.16800001 514179.74811466 18248.24012221
0.16900001 506800.10826397 14215.74370804
0.17000001 499478.69784105 16655.11796596
0.17100001 492216.78481968 12699.19364802
0.17200001 485014.48246839 18879.18962161
0.17300001 477872.55502895 12472.47427526
0.17400001 470792.36831878 12358.30025200
0.17500001 463772.10217345 15916.65929830
0.17600001 456811.55002858 14554.01667128
0.17700001 449915.01507644 14415.27776389
0.17800001 443079.46068451 15465.68930567
0.17900001 436305.74717580 15314.33244922
0.18000001 429595.30825522 12829.86448706
0.18100001 422948.58832564 23092.99401341
0.18200001 416361.69274262 19429.51930964
0.18300001 409840.93379211 11311.61030701
0.18400001 403381.55947234 12313.22268458
0.18500001 396986.97280258 12183.53077089
0.18600001 390655.39646178 16436.82658266
0.18700001 384387.34434458 17343.55779622
0.18800001 378182.66592638 13937.92281123
0.18900001 372043.93615963 12723.90321783
0.19000001 365965.35881782 10484.90802553
0.19100001 359955.57899630 12440.06539791
0.19200001 354006.39341483 13323.03124570
0.19300001 348123.96179891 14182.57087385
0.19400001 342304.70801840 14017.37845573
0.19500001 336550.29363595 12862.95283061
0.19600001 330858.54087491 13687.61848282
0.19700001 325231.88333962 12557.20360917
0.19800001 319669.50552290 14313.20278621
0.19900001 314172.10131859 9425.16348499
0.20000001 308736.70738159 12100.93581773
0.20100001 303367.10875232 12868.83336148
0.20200001 298059.84440198 11798.69949830
0.20300001 292817.42148467 9856.23487303
0.20400001 287638.42773368 9729.37027796
0.20500001 282522.25274893 9602.93182484
0.20600001 277470.00835900 8615.44416678
0.20700001 272480.55201694 10201.67234974
0.20800001 267554.06292593 12581.73040383
0.20900001 262692.59427272 9929.78053290
0.21000001 257891.39397679 9794.71560626
0.21100001 253152.78974120 8855.28500377
0.21200001 248476.42127492 9526.58644204
0.21300001 243861.86555896 7827.96625451
0.21400001 239309.89464933 9261.29336077
0.21500001 234819.93726714 7608.16632715
0.21600001 230389.73337732 7499.18617598
0.21700001 226021.33700314 8869.07768333
0.21800001 221713.60980904 7283.29242659
0.21900001 217464.86529674 7176.34089410
0.22000001 213276.25398011 7777.11896911
0.22100001 209149.81669538 8357.62707033
0.22200001 205081.41603376 11661.95527419
0.22300001 201072.18138775 7431.62817550
0.22400001 197120.09784541 7983.36434024
0.22500001 193229.52073830 9170.67348790
0.22600001 189395.28937721 9028.47387155
0.22700001 185619.62968783 9522.28745329
0.22800001 181900.65672064 9372.43178075
0.22900001 178238.40435297 6149.22524098
0.23000001 174633.00521894 6656.13730870
0.23100001 171085.13822145 7739.89201918
0.23200001 167591.42105494 5857.32044288
0.23300001 164154.27819375 7490.36006823
0.23400001 160772.22320594 7934.10959046
0.23500001 157443.41458177 6130.84685378
0.23600001 154169.73935541 7124.95484130
0.23700001 150949.73158352 6466.68680690
0.23800001 147783.25800164 5827.83305494
0.23900001 144669.59742306 6249.72690429
0.24000001 141608.23166524 6142.96538020
0.24100001 138600.19469920 7546.78095834
0.24200001 135643.09777540 5438.61026256
0.24300001 132737.29274331 6315.64068747
0.24400001 129881.62261443 6682.40979961
0.24500001 127076.69426561 7502.60838435
0.24600001 124321.65993129 5066.72949018
0.24700001 121616.82194547 4524.14599039
0.24800001 118959.82316964 7109.03936892
0.24900001 116351.01046617 6544.74464834
0.25000001 113791.03240435 4712.65582997
0.25100001 111277.87502900 5468.19503762
0.25200001 108813.01330679 4955.34486043
0.25300001 106394.45793796 6080.44355882
0.25400001 104021.46684720 4376.70342466
0.25500001 101694.07993697 4686.06342520
0.25600001 99412.55932358  4598.82521189
0.25700001 97175.16281892  4136.74687692
0.25800001 94982.18016030  5166.08102335
0.25900001 92833.02214131  4344.58564178
0.26000001 90727.65805332  4262.38557702
0.26100001 88663.11070818  5575.13666512
0.26200001 86643.27035212  4101.69261255
0.26300001 84663.84943676  4358.49517524
0.26400001 82725.62437660  3617.17809703
0.26500001 80829.15128563  4515.11660447
0.26600001 78972.04844319  3795.39682778
0.26700001 77155.92593056  3722.00204302
0.26800001 75379.07519587  3041.54582808
0.26900001 73640.46606745  3877.17072192
0.27000001 71941.03952164  4679.04543191
0.27100001 70279.28651719  3727.61353327
0.27200001 68655.34576559  3654.86750479
0.27300001 67067.98931177  3307.79338939
0.27400001 65516.15676507  3513.30407279
0.27500001 64002.50646161  2914.67428220
0.27600001 62522.41654600  3636.92914260
0.27700001 61078.98837587  3056.39272298
0.27800001 59669.43294025  3745.74883010
0.27900001 58294.40684571  2938.03824407
0.28000001 56952.82316939  2640.61777123
0.28100001 55644.35722048  3059.88334838
0.28200001 54369.03619887  2538.76226546
0.28300001 53125.86293999  2489.47805520
0.28400001 51914.87518681  3550.97763085
0.28500001 50735.41889546  2611.85948836
0.28600001 49586.22401454  3202.03056730
0.28700001 48467.76379358  2303.18824449
0.28800001 47378.84182874  2875.42204669
0.28900001 46321.03819423  3425.44093660
0.29000001 45290.91193902  2570.03291963
0.29100001 44290.70571340  1939.93300207
0.29200001 43318.14738184  2665.36573457
0.29300001 42373.30934484  2616.12824279
0.29400001 41455.85841729  2017.86400398
0.29500001 40566.37671288  1801.14721131
0.29600001 39702.26928572  1945.60979845
0.29700001 38864.09833190  2084.67033321
0.29800001 38052.40819901  1877.31564737
0.29900001 37265.60923637  2347.73349303
0.30000001 36503.71081456  1812.95688343
0.30100001 35767.02864067  1944.29576895
0.30200001 35053.21289317  2708.38662241
0.30300001 34363.39787541  1566.97101730
0.30400001 33697.58302794  2004.16384547
0.30500001 33053.43466011  1972.29853954
0.30600001 32431.78097185  1493.48358446
0.30700001 31832.71330198  1470.67142418
0.30800001 31255.06758282  1883.27418636
0.30900001 30698.64313676  2283.97915751
0.31000001 30163.80037284  1407.14135401
0.31100001 29647.79274300  1665.02011928
0.31200001 29153.05314055  1368.73590975
0.31300001 28677.28793265  1890.98045581
0.31400001 28222.40299701  2000.26290712
0.31500001 27785.48728510  1448.73537564
0.31600002 27367.32971305  1821.84322526
0.31700002 26966.92789563  1800.85153014
0.31800002 26584.95892901  1399.29937948
0.31900002 26220.60657919  1636.16592801
0.32000002 25873.31184490  1744.12003405
0.32100002 25543.29530509  1480.48946598
0.32200002 25229.68031345  1344.61587597
0.32300002 24931.51232116  1575.17302304
0.32400002 24649.74194696  1682.34496754
0.32500002 24383.03055218  1550.02932560
0.32600002 24131.95676187  1183.67253522
0.32700002 23895.54886034  1410.79327152
0.32800002 23674.28762400  1168.32614957
0.32900002 23466.11228067  1393.88713548
0.33000002 23273.50952321  1502.18874331
0.33100002 23092.05363224  1379.98119041
0.33200002 22926.34456146  1374.20515809
0.33300002 22772.16517021  1369.06263487
0.33400002 22631.64060123  1592.13599169
0.33500002 22502.85951023  1360.97300763
0.33600002 22386.17187772  1697.43156301
0.33700002 22280.60163984  1355.55186796
0.33800002 22187.95923563  1353.90933668
0.33900002 22105.33371331  1352.84648732
0.34000002 22034.26681649  1690.57920156
0.34100002 21973.66349412  1352.69878876
0.34200002 21924.35244384  1353.60958399
0.34300002 21883.84312086  1242.12699437
0.34400002 21854.14721047  1357.14260604
0.34500002 21833.47434582  1699.73605832
0.34600002 21823.44592160  1363.09249682
0.34700002 21820.34689938  1252.92437830
0.34800002 21827.76910671  1371.22052023
0.34900002 21843.27171320  1490.80336503
0.35000002 21867.23735341  1151.31010119
0.35100002 21899.39328418  1156.28802017
0.35200002 21938.59364830  1510.14316531
0.35300002 21985.94535357  1867.92600571
0.35400002 22041.05998408  1408.42379969
0.35500002 22102.98962710  1416.35964239
0.35600002 22171.44503354  1306.00903156
0.35700002 22246.76510648  1194.65134280
0.35800002 22329.15070296  1322.66730454
0.35900002 22417.44504779  1936.86734387
0.36000002 22512.36667365  1219.04471312
0.36100002 22612.33048019  1227.84960323
0.36200002 22719.20448170  1237.06074262
0.36300002 22829.70765819  1371.15230690
0.36400002 22946.28725303  1507.57114393
0.36500002 23067.40547729  1899.60093103
0.36600002 23194.02058510  1404.51398306
0.36700002 23324.78596224  1545.03389532
0.36800002 23461.38238660  1688.16384959
0.36900002 23601.26954496  1571.84462615
0.37000002 23744.48071957  1321.38041464
0.37100002 23891.93482748  1466.48702918
0.37200002 24043.59067094  1479.76285794
0.37300002 24198.26024131  1357.52246384
0.37400002 24357.34713361  2055.15126175
0.37500002 24518.46234218  2074.26201241
0.37600002 24683.66341960  2372.96409525
0.37700002 24850.65946926  1549.93570452
0.37800002 25021.14918860  2418.16907789
0.37900002 25194.04553212  1579.66672970
0.38000002 25369.50704244  1884.82761501
0.38100002 25546.62023722  2195.73211341
0.38200002 25726.23025740  1921.36359780
0.38300002 25907.44538686  1790.72270997
0.38400002 26091.07138843  2109.46322169
0.38500002 26275.48694991  1673.48584312
0.38600002 26462.48011399  1843.37645207
0.38700002 26649.78557477  1861.22111272
0.38800002 26838.30622109  1879.21829063
0.38900002 27028.22120512  2213.61142157
0.39000002 27219.73362336  1915.72494317
0.39100002 27411.08706990  1772.94919568
0.39200002 27603.92387128  2766.32736182
0.39300002 27796.90769799  1807.07705506
0.39400002 27991.15549381  1990.17124990
0.39500002 28184.81859960  1841.59613455
0.39600002 28378.81147767  2196.94579463
0.39700002 28572.53301195  2729.24848261
0.39800002 28767.51911440  1721.73610057
0.39900002 28961.38459976  3996.67126412
0.40000002 29155.00771121  1929.04117661
0.40100002 29348.27476827  1946.67115761
0.40200002 29542.19086876  1785.82552263
0.40300002 29734.39047710  2162.28497794
0.40400002 29926.27812479  2181.62577866
0.40500002 30117.42870146  2200.98179379
0.40600002 30307.98524526  2960.48413903
0.40700002 30497.39207328  2053.08453165
0.40800002 30686.13376229  2259.11327462
0.40900002 30873.03952927  2088.56122311
0.41000002 31059.56747786  2489.26915346
0.41100002 31244.60291225  2896.37482720
0.41200002 31427.64100589  1946.94245257
0.41300002 31609.80690965  3337.04747357
0.41400002 31790.21536894  4155.77610102
0.41500002 31969.63564799  2194.39589486
0.41600002 32146.18719832  2815.04174634
0.41700002 32321.82012333  2634.55168309
0.41800002 32496.58238494  2246.65132964
0.41900002 32667.32905806  2263.84601099
0.42000002 32837.02072734  2281.02375291
0.42100002 33005.28232575  2716.00481128
0.42200002 33171.35444315  3367.55606264
0.42300002 33334.75483039  2756.11765998
0.42400002 33495.98326831  2348.90593799
0.42500002 33655.47135128  2580.70166551
0.42600002 33811.20507948  2165.60778796
0.42700002 33966.04069840  3488.99186587
0.42800002 34117.85481981  2854.12928020
0.42900002 34267.81794978  3536.43898000
0.43000002 34415.26514331  2224.94699695
0.43100002 34558.67217174  2463.34226913
0.43200002 34700.46630513  2479.17493265
0.43300002 34839.23237240  2494.83754841
0.43400002 34975.70489192  2738.59782281
0.43500002 35108.91164023  3214.57210211
0.43600002 35240.43482483  3927.01804080
0.43700002 35368.12514359  2323.68593205
0.43800002 35492.24687149  2337.16456724
0.43900002 35614.62133751  3290.79116754
0.44000002 35733.27223440  2600.13167736
0.44100002 35849.58318924  3089.87572151
0.44200002 35962.75190471  3823.55996371
0.44300002 36073.12762926  3123.21153815
0.44400002 36179.78057173  3139.50060790
0.44500002 36282.72983648  3398.24063753
0.44600002 36383.38598699  2927.40737525
0.44700002 36481.09494166  2696.68266589
0.44800002 36574.45793309  2709.61884439
0.44900002 36666.21725889  2722.46676050
0.45000002 36754.39290750  2983.72175764
0.45100002 36837.99725926  2497.61633255
0.45200002 36919.45445800  3512.14786904
0.45300002 36996.96052055  3023.39175703
0.45400002 37071.87773023  3036.18693000
0.45500002 37143.37790868  2794.66788630
0.45600002 37211.23971149  2805.91366343
0.45700002 37275.78038357  2816.93085709
0.45800002 37336.37667535  3084.73158712
0.45900002 37394.02028882  3096.22502666
0.46000002 37449.04467006  3366.48203017
0.46100002 37499.42243870  2858.58110798
0.46200002 37547.35494881  3129.19670974
0.46300002 37591.39517152  3401.26959632
0.46400002 37631.70694268  3149.77402039
0.46500002 37669.53351692  3159.72062116
0.46600002 37703.11895442  3169.32432952
0.46700002 37733.38180483  3443.54858672
0.46800002 37760.91050027  3453.42423348
0.46900002 37784.31514987  3729.31208205
0.47000002 37803.94462781  2937.93369600
0.47100002 37820.71641647  2945.47753412
0.47200002 37833.88647820  2684.31437286
0.47300002 37844.28055558  3228.87417004
0.47400002 37849.85465421  2696.80227193
0.47500002 37853.26204563  2702.72303816
0.47600002 37853.47499165  4062.62439604
0.47700002 37849.17803068  3256.54343211
