# SAXS profile: number of points = 501, q_min = 0, q_max = 0.5, delta_q = 0.001
#    q    intensity    error
0.00000000 1664650.74656091 399.51617917
0.00100000 1664581.93918658 699.12443106
0.00200000 1664375.45600348 823.86587681
0.00300000 1664031.48083292 1198.10270888
0.00400000 1663549.86093969 2121.02615329
0.00500000 1662931.06081358 2095.29321956
0.00600000 1662174.85768944 2094.34040595
0.00700000 1661281.83986514 2591.59977790
0.00800000 1660251.50129722 2689.60754566
0.00900000 1659085.12330290 2737.49057047
0.01000000 1657782.00089268 3555.94254546
0.01100000 1656343.26495172 5068.41061143
0.01200000 1654768.43276597 3872.15830244
0.01300000 1653058.92524832 3471.42389613
0.01400000 1651213.88778282 4458.27769465
0.01500000 1649235.14881873 5145.61389344
0.01600000 1647121.66171331 5880.22459518
0.01700000 1644875.42737892 5329.39662378
0.01800000 1642496.04558392 6553.55951677
0.01900000 1639984.26806380 5411.94832881
0.02000000 1637340.68021991 5673.38571360
0.02100000 1634566.95637874 6472.88544073
0.02200000 1631661.26705619 7318.00111522
0.02300000 1628626.53305308 8208.27810022
0.02400000 1625462.74614731 6095.48557599
0.02500000 1622171.04370527 6959.11409532
0.02600000 1618751.58892984 8522.72750553
0.02700000 1615205.83071116 7462.25127966
0.02800000 1611533.17533232 9113.22052443
0.02900000 1607736.46581504 7234.81442835
0.03000000 1603815.99390228 8949.29365733
0.03100000 1599771.79075606 9214.68593875
0.03200000 1595605.00938065 11057.54322430
0.03300000 1591318.69603291 10550.44344108
0.03400000 1586910.29590416 8331.27943791
0.03500000 1582383.76763382 8544.87273981
0.03600000 1577738.49945747 10507.73889199
0.03700000 1572976.29856938 10759.15837980
0.03800000 1568098.84861544 11008.05442673
0.03900000 1563106.91765933 10316.50613431
0.04000000 1557999.73480897 13414.37833831
0.04100000 1552781.20726638 11739.02647123
0.04200000 1547451.44832777 12975.38099619
0.04300000 1542010.96579946 10177.27284668
0.04400000 1536462.95093030 11408.23794048
0.04500000 1530807.34002244 12675.08536433
0.04600000 1525044.43471985 11826.72014104
0.04700000 1519177.59211743 12031.88708915
0.04800000 1513206.62480930 14458.68997279
0.04900000 1507134.43776858 19215.96497600
0.05000000 1500960.73345063 12630.58516014
0.05100000 1494688.72278847 11658.57258085
0.05200000 1488316.58387188 14198.54087181
0.05300000 1481849.80889732 20405.07281976
0.05400000 1475286.84246066 17039.56382504
0.05500000 1468631.49075718 12336.50509785
0.05600000 1461882.28387762 12499.09411041
0.05700000 1455044.45618085 12658.88735967
0.05800000 1448116.29855411 12815.82984061
0.05900000 1441100.01092430 15563.88084491
0.06000000 1433998.25416777 19681.62695795
0.06100000 1426812.76882709 18577.10311826
0.06200000 1419543.65759805 13414.68819135
0.06300000 1412194.23666283 17624.18489758
0.06400000 1404762.88153734 16435.72648263
0.06500000 1397255.84930870 16599.40026627
0.06600000 1389670.62892707 19552.66666384
0.06700000 1382010.34468400 15506.15679303
0.06800000 1374278.18922086 24180.42587120
0.06900000 1366474.47525527 18652.37746052
0.07000000 1358599.21776471 15915.99058144
0.07100000 1350657.24163073 16045.80878212
0.07200000 1342647.18270739 19112.58354120
0.07300000 1334573.94998429 19257.90300061
0.07400000 1326436.75008974 16414.65555162
0.07500000 1318238.24094005 16530.70831622
0.07600000 1309978.29254587 16643.27498704
0.07700000 1301662.55029117 18275.34306299
0.07800000 1293289.26874985 19923.12211941
0.07900000 1284860.61099088 21585.65927709
0.08000000 1276380.13295655 18609.62321150
0.08100000 1267848.33367745 17153.98875949
0.08200000 1259266.04733211 20381.22193246
0.08300000 1250636.50730578 20485.42695109
0.08400000 1241960.00534875 22168.98713606
0.08500000 1233240.53055058 20681.44466823
0.08600000 1224477.65838936 20773.26444991
0.08700000 1215674.17029272 22465.65972195
0.08800000 1206829.60965258 19333.41125460
0.08900000 1197949.77239592 19406.78722434
0.09000000 1189033.37151287 25968.49005372
0.09100000 1180082.70685531 32570.28423940
0.09200000 1171099.30237970 22871.57045014
0.09300000 1162086.23118481 16385.41662969
0.09400000 1153041.90476260 23003.18708111
0.09500000 1143970.94868845 24709.77365310
0.09600000 1134874.06421511 21466.14393370
0.09700000 1125754.31178058 23168.02482564
0.09800000 1116612.53877620 26530.71516874
0.09900000 1107450.74952474 19934.11442880
0.10000000 1098268.32819426 21630.39574100
0.10100000 1089068.51252743 21661.57373295
0.10200000 1079853.40663907 26693.97746770
0.10300000 1070623.67560134 18371.90313755
0.10400000 1061382.23670330 20060.12521742
0.10500000 1052131.73389592 21747.56396284
0.10600001 1042868.55285604 18411.84516702
0.10700001 1033600.28009414 18418.75785802
0.10800001 1024324.18438982 18422.47132324
0.10900001 1015044.49664027 18423.05848111
0.11000001 1005761.40575327 20095.11383282
0.11100001 996476.86169371 25111.21809675
0.11200001 987193.60770383 18406.22568215
0.11300001 977910.35160207 16722.26779969
0.11400001 968631.59147534 16708.89573968
0.11500001 959357.25709031 20031.38047128
0.11600001 950088.67944613 21676.27424233
0.11700001 940829.16326566 18317.94467146
0.11800001 931576.53183752 18291.50606413
0.11900001 922334.71315906 24903.03842827
0.12000001 913104.68767662 21544.70612059
0.12100001 903889.31769311 23157.64541021
0.12200001 894687.32642755 24760.47292538
0.12300001 885502.33659614 21411.44750768
0.12400001 876333.54828126 21360.63124581
0.12500001 867183.80543028 24584.66204239
0.12600001 858055.35454495 19615.14632923
0.12700001 848948.15317460 17929.78584001
0.12800001 839862.19461829 16251.33423178
0.12900001 830801.01055143 22680.86865705
0.13000001 821764.46431093 20991.97423028
0.13100001 812753.57676837 27357.28668358
0.13200001 803771.33331388 22449.33439773
0.13300001 794819.00486062 15975.86275085
0.13400001 785894.77641510 17505.80696997
0.13500001 777002.78179331 17435.94324552
0.13600001 768141.90985010 20520.91208922
0.13700001 759315.23223636 17289.60865328
0.13800001 750521.65570522 18778.05271124
0.13900001 741765.73113991 20250.20541508
0.14000001 733045.09738716 20155.07590319
0.14100001 724362.38758764 18514.70349995
0.14200001 715717.19921025 16887.34811186
0.14300001 707114.19525970 15273.66733803
0.14400001 698547.87626252 18232.10043046
0.14500001 690026.74916724 21156.22112745
0.14600001 681545.62883570 16530.89000724
0.14700001 673111.07175135 19425.98644719
0.14800001 664718.22950125 17827.74375631
0.14900001 656369.95198189 20675.65446292
0.15000001 648068.81201308 19082.38707009
0.15100001 639814.19080054 17505.31708629
0.15200001 631608.19415858 20293.57223591
0.15300001 623450.59215025 15841.88029410
0.15400001 615339.87907959 21459.97929562
0.15500001 607281.43048697 15631.42475843
0.15600001 599271.42829552 16935.41136290
0.15700001 591316.61205095 19619.88611385
0.15800001 583409.01956114 18088.59750525
0.15900001 575557.47285894 16576.05600074
0.16000001 567756.59948066 13711.32252467
0.16100001 560012.77231711 14969.14211064
0.16200001 552321.52056111 14854.68799672
0.16300001 544686.54444883 18759.00547639
0.16400001 537106.85403870 14622.73479154
0.16500001 529583.62707758 18461.28611151
0.16600001 522117.05511912 20926.45255718
0.16700001 514707.19490667 14267.68411646
0.16800001 507354.01107524 20578.27966084
0.16900001 500061.22807316 14026.71810977
0.17000001 492826.33347910 13905.09565571
0.17100001 485650.55935713 15035.74202770
0.17200001 478533.85298468 17385.13569991
0.17300001 471477.45690268 12305.56220628
0.17400001 464482.11523579 14631.18732090
0.17500001 457546.37008847 13287.14721489
0.17600001 450669.83938979 13161.81328100
0.17700001 443857.05737205 18961.57438650
0.17800001 437104.50306756 15257.13340020
0.17900001 430413.74070675 12783.28870279
0.18000001 423785.64018989 11505.78067463
0.18100001 417220.66341797 20502.22436881
0.18200001 410715.24247282 15783.78751382
0.18300001 404275.43082403 14505.40314319
0.18400001 397896.47976725 11041.62783516
0.18500001 391581.66073777 12017.64173578
0.18600001 385329.63356538 18374.44444464
0.18700001 379140.43637937 14968.46513544
0.18800001 373014.31158152 11632.45185626
0.18900001 366953.41231849 12549.80729424
0.19000001 360952.30970836 13443.66941028
0.19100001 355019.42444817 11247.01589794
0.19200001 349146.42039066 14150.90508708
0.19300001 343339.77979446 9991.18806413
0.19400001 337595.90046400 12837.08472175
0.19500001 331916.21242590 10734.17081710
0.19600001 326298.48106339 12534.75674240
0.19700001 320745.56202589 10478.75800659
0.19800001 315256.14564701 15997.67386689
0.19900001 309831.25606554 13012.91336974
0.20000001 304467.66195871 19277.37092799
0.20100001 299169.53566335 9064.83735902
0.20200001 293932.96941367 14320.41494667
0.20300001 288760.59303007 9719.68202079
0.20400001 283651.11380082 9594.49937780
0.20500001 278603.94212314 11191.52088407
0.20600001 273620.00010544 10195.08168583
0.20700001 268698.31748426 12575.08185268
0.20800001 263838.99255747 11579.89393073
0.20900001 259044.05767150 8159.88820238
0.21000001 254308.73511637 9658.64621631
0.21100001 249635.49936543 8732.25018061
0.21200001 245023.70601666 8611.35855505
0.21300001 240473.16651502 12350.70241610
0.21400001 235984.60729174 8371.55433945
0.21500001 231557.48070730 9002.95527554
0.21600001 227189.48196644 7395.01798763
0.21700001 222882.58840567 8017.08708400
0.21800001 218635.79038879 7182.18605385
0.21900001 214447.31067568 8492.11390428
0.22000001 210318.30002422 7669.25717301
0.22100001 206250.69618330 7554.96335842
0.22200001 202240.71876194 12176.91425244
0.22300001 198289.05098764 10660.01988516
0.22400001 194394.08951992 7216.88091469
0.22500001 190559.94226242 7105.98058299
0.22600001 186781.31386408 6359.90403782
0.22700001 183060.69500256 7512.81127818
0.22800001 179396.19471602 8627.16341187
0.22900001 175787.74009748 6671.14505218
0.23000001 172235.38260837 7161.54754754
0.23100001 168740.06667897 8221.01643739
0.23200001 165298.16051582 7510.32227823
0.23300001 161912.04765245 6251.42445552
0.23400001 158580.51853469 8943.94166836
0.23500001 155301.58059112 6597.21145553
0.23600001 152077.06429285 5946.97388045
0.23700001 148905.69349283 7973.90026369
0.23800001 145786.85655221 8362.33448736
0.23900001 142720.54742805 6679.32193556
0.24000001 139705.63600233 5555.39487840
0.24100001 136743.57357043 5460.17115094
0.24200001 133831.82998764 5853.80452056
0.24300001 130970.53637485 5272.87404387
0.24400001 128158.72309802 5180.81662631
0.24500001 125397.13376513 5089.86990030
0.24600001 122684.78487608 5454.56579362
0.24700001 120021.94239522 4464.81646831
0.24800001 117406.21843020 4385.12246581
0.24900001 114838.25949145 5167.72192159
0.25000001 112318.28622765 5074.54041183
0.25100001 109844.37605984 5397.75289494
0.25200001 107418.36617192 4076.52718908
0.25300001 105037.97926607 4402.14191931
0.25400001 102702.41488184 5106.87782161
0.25500001 100411.98904121 4626.98467393
0.25600001 98166.58375483  4162.75418107
0.25700001 95964.76322591  3713.83651256
0.25800001 93806.74229557  4008.83132168
0.25900001 91691.96342983  4291.18409155
0.26000001 89620.37640506  4210.36548273
0.26100001 87588.94169562  4130.69468581
0.26200001 85601.49150558  4727.77059956
0.26300001 83653.92280588  3643.96504985
0.26400001 81747.01303931  4224.27709869
0.26500001 79881.22518132  4143.43934622
0.26600001 78054.08493502  3438.67287453
0.26700001 76267.50687124  3985.74009770
0.26800001 74519.47667037  3307.54712853
0.26900001 72809.16825937  5307.78861728
0.27000001 71137.33809732  4048.42610270
0.27100001 69502.59138583  3402.84703528
0.27200001 67905.23148469  4171.07904134
0.27300001 66343.76865546  3544.74772701
0.27400001 64817.33379374  3208.45817463
0.27500001 63328.43992845  3146.15704454
0.27600001 61872.45735125  3084.96086953
0.27700001 60452.82668200  3025.05959033
0.27800001 59066.25166729  2719.11502419
0.27900001 57713.81423879  3393.57243785
0.28000001 56394.14525045  3090.11733525
0.28100001 55107.06872564  2331.02911742
0.28200001 53852.67479027  3200.46461426
0.28300001 52629.83758543  2466.23430598
0.28400001 51438.71558530  2638.80623442
0.28500001 50278.55676191  2804.03524333
0.28600001 49148.03638839  3173.73460000
0.28700001 48047.92823575  2698.37177744
0.28800001 46976.67560128  2240.08288208
0.28900001 45935.96530711  2397.85750253
0.29000001 44922.60646458  2353.04623799
0.29100001 43938.69765553  2116.96655325
0.29200001 42981.78718030  1889.04963599
0.29300001 42052.17584451  2039.95114678
0.29400001 41149.46314059  2549.20936223
0.29500001 40274.43638974  1967.00356639
0.29600001 39423.97571737  2107.60584162
0.29700001 38599.22858486  1725.38559942
0.29800001 37800.26583686  1695.34200304
0.29900001 37026.02378963  2332.63960917
0.30000001 36275.98846317  1965.43314798
0.30100001 35550.72582890  2415.67193443
0.30200001 34847.95705580  2058.99164012
0.30300001 34168.84977265  2025.52951041
0.30400001 33513.18949406  2453.16558710
0.30500001 32878.79537411  1660.05045703
0.30600001 32266.58337102  1634.46385804
0.30700001 31676.49047990  1609.79932240
0.30800001 31107.26932685  1586.00420172
0.30900001 30558.96009763  1989.38839654
0.31000001 30031.95181540  1821.28780407
0.31100001 29523.20808431  2348.86654640
0.31200001 29035.50412271  1772.18207803
0.31300001 28566.19530498  1614.56143508
0.31400001 28117.42426607  1461.40319542
0.31500001 27686.49828546  1443.57408895
0.31600002 27273.72997875  1426.55251408
0.31700002 26878.45248228  1410.31246852
0.31800002 26501.24169598  1648.50981775
0.31900002 26141.24922698  1380.25802454
0.32000002 25797.98201731  1863.25933942
0.32100002 25471.67400328  1599.36648640
0.32200002 25161.57589216  1706.70977358
0.32300002 24866.51913345  1329.36417582
0.32400002 24587.40120447  1678.09021166
0.32500002 24323.25917590  1308.34817302
0.32600002 24074.31235754  1180.84507705
0.32700002 23839.74234310  1172.91537882
0.32800002 23620.07056095  1631.91075233
0.32900002 23413.20211934  1854.32569566
0.33000002 23221.50497993  1152.94777685
0.33100002 23040.84484590  1491.66436596
0.33200002 22875.52762577  1371.15919082
0.33300002 22721.60188139  1707.52846225
0.33400002 22580.97385357  1815.51038380
0.33500002 22451.90936714  1131.57628569
0.33600002 22334.63995358  1354.81932374
0.33700002 22228.31380812  1126.97556344
0.33800002 22134.54259215  1238.09569853
0.33900002 22050.63402119  1461.95710484
0.34000002 21978.10698910  1236.59824830
0.34100002 21915.82115190  1124.28167834
0.34200002 21864.57796494  1687.39888436
0.34300002 21821.96908136  1801.62185268
0.34400002 21789.86984474  1127.62581787
0.34500002 21766.62256480  1355.62531754
0.34600002 21753.92531831  1132.29186644
0.34700002 21747.92360332  1589.33833220
0.34800002 21752.31493213  1480.35386282
0.34900002 21764.57403671  1485.43224836
0.35000002 21785.01597990  1949.86794763
0.35100002 21813.61765319  1727.63859996
0.35200002 21849.14085336  1619.67688817
0.35300002 21892.56636130  2092.49159192
0.35400002 21943.67079705  1752.75078793
0.35500002 22001.39492192  1409.84945337
0.35600002 22065.54140448  1299.77077799
0.35700002 22136.40848700  2139.70534570
0.35800002 22214.27674620  1555.11051728
0.35900002 22297.81171965  1926.53102383
0.36000002 22388.01762655  1454.77345428
0.36100002 22483.01652691  1342.91064076
0.36200002 22584.84409472  1475.69378305
0.36300002 22690.23494237  1486.66426384
0.36400002 22801.53698408  1373.22262991
0.36500002 22917.45731197  1761.43585243
0.36600002 23038.65690952  1775.58937212
0.36700002 23163.91902651  1278.64839083
0.36800002 23294.94321086  1676.18771814
0.36900002 23429.28509248  1560.39046107
0.37000002 23566.77414500  1967.23656494
0.37100002 23708.57435421  1587.52621396
0.37200002 23854.35564715  1334.65126168
0.37300002 24003.19027587  1750.55274974
0.37400002 24156.36397127  1766.43419908
0.37500002 24311.56366643  1645.40670689
0.37600002 24470.74289845  2352.49497998
0.37700002 24631.74981323  1536.28230863
0.37800002 24796.24426379  2255.46648508
0.37900002 24962.97000350  1422.88935761
0.38000002 25132.40752229  2154.47573691
0.38100002 25303.39742073  2029.83863725
0.38200002 25476.83297823  1756.37294872
0.38300002 25651.97932968  2068.57571114
0.38400002 25829.43049860  1640.81465016
0.38500002 26007.61199847  2108.17712847
0.38600002 26188.47789724  1824.28945675
0.38700002 26369.72485799  2148.60528322
0.38800002 26552.10058071  2014.10968497
0.38900002 26735.85004779  1720.45203208
0.39000002 26921.33523009  2052.61730186
0.39100002 27106.57278221  2390.79983266
0.39200002 27293.35251669  1769.83752779
0.39300002 27480.31598280  1786.49542668
0.39400002 27668.56301921  1639.36243656
0.39500002 27856.25242244  2151.05991397
0.39600002 28044.36532226  1837.04623747
0.39700002 28232.25186198  2191.10517082
0.39800002 28421.24325813  2041.21378751
0.39900002 28609.34756290  1716.56093510
0.40000002 28797.32699514  2425.02302116
0.40100002 28984.81143586  2446.89789735
0.40200002 29173.09240688  2116.21622346
0.40300002 29359.75022414  2490.88132703
0.40400002 29546.06669654  1974.41600054
0.40500002 29731.81057667  3259.20122984
0.40600002 29916.96524362  2922.28930346
0.40700002 30101.03837291  2026.40199928
0.40800002 30284.60309151  2415.34863401
0.40900002 30466.18916581  2810.50608371
0.41000002 30647.67562085  2645.20100817
0.41100002 30827.68394348  2095.66605378
0.41200002 31005.84033940  1920.81190004
0.41300002 31183.11726999  2130.11884164
0.41400002 31358.72370535  2537.70483610
0.41500002 31533.50013123  2557.99765185
0.41600002 31705.40538188  2776.44248085
0.41700002 31876.58268380  2398.39419477
0.41800002 32046.91371852  2416.97834718
0.41900002 32213.32363296  2638.27133055
0.42000002 32378.76526726  2249.19103587
0.42100002 32542.92070838  2677.95707199
0.42200002 32704.99134971  2905.18451926
0.42300002 32864.41989192  2090.17720417
0.42400002 33021.91354517  2315.66179708
0.42500002 33177.66308555  3180.07915744
0.42600002 33329.82678770  3202.16326037
0.42700002 33481.16350679  2794.33803869
0.42800002 33629.56155298  3029.68734388
0.42900002 33776.27784942  3049.99803433
0.43000002 33920.54353120  2412.25956753
0.43100002 34060.87388260  2869.28815184
0.43200002 34199.76934715  3554.04019897
0.43300002 34335.71720977  2458.78082591
0.43400002 34469.48419782  2698.96074059
0.43500002 34600.15254070  2262.85008339
0.43600002 34729.21430618  2731.80012678
0.43700002 34854.47085565  2747.92661248
0.43800002 34976.41347575  2533.51663018
0.43900002 35096.64281310  2548.01638898
0.44000002 35213.27482205  2795.22988784
0.44100002 35327.79704960  2342.23305539
0.44200002 35439.18271268  2825.92056343
0.44300002 35547.95464060  3314.49144776
0.44400002 35653.10670366  2855.81398230
0.44500002 35754.67454588  2631.18662453
0.44600002 35854.02544614  2644.41377210
0.44700002 35950.58018702  2899.05492367
0.44800002 36043.05272319  2427.49971595
0.44900002 36133.88079273  2926.84448292
0.45000002 36221.30870072  2450.37164973
0.45100002 36304.21920005  3199.85403194
0.45200002 36385.17413257  3214.08450932
0.45300002 36462.32441485  3724.62661550
0.45400002 36536.99963595  2992.38041200
0.45500002 36608.35374562  3756.01727231
0.45600002 36676.13235462  2514.14899206
0.45700002 36740.84073201  2524.09587792
0.45800002 36801.68487579  2533.79612379
0.45900002 36859.65644934  2543.31641554
0.46000002 36915.20853747  3829.03018702
0.46100002 36966.25085881  3074.11356711
0.46200002 37014.88357844  3598.95730090
0.46300002 37059.71760569  3353.16340789
0.46400002 37100.99473463  3364.13285701
0.46500002 37139.91012321  3634.51177692
0.46600002 37174.72358701  3645.72531497
0.46700002 37206.35149384  2873.07459853
0.46800002 37235.29260240  3405.35384635
0.46900002 37260.25833383  2889.53317074
0.47000002 37281.60493926  3687.52371932
0.47100002 37300.14599423  3169.02055387
0.47200002 37315.28184632  2647.51937248
0.47300002 37327.63265188  3184.79376881
0.47400002 37335.35476943  3192.17298409
0.47500002 37341.01217406  3199.37807472
0.47600002 37343.56879538  4007.89871093
0.47700002 37341.79644340  3480.62901146
