# SAXS profile: number of points = 501, q_min = 0, q_max = 0.5, delta_q = 0.001
#    q    intensity    error
0.00000000 1682732.95097188 353.37391970
0.00100000 1682663.56323992 605.75889715
0.00200000 1682455.33840599 832.81541888
0.00300000 1682108.44968453 1110.19161634
0.00400000 1681622.75995812 1765.70396505
0.00500000 1680998.74927580 2571.92818819
0.00600000 1680236.14080091 1764.24801967
0.00700000 1679335.57470873 2418.24332808
0.00800000 1678296.53551755 2718.84050233
0.00900000 1677120.30195015 2767.24861651
0.01000000 1675806.15268885 3041.58829846
0.01100000 1674355.25286833 3616.60750366
0.01200000 1672767.09135746 3588.08556828
0.01300000 1671043.12546562 4912.86700555
0.01400000 1669182.45438254 5633.49103328
0.01500000 1667186.98519015 4001.24894263
0.01600000 1665055.56226055 4670.48106093
0.01700000 1662790.28790404 5387.44077448
0.01800000 1660390.71199171 5678.53649053
0.01900000 1657857.62749242 7460.35966035
0.02000000 1655191.58168872 5213.85371817
0.02100000 1652394.29796591 7634.06200272
0.02200000 1649463.94671199 5690.65087470
0.02300000 1646403.36142732 5927.05237093
0.02400000 1643212.66643596 8010.66211414
0.02500000 1639892.93266961 9593.37409425
0.02600000 1636444.32035937 7953.11976071
0.02700000 1632868.34924157 8915.46159520
0.02800000 1629164.40677331 7795.55204391
0.02900000 1625335.16848685 8045.40945341
0.03000000 1621381.16067472 8293.36501806
0.03100000 1617302.40311633 9315.66227059
0.03200000 1613099.94585816 9581.81411972
0.03300000 1608776.86851568 8204.76240767
0.03400000 1604330.68268651 8422.73647273
0.03500000 1599765.29252791 11230.35287214
0.03600000 1595080.06313368 11508.50318736
0.03700000 1590276.95821420 9971.03698914
0.03800000 1585357.41750329 10201.77545377
0.03900000 1580322.50490697 13274.70965597
0.04000000 1575171.25503077 11624.76440081
0.04100000 1569907.58750042 12857.54373779
0.04200000 1564531.78080264 13118.59959064
0.04300000 1559044.20274288 12347.63065888
0.04400000 1553448.05266623 11534.35232672
0.04500000 1547743.33640429 12815.31542089
0.04600000 1541930.31505898 15218.85291711
0.04700000 1536012.37279655 13271.14751818
0.04800000 1529989.44619701 17992.67672444
0.04900000 1523864.26152201 11428.98249341
0.05000000 1517636.64718305 11609.92089158
0.05100000 1511309.72066291 14145.85964438
0.05200000 1504881.83726338 13160.19228015
0.05300000 1498358.21217734 13350.37229287
0.05400000 1491737.58559252 13537.51922056
0.05500000 1485023.74218215 16216.46002112
0.05600000 1478214.96423378 16430.36009417
0.05700000 1471316.75392822 15360.54762802
0.05800000 1464327.41169488 15551.15783832
0.05900000 1457248.90383527 14426.76482178
0.06000000 1450084.18531583 18575.57928172
0.06100000 1442834.88737790 14760.20158764
0.06200000 1435501.13325160 13565.48634333
0.06300000 1428086.19004394 16451.55367850
0.06400000 1420588.50500661 16620.88628588
0.06500000 1413014.27391192 19584.37875253
0.06600000 1405361.07279131 16948.65533087
0.06700000 1397632.03582062 17107.01691903
0.06800000 1389830.39077957 15823.21973970
0.06900000 1381956.34951423 18863.70505405
0.07000000 1374010.05679781 14633.20779015
0.07100000 1365996.21973550 19178.58782337
0.07200000 1357913.55918226 26764.47750531
0.07300000 1349766.98106403 16480.65561100
0.07400000 1341555.83458995 24148.00615429
0.07500000 1333282.58102032 19759.24877689
0.07600000 1324947.18966972 19894.08298554
0.07700000 1316555.31505823 23105.54686266
0.07800000 1308105.24208714 20151.36219938
0.07900000 1299599.10758635 21833.26603151
0.08000000 1291040.61692515 17254.75865464
0.08100000 1282430.13912193 22083.44803180
0.08200000 1273768.42642387 19030.10118376
0.08300000 1265058.90375009 17533.71722887
0.08400000 1256301.75656023 17619.63296280
0.08500000 1247501.09413594 17702.04135681
0.08600000 1238656.43270169 21013.80736741
0.08700000 1229770.47267265 17856.26810170
0.08800000 1220843.21491025 21187.73498982
0.08900000 1211879.90691069 17996.41746291
0.09000000 1202879.38479603 21345.09568590
0.09100000 1193844.26485937 21417.56711780
0.09200000 1184775.87268968 21485.91146078
0.09300000 1175677.28176761 24865.57567787
0.09400000 1166547.11705563 21610.28635908
0.09500000 1157389.63685116 18333.05270943
0.09600000 1148205.66232498 21718.31112381
0.09700000 1138998.58978969 20091.93606847
0.09800000 1129769.06537220 16777.07140960
0.09900000 1120518.97532679 16807.78542025
0.10000000 1111247.87359085 21886.02789961
0.10100000 1101958.91642777 21917.96387859
0.10200000 1092654.49451113 21945.96655451
0.10300000 1083334.92943303 20280.03083297
0.10400000 1074003.33314197 23681.77460989
0.10500000 1064662.26844191 18620.94395115
0.10600001 1055308.41407277 18631.47092713
0.10700001 1045948.71295962 23722.11792623
0.10800001 1036581.13058628 18642.91251096
0.10900001 1027209.73003944 25423.44201505
0.11000001 1017834.63604902 20336.33698548
0.11100001 1008457.84273877 22024.72032219
0.11200001 999081.81647569 23708.21262108
0.11300001 989705.64096114 23693.55416012
0.11400001 980333.77864319 20292.91017339
0.11500001 970966.13371192 18584.29267434
0.11600001 961604.20359105 25314.23185162
0.11700001 952250.82712482 21911.29256405
0.11800001 942904.40273277 23563.18213408
0.11900001 933568.57469180 23525.92919034
0.12000001 924244.30221601 21807.54533803
0.12100001 914934.78125203 20091.96874279
0.12200001 905638.05809644 31747.14362222
0.12300001 896358.41172298 23341.17414097
0.12400001 887094.97299977 18296.33468020
0.12500001 877850.38495047 19909.64766883
0.12600001 868627.08746212 18202.08147551
0.12700001 859424.78136808 19801.14789588
0.12800001 850243.75110855 18097.43909526
0.12900001 841087.41081072 19681.44634060
0.13000001 831955.95392433 21252.31584472
0.13100001 822849.76718172 24438.63923728
0.13200001 813772.44396998 19481.71322702
0.13300001 804724.93336223 21027.46350005
0.13400001 795705.55478557 20946.94971729
0.13500001 786718.33288304 20863.77117175
0.13600001 777762.48779317 25572.83180442
0.13700001 768840.75418601 22281.00610693
0.13800001 759952.13694289 20598.50364317
0.13900001 751101.34124555 22082.38047398
0.14000001 742285.73747971 18839.21290570
0.14100001 733508.40781894 17186.10280575
0.14200001 724768.59824818 20210.17331537
0.14300001 716071.29903485 18560.56894644
0.14400001 707410.50773434 15386.17926899
0.14500001 698794.97628145 22955.41605370
0.14600001 690220.01404859 16741.28723051
0.14700001 681691.43158219 18160.26059409
0.14800001 673204.79552609 18055.35346784
0.14900001 664763.04466147 16452.88613163
0.15000001 656368.51936081 16353.42243148
0.15100001 648020.74819256 16252.36113154
0.15200001 639721.92313081 17617.94259436
0.15300001 631471.59859456 18963.09300064
0.15400001 623268.43371456 15940.09094448
0.15500001 615117.78939503 14393.75695113
0.15600001 607016.05940136 18583.79753563
0.15700001 598969.31346484 19873.80275874
0.15800001 590970.36247292 19732.50133432
0.15900001 583027.60288239 18190.46206853
0.16000001 575136.01196090 15278.48887892
0.16100001 567301.93779124 15163.98151296
0.16200001 559520.31229884 16416.32673780
0.16300001 551795.63772171 13574.17332876
0.16400001 544126.36296638 17507.26655495
0.16500001 536514.10048772 13359.20173285
0.16600001 528958.52322482 17225.53512209
0.16700001 521460.30452104 17083.04038268
0.16800001 514019.19042308 14333.42580172
0.16900001 506638.70761997 14211.21641977
0.17000001 499316.55620790 15368.96432580
0.17100001 492053.93364561 16503.48971379
0.17200001 484850.93060161 17614.63514057
0.17300001 477708.37358519 16208.64588119
0.17400001 470627.52755386 21001.75440892
0.17500001 463606.58261628 13463.13579501
0.17600001 456645.46428575 14548.72517927
0.17700001 449748.33314760 14409.93727464
0.17800001 442912.17782389 11892.19253626
0.17900001 436137.99401991 15308.44431317
0.18000001 429426.97981663 11658.94305273
0.18100001 422779.79794475 17312.83354363
0.18200001 416192.44864682 12566.93158053
0.18300001 409671.27998260 15829.69900631
0.18400001 403211.42389301 12308.02929577
0.18500001 396816.36590513 11071.17713178
0.18600001 390484.57545455 16429.63928844
0.18700001 384216.14206909 14085.36443371
0.18800001 378011.07786897 13931.59893308
0.18900001 371872.12198491 13777.86277051
0.19000001 365793.23567816 10479.97669735
0.19100001 359783.23270511 14506.46062810
0.19200001 353833.90947476 11267.84137964
0.19300001 347951.25484670 15188.07299173
0.19400001 342131.88346275 11008.09387059
0.19500001 336377.27995476 9889.49249800
0.19600001 330685.47198660 9771.75615898
0.19700001 325058.73208982 13515.94271903
0.19800001 319496.28571252 13351.75041091
0.19900001 313998.98766215 9419.97007505
0.20000001 308563.50790050 13024.46628403
0.20100001 303193.97725520 11024.13353403
0.20200001 297886.86180528 11791.85198189
0.20300001 292644.50024943 12536.89098324
0.20400001 287465.60011240 9723.52438339
0.20500001 282349.64468311 14831.82753626
0.20600001 277297.59635114 10332.10892842
0.20700001 272308.37897386 9345.62400814
0.20800001 267382.07590542 11735.39986622
0.20900001 262520.94665952 14057.99735816
0.21000001 257720.09129424 9788.20953007
0.21100001 252981.90115470 8849.30732073
0.21200001 248305.86343392 9520.04725411
0.21300001 243691.65164427 9387.00286511
0.21400001 239140.25969690 10797.18323577
0.21500001 234650.75761523 11404.02735925
0.21600001 230220.94754432 8992.43063623
0.21700001 225853.17756947 8862.47910684
0.21800001 221546.00301391 8005.56519742
0.21900001 217297.84027484 7170.82906812
0.22000001 213109.90844095 9890.43131839
0.22100001 208984.10770845 7655.08822732
0.22200001 204916.51372455 7539.90347902
0.22300001 200907.86932776 10125.75709292
0.22400001 196956.64646574 6647.28713254
0.22500001 193066.81948114 7853.95858789
0.22600001 189233.42722952 7732.07820223
0.22700001 185458.62153938 7611.22218790
0.22800001 181740.58832397 12485.57900830
0.22900001 178079.23656554 7986.85413767
0.23000001 174474.76387810 6650.10593971
0.23100001 170928.01487582 7732.78375869
0.23200001 167435.20247440 7022.23272388
0.23300001 163999.12115953 7483.28025243
0.23400001 160618.17585625 6794.14916005
0.23500001 157290.42891026 6124.88959145
0.23600001 154017.97663070 6022.87326101
0.23700001 150799.19626557 6460.23787357
0.23800001 147633.82488794 5821.94015983
0.23900001 144521.51563157 6243.32977059
0.24000001 141461.42410006 7670.74608465
0.24100001 138454.60609139 5528.49268273
0.24200001 135498.94493605 5926.72413185
0.24300001 132594.48440417 5338.25419463
0.24400001 129740.17152474 8105.51759943
0.24500001 126936.75814507 5152.36325684
0.24600001 124183.13586130 5521.18248157
0.24700001 121479.81914105 4970.95443441
0.24800001 118824.25503262 4881.89474896
0.24900001 116217.20980637 5229.77468869
0.25000001 113658.73048132 4707.17654557
0.25100001 111147.16334791 6302.04445997
0.25200001 108683.95563317 5774.37883597
0.25300001 106267.11624476 4858.53278457
0.25400001 103895.85377443 4768.81991386
0.25500001 101570.24158841 5460.41644614
0.25600001 99290.42611426  5358.70455092
0.25700001 97054.83137096  4507.22658212
0.25800001 94863.68083713  4422.54500988
0.25900001 92716.42066970  4339.12869265
0.26000001 90612.86756418  4966.49150618
0.26100001 88550.20583316  3480.02325390
0.26200001 86532.35827764  4437.81220425
0.26300001 84554.89159329  3683.21125208
0.26400001 82618.65655848  4269.31927968
0.26500001 80724.23872863  4187.16646099
0.26600001 78869.15806452  5053.93588792
0.26700001 77055.13327484  3717.13980507
0.26800001 75280.34884087  3341.31844142
0.26900001 73543.91098834  3574.23424317
0.27000001 71846.55594477  2920.56263736
0.27100001 70187.00049135  3149.99273112
0.27200001 68565.31681219  2807.74985633
0.27300001 66980.15419874  3028.17291463
0.27400001 65430.59608771  2968.91343798
0.27500001 63919.24859742  3440.13412232
0.27600001 62441.39636692  2853.88415601
0.27700001 61000.33690168  3815.57125378
0.27800001 59593.03560634  2992.76238979
0.27900001 58220.44023009  2445.25860539
0.28000001 56881.23198861  2637.29844597
0.28100001 55575.19178324  2820.99686843
0.28200001 54302.27968214  2996.67144609
0.28300001 53061.56627535  2938.54967941
0.28400001 51853.01448475  2660.05976897
0.28500001 50676.07030909  2608.80422299
0.28600001 49529.31268884  3411.57921948
0.28700001 48413.40359848  2091.45913445
0.28800001 47327.04385617  2461.95293793
0.28900001 46271.75395487  2817.94994924
0.29000001 45244.24455215  2172.40250500
0.29100001 44246.60943101  3100.80253570
0.29200001 43276.65098352  2472.61157099
0.29300001 42334.45611547  2240.33952368
0.29400001 41419.61602461  2016.09990543
0.29500001 40532.83781547  2339.55550946
0.29600001 39671.32965788  3888.18720383
0.29700001 38835.89514493  2083.15751419
0.29800001 38026.79441972  2387.70253464
0.29900001 37242.79314819  1843.51834811
0.30000001 36483.54166640  1647.23198422
0.30100001 35749.57332158  1619.45574813
0.30200001 35038.45153449  1910.99723716
0.30300001 34351.39441085  1566.42365929
0.30400001 33688.38444630  2003.61675980
0.30500001 33046.91935639  1971.90977135
0.30600001 32428.10785101  1791.97732468
0.30700001 31831.88017936  1764.75952069
0.30800001 31256.92464113  1448.75852571
0.30900001 30703.29383814  1427.70323107
0.31000001 30171.26906214  1970.48567574
0.31100001 29658.04645276  2081.99495956
0.31200001 29166.14089675  1643.22045592
0.31300001 28693.13737135  1756.88088443
0.31400001 28241.07111722  1467.82974081
0.31500001 27807.00196075  1318.05195535
0.31600002 27391.62874547  1562.96641022
0.31700002 26994.03719497  1545.13876220
0.31800002 26614.91477843  1400.87610569
0.31900002 26253.37288714  1764.22674155
0.32000002 25908.87266092  1871.26841654
0.32100002 25581.67297530  1235.59486321
0.32200002 25270.88600043  1714.12427857
0.32300002 24975.53724811  1577.95451805
0.32400002 24696.52207120  1203.95550798
0.32500002 24432.66161261  1672.66009320
0.32600002 24184.39831857  1779.36719055
0.32700002 23950.78331861  1414.05431409
0.32800002 23732.34663351  1522.54877037
0.32900002 23526.95145101  2445.62671914
0.33000002 23337.11925090  1506.29443338
0.33100002 23158.41395261  1383.94688334
0.33200002 22995.49632270  1608.07513400
0.33300002 22844.06766222  1258.93662848
0.33400002 22706.24739998  1369.18678306
0.33500002 22580.24702219  1479.45785496
0.33600002 22466.25463374  1476.36999317
0.33700002 22363.46964000  1247.21076089
0.33800002 22273.48690809  1132.60686291
0.33900002 22193.61138610  1697.81135144
0.34000002 22125.10705791  1244.86920757
0.34100002 22067.26069550  1358.46063275
0.34200002 22020.60702530  1586.14439915
0.34300002 21982.72600303  1361.17045857
0.34400002 21955.63945501  1249.82483517
0.34500002 21937.54193048  1252.41432813
0.34600002 21930.13627747  1369.75637676
0.34700002 21929.58387159  1946.03136493
0.34800002 21939.57447779  1263.39045614
0.34900002 21957.61631574  1268.05240229
0.35000002 21984.07155369  1504.69984876
0.35100002 22018.76515462  1278.84994075
0.35200002 22060.41128693  1752.14824945
0.35300002 22110.22884120  1174.05320707
0.35400002 22167.77622487  1298.47755387
0.35500002 22232.12709918  1424.63477199
0.35600002 22302.93439173  1194.32219325
0.35700002 22380.67609618  1562.39507228
0.35800002 22465.39143968  1451.71366359
0.35900002 22555.94885808  1339.82342563
0.36000002 22653.19848336  1472.00490717
0.36100002 22755.42683121  1359.18170901
0.36200002 22864.51313078  1369.47007883
0.36300002 22977.27681118  1505.47124798
0.36400002 23096.01254155  1643.85877051
0.36500002 23219.30107232  1402.21365818
0.36600002 23348.04343786  1413.84083735
0.36700002 23480.92756578  1944.22089454
0.36800002 23619.58892198  1961.01646314
0.36900002 23761.54767937  1450.64255454
0.37000002 23906.73759380  1729.53301315
0.37100002 24056.17945666  1610.80185272
0.37200002 24209.76354698  1625.44360154
0.37300002 24366.37993927  1366.95397935
0.37400002 24527.34983421  1379.66349353
0.37500002 24690.30633158  1531.78667737
0.37600002 24857.35012198  1967.95650238
0.37700002 25026.13372178  1560.88003417
0.37800002 25198.36696378  1719.03267570
0.37900002 25372.96688859  1880.13693551
0.38000002 25550.14387289  2044.26710811
0.38100002 25728.87726813  1474.26473730
0.38200002 25910.10659378  2381.65711093
0.38300002 26092.95394339  2404.72674934
0.38400002 26278.08920751  1821.07166835
0.38500002 26464.00917137  1532.26620361
0.38600002 26652.40882839  2011.32412752
0.38700002 26841.18115125  1562.15681701
0.38800002 27031.10711797  2208.17124508
0.38900002 27222.35645019  1911.00951334
0.39000002 27415.20578650  2572.64303289
0.39100002 27607.81985116  2272.67583782
0.39200002 27801.86146441  1802.81179207
0.39300002 27996.02381998  1985.47810338
0.39400002 28191.46426706  2171.44763805
0.39500002 28386.23611977  2023.37100648
0.39600002 28581.31522446  1872.21914248
0.39700002 28776.09422859  2233.31277889
0.39800002 28972.03636169  1907.37410424
0.39900002 29166.89508676  2450.01930337
0.40000002 29361.42944231  2295.91708402
0.40100002 29555.54015111  2138.63898666
0.40200002 29750.29767066  2337.92725322
0.40300002 29943.26467831  2721.84288822
0.40400002 30135.90553709  2196.90761774
0.40500002 30327.76146792  2216.35291309
0.40600002 30519.02036013  2981.09805002
0.40700002 30709.03527940  2631.15026741
0.40800002 30898.32294221  2085.17342255
0.40900002 31085.70465039  2102.94801924
0.41000002 31272.79342130  2506.35814751
0.41100002 31458.28750450  2138.53448588
0.41200002 31641.69997096  2156.22374669
0.41300002 31824.20255112  2173.91137927
0.41400002 32004.93735682  2390.76893384
0.41500002 32184.59665628  2409.98271182
0.41600002 32361.37667780  2631.46546924
0.41700002 32537.24328927  4284.17902690
0.41800002 32712.11356947  2055.95643526
0.41900002 32882.95203285  2485.95129148
0.42000002 33052.72684700  2296.00777922
0.42100002 33220.93333943  2523.46221604
0.42200002 33386.99955111  2542.08626628
0.42300002 33550.27633675  2133.79767613
0.42400002 33711.45451332  2578.92639247
0.42500002 33870.73458452  2380.77404676
0.42600002 34026.26283442  3051.13513294
0.42700002 34180.84515684  2633.29243567
0.42800002 34332.33999843  2209.28618359
0.42900002 34481.95672536  2668.90357701
0.43000002 34629.02155981  3134.27288990
0.43100002 34772.01432757  2929.19462576
0.43200002 34913.32956400  2494.38294890
0.43300002 35051.58712483  2510.04427296
0.43400002 35187.53106506  2755.18381296
0.43500002 35320.13388653  2309.93686564
0.43600002 35451.01817834  3020.95865723
0.43700002 35577.98288061  3506.21037904
0.43800002 35701.41399533  2350.93822300
0.43900002 35822.96999860  2600.74774515
0.44000002 35940.80093766  2852.98091363
0.44100002 36056.32475369  2390.53444446
0.44200002 36168.57682242  4085.78347437
0.44300002 36278.03069531  2657.72865469
0.44400002 36383.70644972  3157.19627680
0.44500002 36485.63183264  3417.24443939
0.44600002 36585.19358926  2453.03734641
0.44700002 36681.82178967  2465.01854109
0.44800002 36774.06150143  2724.40647545
0.44900002 36864.64885993  2986.03669917
0.45000002 36951.63490671  2999.73386389
0.45100002 37033.98610015  4017.44700254
0.45200002 37114.14308427  3026.28737051
0.45300002 37190.30166094  3545.72352840
0.45400002 37263.89954919  2797.58739124
0.45500002 37333.94833052  3319.73484288
0.45600002 37400.38761702  3589.31536972
0.45700002 37463.46461453  3860.61021150
0.45800002 37522.56791101  2583.42892311
0.45900002 37578.65509958  3370.80552219
0.46000002 37632.11160770  3382.93883331
0.46100002 37680.85310475  3916.92486588
0.46200002 37727.13735975  3406.19475796
0.46300002 37769.52413213  3417.38670544
0.46400002 37808.09856165  3428.24949956
0.46500002 37844.20331761  3174.37192473
0.46600002 37875.98381592  3979.81918808
0.46700002 37904.41895209  3459.15743752
0.46800002 37930.16136973  2935.22567672
0.46900002 37951.63505575  3745.82655754
0.47000002 37969.38231992  2950.79068685
0.47100002 37984.22781380  3496.06849368
0.47200002 37995.44877748  3234.93266224
0.47300002 38003.85975554  2972.28201236
0.47400002 38007.35450575  3520.43137795
0.47500002 38008.71897348  4342.11626134
0.47600002 38006.87564029  2991.33128905
0.47700002 38000.44758183  3542.02188699
