# SAXS profile: number of points = 501, q_min = 0, q_max = 0.5, delta_q = 0.001
#    q    intensity    error
0.00000000 1646666.22097351 271.69992646
0.00100000 1646598.23937954 543.37743190
0.00200000 1646394.24135164 889.05291848
0.00300000 1646054.40400364 1382.68574862
0.00400000 1645578.58896375 1974.69438179
0.00500000 1644967.22751497 1628.51761970
0.00600000 1644220.11538108 2071.71742972
0.00700000 1643337.82735738 2760.80766470
0.00800000 1642319.87316290 2438.84511461
0.00900000 1641167.55064914 2707.92657433
0.01000000 1639880.08850231 2705.80226286
0.01100000 1638458.67052012 3244.14830888
0.01200000 1636902.74639999 4149.54864406
0.01300000 1635213.76980291 4807.52869526
0.01400000 1633390.96851133 4410.15581049
0.01500000 1631436.01891577 4306.99128172
0.01600000 1629347.89098914 6647.73969241
0.01700000 1627128.65541654 5711.22183671
0.01800000 1624777.90045970 4630.61722468
0.01900000 1622296.30898530 8273.71154916
0.02000000 1619684.46893244 5102.00630793
0.02100000 1616944.09914627 5335.91576910
0.02200000 1614073.31214820 9466.54040584
0.02300000 1611075.08429832 6379.85762422
0.02400000 1607949.24925262 9647.69593543
0.02500000 1604697.08182914 8135.81457644
0.02600000 1601318.84336551 10376.54657961
0.02700000 1597815.48408541 10737.32054484
0.02800000 1594186.93648828 9708.59888845
0.02900000 1590435.82921556 10019.74618411
0.03000000 1586562.35443577 9590.76987341
0.03100000 1582566.71149822 9875.21673414
0.03200000 1578449.90823310 11719.99110843
0.03300000 1574214.91258137 8831.34606671
0.03400000 1569859.50075850 8241.76275926
0.03500000 1565387.24134606 10143.70979234
0.03600000 1560797.61336797 8662.42715452
0.03700000 1556092.52660641 8869.72781186
0.03800000 1551273.55489554 11797.43593096
0.03900000 1546341.28690359 12061.46259641
0.04000000 1541295.26655641 9478.96632857
0.04100000 1536139.17957852 14516.51592010
0.04200000 1530873.32061828 15798.61340172
0.04300000 1525497.84539656 14095.60074575
0.04400000 1520016.29825437 12312.13258766
0.04500000 1514428.40545059 10449.55648315
0.04600000 1508734.42312217 11700.23599522
0.04700000 1502937.52695638 14067.49590656
0.04800000 1497037.98996023 17605.16758107
0.04900000 1491038.40501609 16774.18283723
0.05000000 1484938.33000193 14767.71237954
0.05100000 1478741.25261726 16147.85523081
0.05200000 1472445.13912420 17558.90910232
0.05300000 1466055.68641590 17812.57742034
0.05400000 1459570.79354301 19266.33537323
0.05500000 1452994.92070674 15866.70527429
0.05600000 1446326.23495402 13602.69887450
0.05700000 1439569.79304987 13776.68356256
0.05800000 1432724.24627396 15215.53220588
0.05900000 1425791.42887038 14115.33580509
0.06000000 1418774.36887203 15578.14329801
0.06100000 1411674.13434309 15754.28407549
0.06200000 1404491.53749959 13272.44564977
0.06300000 1397229.71818819 16096.08710611
0.06400000 1389886.64720781 17616.81407724
0.06500000 1382468.77318317 15055.08564421
0.06600000 1374973.55234006 17964.03030183
0.06700000 1367404.30633273 15342.27703506
0.06800000 1359763.69013960 15480.91033689
0.06900000 1352052.66965327 15616.20906563
0.07000000 1344270.73978265 14316.48404910
0.07100000 1336422.76941355 15876.70324426
0.07200000 1328507.63107465 17456.59109011
0.07300000 1320529.87391314 17589.45874469
0.07400000 1312489.09950027 17718.60367362
0.07500000 1304387.40433988 23792.02737035
0.07600000 1296225.05452916 14971.40008168
0.07700000 1288007.52318382 15069.68872785
0.07800000 1279733.25513689 19714.29171991
0.07900000 1271403.91206720 18308.21719249
0.08000000 1263023.61076543 16880.31134975
0.08100000 1254592.41415459 21604.08238537
0.08200000 1246111.00849479 15514.08278376
0.08300000 1237582.71762439 21830.96016346
0.08400000 1229008.47373299 15669.85877562
0.08500000 1220391.64983682 22040.27423074
0.08600000 1211731.48818600 20557.02566226
0.08700000 1203031.80673580 15880.02059460
0.08800000 1194290.87445072 25510.05427632
0.08900000 1185515.03898113 22406.23528916
0.09000000 1176703.08524291 17668.19765489
0.09100000 1167857.42873121 20951.36325576
0.09200000 1158978.97408972 17784.53319304
0.09300000 1150071.45053895 19459.20985755
0.09400000 1141132.70659387 27643.94111643
0.09500000 1132167.77619611 16303.21674352
0.09600000 1123176.95779411 16342.22550412
0.09700000 1114163.58709652 21291.66715040
0.09800000 1105128.29756038 21334.50278750
0.09900000 1096073.18186935 18085.20835126
0.10000000 1086997.43033681 21408.41539726
0.10100000 1077904.59039334 18141.13510953
0.10200000 1068796.40753127 26420.64843690
0.10300000 1059673.67570292 21490.18315417
0.10400000 1050539.40096214 26473.59414970
0.10500000 1041396.18612973 21525.66018007
0.10600001 1032239.89311015 24851.17659596
0.10700001 1023079.01632881 19888.65701335
0.10800001 1013909.97404727 16577.42885583
0.10900001 1004737.40339120 21551.61831708
0.11000001 995561.40203549 18233.70793653
0.11100001 986383.61954730 19885.49470615
0.11200001 977207.38209876 18220.03249698
0.11300001 968030.65112615 26485.31986176
0.11400001 958858.54659887 19848.37284915
0.11500001 949690.49654638 19829.53850162
0.11600001 940528.22457966 16506.27111868
0.11700001 931374.39501143 21430.92583850
0.11800001 922227.37665326 19754.11133830
0.11900001 913091.25522903 24653.46505240
0.12000001 903966.44917572 19688.39019047
0.12100001 894856.05864352 19651.03997354
0.12200001 885759.02351452 22879.15665525
0.12300001 876678.22546359 19567.45891426
0.12400001 867613.64495229 17894.53227029
0.12500001 858567.49294225 24340.38957184
0.12600001 849542.55491919 17802.16507723
0.12700001 840538.35428076 24207.50574410
0.12800001 831555.11788521 17699.65151836
0.12900001 822596.05142798 16040.62375887
0.13000001 813661.27226324 15988.44475359
0.13100001 804751.89428356 22307.72356107
0.13200001 795870.46353582 20640.90144482
0.13300001 787018.49642730 20564.79428113
0.13400001 778194.36268272 18910.12390472
0.13500001 769401.70087782 18834.95452552
0.13600001 760639.71830608 17194.26164303
0.13700001 751911.41651853 18677.48046702
0.13800001 743215.76410873 20144.86423611
0.13900001 734557.33149298 16968.27515768
0.14000001 725933.45892063 15353.49338025
0.14100001 717346.92077235 21391.28618631
0.14200001 708797.44487582 18244.44709161
0.14300001 700289.43143394 15126.25243244
0.14400001 691817.70060237 18056.44283744
0.14500001 683390.40177818 16462.87555543
0.14600001 675002.51178159 14883.80608692
0.14700001 666660.42399995 16279.84832211
0.14800001 658359.37912179 17657.19938109
0.14900001 650102.58554229 16090.03975131
0.15000001 641891.71657064 14538.84806631
0.15100001 633727.33028936 14448.98381237
0.15200001 625610.38000993 14357.75889873
0.15300001 617541.27084884 17118.24483572
0.15400001 609518.70038089 24091.22776944
0.15500001 601547.30280391 19706.69056987
0.15600001 593623.45252347 15377.81626338
0.15700001 585754.35647542 19435.33046514
0.15800001 577931.80908367 16540.40915666
0.15900001 570164.29974732 17789.12699177
0.16000001 562446.82248390 16299.70968497
0.16100001 554785.86021699 21570.07526344
0.16200001 547176.26547408 16054.15238686
0.16300001 539622.51065471 14602.18582765
0.16400001 532123.11501144 13170.04771829
0.16500001 524679.34389628 18290.32279173
0.16600001 517291.66791940 20733.05102908
0.16700001 509959.58284531 16706.27672279
0.16800001 502683.88921856 14017.34091271
0.16900001 495467.59455425 12634.42425771
0.17000001 488308.12983756 21292.67700700
0.17100001 481206.95431954 17381.19601078
0.17200001 474164.53760128 12304.57033181
0.17300001 467181.01862128 15851.45271040
0.17400001 460257.95846249 16914.48077230
0.17500001 453393.82152873 13166.55719902
0.17600001 446588.03176002 16599.67792451
0.17700001 439845.12262215 12918.25186155
0.17800001 433161.59478357 13956.46724312
0.17900001 426538.91647967 18426.48206227
0.18000001 419978.29512488 11402.41125123
0.18100001 413479.90784406 15803.20282429
0.18200001 407040.28246642 11173.25628150
0.18300001 400665.01991667 12164.19057930
0.18400001 394350.37046355 12037.54562706
0.18500001 388098.62270192 11910.74729341
0.18600001 381908.95417274 13926.31067184
0.18700001 375781.34030674 13776.14458650
0.18800001 369716.03760729 17818.46527434
0.18900001 363715.18011180 11402.47143524
0.19000001 357772.85730038 10250.19284596
0.19100001 351898.44577756 14188.54600416
0.19200001 346082.59038543 12022.90975809
0.19300001 340332.65785285 10894.04889264
0.19400001 334644.40367085 11746.01912389
0.19500001 329019.56429075 9673.17564725
0.19600001 323456.06999287 9558.12731997
0.19700001 317956.53577372 9443.30955875
0.19800001 312519.50208931 11194.44909387
0.19900001 307146.07601444 10135.82098749
0.20000001 301833.42764602 11830.36175570
0.20100001 296585.30059132 12581.14904570
0.20200001 291397.97239114 10647.68241442
0.20300001 286273.98399119 14891.97335109
0.20400001 281212.20894456 11241.45858389
0.20500001 276211.69940982 10241.93029822
0.20600001 271274.06654814 9265.36618091
0.20700001 266397.50301062 10805.08323286
0.20800001 261582.76178890 9020.68196670
0.20900001 256831.60274535 10517.25462959
0.21000001 252139.05756987 9576.24185919
0.21100001 247507.91496279 10231.97768826
0.21200001 242937.64137093 7761.85800874
0.21300001 238427.81443809 8418.88652582
0.21400001 233979.02571518 12073.31829769
0.21500001 229591.03393071 7438.74985104
0.21600001 225261.67968081 8065.49482230
0.21700001 220992.26752877 7949.09223884
0.21800001 216782.41356394 9969.82367118
0.21900001 212630.42987784 8420.16542128
0.22000001 208536.88469937 9678.19727651
0.22100001 204504.00392022 7490.98201780
0.22200001 200528.18487734 7378.43491145
0.22300001 196609.90496762 9909.13967893
0.22400001 192747.67030525 7155.75759845
0.22500001 188945.66074372 8967.36148294
0.22600001 185198.09994377 8197.79428167
0.22700001 181508.33982221 7449.10261857
0.22800001 177873.83926807 8553.95333492
0.22900001 174294.77728954 8418.43814120
0.23000001 170771.17863097 7692.38810522
0.23100001 167303.92431218 6404.39452555
0.23200001 163889.39449514 6300.72806935
0.23300001 160530.09370885 6198.06721123
0.23400001 157224.68285814 6096.38736615
0.23500001 153971.16335538 5450.57944057
0.23600001 150771.77672468 7503.91168250
0.23700001 147624.79514807 6851.26706687
0.23800001 144529.51603159 7253.93675273
0.23900001 141486.40018385 5093.51064754
0.24000001 138494.19617715 5006.56542862
0.24100001 135554.11679449 5904.73760687
0.24200001 132663.64286485 5319.14901227
0.24300001 129823.37965648 6176.99669624
0.24400001 127031.89231943 4668.42226357
0.24500001 124289.99325786 5962.19125862
0.24600001 121597.04508499 7658.79024698
0.24700001 118952.74113473 4425.04217954
0.24800001 116355.21778614 5215.04110788
0.24900001 113804.88719549 6828.29355476
0.25000001 111302.17888274 4609.57995650
0.25100001 108844.90469019 4525.77135113
0.25200001 106435.05034981 5250.97345743
0.25300001 104070.51383144 4758.10411748
0.25400001 101750.03871261 4281.13308138
0.25500001 99474.46207735  4583.78342939
0.25600001 97243.17914869  5623.08710032
0.25700001 95055.32237983  4046.50526516
0.25800001 92910.58381503  4692.44925760
0.25900001 90808.79431459  3541.54314584
0.26000001 88749.82871555  4516.92274620
0.26100001 86730.47531685  3749.35862535
0.26200001 84754.57098190  4346.63837848
0.26300001 82818.25455135  3279.60303542
0.26400001 80922.26423423  3859.99218662
0.26500001 79066.83377352  4416.67354358
0.26600001 77249.75157175  4640.77904527
0.26700001 75472.92734238  4854.41891637
0.26800001 73734.10055491  3272.68820800
0.26900001 72032.68476128  2917.32387088
0.27000001 70369.52986494  4290.78228656
0.27100001 68743.05060047  4487.54655556
0.27200001 67153.52770183  3024.93079848
0.27300001 65599.60853734  3235.37284617
0.27400001 64080.31308138  3171.97564764
0.27500001 62598.23323895  2850.72367661
0.27600001 61148.80868708  2794.80643331
0.27700001 59735.53287033  3487.36057401
0.27800001 58354.78246261  3663.22164246
0.27900001 57008.02264404  2873.20447724
0.28000001 55693.63802409  3521.23043073
0.28100001 54411.60623023  3222.25547346
0.28200001 53161.99534539  3159.41753291
0.28300001 51943.74939443  2434.08421183
0.28400001 50756.81432156  3254.78087242
0.28500001 49600.48407547  3830.14956159
0.28600001 48473.65470331  2921.50730725
0.28700001 47377.07737039  2251.35882320
0.28800001 46309.00684501  3211.99286680
0.28900001 45271.14157019  2363.15370182
0.29000001 44260.56201105  2125.17098555
0.29100001 43279.28465018  2085.19603315
0.29200001 42324.44615626  2418.20734560
0.29300001 41396.96427877  2190.72745333
0.29400001 40496.03137638  2329.53431520
0.29500001 39622.68339546  1935.17194864
0.29600001 38773.69635802  2245.57873088
0.29700001 37950.17121400  1866.01000693
0.29800001 37152.27278995  2166.16336756
0.29900001 36378.91359304  2455.57678378
0.30000001 35629.60116438  1608.67656873
0.30100001 34904.74452697  1739.30350212
0.30200001 34202.32068877  1709.94510378
0.30300001 33523.38449976  1987.26632723
0.30400001 32867.71795400  2105.17743462
0.30500001 32233.19717325  1627.45420232
0.30600001 31620.74564840  1601.74894665
0.30700001 31030.24263520  2150.39591643
0.30800001 30460.49472945  1411.84399755
0.30900001 29911.35300533  1669.05357672
0.31000001 29383.52292245  1370.74140923
0.31100001 28873.79076704  1756.68151344
0.31200001 28385.02323479  1732.47997516
0.31300001 27914.47964374  1446.24925882
0.31400001 27464.45289792  1297.69546087
0.31500001 27032.11871253  2050.11598023
0.31600002 26617.64688746  1518.80300331
0.31700002 26220.82389078  1500.88003057
0.31800002 25841.78338711  1360.18233298
0.31900002 25480.09706958  1345.34918897
0.32000002 25134.80845880  1452.28930151
0.32100002 24806.41128323  1437.77966606
0.32200002 24494.23657030  1305.42039983
0.32300002 24197.12626499  1293.57843138
0.32400002 23915.73033020  1982.01624497
0.32500002 23649.16148257  1156.44405126
0.32600002 23397.89365897  1377.20008598
0.32700002 23160.85307883  1709.27103816
0.32800002 22938.60737517  1245.22236033
0.32900002 22729.13258123  1350.11053926
0.33000002 22534.71257394  1342.61823873
0.33100002 22351.38310123  1558.33850361
0.33200002 22183.30410662  1440.47292038
0.33300002 22026.69599415  1213.89127372
0.33400002 21883.22828545  1539.48518278
0.33500002 21751.21854083  1534.76605292
0.33600002 21631.13616842  1093.45398510
0.33700002 21521.74039164  1418.49797639
0.33800002 21425.07663835  1743.14431785
0.33900002 21337.97432611  1197.06041638
0.34000002 21262.55986099  1522.61198375
0.34100002 21197.16066070  1304.89727207
0.34200002 21142.79556819  1740.47501360
0.34300002 21097.08133029  1197.47039302
0.34400002 21061.84458673  1089.95050898
0.34500002 21035.55025940  1091.74511017
0.34600002 21019.66760231  1312.88850062
0.34700002 21010.53460534  1645.12493751
0.34800002 21011.62934512  1099.95884831
0.34900002 21020.76097782  1545.02600505
0.35000002 21038.05803821  1439.94995062
0.35100002 21063.44514863  1334.57994783
0.35200002 21095.94281619  1117.03022502
0.35300002 21136.07261648  1571.25571273
0.35400002 21184.05676170  1692.07661398
0.35500002 21238.71302865  1474.39152828
0.35600002 21299.61806553  1596.83244201
0.35700002 21367.40612596  1262.17273964
0.35800002 21442.09061394  1501.05362453
0.35900002 21522.53651543  1162.21702688
0.36000002 21609.75108017  1755.25211463
0.36100002 21701.65921896  1531.92019683
0.36200002 21800.49040374  1187.03675871
0.36300002 21902.78210334  1315.48115544
0.36400002 22011.17132571  1205.11168717
0.36500002 22124.08646351  1214.61240438
0.36600002 22242.38454293  1346.88765980
0.36700002 22364.76110419  1234.53487143
0.36800002 22492.95961498  1618.48098576
0.36900002 22624.49760429  1632.35757947
0.37000002 22759.10138192  1773.16167266
0.37100002 22898.21889233  1788.80894460
0.37200002 23041.34007982  1546.99564624
0.37300002 23187.49414568  2081.30957311
0.37400002 23337.97918526  1444.03753049
0.37500002 23490.66784328  1722.33584786
0.37600002 23647.33972373  1470.98283720
0.37700002 23805.75219881  1619.74345634
0.37800002 23967.96651588  1771.35264927
0.37900002 24132.39410611  2338.42909966
0.38000002 24299.36208190  1666.45033052
0.38100002 24468.11289331  1542.22522873
0.38200002 24639.34864594  1698.63677612
0.38300002 24812.26548860  1572.10521583
0.38400002 24987.75520953  1875.95581123
0.38500002 25163.72283414  1748.37554534
0.38600002 25342.73678885  1618.26053432
0.38700002 25522.00725470  1930.99516037
0.38800002 25702.55619483  2249.61633753
0.38900002 25884.52059078  1514.24452630
0.39000002 26068.23230912  2293.35284604
0.39100002 26251.91385887  2006.69639044
0.39200002 26436.98721943  1714.30651746
0.39300002 26622.45884382  1888.06487065
0.39400002 26809.23923712  2700.36075009
0.39500002 26995.63519072  2244.95712882
0.39600002 27182.42159698  1780.58461107
0.39700002 27369.06573153  1633.93330159
0.39800002 27556.91531273  2308.99404345
0.39900002 27743.89587228  1997.56059745
0.40000002 27930.93250410  2016.05480366
0.40100002 28117.41619562  2373.67238770
0.40200002 28304.93016483  2737.65297525
0.40300002 28490.88028553  2071.85691253
0.40400002 28676.39421074  2787.34564935
0.40500002 28861.55560004  2109.20258319
0.40600002 29046.14929701  3191.88149748
0.40700002 29229.86833192  2325.52843467
0.40800002 29413.15109107  2526.29566691
0.40900002 29594.48803253  2002.06721026
0.41000002 29775.77434431  1835.67657530
0.41100002 29955.64933623  2036.38513837
0.41200002 30133.87059842  2800.19005804
0.41300002 30311.18095897  2258.78931209
0.41400002 30487.08577973  2277.38541566
0.41500002 30662.10237351  2104.64680664
0.41600002 30834.34881812  2507.29519295
0.41700002 31006.00815878  2138.48448404
0.41800002 31176.80798853  2155.40872242
0.41900002 31343.96570957  2764.53790658
0.42000002 31510.09629177  1989.86267511
0.42100002 31675.16979216  2807.05367999
0.42200002 31838.05530210  3030.18705696
0.42300002 31998.59408548  2849.15495238
0.42400002 32157.16840519  2050.01958297
0.42500002 32314.11280558  2477.84628735
0.42600002 32467.68820161  2287.51108064
0.42700002 32620.44155140  2094.23244684
0.42800002 32770.32307742  3163.15558494
0.42900002 32918.69428364  2123.25588191
0.43000002 33064.62831039  2351.39115372
0.43100002 33206.77618571  2151.79919880
0.43200002 33347.62537067  2599.11404456
0.43300002 33485.60856662  2397.90454309
0.43400002 33621.47303959  2632.56146375
0.43500002 33754.43441108  2649.04813812
0.43600002 33885.77496091  2443.33391934
0.43700002 34013.44763511  2681.62033863
0.43800002 34137.90828250  2922.37577701
0.43900002 34260.82181179  2261.21434674
0.44000002 34380.19322475  2501.67487855
0.44100002 34497.54230114  2744.62459555
0.44200002 34611.82084881  2529.95116484
0.44300002 34723.67734078  2543.85672254
0.44400002 34832.03789298  3487.55795931
0.44500002 34936.79463701  3505.90750797
0.44600002 35039.51443973  2584.33950998
0.44700002 35139.52537467  2833.65146050
0.44800002 35235.61925953  3796.99051135
0.44900002 35330.01545620  3577.16423447
0.45000002 35421.17245535  2396.24243017
0.45100002 35507.98465458  2407.44147367
0.45200002 35592.85682423  3385.94863016
0.45300002 35674.18333136  2672.35320000
0.45400002 35752.94562475  3660.20798180
0.45500002 35828.56888031  3185.87649583
0.45600002 35900.63166109  2707.08725870
0.45700002 35969.86474954  3706.69473811
0.45800002 36035.32061168  2481.03194170
0.45900002 36097.94392408  3736.13737321
0.46000002 36158.25798727  2500.34365832
0.46100002 36214.17119905  2760.60640134
0.46200002 36267.75917536  3526.31439175
0.46300002 36317.61001853  3033.24693251
0.46400002 36364.03693923  3297.30920574
0.46500002 36408.15790783  2799.42339421
0.46600002 36448.32761027  2808.52601712
0.46700002 36485.36695273  3073.52745777
0.46800002 36519.81463564  3853.75362208
0.46900002 36550.42823508  3092.16637525
0.47000002 36577.52215173  2584.20206250
0.47100002 36601.89731241  4146.26312407
0.47200002 36622.88683637  2858.23333862
0.47300002 36641.12396026  3907.77605558
0.47400002 36655.01747297  3656.33816623
0.47500002 36666.76667882  2879.80799145
0.47600002 36675.50701906  2886.54591675
0.47700002 36680.15074376  2892.96362628
