# SAXS profile: number of points = 501, q_min = 0, q_max = 0.5, delta_q = 0.001
#    q    intensity    error
0.00000000 1664650.74656090 324.60689558
0.00100000 1664582.18175627 499.37466639
0.00200000 1664376.44059526 823.86636418
0.00300000 1664033.67849415 998.42024266
0.00400000 1663553.79067040 2370.56424178
0.00500000 1662937.20310848 2095.30095885
0.00600000 1662183.68514407 1919.82223450
0.00700000 1661293.83126090 3189.68428859
0.00800000 1660267.16135994 2913.76899121
0.00900000 1659104.95225018 2986.38904171
0.01000000 1657806.45755921 3282.45692770
0.01100000 1656372.83249532 3279.61835113
0.01200000 1654803.57653986 4194.92725045
0.01300000 1653100.10178354 3818.66140354
0.01400000 1651261.64153388 4086.87274397
0.01500000 1649289.91196414 4749.95515797
0.01600000 1647183.84932240 6300.47850531
0.01700000 1644945.53748661 5773.75909558
0.01800000 1642574.54500319 6085.73896308
0.01900000 1640071.59589900 6396.27951262
0.02000000 1637437.26258952 6705.30589362
0.02100000 1634673.28671761 5394.42209074
0.02200000 1631777.80764843 5629.63369215
0.02300000 1628753.68810834 7036.21625291
0.02400000 1625600.87217780 7315.20425836
0.02500000 1622320.64740749 9490.57622077
0.02600000 1618913.18431201 7867.91843562
0.02700000 1615379.56092015 7463.05391327
0.02800000 1611719.67821197 9114.27519827
0.02900000 1607935.99897769 7959.28356038
0.03000000 1604028.96639072 8950.48204387
0.03100000 1599998.64488639 9983.99200349
0.03200000 1595846.10723553 8689.38245411
0.03300000 1591574.33449179 10552.13832414
0.03400000 1587181.07579266 9165.97113562
0.03500000 1582669.83843854 10255.70102667
0.03600000 1578040.20963480 9633.93592504
0.03700000 1573294.15081473 9864.55478182
0.03800000 1568433.02957468 10092.86701241
0.03900000 1563457.70403394 10318.82132449
0.04000000 1558367.58252411 11500.75329196
0.04100000 1553166.31480420 12720.43270805
0.04200000 1547854.27069584 10982.02656007
0.04300000 1542431.64996486 16288.07897969
0.04400000 1536901.97490915 17635.95098113
0.04500000 1531264.78290270 13735.44574085
0.04600000 1525520.67191983 13981.39760810
0.04700000 1519672.62097872 12035.80771791
0.04800000 1513721.06172658 12238.43535349
0.04900000 1507668.40634273 16961.27036086
0.05000000 1501514.35954190 12635.24392392
0.05100000 1495262.31650131 16328.26525683
0.05200000 1488910.30996803 15387.88877061
0.05300000 1482463.96703551 12007.95869277
0.05400000 1475921.37150915 18264.52782417
0.05500000 1469286.93299195 14810.41297545
0.05600000 1462558.58858421 15005.85181911
0.05700000 1455741.75674479 16464.44003732
0.05800000 1448834.91295365 15386.62749401
0.05900000 1441839.81216265 14274.21480710
0.06000000 1434759.70718877 17066.46751434
0.06100000 1427595.66908927 22570.28858304
0.06200000 1420348.39068674 18791.21008715
0.06300000 1413020.92820097 17634.50200845
0.06400000 1405611.45926895 21927.53979007
0.06500000 1398126.33902492 15225.59654420
0.06600000 1390563.08339029 16770.19157034
0.06700000 1382925.01554006 15516.41940051
0.06800000 1375214.88548521 19926.86462344
0.06900000 1367433.38080840 17229.66140486
0.07000000 1359580.44806390 14479.53244993
0.07100000 1351660.56290772 16057.72823945
0.07200000 1343672.75330040 19127.18253928
0.07300000 1335621.60070413 20755.56064746
0.07400000 1327506.79439438 17921.34256419
0.07500000 1319330.36840543 19552.47697624
0.07600000 1311092.57454294 18171.74393507
0.07700000 1302798.91910693 16767.02287509
0.07800000 1294447.85855440 18407.04941186
0.07900000 1286040.96400250 16975.74152106
0.08000000 1277582.59291131 15522.62923206
0.08100000 1269072.58776620 17170.55291809
0.08200000 1260511.92393638 18832.04902731
0.08300000 1251903.56331394 17351.38420187
0.08400000 1243248.67678163 23777.13205952
0.08500000 1234550.68326009 19110.84547403
0.08600000 1225808.66646009 19196.16461805
0.08700000 1217026.51331047 24097.12609509
0.08800000 1208202.89368534 20968.36220466
0.08900000 1199343.58477961 16191.13915502
0.09000000 1190447.62249024 25999.37729652
0.09100000 1181517.45150965 22826.91823560
0.09200000 1172554.03363204 27807.12021415
0.09300000 1163560.95831760 21328.07336821
0.09400000 1154536.44854231 19742.57419792
0.09500000 1145484.98817079 18144.48306546
0.09600000 1136407.17743386 18188.19772982
0.09700000 1127306.54748472 16571.40702709
0.09800000 1118183.47993129 19926.03054925
0.09900000 1109040.09693160 21626.28290709
0.10000000 1099875.79167654 23328.36663853
0.10100000 1090693.97114187 23362.66596065
0.10200000 1081496.43121076 25063.68097221
0.10300000 1072283.93248005 25091.44520035
0.10400000 1063059.56795451 26789.10237275
0.10500000 1053825.95157225 23458.16678569
0.10600001 1044579.02166534 20118.59290393
0.10700001 1035326.75554747 21803.98249787
0.10800001 1026066.36760136 18453.80448978
0.10900001 1016802.14918238 21810.40712648
0.11000001 1007534.21511595 21808.07911268
0.11100001 998264.32293168 16770.84141471
0.11200001 988995.53401957 18439.82259989
0.11300001 979725.97650561 20103.97798441
0.11400001 970460.87933748 25110.67643518
0.11500001 961199.72776259 16724.87605061
0.11600001 951944.29503472 20047.94779752
0.11700001 942696.70043132 21691.45209848
0.11800001 933456.08805988 19994.63034796
0.11900001 924226.15753292 24954.10742877
0.12000001 915007.20965338 18268.11980125
0.12100001 905802.77115056 23206.66809010
0.12200001 896611.20052668 28122.21162939
0.12300001 887436.06021630 36313.88529496
0.12400001 878276.92696483 16467.69315651
0.12500001 869136.29784359 24640.01520492
0.12600001 860016.55488876 19659.97937120
0.12700001 850917.50470791 21238.90191842
0.12800001 841839.42610261 16289.59366280
0.12900001 832785.44435609 27606.83878157
0.13000001 823755.94751369 24280.20769741
0.13100001 814751.53775641 25811.32993281
0.13200001 805775.30850872 24112.82724381
0.13300001 796828.41380587 17617.87705981
0.13400001 787909.41226262 33505.84933612
0.13500001 779021.85624947 20659.66060180
0.13600001 770165.15380078 17409.58412254
0.13700001 761342.07260983 17335.75981076
0.13800001 752551.68290583 17259.77366134
0.13900001 743798.67751198 17181.75026079
0.14000001 735080.26662326 17101.64320951
0.14100001 726399.38856190 18566.76924731
0.14200001 717755.70149059 16935.44657544
0.14300001 709153.58557011 16849.48998790
0.14400001 700587.67737782 19809.11751225
0.14500001 692066.43482458 24250.00902018
0.14600001 683584.97684518 24116.87912080
0.14700001 675149.29636395 20983.64112093
0.14800001 666754.88455949 20862.76132214
0.14900001 658404.90747718 19258.34445233
0.15000001 650101.17588404 23559.66772565
0.15100001 641843.87344135 24877.86970845
0.15200001 633634.63642411 18904.49026976
0.15300001 625473.18062945 23117.48984696
0.15400001 617358.47365595 14353.58518986
0.15500001 609295.31523482 14257.51104935
0.15600001 601280.18946296 18408.19386918
0.15700001 593319.63984811 16874.01135368
0.15800001 585406.12815543 20942.90522324
0.15900001 577548.05123457 13861.15388388
0.16000001 569740.20339246 17886.99452982
0.16100001 561989.39570283 16387.61155226
0.16200001 554290.06190191 23039.06751054
0.16300001 546647.03055426 16137.02110376
0.16400001 539058.54567048 22680.88937984
0.16500001 531526.26209766 19852.50682661
0.16600001 524050.22903829 13127.45885720
0.16700001 516630.31723623 14320.99306995
0.16800001 509267.07243372 18073.88925406
0.16900001 501963.64953241 14080.08103422
0.17000001 494717.45290640 15227.40391949
0.17100001 487530.04243980 15093.93082669
0.17200001 480401.85956566 13713.07172887
0.17300001 473332.80913253 16060.18297230
0.17400001 466324.79940073 12241.02656236
0.17500001 459376.01378970 20616.79647256
0.17600001 452486.27651425 14416.21345061
0.17700001 445659.60629926 13089.02325521
0.17800001 438893.04139621 14141.13446170
0.17900001 432187.59759718 11669.06568630
0.18000001 425544.70110856 17330.30877124
0.18100001 418964.67284638 11437.73610898
0.18200001 412443.77988863 13585.89875130
0.18300001 405987.80144098 11205.26384910
0.18400001 399592.96525227 12197.57584055
0.18500001 393261.67065618 12069.20124261
0.18600001 386992.81377449 13026.17872705
0.18700001 380786.64409431 11812.00225786
0.18800001 374643.01344516 11683.24292628
0.18900001 368564.71574744 12604.91387411
0.19000001 362545.47613488 13503.00689664
0.19100001 356594.62663265 11296.91830550
0.19200001 350703.14199608 12183.42772863
0.19300001 344877.81503755 10035.94489182
0.19400001 339114.79670129 10911.01909945
0.19500001 333415.73997136 9802.42321837
0.19600001 327778.88721144 13560.21320474
0.19700001 322206.39284825 11483.43638379
0.19800001 316697.11379443 11344.09115222
0.19900001 311251.83191237 10271.31093853
0.20000001 305868.11338327 11988.50127065
0.20100001 300549.35598465 11838.63969176
0.20200001 295292.18195820 9890.81210216
0.20300001 290099.04914783 12427.84385289
0.20400001 284968.59734100 9639.06326066
0.20500001 279900.08991321 11243.58714326
0.20600001 274895.06556406 8535.49218922
0.20700001 269951.84635139 9264.74780472
0.20800001 265070.96645527 9971.97022942
0.20900001 260254.32658875 9837.61401009
0.21000001 255497.05618096 8895.13043143
0.21100001 250801.78035383 7975.49699228
0.21200001 246168.01262253 7865.06837511
0.21300001 241595.36952861 7755.21172850
0.21400001 237084.55146582 9175.17257550
0.21500001 232635.03484883 9798.58813109
0.21600001 228244.71494189 9658.17556939
0.21700001 223915.21163754 7322.02776673
0.21800001 219645.80169783 10101.51089769
0.21900001 215434.90757301 9242.15797187
0.22000001 211283.33658547 7704.44723287
0.22100001 207193.02832756 8969.38662040
0.22200001 203160.42882465 8834.43166517
0.22300001 199186.04032448 10038.97690705
0.22400001 195268.35425163 11862.55308172
0.22500001 191411.48666698 8435.50461631
0.22600001 187610.10426875 7026.93678768
0.22700001 183866.99394767 8174.72693749
0.22800001 180179.80691847 9902.68265654
0.22900001 176548.73267246 6090.93156525
0.23000001 172973.79722426 7192.25082872
0.23100001 169455.93428301 6486.77347113
0.23200001 165991.49781263 6381.54343521
0.23300001 162582.93954029 6277.32759253
0.23400001 159229.12655361 6174.10967412
0.23500001 155927.71334177 7175.79370738
0.23600001 152681.08673861 5970.59417930
0.23700001 149487.56844825 6937.71837982
0.23800001 146346.69063184 6295.83492877
0.23900001 143258.34022044 7220.22068862
0.24000001 140221.78463960 6589.72308083
0.24100001 137237.88714187 5479.90909278
0.24200001 134304.41363818 6853.55455214
0.24300001 131421.74678543 5291.03977586
0.24400001 128588.66438026 7088.45045927
0.24500001 125805.86059824 6499.13106594
0.24600001 123072.51073929 5015.82041245
0.24700001 120388.55603979 4926.29994619
0.24800001 117752.22656811 5277.65504445
0.24900001 115163.54086013 4750.49628521
0.25000001 112623.10429743 4664.28608514
0.25100001 110129.07533631 5828.03094252
0.25200001 107682.87855944 5312.53506506
0.25300001 105282.70452769 7220.28821810
0.25400001 102927.42716482 4330.67170285
0.25500001 100617.50309387 4250.08353176
0.25600001 98352.62341283  4549.79257434
0.25700001 96131.88538324  3720.30414035
0.25800001 93954.84826177  3650.14602767
0.25900001 91821.37581776  3939.13720896
0.26000001 89731.30471378  3512.98074576
0.26100001 87681.62937809  4135.06583713
0.26200001 85676.14386310  4055.90884239
0.26300001 83710.73981092  3314.94545337
0.26400001 81786.22472277  3576.10284522
0.26500001 79903.00819183  4144.56923103
0.26600001 78058.78897976  3438.88011123
0.26700001 76255.29613265  3065.46304959
0.26800001 74490.60961981  3306.26586443
0.26900001 72763.89458527  5009.79437927
0.27000001 71075.94293719  3467.08466055
0.27100001 69425.41475319  3399.06846717
0.27200001 67812.34375682  3887.68185156
0.27300001 66235.51647562  2994.50784158
0.27400001 64693.87144539  3469.20902044
0.27500001 63190.10893365  2616.07063366
0.27600001 61719.63183131  2820.89590635
0.27700001 60285.70103411  3016.69662252
0.27800001 58884.97564880  4189.37179080
0.27900001 57518.81671101  2415.79041620
0.28000001 56185.70744601  2605.05044903
0.28100001 54885.33149256  4178.96933763
0.28200001 53617.92523393  3414.12155086
0.28300001 52382.54745497  3347.24494080
0.28400001 51178.93465101  2187.89955989
0.28500001 50006.50321627  3003.39072532
0.28600001 48864.21201871  2313.96486967
0.28700001 47752.50018048  3094.36215816
0.28800001 46669.98033167  2225.45811745
0.28900001 45618.23859874  2182.83282027
0.29000001 44594.16908248  1946.53557259
0.29100001 43599.83300616  2291.60733128
0.29200001 42632.70382987  1873.70742202
0.29300001 41693.23843178  2022.53909206
0.29400001 40780.82894141  2345.91729590
0.29500001 39896.35908910  2125.67811289
0.29600001 39037.04787560  2782.56090429
0.29700001 38203.37091152  2219.99798876
0.29800001 37396.02766092  2683.53907198
0.29900001 36613.51048804  1812.36885495
0.30000001 35855.50848243  1942.65154154
0.30100001 35122.54098720  2545.68189127
0.30200001 34412.41586476  1876.85325012
0.30300001 33726.11479539  1691.70199822
0.30400001 33063.65522733  2268.99344739
0.30500001 32422.58224235  1934.65557399
0.30600001 31804.09011484  1903.95194486
0.30700001 31207.89181655  2018.52653826
0.30800001 30633.03124030  1703.80927825
0.30900001 30079.09637618  1958.14926680
0.31000001 29546.76868019  2067.53523628
0.31100001 29033.03081444  1630.49508774
0.31200001 28540.55435655  2009.96863572
0.31300001 28066.80742612  1454.14136160
0.31400001 27613.92338298  1696.18532411
0.31500001 27178.91397347  1417.10864167
0.31600002 26762.37438939  1781.57134745
0.31700002 26363.67648814  1509.05691363
0.31800002 25983.06295791  1491.94754568
0.31900002 25620.20764910  1967.63204062
0.32000002 25274.17408439  1703.73215570
0.32100002 24945.30489619  1325.34411189
0.32200002 24632.86360196  1670.84721724
0.32300002 24335.80561925  1300.99223001
0.32400002 24054.89039848  1289.94355870
0.32500002 23788.95035765  1279.60770033
0.32600002 23538.67566258  1500.94372470
0.32700002 23302.92141251  1490.45492412
0.32800002 23082.27954185  1139.11054933
0.32900002 22874.53568184  1698.43435480
0.33000002 22682.32697966  1351.41310544
0.33100002 22501.26538007  1232.61937589
0.33200002 22335.81006570  1785.07802498
0.33300002 22182.01456974  1333.58277908
0.33400002 22041.63628761  1107.59227590
0.33500002 21912.91078974  1435.73398293
0.33600002 21796.32710019  1211.98482580
0.33700002 21690.70151187  1539.60606622
0.33800002 21597.99426574  1208.08386647
0.33900002 21515.14403187  1097.27239759
0.34000002 21443.99580869  1425.91856883
0.34100002 21383.18519739  1426.04468835
0.34200002 21333.61922066  1536.66066524
0.34300002 21292.75196862  1538.18847506
0.34400002 21262.68368718  1430.44711280
0.34500002 21241.63345986  1102.44082878
0.34600002 21231.19408276  1768.13392695
0.34700002 21227.62112863  1662.12281309
0.34800002 21234.43286752  1111.62261326
0.34900002 21249.44562972  1115.59594840
0.35000002 21272.81692753  1792.02218285
0.35100002 21304.26279310  1237.35164163
0.35200002 21342.98518712  1356.13334302
0.35300002 21389.58918095  1476.52341109
0.35400002 21444.02621211  1141.89444988
0.35500002 21505.29074473  1378.05909619
0.35600002 21572.94203100  1270.75421052
0.35700002 21647.53431293  1278.71991243
0.35800002 21729.12331641  1404.13601521
0.35900002 21816.59445021  1767.14423417
0.36000002 21910.79991787  1542.41083328
0.36100002 22009.79789397  1434.15849870
0.36200002 22115.89343392  1204.21045452
0.36300002 22225.44437547  2305.66770872
0.36400002 22341.17181558  1345.49713633
0.36500002 22461.39465073  1356.44368721
0.36600002 22587.15650455  1243.42302447
0.36700002 22716.99976765  1504.77413589
0.36800002 22852.70076866  1517.87645695
0.36900002 22991.66518126  1531.24497361
0.37000002 23133.88383949  1287.40069665
0.37100002 23280.50816721  1428.95765899
0.37200002 23431.26831578  1573.17542924
0.37300002 23584.97487434  1455.42886844
0.37400002 23743.09332394  1335.54906274
0.37500002 23903.30019546  1348.14619489
0.37600002 24067.63145284  1905.43447238
0.37700002 24233.58050014  1511.44848739
0.37800002 24403.30317488  1803.52620658
0.37900002 24575.32123241  1540.87271427
0.38000002 24749.81457943  1555.89716724
0.38100002 24926.02439447  1713.91351856
0.38200002 25104.74029965  1874.94761810
0.38300002 25285.08876915  1747.70541852
0.38400002 25467.97681262  1470.77573061
0.38500002 25651.36994387  1930.77870714
0.38600002 25837.61628938  1649.86106632
0.38700002 26024.08389610  2271.90263176
0.38800002 26211.79614167  1529.45837733
0.38900002 26400.98691232  2316.68671131
0.39000002 26591.64685456  1871.52019429
0.39100002 26782.33702805  1889.76179023
0.39200002 26974.39426359  1749.15467889
0.39300002 27166.62160723  1605.54741305
0.39400002 27360.19401272  1783.20072926
0.39500002 27553.22006402  2127.65975415
0.39600002 27746.62856948  2148.00535247
0.39700002 27939.74429814  2168.40365771
0.39800002 28134.09704717  2020.59094566
0.39900002 28327.36034830  2549.46255214
0.40000002 28520.50776761  1887.05948585
0.40100002 28713.18525042  1904.54566790
0.40200002 28906.67224548  2446.37178804
0.40300002 29098.52040763  2292.38154633
0.40400002 29289.82680590  2135.22847532
0.40500002 29480.66268913  1974.90968712
0.40600002 29670.81364555  1992.54358478
0.40700002 29860.00866304  3289.37871017
0.40800002 30048.46441729  2949.55740695
0.40900002 30235.10294173  2603.24248663
0.41000002 30421.43591708  2063.02977447
0.41100002 30606.24977295  3026.34612094
0.41200002 30789.23144107  2288.87157378
0.41300002 30971.21778013  2115.64398681
0.41400002 31151.66904455  2520.94893688
0.41500002 31331.00309637  2346.06562302
0.41600002 31507.57096421  2759.11812007
0.41700002 31683.31470641  2185.19831884
0.41800002 31858.08322316  3003.42093818
0.41900002 32029.05539371  2623.17976104
0.42000002 32198.97019672  2440.03807713
0.42100002 32367.50410783  2253.74941782
0.42200002 32533.76455198  2889.97444209
0.42300002 32697.56958351  2911.39173367
0.42400002 32859.18022835  2723.20469047
0.42500002 33019.09911551  2109.92053346
0.42600002 33175.36452367  2124.88219843
0.42700002 33330.71624343  2353.81529265
0.42800002 33483.13819614  3447.42407204
0.42900002 33633.68476369  2603.24732407
0.43000002 33781.78195724  2839.18999914
0.43100002 33925.97729784  2198.40343308
0.43200002 34068.60253120  3982.96051067
0.43300002 34208.21226481  2895.04114116
0.43400002 34345.59707262  2465.15534671
0.43500002 34479.80383600  2480.47720551
0.43600002 34612.34821620  2268.83953309
0.43700002 34741.04641083  2510.73554309
0.43800002 34866.28103743  2755.13365814
0.43900002 34989.86949718  2540.26464588
0.44000002 35109.79122549  3019.26663952
0.44100002 35227.43639753  3736.92663014
0.44200002 35341.89757856  2818.16304647
0.44300002 35453.78038634  3069.58845132
0.44400002 35561.92152200  2611.13421150
0.44500002 35666.37960004  2624.68899915
0.44600002 35768.61969428  4077.08630907
0.44700002 35868.01799402  2651.36401577
0.44800002 35963.17213062  2664.33173356
0.44900002 36056.63567836  2433.82302363
0.45000002 36146.63138348  3178.91564768
0.45100002 36232.22590710  2456.54503292
0.45200002 36315.58439484  3207.93729955
0.45300002 36395.22801273  2974.21817416
0.45400002 36472.21989408  2738.15203832
0.45500002 36545.82096882  3249.65455456
0.45600002 36615.85274841  3263.02187232
0.45700002 36682.77696227  3024.12827609
0.45800002 36745.74184405  3541.92222421
0.45900002 36805.80427335  3047.52073827
0.46000002 36863.29823495  2804.00691314
0.46100002 36916.23754309  3837.44307448
0.46200002 36966.79654779  2824.07855612
0.46300002 37013.46058909  3864.20546865
0.46400002 37056.54899814  3101.63329815
0.46500002 37097.13710891  2852.39900750
0.46600002 37133.56532545  3121.44764920
0.46700002 37166.76748346  3130.92864120
0.46800002 37197.30868054  3925.24618456
0.46900002 37223.75284955  3673.98458038
0.47000002 37246.53167948  2631.46758788
0.47100002 37266.52223515  3430.01086909
0.47200002 37282.89531314  3703.31016698
0.47300002 37296.58450715  2916.96601256
0.47400002 37305.60766965  3455.43207418
0.47500002 37312.39865924  3463.33700771
0.47600002 37316.02618986  2936.95798048
0.47700002 37315.35778410  4280.81804789
