# SAXS profile: number of points = 501, q_min = 0, q_max = 0.5, delta_q = 0.001
#    q    intensity    error
0.00000000 1646666.22097350 321.09991309
0.00100000 1646598.23322007 493.97948170
0.00200000 1646394.21797040 963.14064801
0.00300000 1646054.34593321 1876.50202121
0.00400000 1645578.48782116 1234.18391276
0.00500000 1644967.07897365 1480.47042968
0.00600000 1644219.90142292 2071.71716014
0.00700000 1643337.53824557 2563.60666621
0.00800000 1642319.49500570 2660.55769424
0.00900000 1641167.06067518 2707.92576587
0.01000000 1639879.48267532 3246.96151590
0.01100000 1638457.93523798 3244.14685302
0.01200000 1636901.88917011 4149.54647098
0.01300000 1635212.76977873 5150.92045198
0.01400000 1633389.78698845 3675.12718365
0.01500000 1631434.66995866 4306.98772048
0.01600000 1629346.37904253 4570.31679752
0.01700000 1627126.94518341 5711.21583379
0.01800000 1624775.98400723 5556.73411534
0.01900000 1622294.15270689 6813.63574882
0.02000000 1619682.07207425 7142.79826096
0.02100000 1616941.48296241 6403.08856284
0.02200000 1614070.42605410 6125.39754517
0.02300000 1611071.93722194 7539.81700940
0.02400000 1607945.85242617 7235.75666585
0.02500000 1604693.39150945 6884.13496398
0.02600000 1601314.82467297 9727.98800483
0.02700000 1597811.23288453 8052.96898257
0.02800000 1594182.32532104 9708.57080644
0.02900000 1590430.87478846 9304.02104470
0.03000000 1586557.09623145 8115.23992024
0.03100000 1582561.10229482 9875.18173271
0.03200000 1578443.90862028 10938.61679055
0.03300000 1574208.60710659 9634.15711963
0.03400000 1569852.75118255 9890.07278878
0.03500000 1565380.10845912 9298.35827363
0.03600000 1560790.09892099 12127.33962907
0.03700000 1556084.59332841 8869.68259217
0.03800000 1551265.21050098 11797.37247184
0.03900000 1546332.50034497 11133.59451808
0.04000000 1541286.07221368 17062.03761004
0.04100000 1536129.52991429 10645.37813590
0.04200000 1530863.20096921 14811.10215651
0.04300000 1525487.29730042 13088.68161839
0.04400000 1520005.34816874 14364.05120729
0.04500000 1514416.91079969 15674.21575508
0.04600000 1508722.41213140 14891.09089998
0.04700000 1502925.04387380 11903.16690107
0.04800000 1497025.02527233 13203.76133725
0.04900000 1491024.93556075 13419.22504468
0.05000000 1484924.30658700 12495.63862180
0.05100000 1478726.74932999 11534.06918208
0.05200000 1472430.02651971 12876.40118197
0.05300000 1466040.03663109 15437.40230538
0.05400000 1459554.62188022 12041.32619205
0.05500000 1452978.22314737 13425.51940817
0.05600000 1446308.91212994 17312.31848606
0.05700000 1439551.94839087 12524.10253561
0.05800000 1432705.83430301 12679.44722562
0.05900000 1425772.47354983 17964.73400579
0.06000000 1418754.78806134 18174.24968414
0.06100000 1411653.95571738 17066.89712218
0.06200000 1404470.85185408 14599.47518745
0.06300000 1397208.35220842 18778.48113167
0.06400000 1389864.58045480 13551.18029318
0.06500000 1382446.17478826 17792.08310180
0.06600000 1374950.27079874 15200.07595487
0.06700000 1367380.46581971 19526.19396571
0.06800000 1359739.26993392 15480.63231283
0.06900000 1352027.51725131 15615.91855537
0.07000000 1344245.02254836 17179.45219266
0.07100000 1336396.40188075 21649.62272449
0.07200000 1328480.62027100 17456.23616813
0.07300000 1320502.19084451 16123.33250568
0.07400000 1312460.75419293 16241.70259429
0.07500000 1304358.42116451 14869.68669825
0.07600000 1296195.42498075 16468.16364642
0.07700000 1287977.24436667 19590.13480537
0.07800000 1279702.37851489 19713.81606553
0.07900000 1271372.33494346 22884.70310236
0.08000000 1262991.44508595 18414.41613319
0.08100000 1254559.42249365 16974.18978274
0.08200000 1246077.57683516 17065.03321554
0.08300000 1237548.54154460 17152.42359081
0.08400000 1228973.56726300 15669.41371810
0.08500000 1220356.13573337 18891.11386800
0.08600000 1211695.26758445 18975.14878128
0.08700000 1202994.84329805 23819.29901580
0.08800000 1194253.31402523 17537.61074009
0.08900000 1185476.77967028 22405.51218815
0.09000000 1176664.24241134 22486.05472877
0.09100000 1167817.86495946 16115.88729358
0.09200000 1158938.81687404 19400.63670604
0.09300000 1150030.59467896 17836.97536167
0.09400000 1141091.18300517 21138.71515864
0.09500000 1132125.63590150 16302.60992325
0.09600000 1123134.07397868 22878.24216240
0.09700000 1114120.08496431 19653.07922272
0.09800000 1105084.07337031 22974.69896559
0.09900000 1096028.25707748 21372.55201800
0.10000000 1086951.99108401 18114.05578327
0.10100000 1077858.40672346 24736.85159772
0.10200000 1068749.62689075 18163.40076335
0.10300000 1059626.25583759 23142.23851612
0.10400000 1050491.34199993 19854.28729785
0.10500000 1041347.52797638 19868.91176861
0.10600001 1032190.64253303 18223.32665139
0.10700001 1023029.02228311 19887.68512905
0.10800001 1013859.40746919 16576.60209224
0.10900001 1004686.19718228 19892.78764048
0.11000001 995509.53110723 21547.80481506
0.11100001 986331.22427383 29826.65762608
0.11200001 977154.44582332 19875.32236372
0.11300001 967977.09044060 23173.37263617
0.11400001 958804.25500465 16539.37417758
0.11500001 949635.73022361 26437.85997433
0.11600001 940472.87850336 18155.82977449
0.11700001 931318.44332242 16484.33722314
0.11800001 922170.92998022 21398.97743805
0.11900001 913034.30615640 16434.61828491
0.12000001 903908.92500621 22968.32686633
0.12100001 894797.96252625 24562.20522842
0.12200001 885700.37978932 17975.29005466
0.12300001 876619.01567952 17935.62590583
0.12400001 867553.90425831 24399.95470693
0.12500001 858507.32807887 19470.94711831
0.12600001 849481.82765569 24273.94436913
0.12700001 840477.05486271 24205.74032077
0.12800001 831493.39940742 19307.27764418
0.12900001 822533.73617600 16039.40861140
0.13000001 813598.61743403 20783.37766197
0.13100001 804688.60047952 17526.11854458
0.13200001 795806.88931133 19051.61782821
0.13300001 786954.44658593 22144.89917090
0.13400001 778129.82906305 23635.69467211
0.13500001 769336.88107431 17263.92042527
0.13600001 760574.39987713 17192.78511988
0.13700001 751845.77377381 18675.84990117
0.13800001 743149.70909015 18593.60659823
0.13900001 734490.85509838 16966.73955289
0.14000001 725866.59273598 18422.49499245
0.14100001 717279.70606709 16805.86430577
0.14200001 708729.93727316 21283.16102014
0.14300001 700221.54945159 15124.78618155
0.14400001 691749.41442572 15045.55047346
0.14500001 683321.79341388 20950.64717436
0.14600001 674933.50209996 17858.74130804
0.14700001 666591.23655124 16278.15876453
0.14800001 658289.84200841 16184.05652932
0.14900001 650032.73510478 24863.75329085
0.15000001 641821.62228207 20352.16460284
0.15100001 633656.95150038 20226.33084627
0.15200001 625539.79658327 18662.98071171
0.15300001 617470.52601388 17116.28378881
0.15400001 609447.56298246 24088.41606364
0.15500001 601476.02969932 15481.99373510
0.15600001 593551.99432527 16773.78015127
0.15700001 585682.62981465 15268.74687990
0.15800001 577860.00817051 16538.35421443
0.15900001 570092.39891394 13682.21821974
0.16000001 562374.63513466 16297.61769549
0.16100001 554713.57802130 13479.54058221
0.16200001 547103.91174864 16052.02952846
0.16300001 539550.02571729 17254.81063700
0.16400001 532050.55337431 17118.72736299
0.16500001 524606.75440594 14368.97968156
0.16600001 517219.00611046 16843.23772921
0.16700001 509886.86161202 21843.55418280
0.16800001 502611.11054827 12741.19225399
0.16900001 495394.61279843 15159.07586741
0.17000001 488235.17421945 13775.55609108
0.17100001 481134.08960109 16137.23812724
0.17200001 474091.73710443 17223.75362236
0.17300001 467108.25153559 14629.83112898
0.17400001 460185.21522079 15703.82121104
0.17500001 453321.07599279 15557.98006284
0.17600001 446515.34843976 15411.47797927
0.17700001 439772.58972130 14090.31444016
0.17800001 433089.03398530 12791.28522292
0.17900001 426466.55386074 12666.05724793
0.18000001 419906.02123747 12540.49391661
0.18100001 413407.78739668 12414.63644195
0.18200001 406968.30986721 15639.79288699
0.18300001 400593.16557906 13267.64627073
0.18400001 394278.65927380 15317.72663641
0.18500001 388027.19808983 10825.95933815
0.18600001 381837.76301015 16065.82463766
0.18700001 375710.35145908 11654.53565288
0.18800001 369645.23211741 11527.38710821
0.18900001 363644.60131169 11400.25878975
0.19000001 357702.51338564 13322.63074053
0.19100001 351828.44950180 16212.25571907
0.19200001 346012.87707197 14023.90257038
0.19300001 340263.15638367 12872.15581424
0.19400001 334575.21028092 9786.32536316
0.19500001 328950.74096517 12572.49791380
0.19600001 323387.57811154 11467.32406174
0.19700001 317888.43276427 14161.93034891
0.19800001 312451.72242460 13990.02653271
0.19900001 307078.64420341 10133.59573763
0.20000001 301766.44969883 9098.25888841
0.20100001 296518.65147022 14375.22490268
0.20200001 291331.83374149 13306.58213506
0.20300001 286208.27908955 10509.56850490
0.20400001 281146.87652391 10374.32023408
0.20500001 276146.79100667 10239.52349452
0.20600001 271209.70618419 10105.27413008
0.20700001 266333.60897922 8309.60899294
0.20800001 261519.42380255 10658.22462089
0.20900001 256768.74800777 13749.96710579
0.21000001 252076.74238519 15956.45854728
0.21100001 247446.07433767 8655.66408951
0.21200001 242876.41239261 11639.85261418
0.21300001 238367.03967660 8416.74056889
0.21400001 233918.91988541 10561.43973213
0.21500001 229531.40699444 10411.54511350
0.21600001 225202.67051124 8063.38199888
0.21700001 220933.89750769 8669.44654809
0.21800001 216724.68892027 7831.34700440
0.21900001 212573.16981435 12626.84688399
0.22000001 208480.33680761 8984.46053953
0.22100001 204448.10554877 8169.74668402
0.22200001 200472.88852210 9388.14581340
0.22300001 196555.25885345 9906.38551464
0.22400001 192693.74835759 6503.41431459
0.22500001 188892.41993377 6403.45333856
0.22600001 185145.62394055 6934.62967262
0.22700001 181456.63735409 7446.98074917
0.22800001 177822.85845700 10383.96631065
0.22900001 174244.43279850 7814.86318059
0.23000001 170721.51764096 5915.50086601
0.23100001 167255.03781012 5820.47559106
0.23200001 163841.27123935 6871.50324076
0.23300001 160482.74771160 7322.82812441
0.23400001 157178.21310440 7202.69195616
0.23500001 153925.40452556 5993.85553571
0.23600001 150726.81877847 6965.84025931
0.23700001 147580.58073292 6849.21507577
0.23800001 144486.20244164 7251.76284355
0.23900001 141443.84428236 7128.77008902
0.24000001 138452.50218572 6506.57564798
0.24100001 135513.21443730 5411.04290843
0.24200001 132623.58348846 4834.12984682
0.24300001 129784.17102396 5225.11097259
0.24400001 126993.61005554 5133.71692934
0.24500001 124252.56158029 5043.41171312
0.24600001 121560.56565278 6755.72875573
0.24700001 118916.99792878 5750.82629188
0.24800001 116320.43214838 5213.48201552
0.24900001 113771.00093514 5972.97783166
0.25000001 111269.19422181 4189.28536064
0.25100001 108812.85973560 5347.06418037
0.25200001 106403.83818795 4441.82843530
0.25300001 104040.23350073 4360.32639230
0.25400001 101720.74885276 5447.14635878
0.25500001 99446.03997917  5728.09217381
0.25600001 97215.76614370  4497.20155458
0.25700001 95028.85765040  4413.14035809
0.25800001 92885.02585237  4330.30011012
0.25900001 90784.14016772  4602.75612428
0.26000001 88726.10745534  4168.35272548
0.26100001 86707.73076359  4770.65957234
0.26200001 84732.83286660  4679.79458066
0.26300001 82797.46152111  3934.53555766
0.26400001 80902.47957660  5145.39794454
0.26500001 79048.00592703  4731.02337860
0.26600001 77231.88247903  3402.45074362
0.26700001 75455.98992403  3033.33093848
0.26800001 73718.19458607  3569.43515077
0.26900001 72017.76255988  3208.39147387
0.27000001 70355.58798603  4575.92765915
0.27100001 68730.09531257  3365.02562575
0.27200001 67141.57533557  3299.33716813
0.27300001 65588.62548409  3773.96968895
0.27400001 64070.31674923  2907.19076008
0.27500001 62589.16693768  2850.31079723
0.27600001 61140.83142188  5080.80333161
0.27700001 59728.50094706  2739.74646810
0.27800001 58348.78429646  3174.46575989
0.27900001 57003.01767042  2872.95222656
0.28000001 55689.59387907  2816.77979172
0.28100001 54408.61912918  2531.63316790
0.28200001 53159.93218426  2707.96707363
0.28300001 51942.68462494  3097.86185765
0.28400001 50756.70912401  3037.78918485
0.28500001 49601.33516316  2766.26659298
0.28600001 48475.58124934  2504.24864587
0.28700001 47379.96673497  2251.49612581
0.28800001 46312.91096780  3212.26365677
0.28900001 45276.02415500  3348.16214474
0.29000001 44266.39688989  2125.45114727
0.29100001 43286.10061394  2654.30381529
0.29200001 42332.31223666  2976.80833739
0.29300001 41405.73608483  1825.99304778
0.29400001 40505.79560607  1792.38154041
0.29500001 39633.33427931  1759.72012530
0.29600001 38785.40606754  2073.46790652
0.29700001 37962.76465391  2036.32279243
0.29800001 37165.89690576  3667.15922129
0.29900001 36393.45062751  2456.55803365
0.30000001 35645.05555429  1931.24920136
0.30100001 34921.17662328  1898.31525111
0.30200001 34219.68565853  3110.56957362
0.30300001 33541.67327771  1682.45041126
0.30400001 32887.01136141  1955.95509332
0.30500001 32253.27764226  2516.72337357
0.30600001 31641.77077550  2039.94505847
0.30700001 31052.15969052  1721.53181475
0.30800001 30483.37940529  2684.51893442
0.30900001 29935.06669138  1948.77293387
0.31000001 29408.12901770  1646.26714035
0.31100001 28899.30329008  1622.98494961
0.31200001 28411.40080372  1867.48146325
0.31300001 27941.78053479  2105.69268080
0.31400001 27492.60951591  2208.34396392
0.31500001 27061.11732293  1539.23642621
0.31600002 26647.55206097  1520.50939259
0.31700002 26251.52359733  1502.63728186
0.31800002 25873.33331467  1857.05858659
0.31900002 25512.47598986  1836.89835825
0.32000002 25168.01582854  1333.02402148
0.32100002 24840.37442963  1559.72718429
0.32200002 24529.04275699  2020.33470234
0.32300002 24232.67687365  1295.47896701
0.32400002 23952.11188301  1634.73171342
0.32500002 23686.28494737  1274.08532765
0.32600002 23435.81446556  1839.24280635
0.32700002 23199.45555705  1255.55459420
0.32800002 22978.02129967  1360.75848580
0.32900002 22769.18863575  1239.78237992
0.33000002 22575.56724069  1120.87696658
0.33100002 22392.94016789  1226.68532049
0.33200002 22225.56929375  1443.21741043
0.33300002 22069.66125356  1326.82809740
0.33400002 21926.88714535  1432.37397060
0.33500002 21795.52417997  1318.19336483
0.33600002 21676.12279033  1205.30086484
0.33700002 21567.37731031  1749.54573027
0.33800002 21471.37209588  1310.18318734
0.33900002 21384.92577131  1417.82064578
0.34000002 21310.12113483  1635.01912150
0.34100002 21245.26623140  1307.85865114
0.34200002 21191.53803209  1417.39608840
0.34300002 21146.37589241  1527.61426681
0.34400002 21111.74144877  1311.03920606
0.34500002 21085.98334138  1094.36258725
0.34600002 21070.66018129  1645.09187157
0.34700002 21062.07070783  1429.27218592
0.34800002 21063.63910060  1102.68155914
0.34900002 21073.31307538  1216.98388774
0.35000002 21091.13080695  1110.44808958
0.35100002 21116.98227479  1449.46973199
0.35200002 21149.90440391  1119.88749123
0.35300002 21190.53116274  1125.21725804
0.35400002 21238.95090849  1244.07160839
0.35500002 21294.05998005  1250.81314247
0.35600002 21355.39711750  1372.29788377
0.35700002 21423.59259445  1265.49167449
0.35800002 21498.68921440  1505.01580974
0.35900002 21579.52029461  1747.94122666
0.36000002 21667.08742279  1173.27283952
0.36100002 21759.31205571  1181.53070059
0.36200002 21858.52400106  1666.27536353
0.36300002 21961.11404304  2038.43070203
0.36400002 22069.85365875  1570.82190857
0.36500002 22183.04235708  1339.63399140
0.36600002 22301.63728056  1718.78726663
0.36700002 22424.26991959  1485.38370983
0.36800002 22552.74155438  1497.95316500
0.36900002 22684.51114392  1384.88947094
0.37000002 22819.35840254  1523.87682631
0.37100002 22958.72300601  1409.20648486
0.37200002 23102.05499304  1809.58405333
0.37300002 23248.36500053  1434.65667214
0.37400002 23399.05785320  1711.05618657
0.37500002 23551.86752760  1461.15793063
0.37600002 23708.69522027  1474.79945604
0.37700002 23867.23660973  1488.59961787
0.37800002 24029.57048578  2049.12172025
0.37900002 24194.12485079  1654.87821819
0.38000002 24361.19226631  1531.46642437
0.38100002 24529.98589437  1827.23873583
0.38200002 24701.29320412  1419.08936180
0.38300002 24874.24856033  1719.30814194
0.38400002 25049.79313046  2025.27587054
0.38500002 25225.77425101  2044.80135766
0.38600002 25404.79183252  1622.22305932
0.38700002 25584.03013738  1488.99062454
0.38800002 25764.57348738  1804.03552105
0.38900002 25946.55481216  2276.81029263
0.39000002 26130.16840070  1685.78789424
0.39100002 26313.82263277  1701.97812852
0.39200002 26498.83556980  2499.37028936
0.39300002 26684.20838503  2523.25886443
0.39400002 26870.82952782  2069.72574244
0.39500002 27057.14261213  1928.63321677
0.39600002 27243.78193406  1946.84074924
0.39700002 27430.30965587  1965.10747685
0.39800002 27617.98804974  1818.23032940
0.39900002 27804.77221313  1835.11505301
0.40000002 27991.67786156  2020.43940377
0.40100002 28177.94938628  2038.95651420
0.40200002 28365.25854767  1886.14795649
0.40300002 28550.94601093  2422.26237433
0.40400002 28736.20766478  1745.72469835
0.40500002 28921.13172730  1937.42670621
0.40600002 29105.45205248  2309.95431159
0.40700002 29288.92917671  2509.47557076
0.40800002 29471.86997714  2169.71917052
0.40900002 29652.94121693  2188.38716550
0.41000002 29833.86155026  2758.88647758
0.41100002 30013.43378933  2596.76241449
0.41200002 30191.28354298  2057.38511452
0.41300002 30368.26801296  2640.21734615
0.41400002 30543.85035256  2471.76120690
0.41500002 30718.45561209  2300.19806522
0.41600002 30890.29518015  3284.71969362
0.41700002 31061.55274386  2142.31539426
0.41800002 31231.90894957  1962.92557049
0.41900002 31398.65175566  3362.79576237
0.42000002 31564.38272323  1993.29086342
0.42100002 31728.98032318  2209.28900459
0.42200002 31891.40967247  3237.61606336
0.42300002 32051.48944799  2038.47482549
0.42400002 32209.56450506  3080.03975175
0.42500002 32366.02634851  2275.00809984
0.42600002 32519.09423518  3124.27212669
0.42700002 32671.29307042  2516.99653742
0.42800002 32820.70072571  2112.01219178
0.42900002 32968.45800561  3189.69846319
0.43000002 33113.84504810  2354.89120219
0.43100002 33255.47286099  2370.45021786
0.43200002 33395.78370106  2819.77313042
0.43300002 33533.18380917  2183.01036943
0.43400002 33668.41683188  2416.55073262
0.43500002 33800.78734471  3094.80023594
0.43600002 33931.51596273  3558.73756282
0.43700002 34058.59249520  2237.64963297
0.43800002 34182.39082543  3376.36581379
0.43900002 34304.70179167  2943.34355321
0.44000002 34423.41623472  3187.95272857
0.44100002 34540.10092399  4351.01671959
0.44200002 34653.72730291  2763.28834609
0.44300002 34764.92136568  2315.34387268
0.44400002 34872.60223799  2560.52094067
0.44500002 34976.69513860  3509.91152350
0.44600002 35078.68755968  3057.63394604
0.44700002 35178.00075338  3309.54646772
0.44800002 35273.40543983  2850.79676275
0.44900002 35367.07066500  2864.73285963
0.45000002 35457.45427667  3358.17565369
0.45100002 35543.60546131  2891.82787738
0.45200002 35627.74360032  2905.08635085
0.45300002 35708.33465893  2674.91147607
0.45400002 35786.35852999  2930.90290251
0.45500002 35861.18903860  3679.35816974
0.45600002 35932.46604367  2955.80479684
0.45700002 36000.95443793  3215.24539323
0.45800002 36065.62016666  3476.36529262
0.45900002 36127.46905958  2991.35457991
0.46000002 36187.00648457  3002.79794041
0.46100002 36242.11310391  3767.36783570
0.46200002 36294.94224581  2772.75224428
0.46300002 36343.98010858  3541.35758962
0.46400002 36389.61786232  3553.44635267
0.46500002 36432.90478812  3819.99024808
0.46600002 36472.22965198  3321.34375068
0.46700002 36508.48494005  3844.34364639
0.46800002 36542.12454539  2827.81244197
0.46900002 36571.87726468  3867.47620404
0.47000002 36598.15264717  3102.79152849
0.47100002 36621.70884318  3111.38053079
0.47200002 36641.83220992  3639.63336592
0.47300002 36659.26333572  3388.41587072
0.47400002 36672.33490509  4964.51757308
0.47500002 36683.25180732  3928.77645478
0.47600002 36691.14677778  2887.77684402
0.47700002 36694.94926995  4209.64477978
