# SAXS profile: number of points = 501, q_min = 0, q_max = 0.5, delta_q = 0.001
#    q    intensity    error
0.00000000 1664650.74656090 274.66737318
0.00100000 1664582.12289759 549.31211360
0.00200000 1664376.19766823 1048.55703773
0.00300000 1664033.14466564 1497.62988355
0.00400000 1663552.82670583 1871.49700116
0.00500000 1662935.68521475 1646.30639353
0.00600000 1662181.48788086 1745.29063333
0.00700000 1661290.86893429 2392.25895069
0.00800000 1660263.26525786 3137.89770382
0.00900000 1659100.06507493 3732.97530599
0.01000000 1657800.39803764 3555.98200734
0.01100000 1656365.51662673 3279.60386571
0.01200000 1654794.87386253 3872.22017461
0.01300000 1653089.88516323 3818.63780315
0.01400000 1651249.80041735 6316.03076659
0.01500000 1649276.34896377 4354.08975515
0.01600000 1647168.42934564 5880.39155564
0.01700000 1644928.16578199 6217.82874558
0.01800000 1642555.07965607 6085.66684397
0.01900000 1640049.92086543 6396.19497999
0.02000000 1637413.32872887 6189.42266258
0.02100000 1634646.94081663 5933.76866419
0.02200000 1631748.92803111 8444.30108621
0.02300000 1628722.17384117 8208.76012981
0.02400000 1625566.60300363 6705.46254314
0.02500000 1622283.53871634 8857.66852593
0.02600000 1618873.15643869 7212.08024180
0.02700000 1615336.47806487 10176.62027791
0.02800000 1611673.40724441 8412.93557163
0.02900000 1607886.51167423 7959.03859822
0.03000000 1603976.10058165 8204.33813159
0.03100000 1599942.30893062 8447.69577986
0.03200000 1595786.31525349 9478.97114919
0.03300000 1591510.87180333 8928.37640242
0.03400000 1587113.87107046 9998.81784909
0.03500000 1582598.84488328 9400.63757271
0.03600000 1577965.31725792 10509.24949861
0.03700000 1573215.24535568 9864.06004457
0.03800000 1568349.98919664 10092.33264755
0.03900000 1563370.55389911 13132.31326091
0.04000000 1558276.12842301 12458.41822405
0.04100000 1553070.54415842 14676.51732280
0.04200000 1547754.07361243 10981.31566173
0.04300000 1542326.99436518 11197.29449885
0.04400000 1536792.71441308 20746.70260809
0.04500000 1531150.98663422 11621.43652854
0.04600000 1525402.17927629 11829.49445020
0.04700000 1519549.41642481 14222.98319922
0.04800000 1513592.98327761 15574.87252260
0.04900000 1507535.45370401 12437.16807198
0.05000000 1501376.46355323 13782.63657722
0.05100000 1495119.39025726 15160.51132345
0.05200000 1488762.38308990 16569.92609597
0.05300000 1482310.95459302 13207.39122112
0.05400000 1475763.22210611 15827.56129519
0.05500000 1469123.47558779 14808.76532474
0.05600000 1462390.01278754 15004.12223135
0.05700000 1455567.83365275 16462.47296706
0.05800000 1448655.62957604 14102.66321241
0.05900000 1441655.24692689 19462.34674252
0.06000000 1434569.67211443 15751.57573571
0.06100000 1427400.12968329 15929.78619169
0.06200000 1420147.40866932 17446.51173101
0.06300000 1412814.45685381 14919.32136193
0.06400000 1405399.41525999 16443.17392754
0.06500000 1397908.78750114 17991.08693672
0.06600000 1390339.95451717 15370.20891634
0.06700000 1382696.31332125 16924.20366709
0.06800000 1374980.59488535 17077.25978785
0.06900000 1367193.64579368 15791.08734824
0.07000000 1359334.89188221 28953.83455295
0.07100000 1351409.40763002 20433.31120042
0.07200000 1343415.99677559 22065.60878074
0.07300000 1335359.38029881 20751.48574217
0.07400000 1327238.84372404 17917.72522997
0.07500000 1319056.76360315 16540.97259090
0.07600000 1310813.30172807 16653.88377920
0.07700000 1302514.02103263 15239.41476064
0.07800000 1294157.23979534 21470.06961507
0.07900000 1285744.78183695 18514.72572686
0.08000000 1277280.85040563 20174.65197857
0.08100000 1268765.31834636 18726.97697743
0.08200000 1260198.99710349 17258.42607519
0.08300000 1251585.35013482 17346.97376700
0.08400000 1242924.96372620 22186.21164390
0.08500000 1234221.55377681 19105.75054939
0.08600000 1225474.19286243 27187.14624513
0.08700000 1216686.63946968 17666.29083467
0.08800000 1207857.46504466 24187.34687345
0.08900000 1198992.93580443 29135.52970853
0.09000000 1190091.70302845 16244.75250944
0.09100000 1181156.34143201 19559.94993306
0.09200000 1172187.79168950 21257.62660112
0.09300000 1163189.55575702 26241.55761103
0.09400000 1154159.93460684 19736.13580933
0.09500000 1145103.41016627 19787.38785773
0.09600000 1136020.75496434 19834.92331407
0.09700000 1126915.12418267 16565.65310428
0.09800000 1117787.36244970 19918.97173540
0.09900000 1108639.14597816 19955.50556596
0.10000000 1099470.16451938 19988.36853096
0.10100000 1090283.70097226 18349.47555037
0.10200000 1081081.51891580 18372.98127817
0.10300000 1071864.66516023 18393.19851938
0.10400000 1062635.93048785 21757.47170032
0.10500000 1053397.94093192 21773.73646350
0.10600001 1044146.62240352 18434.40948594
0.10700001 1034890.26625411 20118.26772270
0.10800001 1025625.80099867 21799.67742616
0.10900001 1016357.55872978 23477.86071166
0.11000001 1007085.76580150 18444.77666884
0.11100001 997812.14782183 18439.56935976
0.11200001 988539.36381389 16755.74300546
0.11300001 979266.30819976 21769.09105619
0.11400001 969997.57552003 16732.45896556
0.11500001 960733.08113615 18388.43203882
0.11600001 951473.99265840 16698.36935751
0.11700001 942223.44055854 18345.09125164
0.11800001 932979.43228999 16653.68365074
0.11900001 923746.48576648 21615.66878507
0.12000001 914524.67053877 21578.21061780
0.12100001 905317.49073282 19880.77303304
0.12200001 896123.37066033 24800.21545139
0.12300001 886945.46622214 19796.62373878
0.12400001 877783.77270237 18104.29116501
0.12500001 868640.55718701 19700.76876531
0.12600001 859518.65862133 22923.36370566
0.12700001 850417.44674182 21226.42047100
0.12800001 841337.40852437 17907.86758443
0.12900001 832281.44293853 19475.38668268
0.13000001 823250.09989298 27500.67088317
0.13100001 814244.07186195 29019.66008908
0.13200001 805266.27917678 20884.58193496
0.13300001 796317.82563909 19207.18685990
0.13400001 787397.51300124 19133.76046800
0.13500001 778508.76806829 17469.73757912
0.13600001 769650.89518606 15816.32664183
0.13700001 760827.03792624 23623.68064154
0.13800001 752035.74514247 17247.94062818
0.13900001 743282.04448189 20291.60077127
0.14000001 734563.07440748 23304.01463461
0.14100001 725881.80315548 17007.41145005
0.14200001 717237.58968991 20000.17113182
0.14300001 708635.47459110 16837.17967045
0.14400001 700069.43468125 16749.16201480
0.14500001 691548.44888559 21202.87644302
0.14600001 683066.99347915 22592.44187511
0.14700001 674631.54872677 19469.86741478
0.14800001 666237.57401623 16379.45152995
0.14900001 657888.31378574 19243.23408614
0.15000001 649585.23585203 19127.03817213
0.15100001 641328.74457245 16084.52567282
0.15200001 633120.46793340 18889.15005212
0.15300001 624960.18049864 18767.55510600
0.15400001 616846.62374228 15775.85314669
0.15500001 608784.80721757 18519.23470954
0.15600001 600771.21765119 16977.79541209
0.15700001 592812.24472060 14049.65086298
0.15800001 584900.56715870 15344.86710367
0.15900001 577044.14858694 18003.77828570
0.16000001 569238.44509625 16496.53091757
0.16100001 561489.54766861 19101.87531338
0.16200001 553792.49795240 17602.29537835
0.16300001 546151.77548754 20153.00146687
0.16400001 538565.86120261 13329.50569404
0.16500001 531036.17586033 14545.08154351
0.16600001 523562.72901099 15738.29637712
0.16700001 516145.85618136 16908.93904685
0.16800001 508785.56819614 12897.71476276
0.16900001 501485.18376294 16624.23462671
0.17000001 494242.29365997 16480.51006030
0.17100001 487058.19893850 17592.54297640
0.17200001 479933.21687476 16190.54783583
0.17300001 472867.97894890 18512.78225011
0.17400001 465863.55735951 13451.81085403
0.17500001 458918.67951014 16961.63519575
0.17600001 452032.55865918 18002.19749883
0.17700001 445210.06133933 15453.24195895
0.17800001 438447.48794687 18835.70497185
0.17900001 431746.41379707 13988.58446776
0.18000001 425107.81388731 11541.67769221
0.18100001 418532.11368869 15996.29814079
0.18200001 412015.73763281 18095.73205164
0.18300001 405564.43525307 16790.36841264
0.18400001 399174.31059507 13292.50517076
0.18500001 392847.72059628 15344.63269140
0.18600001 386583.86006160 14096.78112313
0.18700001 380382.76638539 11799.47397074
0.18800001 374244.37865586 12731.79436340
0.18900001 368171.09155561 11542.16426561
0.19000001 362157.16608482 13488.54428815
0.19100001 356211.63188544 10258.89548303
0.19200001 350325.63520911 12170.31314223
0.19300001 344505.94252200 13032.66042143
0.19400001 338748.66501981 10899.23881204
0.19500001 333055.18949492 10771.00533725
0.19600001 327424.04950771 13545.53356825
0.19700001 321857.36742723 13382.82997006
0.19800001 316354.02268791 13220.43523291
0.19900001 310914.93266633 15856.66231537
0.20000001 305537.07649151 10133.13762074
0.20100001 300224.55455972 12735.52620633
0.20200001 294973.69846638 8981.94954282
0.20300001 289786.70318827 8867.47353668
0.20400001 284662.62604559 14005.40186342
0.20500001 279600.54139477 8639.65713747
0.20600001 274601.78277627 14494.85578899
0.20700001 269665.14140506 11778.97393335
0.20800001 264790.73661398 9131.30898377
0.20900001 259980.70448143 9827.27109395
0.21000001 255230.16089316 8885.83847155
0.21100001 250541.51725392 15137.71918809
0.21200001 245914.46771351 9428.36113786
0.21300001 241348.48784635 9296.74419135
0.21400001 236844.57248229 7638.23782366
0.21500001 232401.88496360 8282.80357169
0.21600001 228018.41384874 8164.19969385
0.21700001 223695.71465361 8046.33523652
0.21800001 219433.27847849 7208.38353883
0.21900001 215229.45868518 7812.82971967
0.22000001 211084.67332910 7697.20297689
0.22100001 207001.48311598 8961.09462780
0.22200001 202975.79558882 7468.49475183
0.22300001 199008.45019934 8024.02109146
0.22400001 195097.79089514 8559.91598029
0.22500001 191248.02723533 7779.97011583
0.22600001 187453.64401842 9574.19532099
0.22700001 183717.46241704 8168.07876532
0.22800001 180037.35116786 8039.56829659
0.22900001 176413.32936766 7303.51218121
0.23000001 172845.53304448 7186.91760387
0.23100001 169334.69435368 6482.13240642
0.23200001 165877.27987570 9855.59904992
0.23300001 162475.79785606 6273.19085191
0.23400001 159128.89422384 6170.22316535
0.23500001 155834.49059982 6068.19535096
0.23600001 152594.99313665 6509.70271510
0.23700001 149408.32449152 9067.59164227
0.23800001 146274.37895412 8390.29877366
0.23900001 143193.00017113 6185.93789999
0.24000001 140163.33316833 6080.28568044
0.24100001 137186.36338477 5477.85174906
0.24200001 134259.65892028 8319.40015852
0.24300001 131383.74616550 5289.50987083
0.24400001 128557.39805840 6141.82998277
0.24500001 125781.32660200 5105.46428829
0.24600001 123054.78059053 6838.76975483
0.24700001 120377.43427407 5821.45299688
0.24800001 117747.61103944 4837.66082841
0.24900001 115165.59164005 4318.70989081
0.25000001 112631.68188538 4240.58302360
0.25100001 110143.97455473 4163.44243514
0.25200001 107704.20253677 5313.58708354
0.25300001 105310.42195148 4814.79271941
0.25400001 102961.35616566 6695.06250142
0.25500001 100657.72582118 6184.41096705
0.25600001 98399.06104589  4172.61238107
0.25700001 96184.42330139  4466.80482946
0.25800001 94013.38899954  3652.42033544
0.25900001 91885.96906947  3583.55296326
0.26000001 89801.76928892  4218.88732081
0.26100001 87757.88782890  4483.55070132
0.26200001 85758.15303761  5074.73894612
0.26300001 83798.51172223  3982.10546546
0.26400001 81879.57555956  3254.71328250
0.26500001 80001.83913991  3511.28088600
0.26600001 78163.17827254  4069.56606933
0.26700001 76365.09396869  3683.85230737
0.26800001 74605.59157227  3311.36933863
0.26900001 72884.05918077  3542.16544381
0.27000001 71201.25857358  2894.33129798
0.27100001 69555.87405789  3973.03171420
0.27200001 67947.82791585  3060.71005331
0.27300001 66375.79921761  2728.04547695
0.27400001 64838.91323305  4011.90794616
0.27500001 63339.85196546  3408.95099411
0.27600001 61874.03342654  3342.12607370
0.27700001 60444.57628620  2772.59284547
0.27800001 59048.26290901  3212.52089560
0.27900001 57686.28437555  2907.38887013
0.28000001 56357.40963884  3800.74388593
0.28100001 55061.10601881  3726.53583173
0.28200001 53797.81470697  3425.57601360
0.28300001 52566.40160700  2463.26169589
0.28400001 51366.52313481  3074.28655513
0.28500001 50197.85751599  3230.23228405
0.28600001 49059.05338474  3379.18775708
0.28700001 47950.96352265  3107.22258334
0.28800001 46871.85381646  2641.46344686
0.28900001 45823.39425070  1993.31774426
0.29000001 44802.51110380  2542.31861292
0.29100001 43811.22438258  2494.61123443
0.29200001 42847.06885856  1883.12876547
0.29300001 41910.46298817  2402.72695685
0.29400001 41000.87871214  1995.71786578
0.29500001 40119.08255791  2315.67355486
0.29600001 39262.26590731  1749.13402897
0.29700001 38431.04290182  2233.22800874
0.29800001 37626.03443069  2025.03326892
0.29900001 36845.71175430  1823.86281818
0.30000001 36089.80099595  1955.34551053
0.30100001 35358.81534122  2242.45617510
0.30200001 34650.58954980  1732.35630655
0.30300001 33966.15784802  1858.62824543
0.30400001 33305.28421355  1828.46018989
0.30500001 32665.77276713  2099.10265739
0.30600001 32048.72894136  2066.18165267
0.30700001 31453.93952748  1743.80648996
0.30800001 30880.32183768  2146.95447741
0.30900001 30327.38391491  1551.24576069
0.31000001 29796.10637565  1806.98495670
0.31100001 29283.34062756  1507.50644688
0.31200001 28791.61864365  1622.11987118
0.31300001 28318.52293089  1867.32349047
0.31400001 27866.30852856  1448.35145435
0.31500001 27431.66877340  1430.28727756
0.31600002 27015.46764114  2697.62964903
0.31700002 26617.02269635  1650.52165555
0.31800002 26236.66776829  1506.50953459
0.31900002 25873.92291281  1366.14319448
0.32000002 25527.75555517  1597.90993464
0.32100002 25198.63230933  2069.05979689
0.32200002 24885.97248730  1688.01559374
0.32300002 24588.54810102  1792.50524144
0.32400002 24307.19463417  1540.46853288
0.32500002 24040.62840847  1410.70414181
0.32600002 23789.67360798  1516.94860944
0.32700002 23553.20695290  1274.69962065
0.32800002 23331.65174236  1151.41706801
0.32900002 23122.98636823  1831.34060708
0.33000002 22929.73911238  1366.15392101
0.33100002 22747.49720260  1359.39049720
0.33200002 22580.70931762  1127.90648383
0.33300002 22425.70502140  1123.52787478
0.33400002 22283.86220590  1231.74054176
0.33500002 22153.57459067  1116.54021224
0.33600002 22035.37822559  1893.61031749
0.33700002 21928.03305871  1334.10159447
0.33800002 21833.59482233  1665.35752394
0.33900002 21748.82585330  1109.19017105
0.34000002 21675.74700129  1108.71451162
0.34100002 21612.80821241  1108.73711380
0.34200002 21561.18806722  1331.18781431
0.34300002 21518.11980075  1443.43554459
0.34400002 21485.75322153  1779.02045100
0.34500002 21462.36709311  1336.67628586
0.34600002 21449.47732199  1451.37895173
0.34700002 21443.45974334  1231.28351678
0.34800002 21447.62576277  1684.17489279
0.34900002 21460.03029732  1802.64263035
0.35000002 21480.68195903  1244.05375458
0.35100002 21509.32088718  1589.96907528
0.35200002 21545.16497824  1254.89819359
0.35300002 21588.83977674  1146.36744644
0.35400002 21640.28537629  1267.57977595
0.35500002 21698.47824813  1390.43855200
0.35600002 21763.07269927  1281.95385807
0.35700002 21834.40652853  1289.75845473
0.35800002 21912.85519202  1770.01096197
0.35900002 21996.97601718  2019.32249402
0.36000002 22087.86680068  1435.26965269
0.36100002 22183.54393919  1445.47979154
0.36200002 22286.16652934  1698.87455500
0.36300002 22392.23250586  1344.87754800
0.36400002 22504.48360852  1478.54464311
0.36500002 22621.11683491  1490.27924768
0.36600002 22743.24875133  1377.21749337
0.36700002 22869.46342856  1514.87332926
0.36800002 23001.40398932  1655.06610245
0.36900002 23136.62896138  2054.53274909
0.37000002 23275.09725177  1554.31106810
0.37100002 23417.93314150  1306.72073119
0.37200002 23564.86981769  2241.37269888
0.37300002 23714.67853772  1729.51158768
0.37400002 23868.90642170  2013.93907473
0.37500002 24025.16073774  1626.02295576
0.37600002 24185.52264064  2598.61360322
0.37700002 24347.49551864  1518.55336743
0.37800002 24513.22323565  1811.64984905
0.37900002 24681.25546960  2110.24744262
0.38000002 24851.66717088  2414.46383837
0.38100002 25023.86715203  1864.02795246
0.38200002 25198.46988864  1881.94781279
0.38300002 25374.74617944  1900.06108393
0.38400002 25553.60262826  1770.86474603
0.38500002 25732.91058015  1936.91627113
0.38600002 25915.01572685  2106.11342790
0.38700002 26097.31621241  1822.63665062
0.38800002 26280.96925349  1840.19355431
0.38900002 26465.95702330  1548.25855921
0.39000002 26652.60756963  1719.49305882
0.39100002 26839.17211302  1735.95773451
0.39200002 27027.14995323  3027.17607393
0.39300002 27215.22436232  2573.47173762
0.39400002 27404.68236690  1623.72750717
0.39500002 27593.67484397  1966.87723606
0.39600002 27782.89099923  2150.81260861
0.39700002 27972.02844853  2003.91621299
0.39800002 28162.26250026  2022.61378860
0.39900002 28351.41716963  2551.62766616
0.40000002 28540.58161057  1888.38767173
0.40100002 28729.27670362  1905.61301404
0.40200002 28918.72371005  2272.57801043
0.40300002 29106.60172816  2116.63217796
0.40400002 29293.90487922  1779.60480573
0.40500002 29480.87757112  2693.07829372
0.40600002 29667.07752902  1811.17516896
0.40700002 29852.41424603  3105.84532531
0.40800002 30037.00249251  2027.04720925
0.40900002 30219.84652197  3159.48510357
0.41000002 30402.37031812  2998.88995027
0.41100002 30583.44259457  2268.06821028
0.41200002 30762.64171263  2858.61861659
0.41300002 30940.87460860  1921.42840424
0.41400002 31117.78251577  2905.62308009
0.41500002 31293.44377824  2733.79537800
0.41600002 31466.44622025  2361.87156521
0.41700002 31638.63587629  2182.11681978
0.41800002 31809.86838928  2199.17535530
0.41900002 31977.42933528  2417.49377230
0.42000002 32143.88679579  2232.87520207
0.42100002 32308.98725930  2045.15899042
0.42200002 32471.97326335  3296.55488190
0.42300002 32632.47504551  2075.42551124
0.42400002 32790.83000293  2090.41551174
0.42500002 32947.54887025  3368.55755612
0.42600002 33100.69689622  2332.10971033
0.42700002 33252.97925693  2348.32550640
0.42800002 33402.31331069  2579.32675608
0.42900002 33549.86205910  2596.75944643
0.43000002 33695.04478170  3267.57712255
0.43100002 33836.35454690  3288.89381781
0.43200002 33976.12038443  2868.77386060
0.43300002 34112.95752427  2664.90436808
0.43400002 34247.60230964  2905.05300358
0.43500002 34379.15030102  2248.39653624
0.43600002 34509.07393027  2714.48388399
0.43700002 34635.29629337  2275.53907431
0.43800002 34757.97708368  3890.98192902
0.43900002 34879.13501907  3222.83222849
0.44000002 34996.65045138  2778.03424448
0.44100002 35112.00440142  2560.71860235
0.44200002 35224.23312259  3042.84552250
0.44300002 35333.86655177  2823.88274864
0.44400002 35439.86902563  2838.73364348
0.44500002 35542.27482699  3091.11178819
0.44600002 35642.49970723  3106.77863422
0.44700002 35739.96371143  3362.41594532
0.44800002 35833.27929876  2654.70862266
0.44900002 35924.87235939  3152.40769894
0.45000002 36013.08663330  3167.17105406
0.45100002 36096.97643525  3426.32516562
0.45200002 36178.74714343  2458.34598490
0.45300002 36256.85245094  3456.72847650
0.45400002 36332.27317947  3223.58109062
0.45500002 36404.46108246  3237.08483287
0.45600002 36473.03210563  3250.29441014
0.45700002 36538.67101719  3012.24818142
0.45800002 36600.43617715  2519.94015023
0.45900002 36659.30811417  3794.23856964
0.46000002 36715.71983032  3808.33821989
0.46100002 36767.59261103  3567.19200419
0.46200002 36817.14961111  2812.64627785
0.46300002 36862.89643146  3078.78925587
0.46400002 36905.07308931  4118.60635197
0.46500002 36944.88869755  4648.40611624
0.46600002 36980.59066076  2849.53954842
0.46700002 37013.11993238  3377.81748512
0.46800002 37042.97948319  3127.16847619
0.46900002 37068.88712735  3397.36366624
0.47000002 37091.22130228  2620.49490921
0.47100002 37110.77496323  2890.18729112
0.47200002 37126.83240797  4478.05310313
0.47300002 37140.18139396  3961.00053341
0.47400002 37148.92525967  3176.23326025
0.47500002 37155.60728373  2918.20153438
0.47600002 37159.11967327  3456.35568023
0.47700002 37158.33338132  2930.67789269
