# SAXS profile: number of points = 501, q_min = 0, q_max = 0.5, delta_q = 0.001
#    q    intensity    error
0.00000000 1682732.95097188 302.89193117
0.00100000 1682663.78012327 504.79914603
0.00200000 1682456.21710775 1059.94745034
0.00300000 1682110.43133544 1211.11955371
0.00400000 1681626.28489996 1513.46371392
0.00500000 1681004.24220191 1815.48465344
0.00600000 1680244.04368908 2117.10758124
0.00700000 1679346.33366777 2216.73725257
0.00800000 1678310.57978182 3172.00712971
0.00900000 1677138.08924421 3270.41941383
0.01000000 1675828.06934388 3041.62807720
0.01100000 1674381.75872110 4219.44221569
0.01200000 1672798.61159648 3261.95743563
0.01300000 1671080.03644586 4912.97552384
0.01400000 1669225.28116240 4506.90845893
0.01500000 1667236.07439053 6002.05013507
0.01600000 1665111.32390553 5095.24087893
0.01700000 1662853.19030630 5387.64457828
0.01800000 1660461.14368920 6152.00881419
0.01900000 1657935.93274580 5968.56962720
0.02000000 1655278.24564826 5214.12670966
0.02100000 1652489.76257563 5453.21646374
0.02200000 1649568.50845840 6260.11277401
0.02300000 1646517.52055445 5927.46334380
0.02400000 1643336.62478049 9860.02019828
0.02500000 1640027.28959719 7035.71739370
0.02600000 1636589.41001943 7291.00615511
0.02700000 1633024.42815694 8916.31378611
0.02800000 1629331.83827148 9213.87196797
0.02900000 1625514.50399832 8046.29716423
0.03000000 1621572.64562046 8294.34446360
0.03100000 1617506.35911509 10093.24014530
0.03200000 1613316.76097104 9583.10200155
0.03300000 1609006.80195715 10667.71558876
0.03400000 1604574.22280360 10951.21957593
0.03500000 1600022.73434434 9504.13548089
0.03600000 1595351.63823508 9739.62220153
0.03700000 1590563.07686118 15412.55692758
0.03800000 1585658.36089206 11131.32220861
0.03900000 1580638.44606106 11380.59733868
0.04000000 1575502.70214589 10658.27627391
0.04100000 1570254.67658138 12860.38639749
0.04200000 1564894.89947704 11102.92982689
0.04300000 1559423.56599472 15438.29401996
0.04400000 1553844.05889553 12586.13746158
0.04500000 1548156.06919077 13886.96058590
0.04600000 1542360.22184704 17397.82411120
0.04700000 1536459.40078526 15487.51148021
0.04800000 1530454.06429235 14623.48926472
0.04900000 1524346.70689186 16005.64116739
0.05000000 1518137.01692722 15097.87333639
0.05100000 1511828.35983370 15329.94028284
0.05200000 1505418.85664582 11968.08046806
0.05300000 1498913.94052805 16997.68487798
0.05400000 1492312.13019201 14773.89077786
0.05500000 1485617.30965573 17470.86037655
0.05600000 1478827.85822404 17701.57028897
0.05700000 1471948.85043875 17928.33783521
0.05800000 1464979.10790065 16854.58542338
0.05900000 1457920.11354964 15745.53796174
0.06000000 1450775.40368301 14602.05512026
0.06100000 1443545.93218636 20137.46669505
0.06200000 1436232.13187896 19001.35199295
0.06300000 1428837.62630305 16460.21022461
0.06400000 1421360.14476240 13858.26205954
0.06500000 1413806.21521794 16796.01862247
0.06600000 1406173.41950175 15545.24787993
0.06700000 1398465.01590685 19970.08136173
0.06800000 1390683.97390692 17272.29576442
0.06900000 1382830.72972966 20327.61267874
0.07000000 1374905.13672936 20499.83654861
0.07100000 1366911.92619311 22143.97424150
0.07200000 1358850.12609345 19343.23245111
0.07300000 1350724.53901441 17991.65170268
0.07400000 1342534.28183127 18124.21365410
0.07500000 1334281.87338552 18252.97688348
0.07600000 1325967.36573925 22972.38568839
0.07700000 1317596.34335519 16957.46573409
0.07800000 1309167.18456596 15513.63186464
0.07900000 1300681.78386902 18729.81856621
0.08000000 1292144.18584066 28259.19467000
0.08100000 1283554.62924674 23681.58402070
0.08200000 1274913.43519812 20634.47491696
0.08300000 1266224.46155844 15954.42896441
0.08400000 1257487.95640739 17636.26941644
0.08500000 1248707.89058847 25773.33207168
0.08600000 1239883.49180025 19416.57639323
0.08700000 1231018.20401182 19499.32926719
0.08800000 1222110.85673527 16315.18070364
0.08900000 1213167.68955559 21291.09395174
0.09000000 1204187.20952475 23012.01865502
0.09100000 1195172.00276651 18142.71185436
0.09200000 1186123.21001410 18201.06151287
0.09300000 1177044.25628977 18255.95727294
0.09400000 1167933.53789898 18307.35906697
0.09500000 1158795.38546161 23361.31606895
0.09600000 1149630.45203498 25090.68579512
0.09700000 1140442.37661275 20117.40446922
0.09800000 1131231.61468656 20158.54832152
0.09900000 1121999.98650734 23562.00082460
0.10000000 1112747.10928145 21915.55534792
0.10100000 1103476.39231904 27013.10335444
0.10200000 1094189.89248383 23667.32848765
0.10300000 1084888.06797811 20309.10558791
0.10400000 1075574.13814729 20328.35216733
0.10500000 1066250.41942579 18648.72071317
0.10600001 1056913.36884325 20356.15244175
0.10700001 1047570.43898691 23758.89867426
0.10800001 1038219.52191289 16974.88998214
0.10900001 1028864.35313933 25464.39393870
0.11000001 1019505.39969042 22067.19541499
0.11100001 1010144.19901577 16970.42334232
0.11200001 1000783.76756847 23748.59992242
0.11300001 991422.60505591 20343.99281356
0.11400001 982065.66886936 18634.69694420
0.11500001 972712.75920931 22002.76364938
0.11600001 963365.04330595 21979.17449806
0.11700001 954025.56465000 20263.50394747
0.11800001 944692.71747476 20235.31896136
0.11900001 935370.39117754 20204.00140108
0.12000001 926059.00028633 16807.97164693
0.12100001 916762.25771751 18454.42511721
0.12200001 907478.13560410 28463.05306415
0.12300001 898210.64892746 16706.71885718
0.12400001 888958.84576230 20001.57497208
0.12500001 879725.59603674 24940.22182284
0.12600001 870513.43039191 18241.60979347
0.12700001 861321.76724217 18191.11658144
0.12800001 852151.32477451 24733.69336726
0.12900001 843004.64398013 19726.30959888
0.13000001 833883.05276895 24578.70413888
0.13100001 824786.08219275 17963.84171693
0.13200001 815717.70057425 22782.99645104
0.13300001 806678.50860158 16214.23878728
0.13400001 797667.50983225 20998.59818633
0.13500001 788687.98663581 20916.00639173
0.13600001 779739.33254047 19228.37284708
0.13700001 770824.83164820 27125.32710475
0.13800001 761942.88047567 19063.81176847
0.13900001 753098.54455351 23722.60527215
0.14000001 744288.69301431 26760.90121939
0.14100001 735516.99512637 18799.81528208
0.14200001 726782.40023399 20266.32818639
0.14300001 718089.91280558 20163.96570267
0.14400001 709433.45763010 20059.23196068
0.14500001 700821.99559887 21487.20339866
0.14600001 692250.57083054 21369.77612964
0.14700001 683725.11012903 18214.43779313
0.14800001 675241.36400400 16600.80971724
0.14900001 666802.07610250 24004.87587226
0.15000001 658409.59600554 23860.76488506
0.15100001 650063.62253921 14821.45129324
0.15200001 641765.89813527 17674.23366864
0.15300001 633516.53557162 17561.07919474
0.15400001 625313.92867237 14538.54952772
0.15500001 617163.31239376 17329.94662987
0.15600001 609061.23965141 17212.07144487
0.15700001 601013.98006343 14244.03199978
0.15800001 593013.97152815 14143.38388850
0.15900001 585069.71596111 26679.18030710
0.16000001 577176.35471189 18120.45251151
0.16100001 569340.09484156 17985.45444503
0.16200001 561555.93770772 16476.05199011
0.16300001 553828.22109758 16349.00985860
0.16400001 546155.65308239 13517.35305194
0.16500001 538539.72577923 21455.42368798
0.16600001 530980.09202553 14631.15712654
0.16700001 523477.48745815 14510.79663746
0.16800001 516031.66257657 14389.54359037
0.16900001 508646.15847721 18158.66871505
0.17000001 501318.49290865 12858.81995030
0.17100001 494049.99127554 17845.08652754
0.17200001 486840.70004099 15160.22011519
0.17300001 479691.55260092 20031.92018261
0.17400001 472603.86589511 13646.43727219
0.17500001 465575.80815989 14749.44229909
0.17600001 458606.99101666 14611.21942387
0.17700001 451701.93273631 18090.66326052
0.17800001 444857.56075957 17916.63910583
0.17900001 438074.84186254 13010.82341787
0.18000001 431355.06826528 16395.80691922
0.18100001 424698.55086185 15072.55228206
0.18200001 418101.76836401 12624.58349211
0.18300001 411570.59776432 13631.21884188
0.18400001 405100.80845532 13489.85755883
0.18500001 398695.23864733 11123.59768376
0.18600001 392352.62732428 12106.04088802
0.18700001 386073.30689870 14153.44809958
0.18800001 379856.80168605 13999.62308757
0.18900001 373706.32666614 15975.94621980
0.19000001 367615.52418007 10532.18526539
0.19100001 361593.42208125 13538.05836240
0.19200001 355631.55929851 12354.64095380
0.19300001 349736.36371383 12212.79439797
0.19400001 343903.89800831 16094.70318733
0.19500001 338136.10109901 11929.44221050
0.19600001 332430.88859450 9823.33322218
0.19700001 326790.50380567 10676.24626386
0.19800001 321214.11410859 9588.24175927
0.19900001 315702.56093555 13259.50818594
0.20000001 310252.67511265 11224.94231608
0.20100001 304868.63309462 10161.27202129
0.20200001 299546.58698593 9121.19400482
0.20300001 294289.18271171 10806.29929993
0.20400001 289095.11445985 10667.61022778
0.20500001 283963.67159096 11406.82122697
0.20600001 278895.98060859 8659.72060722
0.20700001 273891.07550644 12818.10293960
0.20800001 268948.61625867 13490.46322923
0.20900001 264071.28775293 10813.71974466
0.21000001 259254.10667157 9025.93215045
0.21100001 254499.30343572 13758.23299413
0.21200001 249806.67326996 8779.45594712
0.21300001 245175.48629917 8657.14683049
0.21400001 240607.10377871 9311.49535645
0.21500001 236100.41349812 9179.58451080
0.21600001 231653.36336947 9048.38080101
0.21700001 227268.00722730 8917.99702524
0.21800001 222943.30205105 8788.42538237
0.21900001 218677.63627770 9381.27103987
0.22000001 214471.74317072 8531.68634673
0.22100001 210328.03117092 9105.10089991
0.22200001 206242.34922906 8278.56828950
0.22300001 202215.78471314 6794.45068764
0.22400001 198246.21782690 9367.13423526
0.22500001 194338.15093312 6588.06362816
0.22600001 190486.28762766 7783.27008052
0.22700001 186693.10132298 10215.84698749
0.22800001 182956.41304599 6913.00839386
0.22900001 179276.48122102 8040.55056301
0.23000001 175653.41634649 8520.94762994
0.23100001 172087.81174643 6587.52174520
0.23200001 168576.21753986 10605.13034699
0.23300001 165121.27161997 6375.33259876
0.23400001 161721.53597047 6270.75285383
0.23500001 158374.85876292 8409.70539806
0.23600001 155083.46836971 6615.86107356
0.23700001 151845.58182919 7047.15378601
0.23800001 148661.27807104 7461.30989930
0.23900001 145529.87677769 5762.98339298
0.24000001 142450.92654633 5664.56136205
0.24100001 139425.06865538 5061.13023159
0.24200001 136450.27616106 6963.05792187
0.24300001 133526.72196662 5375.78608067
0.24400001 130653.49835522 5281.66792085
0.24500001 127830.91416177 5188.65705127
0.24600001 125058.30542924 6950.11565301
0.24700001 122336.01037363 5461.07976142
0.24800001 119661.51162643 6257.10073895
0.24900001 117035.42828967 4827.71164534
0.25000001 114458.13510665 4740.28388970
0.25100001 111927.69237129 6346.30045769
0.25200001 109445.59559892 5814.84476927
0.25300001 107010.04863634 4484.79135053
0.25400001 104619.97827441 6002.57153748
0.25500001 102275.66372243 5498.33994186
0.25600001 99977.15989693  4239.53166601
0.25700001 97723.12314427  5672.82756693
0.25800001 95513.33861177  5194.97073289
0.25900001 93347.59796171  4004.61214203
0.26000001 91225.83702357  7142.98337692
0.26100001 89144.88647646  4554.41246558
0.26200001 87108.67911347  3780.08130899
0.26300001 85113.08951087  4718.66990576
0.26400001 83158.80623755  5619.45659740
0.26500001 81246.33591160  3565.90185189
0.26600001 79373.35140965  3814.68344926
0.26700001 77541.61747899  3740.60780419
0.26800001 75749.04049114  3667.76871414
0.26900001 73994.89560072  3895.83143773
0.27000001 72280.13288168  4113.46255695
0.27100001 70603.24371701  3168.67372797
0.27200001 68964.23686817  3106.49419674
0.27300001 67361.91122014  3322.28961860
0.27400001 65795.09057047  2985.45237592
0.27500001 64266.83315591  3192.77642228
0.27600001 62772.23737456  3129.82390362
0.27700001 61314.43958238  2556.81225159
0.27800001 59890.53468071  2506.41899501
0.27900001 58501.29020568  3439.87602690
0.28000001 57145.70933657  2649.56093879
0.28100001 55823.37771667  3305.86058484
0.28200001 54534.38071103  2546.48302783
0.28300001 53277.73955928  2723.55817518
0.28400001 52053.25657997  3560.44291859
0.28500001 50860.53003154  2400.10852579
0.28600001 49698.10314840  2781.35447435
0.28700001 48566.88064700  2098.08934326
0.28800001 47465.13591187  2469.13648701
0.28900001 46394.60561156  2219.98198359
0.29000001 45351.97212084  2969.42051517
0.29100001 44339.53695974  2136.27899184
0.29200001 43354.65870005  1905.43734006
0.29300001 42397.93339192  2056.72384620
0.29400001 41468.53722991  2752.47428893
0.29500001 40567.37639095  1981.31075672
0.29600001 39691.72593760  2121.91976907
0.29700001 38842.15135176  2777.99079618
0.29800001 38019.16308421  2557.73931757
0.29900001 37221.35042598  1842.45693331
0.30000001 36448.46142432  1974.77773345
0.30100001 35700.97462934  2102.43049545
0.30200001 34976.52794746  2225.55657866
0.30300001 34276.34953387  1875.60193529
0.30400001 33600.21789599  1844.65204982
0.30500001 32945.79621877  1814.65454164
0.30600001 32314.23802632  2083.29902419
0.30700001 31705.42109852  1611.26957651
0.30800001 31118.12402894  1730.79014043
0.30900001 30552.06429970  1562.73816292
0.31000001 30007.90287489  1539.85560893
0.31100001 29482.63986216  1517.76637196
0.31200001 28978.81887286  1632.66673260
0.31300001 28494.18227569  1476.28365360
0.31400001 28030.63206752  1986.67114185
0.31500001 27585.08342272  2484.31273068
0.31600002 27158.41374744  1291.38263483
0.31700002 26749.76747913  1531.15676300
0.31800002 26359.61744258  1387.43852978
0.31900002 25987.27568160  1496.86715014
0.32000002 25632.16261162  1234.18868819
0.32100002 25294.29381807  1466.05733911
0.32200002 24973.21607273  1451.94285122
0.32300002 24667.68688936  1198.84963959
0.32400002 24378.58262176  1426.14715090
0.32500002 24104.70810282  1650.20839486
0.32600002 23846.62146018  1637.54757321
0.32700002 23603.38838156  1741.93014504
0.32800002 23375.42416750  1268.93496102
0.32900002 23160.61772364  2292.90126322
0.33000002 22961.57433976  1596.05910794
0.33100002 22773.75884808  1474.37321764
0.33200002 22601.82865351  1693.44209206
0.33300002 22441.71977028  1574.06229923
0.33400002 22295.25598755  1456.43766636
0.33500002 22160.67519361  1340.27769918
0.33600002 22038.30860208  1114.03655259
0.33700002 21927.19856771  1667.56353004
0.33800002 21829.14940097  1110.01229961
0.33900002 21741.12918215  1330.55716896
0.34000002 21664.94197674  1551.42656843
0.34100002 21599.30121045  1218.84862503
0.34200002 21545.11639702  1108.49629112
0.34300002 21499.74203514  1220.32541571
0.34400002 21465.40539382  1444.08521626
0.34500002 21440.10892113  1112.74170571
0.34600002 21425.62487980  1226.72421059
0.34700002 21418.17480154  1229.83165535
0.34800002 21421.36709627  1121.40862060
0.34900002 21432.71044616  1687.82602757
0.35000002 21452.61734377  1355.37642797
0.35100002 21480.84040997  1134.18842736
0.35200002 21516.28050982  1139.28710696
0.35300002 21559.90646171  1602.76352228
0.35400002 21611.42387714  1496.05088875
0.35500002 21669.84847284  1272.88695958
0.35600002 21734.88403619  1396.68371432
0.35700002 21806.88932798  1522.33901609
0.35800002 21886.15417411  1649.99724134
0.35900002 21971.21275697  1542.37920859
0.36000002 22063.21020005  1194.72288892
0.36100002 22160.25242512  1684.62246915
0.36200002 22264.25385125  1575.97528351
0.36300002 22372.02211230  1710.11745127
0.36400002 22485.96642177  1231.10671991
0.36500002 22604.55588319  1365.08919445
0.36600002 22728.66618002  1376.33444573
0.36700002 22857.04175009  1387.87964081
0.36800002 22991.39735136  1527.08868441
0.36900002 23129.03265271  1797.12592224
0.37000002 23270.04322440  1812.96915349
0.37100002 23415.50350511  1698.56070472
0.37200002 23565.22386189  1714.01663879
0.37300002 23717.94991072  1330.57705302
0.37400002 23875.21480264  1611.57707552
0.37500002 24034.61941891  1355.55259944
0.37600002 24198.19850705  1642.08982848
0.37700002 24363.50248284  1381.41065622
0.37800002 24532.54477743  1673.61028400
0.37900002 24704.07699550  1971.38543763
0.38000002 24878.10377608  1563.96206797
0.38100002 25053.90940329  1866.26579986
0.38200002 25232.29988134  1884.47440591
0.38300002 25412.36659364  1610.12762365
0.38400002 25594.97890515  1625.92111198
0.38500002 25778.34359210  1641.82278116
0.38600002 25964.38325331  1657.95577119
0.38700002 26150.79893857  1826.37188439
0.38800002 26338.55399791  1844.22563830
0.38900002 26527.70913903  1707.05816397
0.39000002 26718.57708904  1723.74908256
0.39100002 26909.30028998  1740.49362521
0.39200002 27101.63224554  2076.93368554
0.39300002 27294.05190808  1935.69425303
0.39400002 27487.89104829  1791.52338395
0.39500002 27681.22123790  2466.39692915
0.39600002 27874.90564181  1825.94578058
0.39700002 28068.42020558  2010.82171880
0.39800002 28263.21832688  1860.70906671
0.39900002 28456.95808875  1707.41756622
0.40000002 28650.49952066  2929.65696729
0.40100002 28843.77426576  2087.13560476
0.40200002 29037.78861466  2281.93472640
0.40300002 29230.14039368  2302.75056932
0.40400002 29422.09700812  2502.34946910
0.40500002 29613.54942891  2344.50481937
0.40600002 29804.38236012  2001.51339223
0.40700002 29994.14375887  2019.20585352
0.40800002 30183.30416372  2592.44411746
0.40900002 30370.63783005  2054.57374655
0.41000002 30557.76968784  2072.27524957
0.41100002 30743.29049107  2089.92898661
0.41200002 30926.91997121  2682.29189620
0.41300002 31109.80488294  2897.87846216
0.41400002 31290.99317851  3116.58306825
0.41500002 31471.18548805  2552.94268776
0.41600002 31648.57610778  2177.58038228
0.41700002 31825.07396072  2594.06190145
0.41800002 32000.74435324  2212.37156569
0.41900002 32172.58125908  2026.87271536
0.42000002 32343.32301858  2246.72903995
0.42100002 32512.73961134  2058.05651492
0.42200002 32679.91640988  2073.54079446
0.42300002 32844.52193975  2715.58520266
0.42400002 33007.08504859  2314.62194871
0.42500002 33167.78841138  2331.36395791
0.42600002 33324.99848473  2347.91287950
0.42700002 33481.20425390  3224.24012244
0.42800002 33634.55622501  2380.82217521
0.42900002 33785.98314088  2615.03521902
0.43000002 33934.98203397  2413.28636170
0.43100002 34080.06598513  3754.26024683
0.43200002 34223.53531155  2445.10059620
0.43300002 34364.09365435  2460.81286320
0.43400002 34502.37761920  2251.28024634
0.43500002 34637.38051983  2944.87023135
0.43600002 34770.82342224  2507.15034167
0.43700002 34900.46013316  2522.25637335
0.43800002 35026.53705605  2998.44684678
0.43900002 35150.97518663  3711.94315562
0.44000002 35271.73618190  3033.19309670
0.44100002 35390.18874803  2581.00658771
0.44200002 35505.51447413  2359.34154862
0.44300002 35618.10573488  2372.16595436
0.44400002 35727.13564114  3338.70098389
0.44500002 35832.36105528  2876.62208184
0.44600002 35935.42159797  2891.36415880
0.44700002 36035.61113575  2421.59318309
0.44800002 36131.47299382  3163.49126790
0.44900002 36225.75424096  2934.28623258
0.45000002 36316.53790988  3193.85807785
0.45100002 36402.76341168  3208.53971917
0.45200002 36486.90456859  2727.21381123
0.45300002 36567.13144393  3486.31047709
0.45400002 36644.83009317  3001.21172687
0.45500002 36719.14014940  4269.70181893
0.45600002 36789.85406795  3782.91692382
0.45700002 36857.31403512  3038.51711306
0.45800002 36920.95189770  3050.40919036
0.45900002 36981.60244170  2806.90375836
0.46000002 37039.65060502  2561.29196073
0.46100002 37093.11769661  3598.77444949
0.46200002 37144.22165854  2837.63294809
0.46300002 37191.49324154  3106.23366275
0.46400002 37235.00884936  3116.57038840
0.46500002 37276.13637483  2866.16226170
0.46600002 37312.98686516  3397.90730992
0.46700002 37346.65416748  3146.08229618
0.46800002 37377.58775364  2629.51342310
0.46900002 37404.46813589  3691.82117999
0.47000002 37427.57048619  3966.38697027
0.47100002 37447.85810368  3181.57017528
0.47200002 37464.62875140  2923.92708949
0.47300002 37478.68242287  3197.68133588
0.47400002 37487.82011708  2671.00730994
0.47500002 37494.92359560  3212.56520594
0.47600002 37498.92793007  2951.35326262
0.47700002 37498.36094039  3226.35912823
