# SAXS profile: number of points = 501, q_min = 0, q_max = 0.5, delta_q = 0.001
#    q    intensity    error
0.00000000 1664650.74656090 249.69761198
0.00100000 1664582.14455142 699.12451731
0.00200000 1664376.28496559 1048.55709273
0.00300000 1664033.33938530 1697.31406664
0.00400000 1663553.17631803 1746.73090151
0.00500000 1662936.23802848 1795.97120816
0.00600000 1662182.29773524 1919.82063204
0.00700000 1661291.96800387 2392.26053335
0.00800000 1660264.71468707 3137.90044324
0.00900000 1659101.85251571 3235.24875071
0.01000000 1657802.61731431 3008.91188035
0.01100000 1656368.19468597 3279.60916827
0.01200000 1654798.08179413 4517.59896137
0.01300000 1653093.66758817 4860.09559706
0.01400000 1651254.15910284 5572.98303403
0.01500000 1649281.33287193 3958.27537515
0.01600000 1647174.11734404 5040.35302439
0.01700000 1644934.59658343 4441.32361001
0.01800000 1642562.30772389 5149.43306643
0.01900000 1640057.91883368 7380.26096777
0.02000000 1637422.17255881 7221.03210763
0.02100000 1634656.73935736 7012.67772979
0.02200000 1631759.59640918 6192.52794971
0.02300000 1628733.85728175 5863.44215311
0.02400000 1625579.35516154 7924.69971776
0.02500000 1622297.31721373 10123.13572174
0.02600000 1618887.98614857 8523.44563692
0.02700000 1615352.57543953 7462.92924034
0.02800000 1611690.60839599 9114.11080845
0.02900000 1607904.98250253 10129.80185487
0.03000000 1603995.92358067 9696.15580373
0.03100000 1599963.46214490 12287.71995467
0.03200000 1595808.73487913 10269.02968192
0.03300000 1591534.72509206 8116.82747216
0.03400000 1587139.04918853 12498.72058906
0.03500000 1582625.60431135 8546.17865793
0.03600000 1577993.58068922 15764.15659961
0.03700000 1573245.01026615 17934.99394648
0.03800000 1568381.44241302 12845.04460783
0.03900000 1563403.57733947 10318.46408829
0.04000000 1558310.91234546 12458.69632153
0.04100000 1553106.99918842 16633.77673256
0.04200000 1547792.26539368 12978.23874742
0.04300000 1542366.99327810 12215.54715378
0.04400000 1536834.58464775 14523.08749940
0.04500000 1531194.64453480 11621.76789202
0.04600000 1525447.70468211 11829.84749974
0.04700000 1519596.91307218 12035.20811126
0.04800000 1513642.40472301 13350.32663082
0.04900000 1507586.86369258 13568.28240480
0.05000000 1501429.91574840 19526.09696356
0.05100000 1495174.94468265 13994.83813417
0.05200000 1488819.95895021 13019.73114776
0.05300000 1482370.61759008 18010.80384334
0.05400000 1475825.14504439 12175.55801441
0.05500000 1469187.58680196 13575.29393533
0.05600000 1462456.27328666 13754.40189210
0.05700000 1455636.32650111 15196.84395804
0.05800000 1448726.48629265 20513.96800375
0.05900000 1441728.36807871 14273.11151062
0.06000000 1434645.25073640 14439.70512327
0.06100000 1427478.03755794 17258.21028058
0.06200000 1420227.63470219 14763.26695282
0.06300000 1412897.18014567 16276.57627629
0.06400000 1405484.45656715 19184.86372935
0.06500000 1397996.35847230 17992.21397517
0.06600000 1390430.01175189 20960.73340788
0.06700000 1382788.91002469 14104.44754233
0.06800000 1375075.82260246 14232.03543012
0.06900000 1367291.26207110 18663.52660108
0.07000000 1359435.25962084 17373.58343153
0.07100000 1351512.36215417 16055.96761442
0.07200000 1343521.60452394 22067.34338809
0.07300000 1335467.65123407 23717.90659723
0.07400000 1327349.83481396 19412.49224390
0.07500000 1319170.39839429 16542.39757125
0.07600000 1310929.75881863 16655.36336660
0.07700000 1302633.21358336 15240.80931354
0.07800000 1294279.25590247 19938.37287221
0.07900000 1285869.54434247 24688.69640937
0.08000000 1277408.44811220 20176.66738444
0.08100000 1268895.67506596 20289.64279626
0.08200000 1260332.39999709 28244.05040929
0.08300000 1251721.50080243 20503.19914540
0.08400000 1243063.90685141 17433.97211192
0.08500000 1234363.35192008 23884.93198094
0.08600000 1225618.96954421 15994.32830351
0.08700000 1216834.18207902 25699.53913230
0.08800000 1208008.00773747 17739.59842674
0.08900000 1199146.48107800 17807.32608041
0.09000000 1190248.30027744 19496.26807439
0.09100000 1181315.75984133 17932.37407688
0.09200000 1172350.21997571 27802.28677306
0.09300000 1163354.97331206 18043.63648398
0.09400000 1154328.26958093 24673.76792190
0.09500000 1145274.91531807 19790.35146690
0.09600000 1136195.06557662 21491.13067563
0.09700000 1127092.43847229 19881.91154936
0.09800000 1117967.58337590 18262.00133308
0.09900000 1108822.33932243 21622.03663351
0.10000000 1099656.47644227 23323.71496219
0.10100000 1090472.87793283 23357.93014389
0.10200000 1081273.89214048 26729.09187095
0.10300000 1072060.04513522 20068.96498899
0.10400000 1062834.28286155 21761.53296536
0.10500000 1053599.33386192 16752.23019659
0.10600001 1044351.09590915 20114.20305365
0.10700001 1035097.69996975 18445.44188146
0.10800001 1025836.33075446 20126.90975661
0.10900001 1016571.00314547 23482.79127789
0.11000001 1007302.15464531 21803.05616356
0.11100001 998031.42723601 23473.70027358
0.11200001 988761.95135347 28491.17696953
0.11300001 979491.64795839 20099.16956239
0.11400001 970225.96301151 18410.03851497
0.11500001 960964.42057012 20064.93804632
0.11600001 951708.36505243 21713.22737118
0.11700001 942460.69476500 21686.02160784
0.11800001 933219.93831396 23321.16735685
0.11900001 923989.72310179 23284.54211891
0.12000001 914770.83276825 21584.01881588
0.12100001 905566.40688881 26514.98564278
0.12200001 896375.11329990 19845.74594342
0.12300001 887200.18221353 24752.88624997
0.12400001 878041.39168568 21402.25993076
0.12500001 868901.11746013 19706.67827258
0.12600001 859781.98791664 24568.27146246
0.12700001 850683.54532581 17966.43732397
0.12800001 841606.33345604 17913.59165187
0.12900001 832552.90449393 16234.78240281
0.13000001 823524.61859785 19418.71142184
0.13100001 814520.97975380 22578.52262307
0.13200001 805546.09401522 19284.77439981
0.13300001 796600.35783840 17612.83474213
0.13400001 787682.70977935 19140.69075004
0.13500001 778796.63833127 19064.94260523
0.13600001 769941.36915398 20568.98464679
0.13700001 761120.16410415 25208.30102378
0.13800001 752331.50378674 34509.44770602
0.13900001 743580.28372969 23422.78004206
0.14000001 734863.70299528 20205.07846674
0.14100001 726184.98245933 23201.61128383
0.14200001 717543.32505331 15391.30504833
0.14300001 708943.53085606 18375.81718653
0.14400001 700379.83715022 22849.89326485
0.14500001 691861.06859606 16666.93392869
0.14600001 683381.94218841 19589.14429694
0.14700001 674948.98115996 14983.86808864
0.14800001 666557.22942936 16387.31025865
0.14900001 658210.11068182 17771.67382689
0.15000001 649909.28021623 19136.57965889
0.15100001 641655.03027152 16092.70891854
0.15200001 633448.66776191 17445.17713335
0.15300001 625290.62146221 23110.74245982
0.15400001 617178.89862312 15784.35107717
0.15500001 609119.16532671 18529.40588370
0.15600001 601107.48328278 15571.69008935
0.15700001 593150.43449207 22492.26553750
0.15800001 585240.64882954 15353.78914672
0.15900001 577386.15612664 19400.17576155
0.16000001 569582.14015839 15130.95026753
0.16100001 561835.05469651 15017.85172094
0.16200001 554139.78469646 23032.82123820
0.16300001 546500.58853104 20165.87266878
0.16400001 538916.27258751 16005.81405148
0.16500001 531388.23915481 15877.88133556
0.16600001 523916.42986436 24935.80365669
0.16700001 516500.83860200 13015.82174731
0.16800001 509142.04491808 14197.42659289
0.16900001 501842.89155680 16636.09264063
0.17000001 494601.37076720 13955.17833516
0.17100001 487418.66241435 12575.40208412
0.17200001 480294.94472454 22434.57792751
0.17300001 473230.84579089 18526.98848764
0.17400001 466227.69028080 13462.32519263
0.17500001 459283.70639189 14550.10850566
0.17600001 452398.74241392 13212.30589620
0.17700001 445577.18944094 16655.67612796
0.17800001 438815.48405528 12960.41593372
0.17900001 432115.32729824 14000.53726576
0.18000001 425477.62460156 12706.88985894
0.18100001 418902.64882905 13723.25142388
0.18200001 412386.96991028 11320.02285877
0.18300001 405936.37274607 13444.61330046
0.18400001 399546.73316801 13304.90684303
0.18500001 393220.87508526 14262.12181311
0.18600001 386957.43472758 17366.65049103
0.18700001 380756.75790341 11811.07518818
0.18800001 374618.69747369 14868.61680522
0.18900001 368545.81667673 17856.04566164
0.19000001 362532.10920678 11425.19996148
0.19100001 356586.84754314 13350.61220283
0.19200001 350700.83550308 10152.78966755
0.19300001 344881.25761357 11039.64957786
0.19400001 339123.96517217 10911.31409502
0.19500001 333430.68199966 16664.86627384
0.19600001 327799.34875788 11623.76545625
0.19700001 322232.55900241 15312.49192743
0.19800001 316728.97273617 11345.23233957
0.19900001 311289.57873397 13074.16292471
0.20000001 305911.54815696 10145.55697412
0.20100001 300598.52910970 10929.76303499
0.20200001 295347.23796973 11691.32096760
0.20300001 290159.75771854 8878.88900584
0.20400001 285035.06697037 11394.27734070
0.20500001 279972.30542693 12111.60250525
0.20600001 274973.03762036 13660.66115469
0.20700001 270035.56951967 8425.11016726
0.20800001 265160.40962521 9975.33508164
0.20900001 260349.51292815 11481.41406287
0.21000001 255598.01170207 9707.61294335
0.21100001 250908.35674678 7978.88612174
0.21200001 246280.34143476 10229.25446508
0.21300001 241713.13146009 9310.79026402
0.21400001 237208.05077520 8414.95599908
0.21500001 232763.97597257 11312.32976709
0.21600001 228379.28955066 8920.49547160
0.21700001 224055.35767372 10989.91581349
0.21800001 219791.57939636 11552.24595927
0.21900001 215586.05397796 9960.07616471
0.22000001 211439.80008689 13317.53643816
0.22100001 207355.00467907 7595.41418053
0.22200001 203327.58702282 10882.09297202
0.22300001 199358.57229156 7368.29318031
0.22400001 195446.07526727 9234.82749306
0.22500001 191594.54242152 7794.06635427
0.22600001 187798.27868974 8312.89119930
0.22700001 184060.24784245 6294.86077389
0.22800001 180378.06460213 10533.17758056
0.22900001 176751.88851497 7317.52853057
0.23000001 173181.88209593 7200.90299809
0.23100001 169668.88986909 6494.92541135
0.23200001 166209.13184080 6970.81131908
0.23300001 162805.38645269 6285.91626823
0.23400001 159456.26759779 8993.33391786
0.23500001 156159.34957920 8292.06185484
0.23600001 152917.32319975 6523.45331624
0.23700001 149728.06938121 8017.93849460
0.23800001 146591.64333577 7357.43492702
0.23900001 143507.56634260 5682.89989597
0.24000001 140475.23602797 7617.27003392
0.24100001 137495.41420228 6987.51728028
0.24200001 134565.92716319 5885.91393253
0.24300001 131687.18879065 8675.55240791
0.24400001 128858.02093197 4735.53249326
0.24500001 126078.83848838 4652.30936030
0.24600001 123349.22800462 5941.11584789
0.24700001 120668.79941004 4937.76750544
0.24800001 118035.86990563 4849.50394449
0.24900001 115450.59466614 5195.27700575
0.25000001 112913.62178003 4251.19806113
0.25100001 110422.66621746 5426.17007463
0.25200001 107979.51891663 5736.95211145
0.25300001 105582.31447469 4022.68637180
0.25400001 103229.88302292 5133.10617617
0.25500001 100922.67343376 3875.43084321
0.25600001 98660.62422372  6465.72431441
0.25700001 96442.34522070  6344.94219227
0.25800001 94267.75232150  5859.68376155
0.25900001 92136.54335513  5389.98804130
0.26000001 90048.71002314  4935.57002990
0.26100001 88001.11137818  3458.44384080
0.26200001 85997.64901176  3731.86815545
0.26300001 84034.10323043  3327.75064539
0.26400001 82111.42222314  4243.10794416
0.26500001 80229.83398588  4801.75579127
0.26600001 78387.08186789  3453.34305510
0.26700001 76585.04481550  3386.59084200
0.26800001 74821.58285872  4528.57651682
0.26900001 73095.99081915  4736.62042922
0.27000001 71409.18522998  3483.34022036
0.27100001 69759.60461772  4269.28800464
0.27200001 68147.35922996  3906.88828954
0.27300001 66571.25871556  3556.90252150
0.27400001 65030.14321882  2950.74288820
0.27500001 63526.74728545  3945.01119313
0.27600001 62056.70288449  3609.83857763
0.27700001 60622.87370920  2780.77134865
0.27800001 59222.37668728  2726.30223983
0.27900001 57856.01031488  3401.93356752
0.28000001 56522.61630758  2858.91406815
0.28100001 55222.12264663  2569.48548836
0.28200001 53954.28007640  2977.46708694
0.28300001 52718.28691548  2919.53886756
0.28400001 51514.01628829  2642.66916067
0.28500001 50340.78293030  2375.58165892
0.28600001 49197.56120457  2329.75062111
0.28700001 48084.88315813  2284.99375583
0.28800001 47001.23144779  3056.25521955
0.28900001 45948.17961410  3597.74263408
0.29000001 44922.61786052  2941.30854364
0.29100001 43926.84671787  3078.39356370
0.29200001 42958.02846013  2454.40707225
0.29300001 42016.73668610  2594.11344579
0.29400001 41102.50388953  2728.17882481
0.29500001 40215.97128080  3214.06057691
0.29600001 39354.51221284  1928.56796228
0.29700001 38518.56550711  1721.77995967
0.29800001 37708.84366784  2875.11092156
0.29900001 36923.82220948  2492.35811713
0.30000001 36163.26577126  1959.32583224
0.30100001 35427.62466375  2407.30720986
0.30200001 34714.62915270  2208.89195756
0.30300001 34025.39932421  1861.86993916
0.30400001 33359.88571880  1984.07929706
0.30500001 32715.58189167  1952.13886389
0.30600001 32093.75689543  2216.87636250
0.30700001 31494.28527649  2037.05046812
0.30800001 30915.88754518  1719.54174667
0.30900001 30358.24217182  1411.65832782
0.31000001 29822.27352017  1947.69277582
0.31100001 29304.73178817  1645.75381514
0.31200001 28808.29568466  1758.31441036
0.31300001 28330.57930877  2001.55552293
0.31400001 27873.57333849  1712.13432338
0.31500001 27434.36319331  1430.42776463
0.31600002 27013.46054107  1412.93912050
0.31700002 26610.31538342  1650.10573505
0.31800002 26225.31608810  1380.36957766
0.31900002 25857.84442789  1241.17659131
0.32000002 25507.11123532  2087.88468903
0.32100002 25173.37895957  1580.63653971
0.32200002 24856.12662480  1926.84702719
0.32300002 24554.10440579  1551.32838981
0.32400002 24268.10908169  1301.37741113
0.32500002 23997.06823518  1877.53070762
0.32600002 23741.66837408  1280.98177778
0.32700002 23500.56104080  1156.22765796
0.32800002 23274.58760802  1148.60095285
0.32900002 23061.39097963  1712.30836132
0.33000002 22863.75484844  1816.29677117
0.33100002 22677.07467632  1581.04572130
0.33200002 22506.00640984  1236.59258075
0.33300002 22346.49106601  2015.20665976
0.33400002 22200.40376996  1338.68441072
0.33500002 22065.84191539  1445.75403076
0.33600002 21943.34704614  1220.15987028
0.33700002 21831.75553021  1438.93107514
0.33800002 21733.10287250  1326.15400008
0.33900002 21644.18438197  1545.39483806
0.34000002 21566.91204807  1323.77712420
0.34100002 21499.91979508  1213.24053149
0.34200002 21444.16633521  1323.96289224
0.34300002 21397.06392415  1214.49740585
0.34400002 21360.72300605  1215.95921471
0.34500002 21333.35071593  1439.36124097
0.34600002 21316.53225348  1553.33577888
0.34700002 21306.57501967  1223.42359557
0.34800002 21306.91149710  1115.41686970
0.34900002 21315.45785863  1342.87390869
0.35000002 21332.27754425  1123.14446590
0.35100002 21357.30221315  1353.19873232
0.35200002 21389.41986066  1132.56983526
0.35300002 21429.48683315  1479.27754616
0.35400002 21477.31558401  1486.76724172
0.35500002 21531.96510832  1379.76838949
0.35600002 21592.98634375  1156.30447348
0.35700002 21660.96694822  1395.83277626
0.35800002 21735.93739328  1638.67239770
0.35900002 21816.69033428  1178.10133385
0.36000002 21904.20833373  1660.55811243
0.36100002 21996.61865107  1194.41644933
0.36200002 22095.98226599  1323.43892051
0.36300002 22198.97079841  1333.27024931
0.36400002 22308.03555494  1954.18400718
0.36500002 22421.63667289  1600.23228514
0.36600002 22540.67413910  1489.03700416
0.36700002 22663.91749841  1626.36279672
0.36800002 22793.01183741  1261.59326496
0.36900002 22925.41317216  1526.83258959
0.37000002 23061.00841535  1540.01421493
0.37100002 23201.11522861  1553.54674930
0.37200002 23345.28554696  1306.16878823
0.37300002 23492.49157974  1581.51460806
0.37400002 23644.11077271  2260.96819974
0.37500002 23797.87690175  1342.20032084
0.37600002 23955.76154751  1896.57773156
0.37700002 24115.33761429  1640.80764900
0.37800002 24278.67656041  1518.26711063
0.37900002 24444.39643424  1950.66292786
0.38000002 24612.61440466  1828.59427382
0.38100002 24782.56386708  1846.05326991
0.38200002 24955.10774047  2007.13941065
0.38300002 25129.27980541  1736.93590244
0.38400002 25306.05853082  1607.56744433
0.38500002 25483.43482414  1770.58913546
0.38600002 25663.64471280  1638.75211077
0.38700002 25844.15797559  1654.54307198
0.38800002 26026.00795005  1822.34116300
0.38900002 26209.34823900  1686.57163908
0.39000002 26394.29646702  2476.84089781
0.39100002 26579.24664371  1875.43173203
0.39200002 26765.66904884  2051.18714474
0.39300002 26952.34998444  1911.46075146
0.39400002 27140.36651303  2090.48682971
0.39500002 27328.00321368  1785.61181458
0.39600002 27515.93551650  1802.43144140
0.39700002 27703.79238959  1653.91648402
0.39800002 27892.89550854  1669.38987528
0.39900002 28080.99081881  1684.85952896
0.40000002 28269.13532980  1870.42742772
0.40100002 28456.79478140  1887.53928728
0.40200002 28645.37396521  2424.25811354
0.40300002 28832.31512416  2446.13373103
0.40400002 29018.87528816  1939.18643301
0.40500002 29205.05570255  2134.30557187
0.40600002 29390.63376883  2512.01758724
0.40700002 29575.30861345  2534.01256206
0.40800002 29759.37243802  2738.60637837
0.40900002 29941.66538178  1841.41250823
0.41000002 30123.76631479  2785.69542195
0.41100002 30304.47114611  2247.37968668
0.41200002 30483.32791280  3399.19605662
0.41300002 30661.39727240  3046.51657734
0.41400002 30838.09475176  2879.50723389
0.41500002 31013.65814863  2322.30283221
0.41600002 31186.52768934  2145.78913934
0.41700002 31358.69440653  2359.42827895
0.41800002 31529.96454150  2576.15587493
0.41900002 31697.58002796  2795.72669094
0.42000002 31864.24131676  2012.22693450
0.42100002 32029.63819083  2838.46667097
0.42200002 32192.83567606  2451.16262452
0.42300002 32353.64948197  3292.30752729
0.42400002 32512.44354894  2279.93521191
0.42500002 32669.56758026  2505.10256076
0.42600002 32823.23225104  2312.56093783
0.42700002 32976.01855117  3175.59073696
0.42800002 33126.02574242  2131.65985754
0.42900002 33274.25375946  2575.42736302
0.43000002 33420.10536926  2376.67090596
0.43100002 33562.19429930  2392.31332302
0.43200002 33702.81809981  3721.29683683
0.43300002 33840.56686534  2863.92730953
0.43400002 33976.13205186  2660.33126573
0.43500002 34108.65309370  3792.20023066
0.43600002 34239.63141799  3366.61191871
0.43700002 34366.89188530  2483.69539425
0.43800002 34490.74785998  2725.45902505
0.43900002 34613.12059357  3198.25249441
0.44000002 34731.84930881  2527.26313472
0.44100002 34848.49412182  3465.68290465
0.44200002 34962.07392777  2555.55291486
0.44300002 35073.07713296  2803.04045730
0.44400002 35180.55142404  2817.96230261
0.44500002 35284.42269975  2832.63358858
0.44600002 35386.14908548  3084.43383121
0.44700002 35485.17481686  2861.52463284
0.44800002 35580.11423793  2635.95288824
0.44900002 35673.41109040  2889.54643526
0.45000002 35763.34026964  2903.26810068
0.45100002 35848.93432363  2673.61364857
0.45200002 35932.54150346  2685.77794196
0.45300002 36012.41910087  2942.93502840
0.45400002 36089.77081177  2709.43967210
0.45500002 36163.84701069  2720.96797804
0.45600002 36234.42032288  2483.86963085
0.45700002 36302.01062811  2743.34307318
0.45800002 36365.78862240  2754.16313185
0.45900002 36426.68866894  3518.81829219
0.46000002 36485.23436389  2775.24948342
0.46100002 36539.24540747  2785.38680942
0.46200002 36591.01640772  2795.37083095
0.46300002 36638.94975011  3315.09233051
0.46400002 36683.40144222  3838.00105780
0.46500002 36725.43875669  2823.81911984
0.46600002 36763.42727408  4377.97294443
0.46700002 36798.36890956  3099.89474386
0.46800002 36830.65712258  2850.14053652
0.46900002 36858.93452459  3897.83251072
0.47000002 36883.68103477  4429.91472064
0.47100002 36905.67783120  2874.21432572
0.47200002 36924.22706777  3667.68364848
0.47300002 36940.08793818  2626.44037689
0.47400002 36951.37556413  3159.34276048
0.47500002 36960.60858857  3694.58260963
0.47600002 36966.72333218  4496.44760563
0.47700002 36968.63145055  3975.97650096
