# SAXS profile: number of points = 501, q_min = 0, q_max = 0.5, delta_q = 0.001
#    q    intensity    error
0.00000000 1664650.74656091 299.63713438
0.00100000 1664582.17402252 549.31213047
0.00200000 1664376.40841088 748.96940750
0.00300000 1664033.61249938 1297.94626399
0.00400000 1663553.65772833 1247.66529070
0.00500000 1662936.98840542 1496.64334880
0.00600000 1662183.37493327 2268.88039915
0.00700000 1661293.43800677 2392.26265015
0.00800000 1660266.62694846 2241.36004101
0.00900000 1659104.29303524 4728.44743728
0.01000000 1657805.63083336 3008.91734989
0.01100000 1656371.83767154 3577.76332514
0.01200000 1654802.40442069 5162.98372816
0.01300000 1653098.71844624 5207.26119277
0.01400000 1651260.02103410 4458.40225444
0.01500000 1649288.04507740 5541.60807822
0.01600000 1647181.74554328 5880.43909447
0.01700000 1644943.16578287 5773.75077090
0.01800000 1642571.87739330 6085.72907959
0.01900000 1640068.63211351 5904.24734202
0.02000000 1637433.99489244 5673.70904896
0.02100000 1634669.72072387 6473.29238756
0.02200000 1631773.83842121 7881.46799765
0.02300000 1628749.36499510 7036.19757706
0.02400000 1625596.16076179 7924.78164506
0.02500000 1622315.61352030 7592.43741803
0.02600000 1618907.64504516 7867.89151478
0.02700000 1615373.70491311 9498.39781993
0.02800000 1611713.33265046 9114.23931411
0.02900000 1607929.23814531 7959.25009426
0.03000000 1604021.77852022 8204.57177426
0.03100000 1599990.98540825 8447.95279167
0.03200000 1595838.00094227 9479.27816219
0.03300000 1591565.76922289 12175.47869585
0.03400000 1587171.93219829 11665.71423992
0.03500000 1582660.24209757 8546.36570198
0.03600000 1578030.05163234 9633.87391043
0.03700000 1573283.49535749 9864.48797210
0.03800000 1568421.78978444 9175.26789487
0.03900000 1563445.91412396 15009.08147066
0.04000000 1558355.22492100 11500.66209285
0.04100000 1553153.33311147 13698.81303321
0.04200000 1547840.74788803 12978.64527316
0.04300000 1542417.59948698 11197.95229206
0.04400000 1536887.26715488 10373.98953508
0.04500000 1531249.42481799 12678.74582661
0.04600000 1525504.73447452 15056.73242920
0.04700000 1519656.09815087 12035.67685711
0.04800000 1513703.87684887 14463.44121625
0.04900000 1507650.56325855 14699.59367600
0.05000000 1501495.89480640 12635.08854316
0.05100000 1495243.17012234 13995.47672431
0.05200000 1488890.58936127 15387.68495813
0.05300000 1482443.51098948 13208.57229867
0.05400000 1475900.33711295 19481.88535841
0.05500000 1469265.16313081 12341.82794604
0.05600000 1462536.26864754 17506.55995264
0.05700000 1455718.68733459 15197.70380518
0.05800000 1448811.19516464 14104.17764349
0.05900000 1441815.46403792 15571.60773889
0.06000000 1434734.61094646 15753.38676417
0.06100000 1427569.98849609 13276.40151344
0.06200000 1420321.91091716 14764.24695412
0.06300000 1412993.75452640 14921.21474544
0.06400000 1405583.56160890 19186.21651324
0.06500000 1398097.84785202 22145.87094591
0.06600000 1390533.83683137 13974.86571402
0.06700000 1382895.07877195 21158.29569540
0.06800000 1375184.36755805 19926.42241865
0.06900000 1367402.25244309 15793.49675515
0.07000000 1359548.54782312 15927.11198359
0.07100000 1351627.91805435 16057.34041858
0.07200000 1343639.45593519 20597.99382444
0.07300000 1335587.79974147 14825.02527177
0.07400000 1327472.13497247 16427.46844014
0.07500000 1319295.22395958 18047.95950972
0.07600000 1311056.65956753 22714.05769186
0.07700000 1302762.34191610 15242.32011511
0.07800000 1294410.50395298 21474.27126764
0.07900000 1286003.19437868 16975.24296200
0.08000000 1277544.09971898 18626.59384770
0.08100000 1269033.53557602 15609.11321994
0.08200000 1260472.10040344 20400.74190234
0.08300000 1251863.35454608 15773.47900756
0.08400000 1243207.91462660 28531.62297992
0.08500000 1234509.18726003 15925.16926326
0.08600000 1225766.67887840 19195.50709249
0.08700000 1216983.96739772 17670.60803639
0.08800000 1208159.60887171 20967.61099669
0.08900000 1199299.82368823 22666.76773236
0.09000000 1190403.33511409 19498.80754514
0.09100000 1181472.62008645 16304.32292319
0.09200000 1172508.81689863 19627.79851713
0.09300000 1163515.09364456 22967.78902785
0.09400000 1154490.19509496 32902.97210656
0.09500000 1145438.08881652 18143.74017966
0.09600000 1136359.92987747 18187.44153264
0.09700000 1127258.78968712 21541.91648367
0.09800000 1118135.31735636 23246.03434081
0.09900000 1108991.50118211 18298.36062994
0.10000000 1099826.68531761 24993.56259922
0.10100000 1090644.52963026 16686.86208816
0.10200000 1081446.59679372 23391.69098891
0.10300000 1072233.82642033 21744.90302270
0.10400000 1063009.17669811 20090.87438477
0.10500000 1053775.06357332 23457.03401878
0.10600001 1044527.89826531 20117.60826719
0.10700001 1035275.29748634 18448.60666935
0.10800001 1026014.71620627 23485.47795923
0.10900001 1016750.22443155 25164.56923907
0.11000001 1007482.00349354 21806.94899206
0.11100001 998212.01552862 21800.95144539
0.11200001 988942.72545904 21791.35398136
0.11300001 979673.22057940 21778.13671881
0.11400001 970407.71473567 21761.39402757
0.11500001 961146.58871987 16723.95143122
0.11600001 951890.70399141 16705.68264174
0.11700001 942643.23140460 23358.70037428
0.11800001 933402.47594233 38320.84045466
0.11900001 924172.38028102 21625.63471718
0.12000001 914953.43432138 23248.96786125
0.12100001 905749.02084168 19890.24943468
0.12200001 896557.47232819 23158.08060124
0.12300001 887382.35134648 18155.84376395
0.12400001 878223.13395364 16466.68453750
0.12500001 869082.49164058 16425.65986599
0.12600001 859962.91645566 19658.75319656
0.12700001 850863.94610561 21237.56509565
0.12800001 841786.01079997 16288.56007665
0.12900001 832732.10406786 22733.58751253
0.13000001 823702.74085070 17804.33558269
0.13100001 814698.55608287 20970.34182206
0.13200001 805722.31884685 24111.24152810
0.13300001 796775.65554238 22421.26800397
0.13400001 787856.95897584 19144.92500571
0.13500001 778969.69118239 15890.98244935
0.13600001 770113.11179255 18990.99023224
0.13700001 761290.52151825 20486.32890005
0.13800001 752500.45835840 17258.59882629
0.13900001 743747.77078536 20304.31509995
0.14000001 735029.63947755 17100.46536891
0.14100001 726349.23404907 17018.36335641
0.14200001 717705.85822224 21552.70793895
0.14300001 709104.43651789 19911.65351661
0.14400001 700538.83845579 15236.72045513
0.14500001 692018.19223640 15155.19912488
0.14600001 683537.05075016 16579.19194806
0.14700001 675101.94553954 20982.16945723
0.14800001 666708.15551813 16391.02077672
0.14900001 658358.65215996 16294.37740974
0.15000001 650055.56118374 17668.51098663
0.15100001 641798.88335462 17559.61827713
0.15200001 633590.16649399 15994.98450790
0.15300001 625429.44265574 17336.90496853
0.15400001 617315.32413800 21528.87294528
0.15500001 609252.89171813 14256.51833901
0.15600001 601238.50938044 15575.08432057
0.15700001 593278.71136504 19684.98857216
0.15800001 585366.01767388 16753.17621655
0.15900001 577508.47549582 19404.28569255
0.16000001 569701.56053726 13758.29333640
0.16100001 561951.33253984 13655.41802531
0.16200001 554252.96378534 14906.63416469
0.16300001 546610.64740312 14791.28481699
0.16400001 539023.15417061 17343.07080420
0.16500001 531491.78331930 14557.56063240
0.16600001 524016.48285165 13126.61351518
0.16700001 516597.72474352 16923.74226165
0.16800001 509235.26529916 12909.11458486
0.16900001 501932.73466807 16639.07093991
0.17000001 494687.72540292 12688.74075574
0.17100001 487501.25038613 16350.79271006
0.17200001 480373.80211277 13712.27082884
0.17300001 473305.98295714 14823.94408627
0.17400001 466299.02988633 13464.38512384
0.17500001 459351.47826897 13339.56755893
0.17600001 452462.43937153 15616.74183247
0.17700001 445636.87994127 13088.35578205
0.17800001 438871.37882190 12962.06678573
0.17900001 432167.11947164 14002.21533226
0.18000001 425525.36047788 20795.42534883
0.18100001 418946.40646092 12580.96118030
0.18200001 412426.71611173 14717.44805967
0.18300001 405971.91579570 15686.75556738
0.18400001 399578.13103257 12197.12302597
0.18500001 393247.97751992 15360.26672758
0.18600001 386980.33801779 15196.71859190
0.18700001 380775.48618432 10737.86921771
0.18800001 374633.11350331 15931.27390442
0.18900001 368555.80474336 10503.84093147
0.19000001 362537.93713392 14541.39734550
0.19100001 356588.16551999 13350.66154789
0.19200001 350697.99369407 11167.97813689
0.19300001 344873.96065083 13046.58254791
0.19400001 339112.26680326 12894.74455452
0.19500001 333414.59038809 11762.86730475
0.19600001 327778.81808924 13560.21034516
0.19700001 322207.47747295 15311.30005309
0.19800001 316699.52580720 15125.57006737
0.19900001 311255.78523527 12138.97619786
0.20000001 305873.22753310 13833.11736895
0.20100001 300555.81255050 13660.26232604
0.20200001 295300.01308171 13487.82873499
0.20300001 290108.11656087 12428.23230088
0.20400001 284979.00895255 10515.72592738
0.20500001 279911.81467599 9514.20303054
0.20600001 274907.95011843 8535.89225465
0.20700001 269966.17237949 9265.23947402
0.20800001 265086.49331137 9972.55434978
0.20900001 260271.21277618 9018.39794901
0.21000001 255515.38486627 10513.18100731
0.21100001 250821.35389881 10368.95526035
0.21200001 246188.92110969 9438.88368156
0.21300001 241617.44715114 8531.51246224
0.21400001 237108.08905765 8411.40985698
0.21500001 232659.82216629 8291.99645403
0.21600001 228270.76127140 7430.21363067
0.21700001 223942.49642267 13181.25596264
0.21800001 219674.53830514 11546.09427922
0.21900001 215464.91816831 8532.41116289
0.22000001 211314.49944272 8406.09118529
0.22100001 207225.58862593 7590.67367028
0.22200001 203194.07950233 6796.84228074
0.22300001 199221.07145150 8701.97681248
0.22400001 195304.62370466 6591.53136172
0.22500001 191449.08632062 7139.13676649
0.22600001 187648.90474157 7028.39005946
0.22700001 183906.92913606 6918.57900127
0.22800001 180220.97588801 7428.70897741
0.22900001 176591.08432964 8529.34977648
0.23000001 173017.40787786 6594.55881313
0.23100001 169500.70556993 6488.48731608
0.23200001 166037.48343620 6963.61238465
0.23300001 162630.12170085 6279.14929584
0.23400001 159277.26844013 6175.97637586
0.23500001 155977.15918188 6625.91003543
0.23600001 152731.69163596 6515.53427336
0.23700001 149539.15141272 6940.11234532
0.23800001 146399.47646912 5773.26362763
0.23900001 143312.13325558 6191.08444948
0.24000001 140276.64792979 5578.10116877
0.24100001 137293.80083235 4983.76520595
0.24200001 134361.37849960 7346.20871696
0.24300001 131479.63727081 8180.66341796
0.24400001 128647.60039986 7091.69930751
0.24500001 125865.73400932 7895.55786790
0.24600001 123133.40072579 5018.30198397
0.24700001 120450.38403252 4928.82994777
0.24800001 117814.90253584 6160.54154503
0.24900001 115227.20617968 6481.53065423
0.25000001 112687.69997793 5515.49973635
0.25100001 110194.44859854 6248.02553112
0.25200001 107749.06114801 4906.89247682
0.25300001 105349.70363582 4013.82389842
0.25400001 102995.23393254 5121.43824960
0.25500001 100686.00999727 4639.61156018
0.25600001 98422.03693935  4173.58667388
0.25700001 96201.96908855  4095.31801786
0.25800001 94025.58968317  4748.76263163
0.25900001 91892.86799092  6450.87963818
0.26000001 89803.44939532  3867.38573120
0.26100001 87754.41966900  3448.74885617
0.26200001 85749.48441986  4397.66251656
0.26300001 83784.71388627  4313.23727496
0.26400001 81860.72607314  3579.36041692
0.26500001 79978.01763224  3191.12305453
0.26600001 78134.39383657  3755.13914548
0.26700001 76331.44064995  3068.52405933
0.26800001 74567.14445433  4212.29818955
0.26900001 72840.74400089  3835.06535313
0.27000001 71153.30105215  3760.09637204
0.27100001 69503.22750703  4537.17090637
0.27200001 67890.52425461  4170.17564969
0.27300001 66314.02379414  4905.91171246
0.27400001 64772.59734394  3740.61767364
0.27500001 63269.16520580  3143.21227618
0.27600001 61799.03049266  3338.07479004
0.27700001 60365.26824528  3020.67816595
0.27800001 58964.71822687  3207.97564696
0.27900001 57598.63734616  3144.88574794
0.28000001 56265.65926240  2608.75741517
0.28100001 54965.37677829  2557.53910254
0.28200001 53698.16713652  2735.38476340
0.28300001 52462.81200591  3799.35702529
0.28400001 51259.14979020  2410.46163297
0.28500001 50086.81867155  2578.46954725
0.28600001 48944.38699340  2317.76155578
0.28700001 47832.73569913  2479.64913601
0.28800001 46750.14937071  2634.60479249
0.28900001 45698.29176152  2783.02610001
0.29000001 44674.03573084  2145.02392715
0.29100001 43679.42020657  2487.10630429
0.29200001 42712.13522914  2628.07780505
0.29300001 41772.45624688  1842.16540769
0.29400001 40859.89417614  1988.85544317
0.29500001 39975.07996478  1774.89363445
0.29600001 39115.43353904  2439.62970532
0.29700001 38281.44028074  2395.65264617
0.29800001 37473.68266025  2184.90317094
0.29900001 36690.76541300  2146.40987827
0.30000001 35932.33656216  1784.57957984
0.30100001 35198.96117602  1913.41562011
0.30200001 34488.25977609  2194.48807344
0.30300001 33801.57399153  2003.75740108
0.30400001 33138.53551558  1819.30568593
0.30500001 32496.85431547  1939.08738881
0.30600001 31877.77036927  1614.76853450
0.30700001 31280.99840013  1589.70041396
0.30800001 30705.52189773  1850.16130954
0.30900001 30150.82861101  1682.41631615
0.31000001 29617.79884010  1796.17149570
0.31100001 29103.40183106  1634.44712422
0.31200001 28610.14743298  1477.57113413
0.31300001 28135.62739585  1590.22573570
0.31400001 27681.95985800  1438.76993174
0.31500001 27246.06207717  1420.60974397
0.31600002 26828.67067821  1658.41435650
0.31700002 26429.05224754  1260.66585190
0.31800002 26047.70917536  1495.65953167
0.31900002 25683.93045426  1479.39446421
0.32000002 25336.86638323  1585.96122635
0.32100002 25006.94564394  1811.75329769
0.32200002 24693.56795528  1435.68410890
0.32300002 24395.44831289  1541.30449739
0.32400002 24113.56625637  2115.96553919
0.32500002 23846.50810757  1282.70373184
0.32600002 23595.13996809  1388.81000428
0.32700002 23358.26219897  1379.07186553
0.32800002 23136.47834735  1484.32083866
0.32900002 22927.62530921  1588.88450917
0.33000002 22734.25679715  1241.63149377
0.33100002 22552.01296505  1460.01738850
0.33200002 22385.24078440  1229.95711314
0.33300002 22230.34648153  1336.48849376
0.33400002 22088.67417416  1442.94270876
0.33500002 21958.65295131  1438.73100950
0.33600002 21840.79518979  1545.67314878
0.33700002 21733.83317141  1432.47701217
0.33800002 21639.83547704  1210.42425473
0.33900002 21555.64946407  1209.27199220
0.34000002 21483.13590180  1318.63494410
0.34100002 21420.87435263  1428.55817823
0.34200002 21369.97953827  1099.48549931
0.34300002 21327.70202331  1320.61137183
0.34400002 21296.20841695  1102.07883777
0.34500002 21273.74291406  1435.33950239
0.34600002 21261.80300267  1438.67996831
0.34700002 21256.85101817  1220.56844327
0.34800002 21262.13447876  1446.99463048
0.34900002 21275.71464646  1452.06759339
0.35000002 21297.61972026  1457.71565079
0.35100002 21327.56724027  1238.70516398
0.35200002 21364.71911362  1357.51431678
0.35300002 21409.76592950  1364.23034964
0.35400002 21462.69446228  1371.46624110
0.35500002 21522.37402550  1379.15379288
0.35600002 21588.54337341  1502.88651812
0.35700002 21661.47228559  1744.83167525
0.35800002 21741.58406938  1522.01966487
0.35900002 21827.38108142  1650.15008792
0.36000002 21920.01435984  1543.05948395
0.36100002 22017.51005521  1434.66102315
0.36200002 22121.98802103  1565.90499624
0.36300002 22229.91975638  1335.12904381
0.36400002 22344.11656594  1712.67661590
0.36500002 22462.69676710  1973.12337748
0.36600002 22586.82803548  1616.42642493
0.36700002 22715.05135762  1630.03216263
0.36800002 22849.10336497  1644.10731051
0.36900002 22986.43597106  1403.32198251
0.37000002 23127.08472111  1544.42679083
0.37100002 23272.05325017  1428.43869616
0.37200002 23421.23862003  1834.58570801
0.37300002 23573.26885970  1983.69066851
0.37400002 23729.80557766  1468.28178967
0.37500002 23888.37275606  1347.30428727
0.37600002 24051.05067110  1496.09567787
0.37700002 24215.41641250  1784.91842832
0.37800002 24383.49998890  1524.82224404
0.37900002 24553.96455367  1679.49125503
0.38000002 24726.81393539  1413.13748335
0.38100002 24901.42662532  2568.33326380
0.38200002 25078.51312580  2161.14097100
0.38300002 25257.28102498  1745.78334715
0.38400002 25438.61300457  1615.98796767
0.38500002 25620.45614563  2076.79427355
0.38600002 25805.09681457  2396.77750568
0.38700002 25989.96973491  1815.13957228
0.38800002 26176.17374136  2291.06971525
0.38900002 26363.75199720  1542.27956490
0.39000002 26552.97259098  1713.06510787
0.39100002 26742.13976179  2044.16926024
0.39200002 26932.70328732  1746.45122741
0.39300002 27123.44566025  1763.29528591
0.39400002 27315.47611405  1618.44203643
0.39500002 27507.08366307  1960.70501640
0.39600002 27698.92476181  2474.20657157
0.39700002 27890.67899607  1998.08833794
0.39800002 28083.53951107  2185.03989518
0.39900002 28275.32849266  2544.77968491
0.40000002 28467.08636360  1712.29532590
0.40100002 28658.44836558  1900.91497015
0.40200002 28850.49995229  2092.81536570
0.40300002 29040.96276162  2287.84715476
0.40400002 29230.88195794  1775.77616308
0.40500002 29420.43303040  2508.38623902
0.40600002 29609.21107867  2349.93514860
0.40700002 29797.13478626  2917.73557652
0.40800002 29984.30612858  2023.49099496
0.40900002 30169.73057101  2412.07007344
0.41000002 30354.77604819  2058.50923524
0.41100002 30538.34817258  2264.72400779
0.41200002 30720.06886595  2093.41919206
0.41300002 30900.84634069  2878.41397302
0.41400002 31080.20910516  1934.74310847
0.41500002 31258.38165530  2340.62772926
0.41600002 31433.80694346  2556.04013272
0.41700002 31608.40481891  2576.40119887
0.41800002 31782.11420201  1997.50597225
0.41900002 31952.05195963  3019.46905326
0.42000002 32120.86343991  3448.33545799
0.42100002 32288.30516538  2248.23479520
0.42200002 32453.66409981  2059.18508471
0.42300002 32616.41820596  2489.28515543
0.42400002 32777.10740349  2298.49476559
0.42500002 32936.03249611  2315.07383385
0.42600002 33091.43989611  2967.30955609
0.42700002 33245.90988255  3201.58127340
0.42800002 33397.41992864  3653.51092622
0.42900002 33547.13525331  2812.92742429
0.43000002 33694.45555355  2614.01598572
0.43100002 33837.83141705  2411.96073770
0.43200002 33979.66002429  2427.67692548
0.43300002 34118.58399714  2221.11992347
0.43400002 34255.18659123  2458.66613410
0.43500002 34388.72566462  3598.43642407
0.43600002 34520.53913165  2262.82144731
0.43700002 34648.72004551  2959.34731933
0.43800002 34773.27655344  2976.76648042
0.43900002 34896.28464122  2303.15489547
0.44000002 35015.60965934  3011.16749535
0.44100002 35132.73234205  2795.16031760
0.44200002 35246.69895771  2810.57190808
0.44300002 35358.01974419  2354.84422656
0.44400002 35465.68280477  2840.80132729
0.44500002 35569.75790636  2855.54030005
0.44600002 35671.57549198  2391.77925009
0.44700002 35770.59118654  2644.16222582
0.44800002 35865.42548844  2898.64382535
0.44900002 35958.55397862  3155.36326116
0.45000002 36048.18660962  2926.39192766
0.45100002 36133.49642020  2939.82140807
0.45200002 36216.65843751  4429.65970343
0.45300002 36296.11236432  3213.29497990
0.45400002 36372.86156458  3475.42708721
0.45500002 36446.32377682  4237.97872962
0.45600002 36516.13995736  2753.49966398
0.45700002 36582.92549570  2513.24710067
0.45800002 36645.87558301  3027.68238416
0.45900002 36705.87258665  2785.97586137
0.46000002 36763.35225688  2542.18592905
0.46100002 36816.23650841  2806.50184205
0.46200002 36866.82508516  3328.52146057
0.46300002 36913.55338432  2826.10178105
0.46400002 36956.65525296  2577.72682607
0.46500002 36997.34773096  3620.56062055
0.46600002 37033.90675116  3113.07034905
0.46700002 37067.26618369  4163.39553508
0.46800002 37097.87618101  3653.76999824
0.46900002 37124.54434827  3402.46465078
0.47000002 37147.57440863  3149.37150763
0.47100002 37167.80118965  3420.92458364
0.47200002 37184.48165138  2902.06300803
0.47300002 37198.44616401  3173.77157714
0.47400002 37207.73391430  4506.78698398
0.47500002 37214.90901667  4251.43140757
0.47600002 37218.96415881  2929.31871296
0.47700002 37218.62317407  3736.00557129
