# SAXS profile: number of points = 501, q_min = 0, q_max = 0.5, delta_q = 0.001
#    q    intensity    error
0.00000000 1646666.22097351 395.19989303
0.00100000 1646598.22260446 592.77537422
0.00200000 1646394.17345570 1111.31610227
0.00300000 1646054.24634923 1283.92235789
0.00400000 1645578.30973475 1357.60215712
0.00500000 1644966.78284850 1776.56419579
0.00600000 1644219.48330340 1899.07358053
0.00700000 1643336.98368424 2169.20490862
0.00800000 1642318.74271792 3103.98255479
0.00900000 1641166.13544681 3446.44903177
0.01000000 1639878.35043096 2976.37933455
0.01100000 1638456.55588788 4128.91070061
0.01200000 1636900.24497146 3511.15117941
0.01300000 1635210.83752384 5150.91436538
0.01400000 1633387.54742908 4777.65878803
0.01500000 1631432.08409192 6264.69948187
0.01600000 1629343.43849046 4154.82595389
0.01700000 1627123.63477013 4832.55741205
0.01800000 1624772.27142132 6019.78153649
0.01900000 1622290.04072318 4866.87034178
0.02000000 1619677.54900908 7142.77831424
0.02100000 1616936.49461885 5869.47974158
0.02200000 1614064.95401342 7795.93408207
0.02300000 1611065.94329325 6959.80519183
0.02400000 1607939.30911304 7235.72722094
0.02500000 1604686.32509540 6258.27695369
0.02600000 1601307.15279136 7133.82369197
0.02700000 1597802.97195930 6710.77278959
0.02800000 1594173.50698436 9015.05159542
0.02900000 1590421.41410732 13598.10371496
0.03000000 1586546.98076488 9590.67693956
0.03100000 1582550.29244880 9875.11427927
0.03200000 1578432.50249421 9375.88949665
0.03300000 1574196.47031444 8831.24260559
0.03400000 1569839.88419793 9889.99172677
0.03500000 1565366.53804887 8452.97969581
0.03600000 1560775.73956407 10394.76690588
0.03700000 1556069.49970675 9756.55621438
0.03800000 1551249.24950428 14519.69364733
0.03900000 1546315.80214973 11133.47429107
0.04000000 1541268.50515623 15166.08279352
0.04100000 1536111.10982602 13548.50061686
0.04200000 1530843.94633714 13823.52147674
0.04300000 1525467.19958098 15102.12597686
0.04400000 1519984.27861484 11285.88379285
0.04500000 1514394.91865425 11494.25796667
0.04600000 1508699.55493713 11699.96559243
0.04700000 1502901.30133019 10820.88987283
0.04800000 1497000.27424174 11002.95252762
0.04900000 1490999.23789714 13418.99376569
0.05000000 1484897.66544105 13631.36120351
0.05100000 1478699.05941052 13840.62384083
0.05200000 1472401.46756513 18728.94754022
0.05300000 1466010.38252277 14249.62158241
0.05400000 1459523.96409075 15653.39524485
0.05500000 1452946.48370792 17086.65144549
0.05600000 1446276.21882336 17311.92714716
0.05700000 1439518.13016488 15028.56998043
0.05800000 1432670.95796301 15214.96628399
0.05900000 1425736.51190827 16681.11796843
0.06000000 1418717.74368349 15577.52155341
0.06100000 1411615.85246994 17066.43645390
0.06200000 1404431.53281768 14599.06646605
0.06300000 1397167.95739466 20119.21952716
0.06400000 1389823.15261321 18971.08692039
0.06500000 1382403.62394149 17791.53547238
0.06600000 1374906.59865143 19344.93674815
0.06700000 1367335.54697294 20920.23484773
0.06800000 1359693.25108379 22516.52129193
0.06900000 1351980.42365951 15615.37462436
0.07000000 1344196.68739631 15747.26493027
0.07100000 1336346.91187467 14432.54732423
0.07200000 1328429.93547344 16000.93932237
0.07300000 1320450.46116606 16122.70088628
0.07400000 1312407.72973242 16241.04641656
0.07500000 1304304.30183944 19329.79065930
0.07600000 1296140.11750086 16467.46096485
0.07700000 1287920.68728392 18082.40729732
0.07800000 1279644.52373266 22745.68247603
0.07900000 1271313.46003907 15255.76223602
0.08000000 1262931.24046067 18413.53834972
0.08100000 1254498.14763226 23145.49190976
0.08200000 1246014.87972417 21718.04037272
0.08300000 1237484.81623820 24947.69506621
0.08400000 1228908.81536676 18802.30575767
0.08500000 1220290.07898816 17315.91703374
0.08600000 1211628.04108089 17392.92134634
0.08700000 1202926.48227682 20642.21940518
0.08800000 1194183.66566082 20725.05849087
0.08900000 1185406.11413283 25604.77326792
0.09000000 1176592.27401675 20878.63088321
0.09100000 1167744.76197314 19337.85416679
0.09200000 1158864.56696655 21016.00990941
0.09300000 1149955.06448198 27564.42419094
0.09400000 1141014.67879515 21137.29791808
0.09500000 1132047.79801563 22822.08468069
0.09600000 1123055.30357939 16340.45543521
0.09700000 1114040.06459386 16376.38971943
0.09800000 1105002.99138100 22973.01327095
0.09900000 1095946.11648968 18083.11177239
0.10000000 1086868.60877601 21405.87825650
0.10100000 1077774.05275504 19787.93253924
0.10200000 1068664.06082912 16510.86051642
0.10300000 1059539.68084969 19834.58375854
0.10400000 1050403.66460713 18198.24434546
0.10500000 1041258.71005256 19867.21712254
0.10600001 1032100.84040563 21534.78504835
0.10700001 1022938.19799475 24857.39938100
0.10800001 1013767.57814478 23205.14095581
0.10900001 1004593.34528777 23206.10736836
0.11000001 995415.64267124 23203.13972283
0.11100001 986236.48128224 28166.91523133
0.11200001 977058.36604561 16561.14008412
0.11300001 967880.28351988 21515.97971564
0.11400001 958706.42149036 26460.29847900
0.11500001 949537.03791756 24782.91785663
0.11600001 940373.10909427 19804.25861014
0.11700001 931217.85886157 19779.06825371
0.11800001 922069.44832646 18104.83447060
0.11900001 912931.79403322 24649.15959991
0.12000001 903805.62213754 19684.88737741
0.12100001 894693.90925146 21284.76910378
0.12200001 885595.54454593 19607.08627996
0.12300001 876513.28082358 22824.40690800
0.12400001 867447.38100491 19517.56699223
0.12500001 858399.91412343 19468.51096969
0.12600001 849373.72122915 21034.74119747
0.12700001 840368.29671799 17748.57926311
0.12800001 831383.78219425 19304.73233237
0.12900001 822423.53095571 24055.88941426
0.13000001 813487.49602356 17583.53305535
0.13100001 804577.11349613 17523.69035797
0.13200001 795694.48306249 15874.10568541
0.13300001 786841.46742057 20560.16851297
0.13400001 778016.23306257 17330.31240852
0.13500001 769222.59511210 17261.35584816
0.13600001 760459.54400368 15627.44436612
0.13700001 751730.43638695 17116.90284365
0.13800001 743033.75927125 17041.48007249
0.13900001 734374.40685798 18506.23592554
0.14000001 725749.63895854 15349.60558787
0.14100001 717162.42243881 16803.11635023
0.14200001 708612.05929975 19759.64820554
0.14300001 700103.37553199 22683.35043716
0.14400001 691630.69528953 21060.15566497
0.14500001 683202.84750126 16458.35737268
0.14600001 674814.17705206 19343.54929772
0.14700001 666471.47014256 20713.93426924
0.14800001 658169.82785334 22065.14451979
0.14900001 649912.54795834 17547.63962279
0.15000001 641701.10598336 17441.43688357
0.15100001 633536.16731017 21666.93794436
0.15200001 625418.73960552 15788.69682636
0.15300001 617349.27880234 22817.23042126
0.15400001 609326.17301741 17000.20102944
0.15500001 601354.47529407 14071.69538597
0.15600001 593430.42276844 15372.81582734
0.15700001 585560.95992410 18041.13402675
0.15800001 577738.13127891 20668.58262203
0.15900001 569970.32894616 17783.07510249
0.16000001 562252.77148805 17651.92659408
0.16100001 554591.45980732 14824.23042042
0.16200001 546981.88166592 17385.81992947
0.16300001 539427.99850363 14596.92232860
0.16400001 531928.61494203 15798.28060961
0.16500001 524484.87696020 14365.64145816
0.16600001 517097.19820967 16839.27105473
0.16700001 509765.36847353 12846.08789206
0.16800001 502489.64827218 15285.73582218
0.16900001 495273.44505524 13892.42078977
0.17000001 488114.14914287 13772.14136838
0.17100001 481013.26215027 13651.15702445
0.17200001 473970.99762016 14759.45756288
0.17300001 466987.98885640 12188.38708474
0.17400001 460065.21088027 15699.72606272
0.17500001 453201.52181371 13160.97281503
0.17600001 446395.91533489 18962.89937903
0.17700001 439653.56990958 14086.50104522
0.17800001 432970.40962162 13950.30725691
0.17900001 426348.31909755 16115.96722310
0.18000001 419788.21710103 13676.70075917
0.18100001 413290.44019281 13539.39546027
0.18200001 406851.45239555 13401.68747498
0.18300001 400476.85086325 12158.47776657
0.18400001 394162.91788769 13125.62578572
0.18500001 387911.81554259 12987.28819791
0.18600001 381722.96777888 16060.99462807
0.18700001 375596.26410270 16946.90423697
0.18800001 369531.77522583 14666.71685166
0.18900001 363531.65995719 11396.71807812
0.19000001 357590.37329865 11269.46114698
0.19100001 351716.93292098 17220.06184946
0.19200001 345902.05792220 15020.79757502
0.19300001 340153.15081084 13857.84001885
0.19400001 334465.98683258 13696.38280800
0.19500001 328842.19206036 9667.96090344
0.19600001 323279.75988084 9552.91735591
0.19700001 317781.38204366 10381.91824199
0.19800001 312345.61236930 11188.22036381
0.19900001 306973.44814682 10130.12426759
0.20000001 301661.93963684 15461.68344682
0.20100001 296415.06761020 13472.06545960
0.20200001 291229.26258987 10641.51775799
0.20300001 286106.61109082 9630.34898449
0.20400001 281046.20611033 12099.03974492
0.20500001 276047.15825357 11941.80063050
0.20600001 271110.83974165 8417.99197188
0.20700001 266235.84610006 10798.52642825
0.20800001 261422.66054541 10654.28103416
0.20900001 256672.99507050 12936.31956307
0.21000001 251982.09455733 10367.80377067
0.21100001 247352.51655632 10225.55351783
0.21200001 242783.78369362 11635.41338357
0.21300001 238275.56873723 13767.56301251
0.21400001 233828.63682593 9049.16867298
0.21500001 229442.33526323 8177.32521539
0.21600001 225114.70268647 9525.72909454
0.21700001 220846.97476710 8666.03569959
0.21800001 216639.00107642 7116.59152184
0.21900001 212488.81885754 7012.13135384
0.22000001 208397.05226445 11053.38017474
0.22100001 204366.12452686 9527.54917594
0.22200001 200392.11136834 8043.73973067
0.22300001 196475.80014575 7261.74591676
0.22400001 192615.50113895 9751.16020626
0.22500001 188815.47598178 7040.92943231
0.22600001 185069.94446702 6301.63190709
0.22700001 181382.07527277 11165.88108182
0.22800001 177749.68895619 8547.98294614
0.22900001 174172.67059350 6008.95741964
0.23000001 170651.11613777 6504.36759919
0.23100001 167185.94793393 6981.68551590
0.23200001 163773.67286612 8013.44619232
0.23300001 160416.41618980 6756.73976947
0.23400001 157113.12892837 7199.70947366
0.23500001 153861.87398970 8170.06589527
0.23600001 150664.67787647 7498.58137257
0.23700001 147519.75951930 6319.74679672
0.23800001 144426.82520012 5177.70192832
0.23900001 141385.82884287 7125.84611073
0.24000001 138395.92610118 5503.31426172
0.24100001 135458.12963029 7867.40854107
0.24200001 132569.96487704 5315.39299317
0.24300001 129731.88225561 7122.28067274
0.24400001 126942.72651478 5598.17450412
0.24500001 124203.22227845 6874.64867831
0.24600001 121512.66457020 5402.45332235
0.24700001 118870.60804430 4421.98682843
0.24800001 116275.52053753 4342.89089752
0.24900001 113727.54919845 5544.21828571
0.25000001 111227.23804147 5025.24685245
0.25100001 108772.30520148 5345.07133047
0.25200001 106364.81939025 4440.19959551
0.25300001 104002.66358236 4358.75183695
0.25400001 101684.60929641 5445.21108544
0.25500001 99411.44187862  4962.61941337
0.25600001 97182.66191696  3746.39179415
0.25700001 94997.29176817  4044.03490191
0.25800001 92854.86954272  3607.41185242
0.25900001 90755.60088385  4247.36232233
0.26000001 88699.02858444  4514.33727340
0.26100001 86682.16125434  3747.27000833
0.26200001 84708.64492846  3675.93182060
0.26300001 82774.78997082  3605.67002174
0.26400001 80881.26618539  4179.53962790
0.26500001 79028.28592380  4099.19738484
0.26600001 77213.72862352  4638.61496656
0.26700001 75439.33939855  3032.66158733
0.26800001 73702.94944805  4460.87122644
0.26900001 72003.91590623  4082.62222508
0.27000001 70343.21686914  3431.34228126
0.27100001 68719.24823805  3644.86909903
0.27200001 67132.23758269  3573.78483684
0.27300001 65580.66783880  3234.43869088
0.27400001 64063.80883300  3435.42191125
0.27500001 62584.19619546  2590.98584511
0.27600001 61137.31925430  2540.25573524
0.27700001 59726.41066750  2988.70973125
0.27800001 58348.07875515  2930.24065376
0.27900001 57003.62631938  2872.98290247
0.28000001 55691.73966901  2816.88832578
0.28100001 54411.98836671  3222.27810358
0.28200001 53164.85501322  2708.21784255
0.28300001 51949.03876548  2213.02915615
0.28400001 50764.36015396  2170.17649930
0.28500001 49610.47256353  2979.60512319
0.28600001 48485.95373501  3548.44469205
0.28700001 47391.71856685  2047.32233899
0.28800001 46326.06204409  2209.05837313
0.28900001 45290.47024455  2167.14910378
0.29000001 44282.19075712  2126.20948985
0.29100001 43303.14413922  2276.01336369
0.29200001 42350.68613771  2047.44401824
0.29300001 41425.44654841  2009.54850719
0.29400001 40526.83756567  2151.97517660
0.29500001 39655.64897458  2817.13743651
0.29600001 38808.93433752  2939.19478119
0.29700001 37987.58417924  2037.65411183
0.29800001 37191.88733362  2168.47309364
0.29900001 36420.73982869  2458.40005481
0.30000001 35673.45085919  2415.98457381
0.30100001 34950.74215459  1583.26869456
0.30200001 34250.48587766  1712.35312252
0.30300001 33573.73585392  1837.15491290
0.30400001 32920.15012659  2560.36479731
0.30500001 32287.57523147  2222.99965993
0.30600001 31677.22338655  2479.85155022
0.30700001 31088.74277266  1436.29998410
0.30800001 30521.11121676  1839.04964343
0.30900001 29973.83870780  1533.16192249
0.31000001 29448.02553683  1648.50054760
0.31100001 28940.22649784  1896.16372991
0.31200001 28453.39202995  1335.88681905
0.31300001 27984.73352060  1845.31341572
0.31400001 27536.64564175  1431.21722499
0.31500001 27106.13590861  1798.76326406
0.31600002 26693.50595567  1650.05914878
0.31700002 26298.47230672  1505.32462611
0.31800002 25921.28304505  1240.33345243
0.31900002 25561.33892799  1349.63875930
0.32000002 25217.75894272  1821.35272588
0.32100002 24890.96831638  1322.45720927
0.32200002 24580.59570455  1548.20889376
0.32300002 24285.06600550  1298.27969013
0.32400002 24005.44340131  1638.37158972
0.32500002 23740.42156521  1276.99733646
0.32600002 23490.67105618  1152.21746987
0.32700002 23255.23016471  1144.15737828
0.32800002 23034.51440792  1136.75333986
0.32900002 22826.54962911  1242.90568616
0.33000002 22633.64929342  1573.26503689
0.33100002 22451.75579570  1341.71698989
0.33200002 22284.96298421  1224.44734915
0.33300002 22129.95548669  1330.45298686
0.33400002 21987.79214342  1325.86392904
0.33500002 21857.06283658  1432.07482487
0.33600002 21738.30516857  1208.75851614
0.33700002 21630.12036658  1206.31186997
0.33800002 21534.79692474  1095.04447548
0.33900002 21448.92415547  2297.17988584
0.34000002 21374.68339941  1202.64661842
0.34100002 21310.43045402  1202.54764747
0.34200002 21257.26685266  1859.26693332
0.34300002 21212.57185851  1313.48251168
0.34400002 21178.46131014  1315.18250965
0.34500002 21153.17668593  1646.77488299
0.34600002 21138.32780574  1320.30001728
0.34700002 21130.22963065  1433.89745065
0.34800002 21132.19200253  1216.89733410
0.34900002 21142.35386989  1220.97099381
0.35000002 21160.58300021  1336.92569727
0.35100002 21186.76223761  1454.25942887
0.35200002 21220.07423874  1348.32358099
0.35300002 21261.00926941  1693.43946852
0.35400002 21309.76189130  1248.21936190
0.35500002 21365.12774125  1483.16723805
0.35600002 21426.83482400  1147.40705917
0.35700002 21495.19819847  2077.72595627
0.35800002 21570.63283929  1510.05222344
0.35900002 21651.64582970  1403.02671622
0.36000002 21739.49645905  1412.63254682
0.36100002 21831.90675867  1896.75614904
0.36200002 21931.30862195  1552.40775434
0.36300002 22034.07362838  1443.67257251
0.36400002 22142.96188813  1454.79266496
0.36500002 22256.26756090  1466.24297636
0.36600002 22375.05007732  1478.09587812
0.36700002 22497.74947255  1490.25099565
0.36800002 22626.27201590  1753.30990156
0.36900002 22758.06975388  1894.60939676
0.37000002 22893.03182290  1910.99592194
0.37100002 23032.38539717  1413.72788265
0.37200002 23175.74949154  1426.35157002
0.37300002 23322.02809448  1439.20242189
0.37400002 23472.71582530  1848.47645881
0.37500002 23625.52438118  1598.97556586
0.37600002 23782.29256412  1479.37757903
0.37700002 23940.77041538  2171.90679497
0.37800002 24103.00550296  1370.25592776
0.37900002 24267.46670370  2351.51763499
0.38000002 24434.38695129  1675.71033650
0.38100002 24603.10980852  1832.68573646
0.38200002 24774.18527187  1565.60471242
0.38300002 24947.03512390  1580.64422033
0.38400002 25122.46455217  1595.90463628
0.38500002 25298.21741077  2050.67360047
0.38600002 25477.03915086  1922.62485060
0.38700002 25656.00074658  2239.76897129
0.38800002 25836.34266221  2261.32599864
0.38900002 26018.01274780  1674.25919964
0.39000002 26201.45394402  2151.40148527
0.39100002 26384.80681741  1861.71205724
0.39200002 26569.59149541  2662.67173786
0.39300002 26754.60551350  1739.31698684
0.39400002 26940.97486501  2394.37925457
0.39500002 27126.93665050  2578.14418141
0.39600002 27313.18921642  1789.15054439
0.39700002 27499.48483557  2134.23511920
0.39800002 27686.74299423  2154.16714073
0.39900002 27873.09023780  2006.86259220
0.40000002 28059.61344759  2362.90016037
0.40100002 28245.56177247  2043.84894669
0.40200002 28432.36390504  2062.48377539
0.40300002 28617.67200711  2774.76960928
0.40400002 28802.41702958  2274.67099269
0.40500002 28986.96753387  2471.42896904
0.40600002 29170.79625865  1958.96491557
0.40700002 29353.81747881  1976.09908630
0.40800002 29536.24446546  1993.25355219
0.40900002 29716.89637205  2193.10705617
0.41000002 29897.32647540  2027.48729100
0.41100002 30076.37912267  2416.33641321
0.41200002 30253.65672769  2061.63553539
0.41300002 30430.07296073  2078.67838244
0.41400002 30605.17335768  2095.68934497
0.41500002 30779.15247264  2112.68112583
0.41600002 30950.51055522  2129.54997966
0.41700002 31121.15442774  2146.42612259
0.41800002 31290.92993555  2359.96204756
0.41900002 31457.15344545  1981.80076097
0.42000002 31622.20120393  1996.94210065
0.42100002 31786.14684472  2012.06319061
0.42200002 31948.04813171  2432.52450001
0.42300002 32107.45768799  2042.03440572
0.42400002 32264.85935535  2468.26185764
0.42500002 32420.69895704  2486.01931383
0.42600002 32573.12098714  2503.57019771
0.42700002 32724.71071569  2311.01918025
0.42800002 32873.42854120  2538.48627224
0.42900002 33020.52458935  2981.75351171
0.43000002 33165.24327507  2787.37300314
0.43100002 33306.20109793  2805.71451345
0.43200002 33445.74747149  2606.76168146
0.43300002 33582.51161486  2186.22160973
0.43400002 33717.03233413  2200.03646406
0.43500002 33848.69109371  2213.70450243
0.43600002 33978.67968454  2895.49332653
0.43700002 34105.10731071  2688.84678780
0.43800002 34228.15359512  2930.10122737
0.43900002 34349.73963232  2720.49950780
0.44000002 34467.69792026  2736.04599057
0.44100002 34583.68205805  2751.47787493
0.44200002 34696.59974540  2536.14807858
0.44300002 34807.00840875  2318.14686988
0.44400002 34913.91134269  2796.60443108
0.44500002 35017.28075094  2342.65619326
0.44600002 35118.50145243  3061.10432417
0.44700002 35217.09110258  3076.56522452
0.44800002 35311.71809264  2853.89319150
0.44900002 35404.62922189  3584.71887860
0.45000002 35494.20370453  2641.30129385
0.45100002 35579.64300156  3135.98988278
0.45200002 35662.95010440  2907.95708933
0.45300002 35742.82890568  2677.49544022
0.45400002 35820.03282153  3422.60429831
0.45500002 35894.08268328  2946.18644627
0.45600002 35964.56829522  2711.90840083
0.45700002 36032.27041244  3218.04222305
0.45800002 36096.19620743  2982.26787200
0.45900002 36157.26275621  2744.33637326
0.46000002 36215.98249211  2754.76883882
0.46100002 36270.31971939  3267.59325839
0.46200002 36322.33610764  2522.58636223
0.46300002 36370.62829004  2784.53543386
0.46400002 36415.45839439  3301.97184641
0.46500002 36457.98803188  2803.25483263
0.46600002 36496.50600609  3323.55447697
0.46700002 36531.96631395  4616.17948222
0.46800002 36564.73003197  3086.79465560
0.46900002 36593.74791640  2579.85935038
0.47000002 36619.27504192  3104.58228520
0.47100002 36642.02991216  3891.38376111
0.47200002 36661.40350519  3901.69005297
0.47300002 36678.06518168  2607.81055802
0.47400002 36690.30520976  3137.02124412
0.47500002 36700.46900672  2882.45497241
0.47600002 36707.61392909  2626.42990111
0.47700002 36710.54703668  2895.36098202
