# SAXS profile: number of points = 501, q_min = 0, q_max = 0.5, delta_q = 0.001
#    q    intensity    error
0.00000000 1682732.95097188 353.37391970
0.00100000 1682663.64575602 555.27901629
0.00200000 1682455.67994287 832.81558794
0.00300000 1682109.22213853 1513.89835385
0.00400000 1681624.12486490 2017.94902652
0.00500000 1681000.88708084 2269.35128738
0.00600000 1680239.19538592 1940.67634968
0.00700000 1679339.73786252 2619.77009994
0.00800000 1678301.96006469 2492.27851592
0.00900000 1677127.20396881 2767.26000484
0.01000000 1675814.62650413 3041.60367844
0.01100000 1674365.53388219 3918.01551987
0.01200000 1672779.30459890 3588.11176568
0.01300000 1671057.40556459 4561.98691840
0.01400000 1669199.04853909 4882.40743342
0.01500000 1667206.01428637 4401.42407371
0.01600000 1665077.15937012 4670.54164082
0.01700000 1662814.64622367 6285.43964468
0.01800000 1660417.98151672 5678.62975231
0.01900000 1657887.91921198 5471.03038027
0.02000000 1655225.14768096 5735.35539616
0.02100000 1652431.28416038 8179.53522744
0.02200000 1649504.45459162 7967.10687764
0.02300000 1646447.59969068 7112.65395442
0.02400000 1643260.64366074 6778.45046418
0.02500000 1639945.05708124 7035.36461619
0.02600000 1636500.64562582 8616.17629331
0.02700000 1632928.83515367 7544.13156394
0.02800000 1629229.33794434 8504.57753409
0.02900000 1625404.67176475 10240.04990228
0.03000000 1621455.36635492 9047.72136014
0.03100000 1617381.46381615 7763.43138354
0.03200000 1613183.99090596 11179.36557188
0.03300000 1608865.92791947 13948.86823811
0.03400000 1604425.15821927 10950.20221009
0.03500000 1599865.08978917 8639.27188381
0.03600000 1595185.33164731 9738.60689976
0.03700000 1590387.95610009 10878.25412282
0.03800000 1585474.09670539 9275.02389497
0.03900000 1580444.91992447 11379.20395043
0.04000000 1575299.62259492 12594.52106626
0.04100000 1570042.10123519 13847.77197497
0.04200000 1564672.54217427 10092.13836523
0.04300000 1559191.15564036 14406.92694686
0.04400000 1553601.59063592 12584.17346858
0.04500000 1547903.39728390 13884.69411879
0.04600000 1542097.03407957 14133.31997435
0.04700000 1536185.58679074 13272.64408716
0.04800000 1530169.46144744 25867.51594934
0.04900000 1524051.27877801 13716.46214747
0.05000000 1517830.54897574 15094.82551247
0.05100000 1511510.73359498 16505.69797976
0.05200000 1505090.01598219 11965.46618466
0.05300000 1498573.71586650 15779.98196370
0.05400000 1491960.36623530 14770.40831453
0.05500000 1485253.92831947 14971.36029586
0.05600000 1478452.67085083 13904.84801821
0.05700000 1471561.89133051 12802.58905218
0.05800000 1464580.22915316 15553.84275985
0.05900000 1457509.22596460 17052.85874025
0.06000000 1450352.24898652 26541.44739644
0.06100000 1443110.71157073 16105.11629374
0.06200000 1435784.77785389 16281.80014193
0.06300000 1428377.87269086 13712.42821896
0.06400000 1420888.16432352 16624.39230005
0.06500000 1413321.64788329 15391.07346541
0.06600000 1405676.37770145 19777.86755964
0.06700000 1397955.37661104 14259.14550875
0.06800000 1390161.73695919 17265.80958123
0.06900000 1382295.96718414 20319.75166896
0.07000000 1374357.69433328 14636.91013007
0.07100000 1366351.83074723 23610.56074118
0.07200000 1358277.25220874 19335.07759098
0.07300000 1350138.90852719 28474.43091502
0.07400000 1341935.93534028 22645.16997011
0.07500000 1333670.93729343 18244.61927734
0.07600000 1325343.67315282 21430.80819957
0.07700000 1316960.03070754 21571.80631446
0.07800000 1308518.13734035 17056.53472012
0.07900000 1300020.06634144 20280.31398615
0.08000000 1291469.87225667 20398.76758922
0.08100000 1282867.56341141 15779.27177030
0.08200000 1274213.88177865 17450.35992982
0.08300000 1265512.36957046 20729.09358642
0.08400000 1256763.36625425 19228.48040625
0.08500000 1247970.82084215 20928.47164801
0.08600000 1239133.95084046 17787.76869948
0.08700000 1230256.53627862 17863.32574559
0.08800000 1221337.09015861 17935.33601129
0.08900000 1212381.63689953 19640.58344028
0.09000000 1203388.96150157 24639.39014419
0.09100000 1194361.79444725 18130.41289150
0.09200000 1185301.09255195 21495.43632343
0.09300000 1176210.40856097 21559.93780207
0.09400000 1167087.88371926 16631.00312461
0.09500000 1157938.06695712 18341.73984271
0.09600000 1148761.88246889 20057.38341076
0.09700000 1139562.43049319 18426.72536737
0.09800000 1130340.38926024 21821.22224065
0.09900000 1121097.60847945 20179.75790153
0.10000000 1111833.87657646 18528.71242450
0.10100000 1102552.28155435 21929.76591151
0.10200000 1093254.95825081 16890.78989946
0.10300000 1083942.49362872 18600.45406565
0.10400000 1074618.21219904 18617.76140222
0.10500000 1065284.18145885 16938.01928212
0.10600001 1055937.07627026 30506.02356886
0.10700001 1046584.28739448 18650.13287900
0.10800001 1037223.48830894 23742.04676473
0.10900001 1027858.72259382 23743.53760942
0.11000001 1018490.34850551 23741.01114114
0.11100001 1009119.97846867 16953.21643632
0.11200001 999750.38512760 16945.76982567
0.11300001 990380.51623520 27096.81219993
0.11400001 981014.83049765 21999.25860973
0.11500001 971653.39874980 18597.44692779
0.11600001 962297.41906283 16888.32049985
0.11700001 952949.92032500 20240.65726094
0.11800001 943608.95683452 20212.10480735
0.11900001 934279.16196300 23543.83599042
0.12000001 924960.25916601 23503.24129253
0.12100001 915656.31803254 20107.81369124
0.12200001 906365.16766398 18394.68194434
0.12300001 897090.74573904 25028.83298534
0.12400001 887832.34775545 18311.54303525
0.12500001 878592.94748110 21587.02973680
0.12600001 869374.54782136 19873.90309972
0.12700001 860176.95152504 19818.47789711
0.12800001 851000.64625620 18113.54960924
0.12900001 841848.86836973 18057.65907763
0.13000001 832722.03129960 17999.28755493
0.13100001 823620.25414002 17938.44998075
0.13200001 814547.04816292 19500.25725227
0.13300001 805503.45782154 21047.80634513
0.13400001 796488.27908305 17741.77725302
0.13500001 787504.73628476 20884.62659094
0.13600001 778552.47147692 22398.95566052
0.13700001 769634.34004171 19117.71790810
0.13800001 760749.14909447 20620.10665856
0.13900001 751901.85324045 22105.91552774
0.14000001 743089.43062845 22002.87907858
0.14100001 734315.22872532 18769.09813143
0.14200001 725578.51840800 17120.02594931
0.14300001 716884.07982603 23227.04528193
0.14400001 708225.93962658 21565.48087887
0.14500001 699613.20266073 15321.52986102
0.14600001 691040.70287062 16761.19303882
0.14700001 682514.33142048 21212.54642128
0.14800001 674030.00110266 19583.94260598
0.14900001 665590.26661992 22463.67255828
0.15000001 657197.76962962 14885.53018445
0.15100001 648851.81163915 20711.35080479
0.15200001 640554.67711659 16170.80358686
0.15300001 632305.97917640 14606.26880823
0.15400001 624104.49783381 17412.51631128
0.15500001 615955.05268912 17296.01869576
0.15600001 607854.44294641 17177.96736838
0.15700001 599809.00491160 21323.21113100
0.15800001 591810.95655503 18349.09957404
0.15900001 583869.03264382 16815.42893384
0.16000001 575978.19483783 16691.84887430
0.16100001 568144.67240978 19328.28266776
0.16200001 560363.70678393 15070.98260540
0.16300001 552639.22162632 19032.89569131
0.16400001 544970.31121625 14836.81742330
0.16500001 537358.16077178 16056.26260190
0.16600001 529802.52176166 18580.17531541
0.16700001 522304.25781775 17110.68829399
0.16800001 514862.89055510 19577.66233774
0.16900001 507482.40751890 14234.88220305
0.17000001 500159.68745881 14112.00624801
0.17100001 492896.39254641 16531.74578666
0.17200001 485693.01115671 12603.73423470
0.17300001 478549.50831173 16237.18558381
0.17400001 471467.68659280 13613.63009328
0.17500001 464445.96697700 14713.64892872
0.17600001 457483.59019495 17004.66585066
0.17700001 450585.26015405 14436.75241719
0.17800001 443747.89352724 15489.02095515
0.17900001 436972.36673594 18877.20713463
0.18000001 430259.83376842 15186.02155017
0.18100001 423611.05108411 15033.95691313
0.18200001 417022.15405025 12591.98453637
0.18300001 410498.99574608 12462.75009958
0.18400001 404037.50738256 13454.44963144
0.18500001 397640.36950914 12203.58351676
0.18600001 391306.41277272 13171.37447619
0.18700001 385036.03465195 13029.62002820
0.18800001 378828.56911456 10739.79044181
0.18900001 372687.44595508 12745.91125388
0.19000001 366606.02491082 12603.91573195
0.19100001 360593.49242220 11423.60237970
0.19200001 354641.75068823 12320.25500106
0.19300001 348756.46896379 12178.57647169
0.19400001 342934.12073126 18055.48230969
0.19500001 337176.67969666 12886.89330698
0.19600001 331482.09263700 14692.94445047
0.19700001 325852.48652975 11613.38316874
0.19800001 320286.96937739 13384.79308283
0.19900001 314786.31128037 14165.38467707
0.20000001 309347.74233733 13057.56882117
0.20100001 303974.87099603 10131.48292913
0.20200001 298664.38539067 11822.63025447
0.20300001 293418.72185812 9876.47464455
0.20400001 288236.50419007 10635.92750733
0.20500001 283116.91313933 13122.46954427
0.20600001 278061.19722203 12087.32081458
0.20700001 273068.48222552 11927.63186742
0.20800001 268138.43676274 10087.36846785
0.20900001 263273.48697729 9951.73827817
0.21000001 258468.78739813 9816.64500944
0.21100001 253726.68417497 12102.76340728
0.21200001 249046.78663455 12731.27233462
0.21300001 244428.59161170 9415.38979400
0.21400001 239873.12489014 10830.27210081
0.21500001 235379.58017535 8388.92863406
0.21600001 230945.58051349 8269.00690123
0.21700001 226573.65453450 8149.85473893
0.21800001 222262.04979046 8031.43954891
0.21900001 218009.88391093 11510.92241475
0.22000001 213817.57435568 8505.66351004
0.22100001 209687.37689807 10473.88497130
0.22200001 205615.48313088 11004.54117751
0.22300001 201602.53355371 7451.22999248
0.22400001 197646.75724448 10672.92539589
0.22500001 193752.36079377 7225.02587565
0.22600001 189914.32493468 7113.24137680
0.22700001 186135.10548154 7638.98509020
0.22800001 182412.43653790 6265.86749139
0.22900001 178746.47853091 10483.48146161
0.23000001 175137.40482594 7282.21363705
0.23100001 171585.79280584 6568.30445924
0.23200001 168088.28527319 6462.15443295
0.23300001 164647.48377864 8090.77773553
0.23400001 161261.77415453 5684.47780780
0.23500001 157929.27925733 8945.11480021
0.23600001 154651.92209886 6597.45130878
0.23700001 151428.26575618 6487.18721183
0.23800001 148258.00796788 5315.04983704
0.23900001 145140.83138188 5225.07017689
0.24000001 142076.01533729 8217.67711581
0.24100001 139064.26201558 6057.63953993
0.24200001 136103.50680568 5457.07036350
0.24300001 133194.11952950 5849.88600645
0.24400001 130334.85213805 6226.74785544
0.24500001 127526.34698644 6117.43915432
0.24600001 124767.79952773 5547.17662941
0.24700001 122059.40786806 5448.73222499
0.24800001 119398.83349706 4905.50130629
0.24900001 116786.66220383 6131.30005576
0.25000001 114223.13219557 4730.55124367
0.25100001 111706.55245208 4644.75867070
0.25200001 109238.19150540 4560.14852013
0.25300001 106816.30614051 4883.64174779
0.25400001 104439.89028902 6791.20418734
0.25500001 102109.18553398 4705.19149202
0.25600001 99824.13796530  5387.50898088
0.25700001 97583.55145528  3776.48362000
0.25800001 95387.08032309  4446.94589507
0.25900001 93234.71834779  5090.61586265
0.26000001 91126.12924211  3567.58812863
0.26100001 89058.24242866  3849.98800236
0.26200001 87035.21173747  3433.53926551
0.26300001 85052.51144727  5388.92738029
0.26400001 83111.12773920  3303.66748396
0.26500001 81211.43223782  3564.36992958
0.26600001 79351.17228016  3495.81606022
0.26700001 77531.98160179  4363.50013103
0.26800001 75751.85883882  3362.24641367
0.26900001 74010.21679551  3297.15531427
0.27000001 72307.66711375  3233.23748799
0.27100001 70642.92418375  2882.23144309
0.27200001 69015.97684718  3674.06570133
0.27300001 67425.64652429  3048.31362362
0.27400001 65870.68516674  3532.31565923
0.27500001 64354.09301072  2930.68553440
0.27600001 62871.00575363  2873.51945396
0.27700001 61424.78742461  4098.26201093
0.27800001 60012.14732011  2762.65933263
0.27900001 58634.31178242  3940.22593826
0.28000001 57289.76757413  3380.66934455
0.28100001 55978.38315373  3315.04000726
0.28200001 54700.16657478  2322.02218100
0.28300001 53454.21959174  2732.57983486
0.28400001 52240.33527437  2903.25677029
0.28500001 51058.03745262  2628.46789247
0.28600001 49905.95422706  2363.29657428
0.28700001 48784.87986961  2529.00829215
0.28800001 47693.09457429  3101.24362148
0.28900001 46632.51085050  2637.06861342
0.29000001 45599.65568941  2786.59509108
0.29100001 44596.72094707  2539.33741093
0.29200001 43621.42798247  2492.31040575
0.29300001 42673.90143401  2634.68679925
0.29400001 41753.65143787  2217.11899630
0.29500001 40861.41930753  2721.37065470
0.29600001 39994.67672724  1781.76293254
0.29700001 39153.89596435  1750.17923246
0.29800001 38339.47535514  2407.33577151
0.29900001 37549.96348298  1858.72328040
0.30000001 36785.33300706  2325.20100945
0.30100001 36046.03160109  2449.32796325
0.30200001 35329.45981352  1766.29642699
0.30300001 34637.06311670  2053.28519876
0.30400001 33968.56759418  2331.09306151
0.30500001 33321.65962133  2600.08922335
0.30600001 32697.32268234  1656.28295889
0.30700001 32095.68175641  1631.10262408
0.30800001 31515.35144613  1606.81026955
0.30900001 30956.27839495  1583.41371487
0.31000001 30418.67559726  1844.74066893
0.31100001 29899.98874566  1539.25149350
0.31200001 29402.57749499  1380.45107875
0.31300001 28924.19908060  1498.56282532
0.31400001 28466.67891855  1748.56583536
0.31500001 28027.01991633  1594.17696832
0.31600002 27606.13902232  1443.93916993
0.31700002 27203.13074476  1816.62515715
0.31800002 26818.37682986  1796.56314890
0.31900002 26451.29495338  1523.59466146
0.32000002 26101.26390367  1633.80869141
0.32100002 25768.45503234  1244.61643699
0.32200002 25452.09328808  1849.73096730
0.32300002 25151.31026017  1466.82448383
0.32400002 24866.74555658  1818.38085493
0.32500002 24597.22003850  1683.92576357
0.32600002 24343.36029915  1432.85025506
0.32700002 24104.13162622  1541.70033182
0.32800002 23880.12209754  1414.18089758
0.32900002 23669.02958578  1288.77872197
0.33000002 23473.55560005  1748.19313610
0.33100002 23289.27200271  1507.74754085
0.33200002 23120.63341685  1385.85083263
0.33300002 22963.64854586  1265.52673129
0.33400002 22820.11499466  1490.72408262
0.33500002 22688.39645456  1257.84475901
0.33600002 22568.80472005  1369.02375915
0.33700002 22460.36039730  2049.73258693
0.33800002 22364.68202424  1137.24413479
0.33900002 22278.93661331  1363.47098531
0.34000002 22204.91144382  1249.35940155
0.34100002 22141.23289869  1363.01436179
0.34200002 22088.88614576  1250.12057062
0.34300002 22045.34533503  1365.04784779
0.34400002 22012.55310371  1366.97961248
0.34500002 21988.74966416  1711.82424243
0.34600002 21975.58633128  1258.21225499
0.34700002 21969.31223437  1834.87704472
0.34800002 21973.59512783  1725.47663913
0.34900002 21985.86838498  1269.68395937
0.35000002 22006.59611257  1158.64734020
0.35100002 22035.44534586  1628.86019711
0.35200002 22071.44338963  1519.28787768
0.35300002 22115.54784747  1291.76921095
0.35400002 22167.34118768  1652.57536381
0.35500002 22225.99127365  1542.92838730
0.35600002 22291.00118818  2029.26138928
0.35700002 22362.99637736  1561.16085105
0.35800002 22442.02454650  1329.35338698
0.35900002 22526.84079972  1338.09440688
0.36000002 22618.42479117  1347.26653650
0.36100002 22714.98211808  1850.13538115
0.36200002 22818.34492462  1615.19662200
0.36300002 22925.30923027  1627.23852624
0.36400002 23038.40265324  1639.75838652
0.36500002 23155.97321987  2669.65227897
0.36600002 23279.00813392  1409.66040432
0.36700002 23406.24739521  1550.42990090
0.36800002 23539.30778323  1302.90074752
0.36900002 23675.54027257  1313.99254737
0.37000002 23815.01136647  1722.89707892
0.37100002 23958.91310964  1470.59815633
0.37200002 24106.96113348  2158.05526290
0.37300002 24257.89316612  1769.12823241
0.37400002 24413.25606800  1647.89486265
0.37500002 24570.68604807  1662.94411051
0.37600002 24732.16531360  2237.76642358
0.37700002 24895.35400428  1835.03663058
0.37800002 25062.16220117  1994.69758408
0.37900002 25231.34145845  1869.64249064
0.38000002 25402.92527646  1887.31042282
0.38100002 25576.24512543  2491.38215569
0.38200002 25752.00769008  1479.45291188
0.38300002 25929.39812882  2090.94676416
0.38400002 26109.23383619  1658.58915802
0.38500002 26289.79807029  1674.39731842
0.38600002 26472.89461994  1997.77708714
0.38700002 26656.31467629  1551.39758766
0.38800002 26841.00710268  2192.64197410
0.38900002 27027.03333355  2055.40598239
0.39000002 27214.55106495  2234.58689381
0.39100002 27402.09127845  2094.61595656
0.39200002 27591.00283525  1789.13866361
0.39300002 27780.01641337  2298.51866694
0.39400002 27970.34861752  2320.14052775
0.39500002 28160.06924452  2007.24983085
0.39600002 28350.16378876  2025.90280033
0.39700002 28539.95738369  2385.36975114
0.39800002 28731.00549817  1891.50583659
0.39900002 28920.93552610  1908.78183516
0.40000002 29110.60344701  2101.20345636
0.40100002 29299.88422372  2650.17465360
0.40200002 29489.89753873  2139.19726881
0.40300002 29678.18056351  2158.19739283
0.40400002 29866.08814964  1995.80143516
0.40500002 30053.31630461  2379.32116457
0.40600002 30239.97584601  2769.22591931
0.40700002 30425.47357880  2606.85469975
0.40800002 30610.31645336  2065.73730373
0.40900002 30793.22796241  2083.16197036
0.41000002 30975.96357587  1909.66824494
0.41100002 31157.02775508  2503.15572845
0.41200002 31336.25685623  2911.92180634
0.41300002 31514.48771120  2544.16471347
0.41400002 31691.00338398  3550.97709743
0.41500002 31866.58079645  2386.16968310
0.41600002 32039.30302712  2204.46434924
0.41700002 32211.10415096  2221.59995856
0.41800002 32382.03200312  2645.77405018
0.41900002 32549.09090416  2460.71138895
0.42000002 32714.94787518  2272.54396183
0.42100002 32879.41726378  2497.52065370
0.42200002 33041.75376511  2515.79925089
0.42300002 33201.37777417  2533.92927180
0.42400002 33358.92785109  2551.95810153
0.42500002 33514.67654669  3640.69948578
0.42600002 33666.84579907  2803.27004830
0.42700002 33817.91803826  2388.22148503
0.42800002 33966.10871964  2841.43495959
0.42900002 34112.44804884  3080.35420478
0.43000002 34256.31990198  2657.60542393
0.43100002 34396.21482942  2451.76230922
0.43200002 34534.52185743  2915.92249121
0.43300002 34669.74131074  2934.10034617
0.43400002 34802.70778327  2952.13982761
0.43500002 34932.52846724  3426.88120503
0.43600002 35060.62233538  2757.86868359
0.43700002 35184.90062624  3005.14250490
0.43800002 35305.64474225  2789.85217974
0.43900002 35424.63547454  2805.63126254
0.44000002 35540.05273169  3056.26697950
0.44100002 35653.08429374  2600.17956076
0.44200002 35763.00638741  2614.09707577
0.44300002 35870.17239704  3105.63967331
0.44400002 35973.66316293  3121.61476890
0.44500002 36073.41456292  2895.97385835
0.44600002 36170.98304526  2425.26452812
0.44700002 36265.62210408  2680.75491298
0.44800002 36355.98105973  2938.29052850
0.44900002 36444.71951850  2952.02242090
0.45000002 36529.95113693  4448.25236076
0.45100002 36610.63993900  3226.86195715
0.45200002 36689.18315484  2991.63613623
0.45300002 36763.82703698  3004.34008785
0.45400002 36835.96019532  2765.45984273
0.45500002 36904.66527825  3786.41883700
0.45600002 36969.82869918  3294.56644067
0.45700002 37031.70677851  3052.89405151
0.45800002 37089.63397941  2553.62142051
0.45900002 37144.68158036  3331.87809567
0.46000002 37197.14337653  3343.83736231
0.46100002 37244.98219536  3355.40060501
0.46200002 37290.38916923  3107.78118066
0.46300002 37332.07305014  3897.46861116
0.46400002 37369.94521880  2867.20918280
0.46500002 37405.38211285  2876.09996697
0.46600002 37436.71083109  3671.41840521
0.46700002 37464.64646315  3419.02379828
0.46800002 37489.98144662  3692.38844768
0.46900002 37511.19570742  4231.26307634
0.47000002 37528.67250005  3446.82108914
0.47100002 37543.38601850  2923.87904170
0.47200002 37554.46429601  3996.73405214
0.47300002 37562.91748752  4006.08533992
0.47400002 37566.50785328  2944.27519255
0.47500002 37567.93579272  3218.82089128
0.47600002 37566.33591292  2956.65860817
0.47700002 37560.20514481  3231.68020383
