# SAXS profile: number of points = 501, q_min = 0, q_max = 0.5, delta_q = 0.001
#    q    intensity    error
0.00000000 1664650.74656090 324.60689558
0.00100000 1664582.01710082 599.24954039
0.00200000 1664375.77531684 1123.45368391
0.00300000 1664032.19364821 1597.47096281
0.00400000 1663551.12756733 1247.66339308
0.00500000 1662933.05078454 2394.62368791
0.00600000 1662177.69567419 2094.34398181
0.00700000 1661285.70402340 2192.89722045
0.00800000 1660256.52858762 2913.75033069
0.00900000 1659091.52813674 2986.36487831
0.01000000 1657789.86902489 3555.95942260
0.01100000 1656352.81334837 3875.86575199
0.01200000 1654779.74768098 3872.18477934
0.01300000 1653072.19120525 4860.03245649
0.01400000 1651229.28226138 4086.79265477
0.01500000 1649252.81284036 6728.95177602
0.01600000 1647141.69304606 5040.25380604
0.01700000 1644898.01821857 6217.71478778
0.01800000 1642521.33776169 6085.54183024
0.01900000 1640012.36866554 5412.04106080
0.02000000 1637371.80675318 5673.49356704
0.02100000 1634601.24427236 5933.60278573
0.02200000 1631698.84558404 7318.16965493
0.02300000 1628667.55524043 6449.52381232
0.02400000 1625507.26614561 6705.21777859
0.02500000 1622219.31851348 8857.31788360
0.02600000 1618803.80941305 8523.00244639
0.02700000 1615261.86517210 8819.33018777
0.02800000 1611593.37517306 9814.60410490
0.02900000 1607800.82146444 7235.10402878
0.03000000 1603884.68767905 7458.06414052
0.03100000 1599845.01214348 11518.88461745
0.03200000 1595682.82509282 7898.63034801
0.03300000 1591401.09291405 11362.60432723
0.03400000 1586997.71785574 9164.91224349
0.03500000 1582476.14393629 10254.44588624
0.03600000 1577835.89616590 10508.38755410
0.03700000 1573078.98026872 11656.51578288
0.03800000 1568206.72037155 11926.21266037
0.03900000 1563220.12817833 15006.91392548
0.04000000 1558118.40246251 13415.40006686
0.04100000 1552905.51221439 10761.63569863
0.04200000 1547581.53237522 11978.28161629
0.04300000 1542146.71479284 10178.16879008
0.04400000 1536604.71848651 11409.29056463
0.04500000 1530955.16448361 11619.95023835
0.04600000 1525198.30593298 15053.70797936
0.04700000 1519337.45661463 14220.99925530
0.04800000 1513372.74391386 15572.60625944
0.04900000 1507306.96208247 14696.24356438
0.05000000 1501139.53834211 13780.46160368
0.05100000 1494874.01751828 13992.02145578
0.05200000 1488508.47199496 11833.64290382
0.05300000 1482048.37848210 14405.51091040
0.05400000 1475491.98395427 14607.37132235
0.05500000 1468843.46673847 13572.11426579
0.05600000 1462101.03302416 18751.44662356
0.05700000 1455269.95984169 13926.93416577
0.05800000 1448348.81767094 14099.67639837
0.05900000 1441339.38228593 18160.87706502
0.06000000 1434244.66295013 15748.00713492
0.06100000 1427066.10701503 17253.23004008
0.06200000 1419804.14858481 17442.29478068
0.06300000 1412462.06768957 18983.49107733
0.06400000 1405037.94420548 15069.03265633
0.06500000 1397537.87386472 17986.31327800
0.06600000 1389959.84923376 16762.91656607
0.06700000 1382306.82390767 18329.38934281
0.06800000 1374581.82086505 21340.38376785
0.06900000 1366785.55846448 14351.24903579
0.07000000 1358917.56206365 23155.95634192
0.07100000 1350982.73721278 16049.67566982
0.07200000 1342979.99401689 16176.19478574
0.07300000 1334914.04972842 17781.05597552
0.07400000 1326784.29344735 14926.32400079
0.07500000 1318593.09012434 21044.74670480
0.07600000 1310340.39856161 24215.09170064
0.07700000 1302032.02580081 21327.28558262
0.07800000 1293666.04825870 19928.92640802
0.07900000 1285244.45705339 20049.81447044
0.08000000 1276771.45524962 17064.05129990
0.08100000 1268246.89946414 17159.38135484
0.08200000 1259671.68640072 20387.78720110
0.08300000 1251049.23169752 22068.50948286
0.08400000 1242379.87206372 22176.48175727
0.08500000 1233667.61496653 17505.74427818
0.08600000 1224911.55854035 20780.62556632
0.08700000 1216115.54950177 20868.54380939
0.08800000 1207277.92106854 17728.87710351
0.08900000 1198405.02163696 17796.31540720
0.09000000 1189495.29822780 17860.27274189
0.09100000 1180551.68742172 19549.93686218
0.09200000 1171574.97291092 16343.47164003
0.09300000 1162568.85697061 21309.88814967
0.09400000 1153531.09845614 21369.16460320
0.09500000 1144466.82797324 18128.35540718
0.09600000 1135376.64928906 19823.67722845
0.09700000 1126263.31835389 18211.67871396
0.09800000 1117128.11429782 19907.22393278
0.09900000 1107972.57585847 19943.50730325
0.10000000 1098796.53077368 19976.12186889
0.10100000 1089602.92610526 18338.01810882
0.10200000 1080393.82874902 21699.71107110
0.10300000 1071170.12231537 18381.28016360
0.10400000 1061934.84572791 18398.02206777
0.10500000 1052690.26113324 18411.55353347
0.10600001 1043432.75736455 21771.22550682
0.10700001 1034170.36070199 16753.56063176
0.10800001 1024899.85562338 16757.11342806
0.10900001 1015625.71921082 18433.60767127
0.11000001 1006348.22330740 18431.26857743
0.11100001 997069.01475611 21775.98830734
0.11200001 987791.04571261 18417.36491435
0.11300001 978512.88449044 21752.34244634
0.11400001 969239.18991552 18391.31449459
0.11500001 959969.90498392 18373.82484658
0.11600001 950706.20691512 20021.87366049
0.11700001 941451.34647734 16663.68961742
0.11800001 932203.06764910 16639.82554124
0.11900001 922966.11261053 16613.39080951
0.12000001 913740.41642023 18242.82827316
0.12100001 904529.54112751 18208.18052065
0.12200001 895331.84003060 18170.76054947
0.12300001 886150.73650504 21427.12581822
0.12400001 876986.04677516 18087.83806699
0.12500001 867840.20239583 19682.61671779
0.12600001 858715.57292062 16358.53243501
0.12700001 849611.89412710 24468.82370399
0.12800001 840529.36777855 16264.24403304
0.12900001 831471.59996623 19456.43635623
0.13000001 822438.58502867 16160.91895756
0.13100001 813430.97542733 19327.12088719
0.13200001 804451.68350870 19258.57421105
0.13300001 795502.13475366 25583.34985975
0.13400001 786580.88139351 15928.26359917
0.13500001 777691.38391161 20624.37647374
0.13600001 768833.16379207 18959.42671306
0.13700001 760008.82712457 17305.40180963
0.13800001 751217.44135773 17229.17282999
0.13900001 742463.90416577 20269.26553959
0.14000001 733745.17280619 15518.71113672
0.14100001 725064.52068625 21621.42502659
0.14200001 716421.23320566 18440.68341247
0.14300001 707820.02116323 19875.58713175
0.14400001 699255.19964659 24334.08209554
0.14500001 690735.67243912 21177.95671599
0.14600001 682256.00171109 21061.24376637
0.14700001 673822.42882626 17950.63035078
0.14800001 665430.67952057 17846.85166673
0.14900001 657083.54478391 22176.57068277
0.15000001 648783.10204997 17633.92554574
0.15100001 640529.36938516 18985.29140440
0.15200001 632323.95453418 15963.01898546
0.15300001 624166.89815207 18743.73283601
0.15400001 616056.78024658 15755.65289833
0.15500001 607998.59683248 17072.60140476
0.15600001 599988.61532790 14129.73255782
0.15700001 592033.88309513 14031.20369158
0.15800001 584126.26128772 18110.83558603
0.15900001 576274.47030338 15213.64673410
0.16000001 568473.34230476 24711.53735643
0.16100001 560729.24479763 20438.58193766
0.16200001 553037.43990204 16226.11925270
0.16300001 545401.81798298 13416.88535576
0.16400001 537821.37239343 17304.40347369
0.16500001 530297.29104212 15845.28380442
0.16600001 522829.73546619 14406.57404095
0.16700001 515418.74234065 14287.40821226
0.16800001 508064.61305695 15455.32625894
0.16900001 500770.85234667 12769.65733780
0.17000001 493534.32092382 15190.98711535
0.17100001 486356.98143094 16312.41392749
0.17200001 479239.18832032 14923.50902903
0.17300001 472180.81367947 12323.91981902
0.17400001 465183.67815355 12211.07212821
0.17500001 458246.29061754 14517.24317238
0.17600001 451367.82397599 14380.57955106
0.17700001 444552.98805227 14243.47840992
0.17800001 437798.48996247 12930.37901177
0.17900001 431105.42924850 17459.77070925
0.18000001 424475.08878232 12676.94912528
0.18100001 417907.89394184 11408.88604353
0.18200001 411400.05985207 11292.93217639
0.18300001 404957.53283237 12294.51127758
0.18400001 398576.23513934 18802.83478096
0.18500001 392258.64497040 12038.41838286
0.18600001 386003.86259633 17323.85417176
0.18700001 379812.07986100 12852.84138973
0.18800001 373682.88919997 11653.30145027
0.18900001 367619.31369022 11524.86602871
0.19000001 361614.95124456 11396.29572693
0.19100001 355679.09068499 12292.26995488
0.19200001 349803.06298766 12152.15898240
0.19300001 343993.40640686 11011.22945939
0.19400001 338246.00366022 11872.43528949
0.19500001 332562.87287234 10755.08381692
0.19600001 326942.01130944 11593.36426889
0.19700001 321385.74877689 16226.76722258
0.19800001 315892.81279809 12258.22117994
0.19900001 310464.23710027 13039.49857446
0.20000001 305097.16460573 12878.15192664
0.20100001 299795.15594801 11808.93175091
0.20200001 294555.02845409 11659.96135245
0.20300001 289379.00675660 11511.49743286
0.20400001 284265.90852569 9615.29481036
0.20500001 279214.80579045 8627.73790673
0.20600001 274227.11304711 8514.75226259
0.20700001 269301.59891012 10082.65233979
0.20800001 264438.30353291 11606.19769069
0.20900001 259639.41550479 8178.64197502
0.21000001 254900.09765027 9681.10616641
0.21100001 250222.87201211 9548.50524737
0.21200001 245607.10688208 10201.29166661
0.21300001 241052.48508545 9285.34216446
0.21400001 236559.86068961 9154.86704150
0.21500001 232128.61078321 11281.45101742
0.21600001 227756.45299714 8154.82018511
0.21700001 223445.52004500 8037.33573602
0.21800001 219194.32511759 9360.69409673
0.21900001 215001.89721373 7804.56923787
0.22000001 210868.69003766 10485.44610790
0.22100001 206796.89511792 11018.13909286
0.22200001 202782.76903872 8818.00912860
0.22300001 198826.89028656 9352.81736133
0.22400001 194927.59218925 7236.68720222
0.22500001 191089.23040924 6477.92521720
0.22600001 187306.15368357 8928.88476833
0.22700001 183581.45668108 8789.88056156
0.22800001 179912.72838387 6798.00276346
0.22900001 176299.98668577 6082.34982830
0.23000001 172743.40925663 6584.11535519
0.23100001 169243.79089806 6478.65262197
0.23200001 165797.49582606 6953.54730380
0.23300001 162407.19571028 6270.54212294
0.23400001 159071.41993853 6728.72138164
0.23500001 155788.06827918 8272.34681687
0.23600001 152559.40339994 6508.18445686
0.23700001 149383.78445351 6399.60162868
0.23800001 146260.64641814 5767.78886431
0.23900001 143190.16414644 5670.33076840
0.24000001 140171.21862856 7600.78468965
0.24100001 137204.88286980 5478.59123213
0.24200001 134288.70265873 7831.71750951
0.24300001 131423.35208752 4810.09491393
0.24400001 128607.39533926 7089.48300343
0.24500001 125841.62069213 6500.97843248
0.24600001 123125.15649050 6386.50216928
0.24700001 120458.10045356 4929.14570374
0.24800001 117838.18456869 4401.25640185
0.24900001 115266.11519556 5619.22338161
0.25000001 112742.13824276 5093.69004678
0.25100001 110264.23524114 4167.98828930
0.25200001 107834.07953137 6138.45526773
0.25300001 105449.73361699 5222.92555315
0.25400001 103110.14002303 4338.35934672
0.25500001 100815.69334933 4258.45508855
0.25600001 98566.25174432  4559.67502142
0.25700001 96360.64086926  5593.73546712
0.25800001 94198.50549403  5123.45695623
0.25900001 92079.86720894  5386.67248659
0.26000001 90004.42641830  5285.51019150
0.26100001 87969.08740185  3802.90382832
0.26200001 85977.76643879  4748.55226510
0.26300001 84026.37253667  5323.91121584
0.26400001 82115.66920058  3590.50780569
0.26500001 80246.06080367  4482.54516860
0.26600001 78415.17280859  3768.63338351
0.26700001 76624.86605256  4004.41568940
0.26800001 74872.98245338  3927.46248044
0.26900001 73159.01905089  3259.23445295
0.27000001 71483.50373561  3196.38502080
0.27100001 69845.18006953  3419.62017803
0.27200001 68244.13674312  4750.81580420
0.27300001 66679.09333270  4384.81738507
0.27400001 65149.01773056  3224.87653028
0.27500001 63656.52126751  3953.07015779
0.27600001 62196.94221230  2842.71137835
0.27700001 60773.88352942  4308.26080730
0.27800001 59383.71381854  2485.20854092
0.27900001 58027.89346177  3168.32313296
0.28000001 56704.69696449  3585.15463526
0.28100001 55414.14658894  2812.82221398
0.28200001 54156.29380097  3448.40217099
0.28300001 52930.10190837  2480.30469282
0.28400001 51735.50800858  3096.37030087
0.28500001 50571.87838907  3037.34715981
0.28600001 49438.02904330  2553.96870126
0.28700001 48334.68993632  2714.47631531
0.28800001 47260.06104969  2048.72374348
0.28900001 46216.06617898  2211.43887134
0.29000001 45199.44935534  2762.13848085
0.29100001 44212.28726166  2517.44775584
0.29200001 43252.08490270  2281.11506575
0.29300001 42319.22691138  2612.78919319
0.29400001 41413.22985285  2748.80326160
0.29500001 40534.88869602  2339.67388629
0.29600001 39681.35215781  2651.70648347
0.29700001 38853.39552077  2257.77092059
0.29800001 38051.28769104  1706.60033373
0.29900001 37273.78415074  2180.51647604
0.30000001 36520.67707943  1978.69037783
0.30100001 35792.28381337  2756.36390695
0.30200001 35086.27164484  1913.60534610
0.30300001 34404.06722517  1725.70809371
0.30400001 33745.31637796  2007.00278659
0.30500001 33107.76311034  2127.50495819
0.30600001 32492.36442957  1795.52814338
0.30700001 31899.26373810  1915.86987081
0.30800001 31327.01930433  2032.81037890
0.30900001 30775.53899336  1717.27515713
0.31000001 30245.31376687  1552.03834943
0.31100001 29733.60157790  2226.45219157
0.31200001 29242.78027763  1647.53831885
0.31300001 28770.49467760  1490.59939982
0.31400001 28318.76480113  1873.28638029
0.31500001 27884.64529865  1453.90547471
0.31600002 27468.77893004  1567.36859996
0.31700002 27070.48617911  1420.38847707
0.31800002 26690.18958894  2043.40101168
0.31900002 26327.23430331  1263.70730639
0.32000002 25980.83875227  1501.17293419
0.32100002 25651.44201320  1610.65412027
0.32200002 25338.21073026  2086.98182562
0.32300002 25040.21567588  1460.34544737
0.32400002 24758.05875335  1448.34650565
0.32500002 24490.75424259  1317.35773309
0.32600002 24238.81505113  1545.58811492
0.32700002 24001.16866216  1417.02906491
0.32800002 23778.37714452  1290.80926441
0.32900002 23568.38167322  1399.96193768
0.33000002 23373.57152051  1276.54766904
0.33100002 23189.81468574  1270.33810864
0.33200002 23021.42783026  1264.91241203
0.33300002 22864.43114386  1374.60966546
0.33400002 22720.59891035  1141.71014931
0.33500002 22588.40974811  1138.45590522
0.33600002 22468.06594142  2271.52157425
0.33700002 22358.54124870  1813.72495199
0.33800002 22261.76288574  1358.41283562
0.33900002 22174.51241639  1470.17024283
0.34000002 22098.91369451  1356.43138681
0.34100002 22033.36021591  1469.40486239
0.34200002 21978.91682099  1130.81532399
0.34300002 21933.17710779  1244.92719160
0.34400002 21897.85297834  1473.17812889
0.34500002 21871.48785016  1475.66935514
0.34600002 21855.52007428  1478.85383587
0.34700002 21846.28435279  1140.37609722
0.34800002 21847.36655284  1372.45163185
0.34900002 21856.35106270  1721.18772771
0.35000002 21873.58365315  1151.64423388
0.35100002 21898.85368595  1387.51143526
0.35200002 21931.14224751  1161.25403701
0.35300002 21971.28711106  1983.34818145
0.35400002 22019.04823837  1289.76581165
0.35500002 22073.52822869  1296.59910957
0.35600002 22134.20979588  1540.87308792
0.35700002 22201.82372437  1669.13318666
0.35800002 22276.27574828  1439.49300704
0.35900002 22356.48658606  2052.32556581
0.36000002 22443.36857840  1458.37015930
0.36100002 22534.97696347  1346.01423778
0.36200002 22633.45617760  1725.34844614
0.36300002 22735.33379995  1365.48421270
0.36400002 22843.32172312  1625.87350066
0.36500002 22955.71564226  1764.37638784
0.36600002 23073.50730198  1397.21630085
0.36700002 23195.36684054  1280.38431025
0.36800002 23323.01140710  1678.20736529
0.36900002 23453.82582104  1562.02487367
0.37000002 23587.77543769  1312.65976529
0.37100002 23726.14824800  2118.27061592
0.37200002 23868.53561103  1468.98909377
0.37300002 24013.84727019  1751.32996438
0.37400002 24163.45914718  2174.71142626
0.37500002 24315.17591829  1919.92638146
0.37600002 24470.91180771  1660.59615394
0.37700002 24628.29743877  2094.63679639
0.37800002 24789.38632640  1832.05968324
0.37900002 24952.70419015  1422.30420622
0.38000002 25118.46191297  1579.07218296
0.38100002 25285.92608881  2318.21381364
0.38200002 25455.88618209  1608.68480349
0.38300002 25627.44637252  1476.14098099
0.38400002 25801.43769999  1937.04302709
0.38500002 25976.03741637  1654.41390143
0.38600002 26153.43652345  2580.95200559
0.38700002 26331.06171801  1685.71465105
0.38800002 26509.95112165  2010.91243760
0.38900002 26690.17332528  2029.78777755
0.39000002 26872.02121099  1733.64853056
0.39100002 27053.86750687  2863.38147258
0.39200002 27237.00029099  1926.74549187
0.39300002 27420.43251024  1944.65716576
0.39400002 27605.18954096  2289.85058091
0.39500002 27789.40150600  2310.96673873
0.39600002 27974.01014112  1999.02285939
0.39700002 28158.36135261  2017.26510288
0.39800002 28343.92077321  2205.29886024
0.39900002 28528.48691733  2054.05115537
0.40000002 28712.98118843  1899.79449034
0.40100002 28896.97473541  1742.48765910
0.40200002 29081.81113411  1757.99556635
0.40300002 29265.02996179  3014.88352951
0.40400002 29447.89534100  2504.54361742
0.40500002 29630.13016636  1804.47501263
0.40600002 29811.88705990  2366.02052861
0.40700002 29992.63604248  2386.21423660
0.40800002 30172.80706034  2036.21198095
0.40900002 30351.00708122  2426.56313112
0.41000002 30529.22454753  3387.82820856
0.41100002 30705.78997015  2277.14149208
0.41200002 30880.69158168  2295.67072096
0.41300002 31054.55814304  2314.18578247
0.41400002 31226.98539007  2138.26792590
0.41500002 31398.40705360  2547.03890087
0.41600002 31567.09139379  2566.87815831
0.41700002 31735.03333673  2188.76535295
0.41800002 31902.11160019  3208.07649453
0.41900002 32065.43596464  2222.13481764
0.42000002 32227.70256268  2442.21541592
0.42100002 32388.70323003  2255.22551277
0.42200002 32547.65333875  2478.17844264
0.42300002 32703.99220719  2911.96360411
0.42400002 32858.37996887  2304.19400450
0.42500002 33011.08228726  2742.23073555
0.42600002 33160.32683739  2761.09474495
0.42700002 33308.61706593  2352.25464866
0.42800002 33454.02156626  2583.31966776
0.42900002 33597.80223617  2600.47001631
0.43000002 33739.16385636  2835.60816068
0.43100002 33876.68466384  3073.29297834
0.43200002 34012.77508899  2209.12984672
0.43300002 34145.86293738  3334.34367384
0.43400002 34276.82946033  2907.53219675
0.43500002 34404.83469286  2475.08392509
0.43600002 34531.14169660  2263.51644548
0.43700002 34653.72046746  3187.44935965
0.43800002 34773.03469564  2518.78488754
0.43900002 34890.62767614  3223.89415005
0.44000002 35004.76096419  2315.56504752
0.44100002 35116.70335285  2328.23754263
0.44200002 35225.60994249  3511.11283741
0.44300002 35331.92031155  2353.10600426
0.44400002 35434.67500072  2601.79113523
0.44500002 35533.78638361  2852.65250607
0.44600002 35630.85499249  3344.66851665
0.44700002 35725.06024092  3601.08624294
0.44800002 35815.28656899  2894.59159769
0.44900002 35903.85894240  2908.21271216
0.45000002 35989.07915414  3165.05971621
0.45100002 36069.87730831  2690.09157714
0.45200002 36148.70841667  2456.30485332
0.45300002 36223.80970007  3700.26233623
0.45400002 36296.43567090  3963.57096311
0.45500002 36365.78094564  2487.41953457
0.45600002 36431.64292783  3496.34493749
0.45700002 36494.49309060  3760.75769122
0.45800002 36553.45222799  3020.04636621
0.45900002 36609.59799248  3031.27485744
0.46000002 36663.39486821  3042.32865035
0.46100002 36712.66974836  3053.02576097
0.46200002 36759.57218203  3574.13337265
0.46300002 36802.85263363  3073.77439764
0.46400002 36842.46944726  3340.69107546
0.46500002 36879.79603625  3351.26722465
0.46600002 36913.18345051  2585.76862326
0.46700002 36943.22498331  2852.75596842
0.46800002 36970.80204016  3641.25446552
0.46900002 36994.34936805  3651.34245569
0.47000002 37014.37740664  2876.57247650
0.47100002 37031.68803655  2621.84363725
0.47200002 37045.49031634  2891.21542877
0.47300002 37056.62574365  3952.08932288
0.47400002 37063.26873951  3697.06123200
0.47500002 37067.69234419  2646.63335882
0.47600002 37069.19112644  3182.76090097
0.47700002 37066.43776279  3189.19645627
