# SAXS profile: number of points = 501, q_min = 0, q_max = 0.5, delta_q = 0.001
#    q    intensity    error
0.00000000 1682732.95097189 252.40994265
0.00100000 1682663.57107308 504.79908331
0.00200000 1682455.37720131 832.81543809
0.00300000 1682108.53769344 1110.19167443
0.00400000 1681622.91408027 1261.21723348
0.00500000 1680998.98416791 1512.89914563
0.00600000 1680236.46479348 1940.67319585
0.00700000 1679336.03711676 2619.76432678
0.00800000 1678297.10223788 3398.55177552
0.00900000 1677121.07878137 3270.38624343
0.01000000 1675807.06339273 3041.58995139
0.01100000 1674356.35643471 3315.22573008
0.01200000 1672768.42245306 4892.84785020
0.01300000 1671044.64570716 3860.11330183
0.01400000 1669184.24986173 3755.66472868
0.01500000 1667189.03440899 5201.63001898
0.01600000 1665057.89059970 6793.43649734
0.01700000 1662792.93361617 5836.40345881
0.01800000 1660393.65127073 6151.75875477
0.01900000 1657860.81847902 5470.94094784
0.02000000 1655195.17132474 5213.86502553
0.02100000 1652398.28569462 6543.49750802
0.02200000 1649468.30112959 7397.86566667
0.02300000 1646408.14435439 6519.77654841
0.02400000 1643217.78991008 9243.10048971
0.02500000 1639898.54770809 8953.84647941
0.02600000 1636450.47060020 9278.67459269
0.02700000 1632874.87706081 8229.68975732
0.02800000 1629171.36256430 8504.27490259
0.02900000 1625342.59103229 8045.44619501
0.03000000 1621389.13686331 8293.40581626
0.03100000 1617310.81220304 9315.71070693
0.03200000 1613108.97364243 13574.31263841
0.03300000 1608786.33576811 8204.81069066
0.03400000 1604340.74219678 10107.34714220
0.03500000 1599775.91879036 11230.42746851
0.03600000 1595091.29839259 11508.58424976
0.03700000 1590288.81073257 9064.64664039
0.03800000 1585369.75087862 15766.50290215
0.03900000 1580335.39142486 9482.01278766
0.04000000 1575184.70185901 11624.86363840
0.04100000 1569921.71820757 12857.65946829
0.04200000 1564546.55347313 13118.72345949
0.04300000 1559059.49107824 14405.71036625
0.04400000 1553464.19878122 10485.88382876
0.04500000 1547760.11425776 12815.45434152
0.04600000 1541947.74316192 11957.80530410
0.04700000 1536030.37407371 14377.24496999
0.04800000 1530008.10252654 13494.67209217
0.04900000 1523883.72347643 13714.95414968
0.05000000 1517656.67296955 12771.08149774
0.05100000 1511330.49707680 12967.21626898
0.05200000 1504903.21980797 13160.37927051
0.05300000 1498380.39134637 13350.56990927
0.05400000 1491760.51872386 15999.13230941
0.05500000 1485047.38259526 13721.83845529
0.05600000 1478239.37106132 20222.31553978
0.05700000 1471341.87339547 14080.74238566
0.05800000 1464353.25761779 15551.43232203
0.05900000 1457275.45149178 15738.57561119
0.06000000 1450111.51238536 22556.48562897
0.06100000 1442862.83919829 18786.07504426
0.06200000 1435530.03325430 14922.33539320
0.06300000 1428115.89965086 16451.89593319
0.06400000 1420618.79122968 13851.03386226
0.06500000 1413045.25001885 15388.06349252
0.06600000 1405392.73021640 15536.61735948
0.06700000 1397664.58992095 18533.03332968
0.06800000 1389863.66380452 14385.08959373
0.06900000 1381990.47899753 18864.17092152
0.07000000 1374044.86122617 19023.65199452
0.07100000 1366031.66195828 26555.65675228
0.07200000 1357949.74897150 14869.55044783
0.07300000 1349804.06571110 19477.67358085
0.07400000 1341593.61566451 16602.22177190
0.07500000 1333321.12413229 18239.83383308
0.07600000 1324986.48221944 19894.67296320
0.07700000 1316595.43528613 20025.41750966
0.07800000 1308146.10904252 18601.83854294
0.07900000 1299640.56361733 18714.82499388
0.08000000 1291082.98495067 15686.65900303
0.08100000 1282473.08887453 25239.07157322
0.08200000 1273812.15319713 17444.85825664
0.08300000 1265103.32162865 22316.42364088
0.08400000 1256346.90606050 20823.95094540
0.08500000 1247547.17986014 17702.69531327
0.08600000 1238703.03454592 22631.10550372
0.08700000 1229818.07977626 17856.95935687
0.08800000 1220891.42174769 22818.46174411
0.08900000 1211928.79860587 17997.14350462
0.09000000 1202928.97299356 22987.97375378
0.09100000 1193894.66862221 18123.32192114
0.09200000 1184826.99214913 18181.17104880
0.09300000 1175729.20442566 24866.67384214
0.09400000 1166599.66291148 21611.25977111
0.09500000 1157442.90842314 21667.33226410
0.09600000 1148259.84575529 20048.61784933
0.09700000 1139053.41347128 20092.90315826
0.09800000 1129824.73290425 21811.26749423
0.09900000 1120575.18865041 18489.49148215
0.10000000 1111305.06697802 18519.89981213
0.10100000 1102016.68879231 23605.19858413
0.10200000 1092712.82350343 25323.62087582
0.10300000 1083394.12902800 23661.32889102
0.10400000 1074063.41012750 21991.44935695
0.10500000 1064723.16254035 18622.00898898
0.10600001 1055369.79837582 16938.68606096
0.10700001 1046010.82938968 18639.91385687
0.10800001 1036644.11897135 23728.78499997
0.10900001 1027273.44560303 23730.01771030
0.11000001 1017899.14823395 22032.42810058
0.11100001 1008523.25485636 20331.82977499
0.11200001 999147.94744428 25403.33775969
0.11300001 989772.61329695 20310.13498107
0.11400001 980401.29145894 27059.07691833
0.11500001 971034.83736527 21964.80905548
0.11600001 961673.56469429 18565.10904068
0.11700001 952320.96535531 16856.08188062
0.11800001 942975.01903403 20198.52585903
0.11900001 933640.38690352 23527.73885816
0.12000001 924316.79490754 23486.89086495
0.12100001 915008.20010557 16744.65085074
0.12200001 905712.63097407 18381.43871159
0.12300001 896433.64666984 20008.39993635
0.12400001 887171.06197935 26615.13311342
0.12500001 877927.37206913 21570.67654816
0.12600001 868704.98886775 16548.83081777
0.12700001 859503.48803285 16502.46774793
0.12800001 850323.42979307 18099.13505614
0.12900001 841168.07190971 21323.61162794
0.13000001 832037.69899437 17984.49571146
0.13100001 822932.52956525 21182.28430949
0.13200001 813856.44351198 19483.72417615
0.13300001 804809.61956997 35588.68305514
0.13400001 795791.36468278 20949.20866294
0.13500001 786805.25622309 19260.99358046
0.13600001 777850.36681349 20780.27352923
0.13700001 768929.74866194 25466.95447653
0.13800001 760042.23562716 22185.63390414
0.13900001 751192.73990991 17352.55311023
0.14000001 742378.13972922 26692.20727278
0.14100001 733602.17622140 18750.87250857
0.14200001 724863.61100022 23322.48778394
0.14300001 716167.63337736 17016.14377166
0.14400001 707507.93168620 15388.29824004
0.14500001 698893.97316035 19897.51235448
0.14600001 690320.25442403 16743.71856093
0.14700001 681792.83633756 16649.38184882
0.14800001 673307.64797322 19562.95463482
0.14900001 664867.46329416 14959.51862992
0.15000001 656474.31023333 17842.97259402
0.15100001 648127.96445411 16255.05011550
0.15200001 639830.68224452 14684.11485041
0.15300001 631582.01492028 16048.49975644
0.15400001 623380.39809227 23189.75190338
0.15500001 615231.25239134 18715.33558098
0.15600001 607131.18354600 17157.52805676
0.15700001 599086.11738785 22717.34664353
0.15800001 591088.88365765 22555.95286499
0.15900001 583147.99517635 13995.55254483
0.16000001 575258.11273464 18060.22930179
0.16100001 567425.86275231 15167.29402733
0.16200001 559646.20947345 16420.02056108
0.16300001 551923.23757037 16292.77474222
0.16400001 544256.09042525 16164.40664874
0.16500001 536645.80923471 22716.21817737
0.16600001 529092.18755746 17229.88790128
0.16700001 521596.10212682 14458.64463362
0.16800001 514157.01074859 18247.43317305
0.16900001 506778.84297759 15507.43332735
0.17000001 499458.70448301 20497.78619988
0.17100001 492198.29085085 15238.45980432
0.17200001 484997.69321803 13844.25980667
0.17300001 477857.54959328 13719.29089671
0.17400001 470778.85854697 13593.74018252
0.17500001 463760.40447195 17140.58535879
0.17600001 456801.62045251 15766.50867456
0.17700001 449907.07073821 14415.02322728
0.17800001 443073.35274586 14275.82409975
0.17900001 436301.89393918 15314.19720061
0.18000001 429593.56893994 12829.81254241
0.18100001 422948.86617058 13855.80551025
0.18200001 416364.41590982 12572.12413228
0.18300001 409845.83031359 14705.26908632
0.18400001 403388.88050809 11194.04196291
0.18500001 396996.63065195 13291.44782214
0.18600001 390667.81588681 12054.05602866
0.18700001 384402.28129513 10840.14484466
0.18800001 378200.14961918 11794.17222310
0.18900001 372064.32013480 11664.21698733
0.19000001 365988.37864302 11534.12429791
0.19100001 359981.63762187 11404.21881871
0.19200001 354035.55601201 11274.26281393
0.19300001 348156.09189331 11144.47702811
0.19400001 342339.82279695 15020.16043498
0.19500001 336588.35518846 14843.54716524
0.19600001 330900.04259616 11733.71606495
0.19700001 325276.81779218 9660.72194497
0.19800001 319717.72476857 11452.28944243
0.19900001 314223.80271781 11312.05743245
0.20000001 308791.72957118 17689.13506449
0.20100001 303425.70457285 10113.17921139
0.20200001 298122.28131143 9985.60628448
0.20300001 292883.50280084 10754.68273116
0.20400001 287708.32608130 13270.54716774
0.20500001 282595.99474298 14844.76830551
0.20600001 277547.63096981 10341.42521875
0.20700001 272562.32237728 10204.73383217
0.20800001 267639.79126703 10907.66020869
0.20900001 262782.42015776 9105.41128889
0.21000001 257985.49909769 10614.81386216
0.21100001 253251.09053370 11274.73908356
0.21200001 248579.16195009 8736.31505974
0.21300001 243968.79359209 9397.67837345
0.21400001 239421.50979148 9265.61286698
0.21500001 234935.97928723 8373.11869766
0.21600001 230510.18338711 7503.10682399
0.21700001 226146.46217539 9613.48656160
0.21800001 221843.24903347 8016.30618284
0.21900001 217599.40243614 8616.93674389
0.22000001 213415.53358358 8489.67032737
0.22100001 209293.92910606 10454.23225316
0.22200001 205230.59479722 8237.95646469
0.22300001 201226.17491653 10817.91967504
0.22400001 197279.14094465 8655.62271824
0.22500001 193393.56380165 8522.85475976
0.22600001 189564.38245160 6454.66752771
0.22700001 185793.95160512 6989.56878992
0.22800001 182080.16768266 7505.34486681
0.22900001 178423.12318650 6771.15784514
0.23000001 174822.86006424 8480.65734278
0.23100001 171280.50501053 6556.61804188
0.23200001 167791.96360542 7623.62822696
0.23300001 164360.20300229 6345.94773805
0.23400001 160983.64265689 6809.60840645
0.23500001 157660.13863936 5581.16917180
0.23600001 154392.06928062 7684.09365153
0.23700001 151177.64019224 7555.85881418
0.23800001 148016.44311638 7428.94563139
0.23900001 144908.56635833 8346.73381704
0.24000001 141852.85822958 6666.37538782
0.24100001 138850.32917283 5544.29390612
0.24200001 135898.88501042 5944.21751153
0.24300001 132998.72090440 4867.75341536
0.24400001 130148.69319648 6696.15058171
0.24500001 127349.47375152 5169.11538410
0.24600001 124600.20385752 6924.65665695
0.24700001 121901.00417102 4534.71756968
0.24800001 119249.61370279 4453.97328250
0.24900001 116646.86298324 4374.25756881
0.25000001 114092.51324484 4725.14165957
0.25100001 111585.05373126 6326.87284588
0.25200001 109125.79868007 4555.45668142
0.25300001 106713.13679989 4065.77070443
0.25400001 104345.84203864 4789.47437617
0.25500001 102024.25064244 5876.59711504
0.25600001 99748.30238828  4998.88641070
0.25700001 97516.81208717  4151.29088696
0.25800001 95329.33479643  4073.89931528
0.25900001 93185.97844962  3997.67866464
0.26000001 91086.20836789  5349.03783950
0.26100001 89027.27800647  5598.03550592
0.26200001 87013.12508844  5149.00192074
0.26300001 85039.32253619  3367.55733178
0.26400001 83106.65960829  4624.88582604
0.26500001 81215.73790570  4212.66052451
0.26600001 79364.17180386  5403.50989296
0.26700001 77553.52010757  4052.94715261
0.26800001 75781.96204196  4586.70346964
0.26900001 74048.91854286  4498.47201435
0.27000001 72354.76516210  3823.58774593
0.27100001 70698.40678060  3749.84367310
0.27200001 69079.85421041  3111.70218016
0.27300001 67497.71915273  3051.57202731
0.27400001 65951.03056626  4080.72020941
0.27500001 64442.54727124  2934.71374162
0.27600001 62967.58393704  2616.30323640
0.27700001 61529.29142131  2822.34873107
0.27800001 60124.57434280  2516.21355533
0.27900001 58754.53451167  3454.76679279
0.28000001 57417.73457632  2662.17338963
0.28100001 56114.07299082  2373.62539985
0.28200001 54843.46815772  3957.77906692
0.28300001 53605.08184381  2740.29191355
0.28400001 52398.55613575  3136.05373316
0.28500001 51223.60520878  2636.99132096
0.28600001 50078.72649119  2802.65606073
0.28700001 48964.84149841  3172.92187928
0.28800001 47880.15885101  2905.84697821
0.28900001 46826.57940492  2036.95630053
0.29000001 45800.55012107  2798.87175038
0.29100001 44804.46133673  1962.43549944
0.29200001 43835.81957926  2311.90123404
0.29300001 42894.90932046  3026.66494492
0.29400001 41981.15508448  2229.19944051
0.29500001 41095.43215079  2189.56472864
0.29600001 40234.91844683  2330.20541215
0.29700001 39400.28817223  1937.31226114
0.29800001 38591.95023173  2077.01885979
0.29900001 37808.55077609  1701.38486547
0.30000001 37049.75953548  2007.35606666
0.30100001 36316.18241701  1809.63545551
0.30200001 35605.28014681  2265.56408300
0.30300001 34918.45491447  1910.73794338
0.30400001 34255.42248309  1723.90421807
0.30500001 33613.78774793  1851.44751681
0.30600001 32994.81536926  1975.23471559
0.30700001 32398.37818506  1496.80514301
0.30800001 31822.96530989  1474.99451195
0.30900001 31268.67125276  1744.79193851
0.31000001 30736.01525150  1720.60221524
0.31100001 30221.98390978  1697.26669673
0.31200001 29729.07338691  1535.35806776
0.31300001 29255.15741047  1653.50157513
0.31400001 28801.95642347  1769.16025708
0.31500001 28366.54727978  1747.94672614
0.31600002 27949.76122418  1461.91233005
0.31700002 27550.69282807  1708.41854316
0.31800002 27169.86344602  1430.08583019
0.31900002 26806.59518677  1801.40328185
0.32000002 26460.18154472  1401.46358187
0.32100002 26130.81013713  1262.11818938
0.32200002 25817.93993617  1501.05509896
0.32300002 25520.41228173  1488.35051475
0.32400002 25238.92720476  1476.47731139
0.32500002 24972.46977526  1831.73074475
0.32600002 24721.57798527  1212.59345760
0.32700002 24485.18995830  1566.07282389
0.32800002 24263.89736286  2035.61976565
0.32900002 24055.39552730  1905.18741598
0.33000002 23862.40891562  2014.10671990
0.33100002 23680.45427877  1179.28667893
0.33200002 23514.04978659  1409.43221095
0.33300002 23359.23055674  1287.32725694
0.33400002 23217.69549646  1516.69603013
0.33500002 23087.95237033  1279.99614003
0.33600002 22970.03723601  1161.13543727
0.33700002 22863.24317590  1622.83307748
0.33800002 22769.18764571  1620.93854526
0.33900002 22684.92344607  1851.08984086
0.34000002 22612.16233403  1156.61215816
0.34100002 22549.75383466  1388.16291180
0.34200002 22498.57420830  1389.06203740
0.34300002 22456.00003550  1274.60262238
0.34400002 22424.07685191  1276.49063525
0.34500002 22401.03375269  1162.61370683
0.34600002 22388.56229372  1398.38966709
0.34700002 22382.86343347  1518.90118453
0.34800002 22387.60179494  1289.19011042
0.34900002 22400.27243742  1646.42010213
0.35000002 22421.22203945  1298.52513592
0.35100002 22450.31592687  1422.45208450
0.35200002 22486.26845496  1547.84236241
0.35300002 22530.31656001  1315.99585260
0.35400002 22581.95526268  1563.23592710
0.35500002 22640.29928961  1692.58885506
0.35600002 22705.03993790  1580.61143014
0.35700002 22776.58423117  1834.65394672
0.35800002 22855.08261117  2215.34326243
0.35900002 22939.19052740  1858.07452073
0.36000002 23030.03081882  1371.78385070
0.36100002 23125.73157139  1506.87274057
0.36200002 23228.13778484  1770.68102721
0.36300002 23334.14684852  1401.44892610
0.36400002 23446.10368871  1540.40908531
0.36500002 23562.53075771  1422.94129986
0.36600002 23684.26936383  1434.20099926
0.36700002 23810.09856547  1314.31750307
0.36800002 23941.68772475  1987.75871750
0.36900002 24076.44312036  1469.86692212
0.37000002 24214.26463922  1617.02866921
0.37100002 24356.51227235  1495.00279409
0.37200002 24502.73519797  1508.02090919
0.37300002 24651.80646553  1936.15297152
0.37400002 24805.24687120  2092.94280390
0.37500002 24960.60848983  1548.55622407
0.37600002 25120.02432148  1846.69867547
0.37700002 25281.06774685  1576.78027007
0.37800002 25445.54272386  1591.23708962
0.37900002 25612.40605535  1459.90721431
0.38000002 25781.64999571  2062.78991388
0.38100002 25952.54853558  1933.20543200
0.38200002 26125.76216358  2101.29515036
0.38300002 26300.68336497  1666.41137695
0.38400002 26477.80868205  1987.82158098
0.38500002 26655.65071352  1852.03469931
0.38600002 26835.90486437  2025.17165653
0.38700002 27016.56322657  1729.60045971
0.38800002 27198.33921893  2221.83243605
0.38900002 27381.37313499  1922.17248514
0.39000002 27566.01998908  2263.44600854
0.39100002 27750.46166806  2121.24539040
0.39200002 27936.24969694  2305.57879672
0.39300002 28122.03518776  1828.21359417
0.39400002 28309.19858097  2012.78411447
0.39500002 28495.70875580  1692.64518029
0.39600002 28682.46005627  1878.84463500
0.39700002 28868.94687182  1723.47620990
0.39800002 29056.54625587  1912.93781339
0.39900002 29243.06144016  2280.95890040
0.40000002 29429.28862190  1947.18897392
0.40100002 29615.05271757  2678.68164522
0.40200002 29801.51705591  2702.25268708
0.40300002 29986.21417015  1998.88113129
0.40400002 30170.46969395  2016.14173282
0.40500002 30354.01890266  1848.55983876
0.40600002 30537.01532660  2982.85579843
0.40700002 30718.77565096  2819.98373837
0.40800002 30899.85450724  2085.27678022
0.40900002 31078.94628809  2102.49081601
0.41000002 31257.91190814  2119.75539649
0.41100002 31435.17367735  2525.50197290
0.41200002 31610.44358132  2349.92048718
0.41300002 31784.81673559  2171.22093409
0.41400002 31957.50603296  2188.29032929
0.41500002 32129.10507268  2205.34187668
0.41600002 32297.86725983  3030.34753924
0.41700002 32465.74902458  3053.40384044
0.41800002 32632.64880989  2461.15448986
0.41900002 32795.69819495  2892.58071786
0.42000002 32957.63736376  2497.52987777
0.42100002 33118.05877845  3354.19715202
0.42200002 33276.37307029  2322.52456849
0.42300002 33431.91307878  2338.89674982
0.42400002 33585.46138067  2569.28791737
0.42500002 33737.15130839  2586.96488491
0.42600002 33885.24820394  2821.45532540
0.42700002 34032.27935013  2621.84692537
0.42800002 34176.44089611  2419.17948347
0.42900002 34318.62848117  3763.03779128
0.43000002 34458.41425490  2896.05756329
0.43100002 34594.24812632  2465.87812330
0.43200002 34728.45434106  2706.73585961
0.43300002 34859.66532198  2496.30075200
0.43400002 34988.60084408  2511.30694459
0.43500002 35114.30767581  2755.77099699
0.43600002 35238.34245149  2309.87345716
0.43700002 35358.54481238  3252.27910596
0.43800002 35475.25689139  3270.46408780
0.43900002 35590.19396268  2348.95291285
0.44000002 35701.53880110  3306.31966506
0.44100002 35810.65060980  2374.24624795
0.44200002 35916.54448764  3102.65084260
0.44300002 36019.65271258  2878.69078121
0.44400002 36119.25031506  3375.34410190
0.44500002 36214.98781242  3149.61763931
0.44600002 36308.56591224  3895.18313566
0.44700002 36399.28836274  3424.44521146
0.44800002 36485.74294890  3440.24086569
0.44900002 36570.54991400  3455.91713066
0.45000002 36651.90750868  2479.50166047
0.45100002 36728.71162982  3237.26879647
0.45200002 36803.46096464  2750.87482017
0.45300002 36874.25814451  3515.59193811
0.45400002 36942.54612269  2773.46178160
0.45500002 37007.45984906  3543.83452310
0.45600002 37068.83659445  3303.38952967
0.45700002 37126.97895888  3315.81064797
0.45800002 37181.24807782  3327.90776693
0.45900002 37232.57340594  3596.66676148
0.46000002 37281.36320829  2835.80702684
0.46100002 37325.56712195  3362.66050139
0.46200002 37367.35594526  3114.19559207
0.46300002 37405.46826914  3124.10485791
0.46400002 37439.75830948  3655.99257220
0.46500002 37471.74465240  3405.05759795
0.46600002 37499.47704975  2889.52234102
0.46700002 37523.96145395  3951.27332838
0.46800002 37545.87994600  3433.75861321
0.46900002 37563.60710415  2648.23442636
0.47000002 37577.77511425  3451.33091895
0.47100002 37589.11017746  2927.44003937
0.47200002 37596.92223015  3201.00211039
0.47300002 37602.08512071  3208.21005456
0.47400002 37602.33997939  2947.08353557
0.47500002 37600.59717435  2953.15104205
0.47600002 37595.81565054  2689.98073730
0.47700002 37586.48903786  4311.92222680
