# SAXS profile: number of points = 501, q_min = 0, q_max = 0.5, delta_q = 0.001
#    q    intensity    error
0.00000000 1700912.83420645 331.67800267
0.00100000 1700842.87595358 612.30344988
0.00200000 1700632.95274684 994.87030886
0.00300000 1700283.21733304 1020.16996674
0.00400000 1699793.55426775 1402.32973556
0.00500000 1699164.43094151 2293.87207257
0.00600000 1698395.55844363 3031.63619525
0.00700000 1697487.62214114 2648.08080060
0.00800000 1696440.03461254 2519.21355776
0.00900000 1695254.21869149 2542.88143674
0.01000000 1693929.25955763 3633.47841864
0.01100000 1692466.44305679 4265.01562220
0.01200000 1690865.27521443 4616.06240372
0.01300000 1689127.10358852 4611.31719618
0.01400000 1687251.18081197 5694.47298768
0.01500000 1685239.32008852 4449.03200314
0.01600000 1683090.37183195 4721.06870404
0.01700000 1680806.49507309 4991.99551430
0.01800000 1678387.11937710 5261.74385601
0.01900000 1675833.11657635 6032.99949190
0.02000000 1673145.15150383 7905.61119847
0.02100000 1670324.84435338 5512.07223628
0.02200000 1667370.37533368 8053.39927875
0.02300000 1664284.52267524 8987.13683153
0.02400000 1661067.36860692 7474.80349956
0.02500000 1657720.29951724 7111.62040972
0.02600000 1654243.24715601 8709.59109464
0.02700000 1650637.57555735 7625.94594835
0.02800000 1646902.99503948 9313.23686405
0.02900000 1643041.91867829 8872.42676823
0.03000000 1639055.12671537 9908.08869642
0.03100000 1634942.39716166 9417.26864097
0.03200000 1630705.09304883 11300.78681532
0.03300000 1626345.91420186 9123.80099928
0.03400000 1621862.84665515 10217.73640538
0.03500000 1617259.31990463 8733.20073077
0.03600000 1612535.00551172 8949.56969418
0.03700000 1607691.83408516 12829.38142933
0.03800000 1602730.96385178 12188.76954418
0.03900000 1597653.87397269 10544.51605654
0.04000000 1592459.38880528 11752.35083397
0.04100000 1587151.56746051 12998.77194021
0.04200000 1581730.56531084 11222.37888152
0.04300000 1576196.65031270 15604.34756242
0.04400000 1570553.52204699 11661.36044278
0.04500000 1564800.59991043 12956.54956928
0.04600000 1558938.47456835 17584.82681059
0.04700000 1552970.32473814 13417.66422977
0.04800000 1546896.33305860 14780.59515009
0.04900000 1540719.25878061 11555.39497873
0.05000000 1534438.67955036 16433.83902324
0.05100000 1528057.87890846 13110.73721179
0.05200000 1521575.17645116 15725.48018145
0.05300000 1514995.86109727 15952.90716104
0.05400000 1508318.61514270 12443.62915522
0.05500000 1501547.29312161 15135.59742073
0.05600000 1494680.11802750 15335.41872658
0.05700000 1487722.58831069 18120.46197146
0.05800000 1480673.13011447 15724.74937604
0.05900000 1473533.40937860 18566.52182534
0.06000000 1466306.88509140 17441.72121302
0.06100000 1458994.79963086 18996.11317891
0.06200000 1451597.70343260 16461.11872638
0.06300000 1444118.39952711 15249.89101202
0.06400000 1436555.44940669 16807.69954410
0.06500000 1428915.04592439 16975.51153966
0.06600000 1421194.99270019 17139.61241390
0.06700000 1413398.39614872 15858.33074694
0.06800000 1405528.37043879 16001.94124648
0.06900000 1397585.24506961 22011.96864042
0.07000000 1389568.98680473 17758.69248298
0.07100000 1381484.31747354 14920.03132754
0.07200000 1373330.19830076 24060.74620140
0.07300000 1365111.66523060 18183.28823286
0.07400000 1356827.55530295 25949.32821126
0.07500000 1348480.82671793 15372.68214514
0.07600000 1340071.16955486 18573.38728076
0.07700000 1331604.44213188 24927.63632553
0.07800000 1323078.69949763 18814.17998917
0.07900000 1314496.13107389 18928.74517529
0.08000000 1305860.89101352 26972.55796920
0.08100000 1297172.80221829 22337.31670223
0.08200000 1288432.77185758 20853.28539106
0.08300000 1279644.39469806 17735.87214290
0.08400000 1270807.87052443 19443.36133167
0.08500000 1261927.30686140 24418.29453409
0.08600000 1253001.90111113 24527.51336585
0.08700000 1244034.94896289 19705.51451690
0.08800000 1235025.94406523 26380.15540414
0.08900000 1225980.29743298 23171.02870982
0.09000000 1216896.84057043 24915.96398112
0.09100000 1207778.51065584 16667.34423010
0.09200000 1198626.23840039 21737.08785475
0.09300000 1189443.38151246 21802.49820767
0.09400000 1180228.42185421 23545.55812257
0.09500000 1170985.55734852 18548.41210023
0.09600000 1161715.94982307 16902.96786450
0.09700000 1152422.64747728 16940.61371434
0.09800000 1143106.65967614 22067.67510262
0.09900000 1133769.26603804 20407.84774831
0.10000000 1124410.83623556 18738.30746708
0.10100000 1115033.93987034 22178.02610709
0.10200000 1105641.06136477 20498.58624188
0.10300000 1096233.07910605 17101.23683851
0.10400000 1086812.58283568 22252.48868043
0.10500000 1077382.27052705 20556.45468882
0.10600001 1067938.59422325 20568.49829256
0.10700001 1058488.67486438 22291.77254164
0.10800001 1049030.99921417 27442.65223094
0.10900001 1039569.04240566 18868.17900771
0.11000001 1030103.10645581 18866.33928277
0.11100001 1020635.39368951 22290.67804748
0.11200001 1011167.80137594 27422.87206431
0.11300001 1001700.00501844 22267.79215995
0.11400001 992236.11272853 27385.71800075
0.11500001 982776.74775535 22230.41108101
0.11600001 973322.54005411 22206.35479706
0.11700001 963876.55353823 18766.67738120
0.11800001 954437.16533272 18740.37462395
0.11900001 945008.92258536 23814.22597084
0.12000001 935591.47988430 16980.98615979
0.12100001 926189.12781176 30508.67130733
0.12200001 916799.31036965 18606.44288053
0.12300001 907426.10134693 18565.93890828
0.12400001 898069.23353679 26942.07827555
0.12500001 888731.12755760 25195.52865348
0.12600001 879414.27039226 18428.12690447
0.12700001 870118.19977392 16706.27022297
0.12800001 860843.39145798 18323.05245073
0.12900001 851593.36830084 18266.67861100
0.13000001 842368.27447192 16552.53737357
0.13100001 833168.37423175 23095.42842237
0.13200001 823997.47582092 19726.50050107
0.13300001 814855.87230412 21292.18494708
0.13400001 805742.90128740 21211.18287641
0.13500001 796661.93655125 16251.90427189
0.13600001 787612.37793475 16185.43512971
0.13700001 778597.01654901 16116.95900253
0.13800001 769614.91476381 19255.76607541
0.13900001 760670.79019211 15974.08734734
0.14000001 751761.70060286 20669.68893287
0.14100001 742891.47415206 22153.02480402
0.14200001 734058.66532494 25192.89458218
0.14300001 725268.53856036 17232.38128900
0.14400001 716514.79313010 23376.29622853
0.14500001 707806.88071010 17051.06856064
0.14600001 699139.51943879 20040.83527013
0.14700001 690518.42136035 21461.31354835
0.14800001 681939.94294566 15241.35844390
0.14900001 673406.49833594 19697.14100565
0.15000001 664920.25977729 15060.44459455
0.15100001 656480.98196847 17961.32051416
0.15200001 648091.21215449 17848.43282495
0.15300001 639750.07550977 17733.87292998
0.15400001 631456.34539080 22022.04108475
0.15500001 623215.19317781 17499.88345030
0.15600001 615023.68741372 15932.18937437
0.15700001 606887.07998175 15821.54692185
0.15800001 598798.52989189 15709.48017318
0.15900001 590766.82591661 18431.92583860
0.16000001 582786.47950520 21111.44121659
0.16100001 574864.06049808 19556.87626131
0.16200001 566994.39377594 22180.82173158
0.16300001 559181.91981968 13755.87587695
0.16400001 551425.36059381 16377.33398280
0.16500001 543726.14409989 17600.41611545
0.16600001 536083.92145585 13428.90286649
0.16700001 528499.74441485 14650.01360688
0.16800001 520972.66023711 17168.65482876
0.16900001 513507.22762854 14403.87841510
0.17000001 506099.91332200 12981.46338969
0.17100001 498752.75274671 12867.82162850
0.17200001 491465.92491661 16579.60376000
0.17300001 484239.93129334 15166.39536433
0.17400001 477075.82254015 16280.21321303
0.17500001 469972.25654920 22333.08268596
0.17600001 462929.09707822 18436.15216186
0.17700001 455950.25839472 15826.03421635
0.17800001 449033.09702215 15673.50099185
0.17900001 442178.29862081 13132.69608934
0.18000001 435387.16312586 16549.06685211
0.18100001 428660.30392749 15213.15490500
0.18200001 421994.03967263 13900.48432345
0.18300001 415394.17508152 17197.31966076
0.18400001 408856.47446501 15884.07478334
0.18500001 402383.99452647 17962.42236424
0.18600001 395975.29994406 16660.66153225
0.18700001 389630.61832811 16481.37593394
0.18800001 383349.61429914 15215.14691039
0.18900001 377135.56131470 16122.54600795
0.19000001 370982.12846073 10628.63848259
0.19100001 364898.17681547 10509.06798884
0.19200001 358875.81092136 11428.40073880
0.19300001 352920.26805669 13350.97437145
0.19400001 347028.54331868 13195.76098324
0.19500001 341202.14080136 12037.61209631
0.19600001 335439.65303527 11894.69065873
0.19700001 329742.63534006 10772.69240565
0.19800001 324110.51387614 9674.69929642
0.19900001 318543.94455990 10511.95066727
0.20000001 313039.90987451 12269.59984741
0.20100001 307602.52301704 12116.46395429
0.20200001 302228.44070286 10123.14209980
0.20300001 296919.52478976 10902.88546560
0.20400001 291674.90728482 11659.70496982
0.20500001 286493.70929909 9737.92163936
0.20600001 281376.95273428 14852.48315213
0.20700001 276324.04996453 10345.57291970
0.20800001 271334.47013949 8506.33604097
0.20900001 266410.73391159 12587.90777237
0.21000001 261548.02483330 8277.99537729
0.21100001 256748.56760628 8981.06531943
0.21200001 252012.08931942 10467.32262472
0.21300001 247337.95648337 8733.50365631
0.21400001 242727.61103681 8610.76240862
0.21500001 238179.54845313 13118.93014903
0.21600001 233691.79454555 9128.00192651
0.21700001 229266.86793926 8246.72962968
0.21800001 224902.98675306 10343.28884981
0.21900001 220599.29992666 7279.77724178
0.22000001 216356.26353121 7889.43152270
0.22100001 212176.19634209 7772.01443950
0.22200001 208054.85566531 10439.15287662
0.22300001 203993.30584286 9595.84556059
0.22400001 199989.64190345 7424.61580675
0.22500001 196048.12140746 7310.63479298
0.22600001 192163.85228349 8506.13332357
0.22700001 188338.87628223 8373.54683549
0.22800001 184571.26992473 6974.02576391
0.22900001 180860.93889430 6863.67295563
0.23000001 177208.25492471 6140.26632353
0.23100001 173614.06327053 6645.94665630
0.23200001 170074.45349553 8321.74340310
0.23300001 166592.22100699 8186.34212745
0.23400001 163165.83137311 5751.59582793
0.23500001 159793.24020200 8485.02145604
0.23600001 156476.68638342 5562.74646403
0.23700001 153214.56541495 7110.68831723
0.23800001 150006.40755104 7528.82195109
0.23900001 146852.07503945 5815.34244663
0.24000001 143750.70018935 5196.58805765
0.24100001 140703.03261158 6639.77642301
0.24200001 137707.26632229 5521.37310436
0.24300001 134763.50562545 5425.57899313
0.24400001 131870.44309311 4846.23901292
0.24500001 129028.90743484 6665.63367340
0.24600001 126237.84963323 7015.66882524
0.24700001 123497.74611312 5053.52801001
0.24800001 120806.12565207 4963.31990721
0.24900001 118163.69760973 6646.70830499
0.25000001 115570.32073683 5221.46733791
0.25100001 113024.60366583 5126.79626483
0.25200001 110527.69132677 5872.33651801
0.25300001 108077.97750066 4941.32536511
0.25400001 105674.40722999 4446.25089456
0.25500001 103317.12272332 5554.32878039
0.25600001 101006.24591626 5840.68644645
0.25700001 98740.40383439  4967.62995194
0.25800001 96519.15808608  5624.65420359
0.25900001 94342.74667809  4783.17748289
0.26000001 92210.49708120  3971.04524469
0.26100001 90119.77721855  4604.21963595
0.26200001 88074.48155285  4516.90000016
0.26300001 86070.23505930  4090.05776355
0.26400001 84107.58610630  3677.60437652
0.26500001 82187.35990555  3935.13097848
0.26600001 80307.24882266  3537.93601430
0.26700001 78468.53134528  5047.09617496
0.26800001 76669.63050281  4021.70565834
0.26900001 74909.82382790  3944.00241118
0.27000001 73189.39993150  4165.20894721
0.27100001 71507.50503363  2917.50634344
0.27200001 69863.97287830  3147.02280723
0.27300001 68257.47784648  3646.99721393
0.27400001 66687.01930822  3025.92364431
0.27500001 65155.28902028  2967.17200241
0.27600001 63657.77077156  3702.97270103
0.27700001 62197.34534407  3631.08119303
0.27800001 60771.30280734  3051.93497142
0.27900001 59380.23635405  2992.76405389
0.28000001 58023.24545818  3179.38388536
0.28100001 56699.74288295  2638.23916121
0.28200001 55409.94201228  3057.79779467
0.28300001 54152.91626569  2537.60577632
0.28400001 52928.23200911  2715.21843058
0.28500001 51735.84059577  2441.41443327
0.28600001 50573.84265215  3048.08564092
0.28700001 49443.45260053  2563.14870413
0.28800001 48342.78775329  3143.48992245
0.28900001 47273.91680114  2673.34012164
0.29000001 46232.89597228  2421.67920566
0.29100001 45222.30015815  2178.81052475
0.29200001 44239.86821997  2138.77653033
0.29300001 43285.52010140  3054.22644293
0.29400001 42358.85173574  2249.25513364
0.29500001 41460.57335505  2945.35927057
0.29600001 40588.20964959  2712.30723823
0.29700001 39742.10188991  2487.06085400
0.29800001 38922.75015687  2269.39105533
0.29900001 38128.81821088  2230.53597093
0.30000001 37359.92008965  2361.52066066
0.30100001 36616.79333760  2156.36306173
0.30200001 35896.76623719  2773.56377462
0.30300001 35201.14400149  1605.17224246
0.30400001 34529.84951726  1579.74069020
0.30500001 33880.35218168  1710.61906264
0.30600001 33253.89564792  1684.47616379
0.30700001 32650.46511153  1810.14187148
0.30800001 32068.45560833  1635.01028660
0.30900001 31508.00310556  2197.68332066
0.31000001 30969.48893536  1589.19939996
0.31100001 30450.06792448  1995.08854487
0.31200001 29952.07474546  1687.49997105
0.31300001 29473.63583538  1388.20831357
0.31400001 29016.20967376  1782.32076360
0.31500001 28576.76325719  1625.44637103
0.31600002 28156.54477080  1740.49689742
0.31700002 27754.33178568  1588.65802663
0.31800002 27370.61691590  1440.65248958
0.31900002 27004.86924865  1555.48054237
0.32000002 26656.34970546  1411.85362900
0.32100002 26325.23265783  1525.81055709
0.32200002 26010.79957450  1638.29028877
0.32300002 25712.12082772  2124.33552337
0.32400002 25429.81658889  1363.67397915
0.32500002 25162.79489987  1476.55287464
0.32600002 24911.60781050  1588.48874725
0.32700002 24675.28600189  1335.42654166
0.32800002 24454.29989798  1448.18370853
0.32900002 24246.44531639  1320.21900999
0.33000002 24054.34093715  1552.58750931
0.33100002 23873.52724387  1307.79188435
0.33200002 23708.55445849  1539.51505667
0.33300002 23555.38596173  1652.17484959
0.33400002 23415.71130530  1647.29536834
0.33500002 23288.16044280  1525.84034447
0.33600002 23172.60257858  1639.92516215
0.33700002 23068.48140862  1286.52926908
0.33800002 22977.20058768  1518.90791678
0.33900002 22896.11496107  1751.55287747
0.34000002 22826.53421381  1284.33500836
0.34100002 22767.63893811  1167.97993284
0.34200002 22720.15921710  1168.95224708
0.34300002 22681.39409991  1287.39599008
0.34400002 22653.61747469  1524.02218779
0.34500002 22634.73410299  1292.21703114
0.34600002 22626.68476893  1413.26279760
0.34700002 22625.56530673  1299.16002144
0.34800002 22635.03812363  1421.93316227
0.34900002 22652.60105943  1783.89241792
0.35000002 22678.64110248  1432.83661272
0.35100002 22712.92897461  1319.16697732
0.35200002 22754.15651582  1204.83264458
0.35300002 22803.66480383  1453.04959012
0.35400002 22860.92381225  2069.48522612
0.35500002 22924.90588319  1224.19003214
0.35600002 22995.51423937  1600.83279960
0.35700002 23072.99792150  1734.62806590
0.35800002 23157.51961203  1371.73573919
0.35900002 23247.77836630  1506.45610949
0.36000002 23344.80255591  1264.12111828
0.36100002 23446.85143697  1527.79691200
0.36200002 23555.65663704  1282.60556464
0.36300002 23668.15186425  1679.96549890
0.36400002 23786.61918536  1823.24444692
0.36500002 23909.67642302  1837.69781692
0.36600002 24038.07473435  1323.29607681
0.36700002 24170.67228431  1334.22117329
0.36800002 24309.03396017  1749.15662146
0.36900002 24450.58280278  1764.10963278
0.37000002 24595.23855944  1779.34261787
0.37100002 24744.32619694  1656.88016063
0.37200002 24897.51463388  1532.31761073
0.37300002 25053.53448060  1686.60402113
0.37400002 25213.93768219  2269.25449889
0.37500002 25376.25459104  1860.58707475
0.37600002 25542.68945299  1877.77090409
0.37700002 25710.72285497  2186.69708240
0.37800002 25882.18456399  1765.68271460
0.37900002 26056.04910147  1930.75332988
0.38000002 26232.26718806  1649.09155490
0.38100002 26410.10323244  2723.93817644
0.38200002 26590.30759798  1680.37456826
0.38300002 26772.15090768  2158.90635147
0.38400002 26956.18529633  1868.06372953
0.38500002 27140.97406307  1728.60871997
0.38600002 27328.01803515  1586.39152210
0.38700002 27515.48416755  2081.82163074
0.38800002 27703.97481641  1778.17970783
0.38900002 27893.74980677  1794.96288510
0.39000002 28085.01509359  1976.62345593
0.39100002 28276.07358409  2161.42316717
0.39200002 28468.49280456  1846.03950337
0.39300002 28660.73703938  1693.84963928
0.39400002 28854.36544401  2393.46972698
0.39500002 29047.15863188  2588.10195672
0.39600002 29240.23592643  2437.75858468
0.39700002 29432.90187254  1932.85875754
0.39800002 29626.71762864  1950.47504749
0.39900002 29819.32387944  2504.82332455
0.40000002 30011.37591673  2707.77652038
0.40100002 30203.09515501  2185.49606896
0.40200002 30395.33802966  2021.13809804
0.40300002 30585.69444857  2594.89043996
0.40400002 30775.63877324  2056.58215846
0.40500002 30964.65871844  2262.89736636
0.40600002 31153.08745595  3993.98176653
0.40700002 31340.14548811  2301.62039370
0.40800002 31526.31116290  2320.96713778
0.40900002 31710.55880374  1950.19945883
0.41000002 31894.46603952  2359.55270940
0.41100002 32076.58428612  2180.56630309
0.41200002 32256.59050272  2397.95505159
0.41300002 32435.60248525  2618.52631271
0.41400002 32612.68388542  2030.13966806
0.41500002 32788.65287700  2864.41685106
0.41600002 32961.67965984  2680.27910854
0.41700002 33133.70197146  2285.23153325
0.41800002 33304.56502383  3977.06482077
0.41900002 33471.49430941  2741.31551384
0.42000002 33637.12288782  2124.18441102
0.42100002 33801.13692311  2567.53448234
0.42200002 33962.85705193  2370.43772026
0.42300002 34121.72573765  2387.15604572
0.42400002 34278.43165046  2185.25012127
0.42500002 34433.17719213  3520.44820294
0.42600002 34584.08724774  3322.66633978
0.42700002 34733.85792136  2675.89654106
0.42800002 34880.61960756  2693.48157373
0.42900002 35025.22395876  3388.69057859
0.43000002 35167.33854876  2728.28225390
0.43100002 35305.34720751  2516.56526820
0.43200002 35441.49076525  3222.69490800
0.43300002 35574.53959812  2547.49290134
0.43400002 35705.20651456  2562.74131903
0.43500002 35832.39091963  2343.43847720
0.43600002 35957.83241509  3299.85043711
0.43700002 36079.29517854  4266.73765001
0.43800002 36197.07155021  2621.93500199
0.43900002 36312.94239965  2396.65431195
0.44000002 36425.06650367  2891.42191609
0.44100002 36534.80033640  2664.48311480
0.44200002 36641.13720674  2678.28405105
0.44300002 36744.59758423  3426.06644112
0.44400002 36844.31621189  2459.35822369
0.44500002 36940.01814661  2471.28733113
0.44600002 37033.46739135  3228.02233815
0.44700002 37123.93255702  2744.20122467
0.44800002 37209.77838590  3007.29443167
0.44900002 37293.98587932  2517.34416616
0.45000002 37374.58391710  2781.22979400
0.45100002 37450.49197648  3554.80086688
0.45200002 37524.10747495  3059.71586851
0.45300002 37593.64646710  4096.20391319
0.45400002 37660.54929173  3855.49891646
0.45500002 37723.87405280  2838.34441825
0.45600002 37783.63383964  4144.10915594
0.45700002 37839.87887457  3379.47974245
0.45800002 37892.10279800  3391.53282167
0.45900002 37941.27781815  2617.94829353
0.46000002 37987.72382645  2889.53634981
0.46100002 38029.40840114  4216.70100337
0.46200002 38068.58222066  3437.02210869
0.46300002 38104.00123521  3978.05791750
0.46400002 38135.35529530  3457.92350529
0.46500002 38164.36344117  3201.22695717
0.46600002 38188.82737268  3210.15298110
0.46700002 38209.95647501  2950.57297885
0.46800002 38228.40840005  3496.17925593
0.46900002 38242.55147665  3235.32000827
0.47000002 38252.87358628  2972.82221166
0.47100002 38260.31386352  4875.89462987
0.47200002 38264.06768485  2714.83573092
0.47300002 38265.16192493  3808.91439854
0.47400002 38261.02820681  2726.09838895
0.47500002 38254.87055616  3277.67746461
0.47600002 38245.51647203  4651.99361657
0.47700002 38231.42911583  3015.31295729
