# SAXS profile: number of points = 501, q_min = 0, q_max = 0.5, delta_q = 0.001
#    q    intensity    error
0.00000000 1700912.83420644 255.13692513
0.00100000 1700842.91138650 867.42990541
0.00200000 1700633.08764801 1071.39887914
0.00300000 1700283.54014551 1020.17016043
0.00400000 1699794.11247319 1784.78388591
0.00500000 1699165.30874305 1682.17372224
0.00600000 1698396.81526960 1783.31672864
0.00700000 1697489.34644173 2851.78222054
0.00800000 1696442.30748580 3435.29581770
0.00900000 1695257.06243782 3814.32855354
0.01000000 1693932.75830165 3074.48808907
0.01100000 1692470.71457309 3046.44741887
0.01200000 1690870.32939248 3956.63674425
0.01300000 1689133.04811991 4611.33342475
0.01400000 1687258.07608251 4935.23009132
0.01500000 1685247.21888855 4449.05285598
0.01600000 1683099.33093209 4721.09383431
0.01700000 1680816.60009160 6807.30753574
0.01800000 1678398.48074516 5740.12306244
0.01900000 1675845.72866338 5530.29115413
0.02000000 1673159.16061946 6324.54191324
0.02100000 1670340.30462010 6063.33558067
0.02200000 1667387.23239362 5752.48621311
0.02300000 1664302.95886927 7189.78910958
0.02400000 1661087.41371696 6229.07808547
0.02500000 1657742.10292404 9697.79174501
0.02600000 1654266.71847917 7369.75856790
0.02700000 1650662.93296394 8319.34156317
0.02800000 1646930.14604607 10746.21969577
0.02900000 1643071.11073421 8872.58440534
0.03000000 1639086.32418520 9146.10210936
0.03100000 1634975.73037558 9417.46064029
0.03200000 1630740.50445452 10493.81562949
0.03300000 1626383.49598438 9953.46745428
0.03400000 1621902.66285185 8514.98937286
0.03500000 1617301.54234384 11353.45735153
0.03600000 1612579.53812805 9844.79853524
0.03700000 1607738.85218091 11913.34544562
0.03800000 1602780.55378484 12189.14667564
0.03900000 1597705.95155820 10544.85976862
0.04000000 1592514.12452540 12732.15101558
0.04100000 1587208.96073029 12999.24199111
0.04200000 1581790.74790788 11222.80587706
0.04300000 1576259.69664004 13524.30882494
0.04400000 1570619.37544075 12722.01753191
0.04500000 1564869.35829226 12957.11888871
0.04600000 1559010.25173482 15387.43189994
0.04700000 1553045.05222789 15654.69485452
0.04800000 1546974.13163659 13644.31247588
0.04900000 1540800.18482038 15022.80250127
0.05000000 1534522.73150928 16434.73921977
0.05100000 1528145.21796217 19071.25320858
0.05200000 1521665.85634144 15726.41735816
0.05300000 1515089.84683828 14726.67399779
0.05400000 1508416.08206081 18666.64988600
0.05500000 1501648.14299876 12613.84498962
0.05600000 1494784.54315128 15336.49012840
0.05700000 1487830.40990912 19416.18775563
0.05800000 1480784.62174208 15725.93341718
0.05900000 1473648.48047615 14589.12063811
0.06000000 1466425.70701601 18784.91418448
0.06100000 1459117.41363878 18997.70961337
0.06200000 1451723.75247836 20578.18515328
0.06300000 1444248.46147772 13864.78587844
0.06400000 1436689.44588237 15408.49502769
0.06500000 1429052.79793532 22636.19737817
0.06600000 1421336.66563694 17141.32098960
0.06700000 1413543.98293765 14418.14930072
0.06800000 1405677.99583994 14548.76793796
0.06900000 1397738.99469655 17611.51215773
0.07000000 1389726.76315322 19240.76793687
0.07100000 1381646.17598468 14921.77939954
0.07200000 1373496.19157021 16543.76240249
0.07300000 1365281.86829470 15154.62944815
0.07400000 1357002.05854174 16792.90126144
0.07500000 1348659.56149981 21524.60761045
0.07600000 1340254.15400408 21671.91068624
0.07700000 1331791.68218074 18698.35609456
0.07800000 1323270.23139003 21953.05416828
0.07900000 1314692.11028926 18931.56727613
0.08000000 1306061.18167167 22216.10174242
0.08100000 1297377.67748174 19149.29541808
0.08200000 1288642.03197772 17647.95345607
0.08300000 1279858.19389726 24189.32099991
0.08400000 1271026.04673945 17826.14114226
0.08500000 1262149.92739831 19538.08179334
0.08600000 1253229.01256556 19625.56725823
0.08700000 1244266.82645040 18066.75516843
0.08800000 1235262.20057945 23087.05161308
0.08900000 1226221.25897198 19864.78532839
0.09000000 1217142.39551508 31566.58951054
0.09100000 1208028.59187048 18337.87488613
0.09200000 1198880.80697351 28431.45967328
0.09300000 1189702.68559431 20129.77038620
0.09400000 1180492.34347034 16822.01668504
0.09500000 1171254.21465927 23612.48607738
0.09600000 1161989.22379264 16906.94400094
0.09700000 1152700.60959904 18639.16973350
0.09800000 1143389.19047863 20375.19633232
0.09900000 1134056.53640584 20413.01861518
0.10000000 1124702.67036804 25558.86938608
0.10100000 1115330.48288297 25596.83578603
0.10200000 1105942.43375235 18795.49254569
0.10300000 1096538.98900579 22237.81174312
0.10400000 1087123.31703527 20546.63165858
0.10500000 1077697.53996726 18848.93086086
0.10600001 1068258.64829072 24003.77295656
0.10700001 1058813.50638744 22298.61349384
0.10800001 1049360.44678901 20588.45293493
0.10900001 1039903.11530576 20590.08265214
0.11000001 1030441.91292834 17156.85865782
0.11100001 1020978.58990354 20582.92934136
0.11200001 1011515.75200743 25717.78920551
0.11300001 1002052.55307927 17135.09946439
0.11400001 992593.39063133 18834.46047404
0.11500001 983138.43291272 20527.93144584
0.11600001 973688.64086129 17088.23645183
0.11700001 964247.42411252 22187.33427374
0.11800001 954812.64366237 27269.45038734
0.11900001 945388.76333702 22122.09810407
0.12000001 935975.75593102 18686.75684740
0.12100001 926577.80932124 18652.01218030
0.12200001 917192.41256987 21998.86105188
0.12300001 907823.88821688 21951.18265130
0.12400001 898471.30376568 23584.87283511
0.12500001 889137.66924740 25207.05411093
0.12600001 879825.15912959 16760.67007124
0.12700001 870533.34865484 20057.08929823
0.12800001 861262.90387105 21665.06936793
0.12900001 852016.94486122 28244.36305337
0.13000001 842796.29856003 18217.04285203
0.13100001 833600.37096914 26408.46099713
0.13200001 824433.59905322 18092.19618409
0.13300001 815296.09940403 18026.19760763
0.13400001 806187.22246938 16325.29202467
0.13500001 797110.19107176 21139.36326391
0.13600001 788064.53414555 37247.87196265
0.13700001 779053.26406412 19351.68399185
0.13800001 770074.99932264 16056.06449301
0.13900001 761134.80263562 22377.36425276
0.14000001 752229.49151451 19091.58539501
0.14100001 743363.01351162 23750.44940184
0.14200001 734533.95059832 26784.78177188
0.14300001 725747.48196493 23514.21952477
0.14400001 716997.38685694 21832.57145963
0.14500001 708292.88169660 15511.61484087
0.14600001 699629.10829343 18512.18707874
0.14700001 691011.55854017 16874.50305563
0.14800001 682436.45176247 18302.94649978
0.14900001 673906.14871269 16679.17796758
0.15000001 665423.39076359 15071.84051193
0.15100001 656987.37192066 17975.17534391
0.15200001 648600.58538460 14885.38413697
0.15300001 640262.60385556 16269.07353169
0.15400001 631971.92433406 22040.02190124
0.15500001 623733.71963828 23352.59156534
0.15600001 615544.96649265 14496.08464504
0.15700001 607411.50889398 17274.78412826
0.15800001 599325.65955822 20011.48471717
0.15900001 591296.47977680 22705.78589516
0.16000001 583318.91819241 14087.15253929
0.16100001 575398.91665323 16778.63320163
0.16200001 567531.90252226 13876.15567171
0.16300001 559721.67495862 17899.90001019
0.16400001 551967.51183706 17759.55553178
0.16500001 544270.61615373 14907.57288026
0.16600001 536630.50678065 17475.37327838
0.16700001 529048.39569923 13332.02020109
0.16800001 521523.49956308 17186.80773960
0.16900001 514059.92586335 13108.52872847
0.17000001 506654.68594338 16894.40130053
0.17100001 499309.36302498 18035.05504410
0.17200001 492024.11832316 14044.82912077
0.17300001 484799.67095860 12653.27200956
0.17400001 477637.23422848 16299.37138780
0.17500001 470535.27864703 18633.19791442
0.17600001 463493.23737630 18458.61905030
0.17700001 456515.73655039 12188.97074159
0.17800001 449599.85165328 15693.28356318
0.17900001 442746.20259241 13149.56283810
0.18000001 435956.17983746 14203.45301000
0.18100001 429230.29218073 12889.78628306
0.18200001 422564.82297286 12759.34543239
0.18300001 415965.85660236 13776.78982148
0.18400001 409428.87382200 15906.31249941
0.18500001 402956.94816151 13490.99926179
0.18600001 396548.69535167 12235.51057312
0.18700001 390204.65222789 22007.54342539
0.18800001 383923.80181217 14149.51238430
0.18900001 377710.17737859 12917.68867668
0.19000001 371556.79763287 14903.14385721
0.19100001 365472.76866182 17893.54759915
0.19200001 359450.25757750 13527.91108314
0.19300001 353494.74213845 12344.03697876
0.19400001 347602.72490050 12200.85622055
0.19500001 341776.20289466 11053.04292393
0.19600001 336013.14326138 11915.02662311
0.19700001 330315.59404548 10791.41096744
0.19800001 324682.77991804 14537.67215786
0.19900001 319115.60082845 13402.85586821
0.20000001 313610.87201455 16074.12600479
0.20100001 308172.59012888 11205.15590667
0.20200001 302797.31801393 14752.28603088
0.20300001 297487.41213874 11834.04981421
0.20400001 292241.62666503 9885.07348917
0.20500001 287059.16294183 12418.17997583
0.20600001 281940.98402486 12255.97515488
0.20700001 276886.67465890 12094.41052079
0.20800001 271895.39529689 8523.92104548
0.20900001 266969.93890070 9250.50882019
0.21000001 262105.54304976 9125.20491265
0.21100001 257304.21976443 8182.27457531
0.21200001 252565.77209674 8876.42447997
0.21300001 247889.45092777 10344.42727625
0.21400001 243276.84219201 7845.67853161
0.21500001 238726.55459156 9281.68888134
0.21600001 234236.36098696 10674.15147483
0.21700001 229809.07925773 11272.13587053
0.21800001 225442.69514521 8886.95146280
0.21900001 221136.30212354 10946.24747267
0.22000001 216890.42674398 7908.90978517
0.22100001 212707.44662952 7083.15830768
0.22200001 208583.15065582 6977.10671935
0.22300001 204518.67749224 8246.19346641
0.22400001 200511.79743843 7444.00083190
0.22500001 196567.02918917 7996.34712554
0.22600001 192679.33089221 8528.95098526
0.22700001 188850.97300567 7104.57394044
0.22800001 185079.75075155 7628.98768675
0.22900001 181365.82145503 8759.96959054
0.23000001 177709.57241189 6157.63697528
0.23100001 174111.29068160 7270.88784272
0.23200001 170567.76403575 7749.74672548
0.23300001 167081.58451597 8210.38945142
0.23400001 163651.12339188 8076.18332135
0.23500001 160274.45147756 6241.08743572
0.23600001 156953.50822691 7811.57647392
0.23700001 153686.75332922 6035.27908869
0.23800001 150474.34330061 5933.95600873
0.23900001 147315.34048142 6894.35826063
0.24000001 144209.52576455 7298.44444416
0.24100001 141157.11510808 6148.80422495
0.24200001 138156.48769501 7553.70632203
0.24300001 135207.71560491 5443.46288774
0.24400001 132309.74357451 5348.62163701
0.24500001 129463.00887843 6210.34082967
0.24600001 126666.76329294 5162.30418221
0.24700001 123921.50017723 5070.86802713
0.24800001 121224.51857477 4527.73598296
0.24900001 118576.47392491 4891.27978080
0.25000001 115977.77341575 6549.84506352
0.25100001 113426.48482591 5573.77772803
0.25200001 110923.99203126 7156.26168446
0.25300001 108468.49857837 4545.91499049
0.25400001 106059.10522962 4868.11316036
0.25500001 103695.88628743 5574.69111056
0.25600001 101379.02937929 5080.61029772
0.25700001 99107.14655474  4602.53610376
0.25800001 96879.81713760  4140.15918126
0.25900001 94697.18659600  9971.61422036
0.26000001 92558.78721836  5797.88270569
0.26100001 90461.73830522  5688.23437378
0.26200001 88410.03290957  3487.77596331
0.26300001 86399.20420044  4789.97210752
0.26400001 84430.17165630  5034.14922321
0.26500001 82503.37176626  4937.82703386
0.26600001 80616.50954870  5165.90617633
0.26700001 78771.28495958  3166.60580522
0.26800001 76965.52063518  3416.11479505
0.26900001 75198.77719754  5177.43605505
0.27000001 73471.60661477  3882.60723529
0.27100001 71782.78964308  4685.98072965
0.27200001 70132.25450673  4020.68234114
0.27300001 68518.73127967  3660.95598552
0.27400001 66941.09027428  3865.84814629
0.27500001 65402.30497775  3519.95222049
0.27600001 63897.53397463  3451.42546098
0.27700001 62429.90031653  2603.32696641
0.27800001 60996.61363186  3829.06260196
0.27900001 59598.22579991  2503.12560206
0.28000001 58233.80703469  2700.01059095
0.28100001 56902.89195337  3129.09017661
0.28200001 55605.66269564  2832.55259178
0.28300001 54341.08064255  2314.93014494
0.28400001 53108.90083806  2724.48674194
0.28500001 51908.94220160  3117.65121619
0.28600001 50739.47041460  2184.33430474
0.28700001 49601.37952457  2785.61360595
0.28800001 48493.17364071  2522.61501219
0.28900001 47416.45532483  2887.66226597
0.29000001 46367.79643987  2631.14073352
0.29100001 45349.48893680  2582.20002229
0.29200001 44359.25500413  2339.50721966
0.29300001 43397.19096275  2679.34269687
0.29400001 42462.73308222  2254.77123340
0.29500001 41556.57612483  2029.62327401
0.29600001 40676.37780319  2355.77253199
0.29700001 39822.45321800  1780.06374311
0.29800001 38995.26586725  1923.83153263
0.29900001 38193.36318099  2749.92227921
0.30000001 37416.64080805  2534.04211869
0.30100001 36665.66620361  2159.24118495
0.30200001 35937.71619375  1796.70620616
0.30300001 35234.26865876  1928.01927228
0.30400001 34555.06115412  2055.16235944
0.30500001 33897.67332468  2022.67426304
0.30600001 33263.19336707  2144.47817790
0.30700001 32651.84059960  2262.77266068
0.30800001 32062.05982139  1783.29185169
0.30900001 31493.73533569  1464.45876244
0.31000001 30947.26511692  2887.37997211
0.31100001 30419.97545040  1993.11688587
0.31200001 29914.17984791  1825.81205346
0.31300001 29427.87943570  1801.86914316
0.31400001 28962.64576353  1642.18209254
0.31500001 28515.36279566  1351.62826051
0.31600002 28087.37923764  1469.11044058
0.31700002 27677.34251018  1584.25116029
0.31800002 27285.92991216  1566.75816974
0.31900002 26912.37137019  1679.33205301
0.32000002 26556.21150388  1406.54980890
0.32100002 26217.40205469  1266.30057920
0.32200002 25895.35041136  1254.62978684
0.32300002 25589.03730272  2238.52908924
0.32400002 25299.19889458  1603.33680586
0.32500002 25024.68070368  1957.93111097
0.32600002 24765.93857450  1336.24627906
0.32700002 24522.12693060  1327.13757233
0.32800002 24293.72607848  1558.56407037
0.32900002 24078.44492474  1311.07138824
0.33000002 23879.05337907  1185.59505641
0.33100002 23690.88595820  1179.80617659
0.33200002 23518.70222148  1174.75923159
0.33300002 23358.28533387  1170.25015064
0.33400002 23211.48644929  1516.29042410
0.33500002 23076.75316398  1279.37525600
0.33600002 22954.22101686  1160.33592735
0.33700002 22843.07529047  1621.40156090
0.33800002 22744.88900011  1156.57766043
0.33900002 22656.82471736  1386.59773837
0.34000002 22580.50067300  1616.98972977
0.34100002 22514.75166782  1617.00954136
0.34200002 22460.54922501  1271.15484359
0.34300002 22415.17048732  1503.60970750
0.34400002 22380.82753737  1737.31181987
0.34500002 22355.47528824  1392.29906689
0.34600002 22340.96504238  1744.27092829
0.34700002 22333.45974601  1165.80665396
0.34800002 22336.69662145  1286.25873587
0.34900002 22347.93935826  1407.92024625
0.35000002 22367.83298532  1295.43310870
0.35100002 22395.97737264  2010.26302418
0.35200002 22431.28506888  1306.51026072
0.35300002 22474.93255317  2267.49605269
0.35400002 22526.27234706  1439.42887115
0.35500002 22584.53436084  1809.02128799
0.35600002 22649.37036750  1698.02337688
0.35700002 22721.23145234  1586.16924282
0.35800002 22800.28172632  1350.57475203
0.35900002 22885.11318888  1359.37578781
0.36000002 22976.82581756  1617.45373004
0.36100002 23073.59899141  1252.89648458
0.36200002 23177.24079442  1514.40098524
0.36300002 23284.65449940  1525.61063506
0.36400002 23398.20940664  1537.26243083
0.36500002 23516.26405912  1807.46014120
0.36600002 23639.85153670  1821.92344423
0.36700002 23767.75555862  1705.57421968
0.36800002 23901.54694649  1322.95068615
0.36900002 24038.44839324  1734.37413373
0.37000002 24178.78578222  1614.65939102
0.37100002 24323.50585595  1357.25169105
0.37200002 24472.48818915  1780.00651276
0.37300002 24624.38027500  1381.42779887
0.37400002 24780.75507056  1533.30929262
0.37500002 24939.20907885  1547.22860455
0.37600002 25101.78610441  1703.40728574
0.37700002 25266.07959121  1575.84545875
0.37800002 25433.98289097  1590.51419543
0.37900002 25604.32578373  1459.44663881
0.38000002 25777.14114881  1767.79642373
0.38100002 25951.62602794  1933.13671440
0.38200002 26128.70604135  1501.09423319
0.38300002 26307.38982907  2576.01973410
0.38400002 26488.45697894  1835.65015560
0.38500002 26670.38377572  2316.32294066
0.38600002 26854.76644064  1870.70311888
0.38700002 27039.45081762  1888.43533457
0.38800002 27225.52942034  2224.05360371
0.38900002 27412.88784718  2084.75021954
0.39000002 27601.80622208  1780.73061278
0.39100002 27790.60591546  1634.08770525
0.39200002 27980.96201253  1649.47778879
0.39300002 28171.28521335  1997.90764199
0.39400002 28363.04000419  1848.56121985
0.39500002 28554.02903711  2204.94222671
0.39600002 28745.48263718  1882.97292936
0.39700002 28936.58550815  1900.26566035
0.39800002 29129.02624633  2266.38399447
0.39900002 29320.31897895  2462.90691092
0.40000002 29511.19663952  2840.15769915
0.40100002 29701.85706228  2507.43089200
0.40200002 29893.06204106  2529.84996040
0.40300002 30082.54861327  2005.30278557
0.40400002 30271.74338144  2206.81019707
0.40500002 30460.23113559  2226.03379686
0.40600002 30648.09457631  2806.59939380
0.40700002 30834.76840929  2075.79670767
0.40800002 31020.62585849  2283.73858391
0.40900002 31204.73553546  3262.45525481
0.41000002 31388.58694732  2128.61712469
0.41100002 31570.73408286  2536.39289640
0.41200002 31750.88799486  2360.36112538
0.41300002 31930.22385308  2974.30049285
0.41400002 32107.67606831  2598.31380894
0.41500002 32284.17406602  2215.98581289
0.41600002 32457.80511415  2436.28296731
0.41700002 32630.46986564  2455.11666902
0.41800002 32802.25720320  2061.62196291
0.41900002 32970.10525449  2077.11672946
0.42000002 33136.74397497  3138.87822176
0.42100002 33301.92918170  3583.62076905
0.42200002 33464.93516978  2548.02028457
0.42300002 33625.20336147  2138.56303513
0.42400002 33783.36232575  2799.79628542
0.42500002 33939.66226440  3253.11678219
0.42600002 34092.31420008  2620.33539359
0.42700002 34243.82080771  3077.83476004
0.42800002 34392.46672629  3541.04854194
0.42900002 34539.17917895  3564.44346018
0.43000002 34683.37278175  2914.96420357
0.43100002 34823.58557064  3610.50952306
0.43200002 34962.06925123  2497.86515602
0.43300002 35097.50070636  2513.33214468
0.43400002 35230.64471521  2528.67964426
0.43500002 35360.50150386  2775.09228953
0.43600002 35488.64755899  3024.16524505
0.43700002 35612.95673777  3041.70277912
0.43800002 35733.62272070  3764.89466827
0.43900002 35852.49474026  3076.14419449
0.44000002 35967.75878281  2379.26735624
0.44100002 36080.54780378  2870.56851930
0.44200002 36190.24362355  2645.32598303
0.44300002 36297.06380421  2659.12302031
0.44400002 36400.15941250  3158.62398271
0.44500002 36499.52521439  2686.00018782
0.44600002 36596.61322177  3435.32424593
0.44700002 36690.76281468  3205.30519139
0.44800002 36780.44191942  2972.59545680
0.44900002 36868.59072371  2986.35599015
0.45000002 36953.15608406  3749.82169134
0.45100002 37033.11504933  3515.18344707
0.45200002 37110.83800226  2773.84971794
0.45300002 37184.58713756  3291.95165530
0.45400002 37255.84200868  3051.25360512
0.45500002 37323.56447267  3063.51831711
0.45600002 37387.76737525  3588.10420506
0.45700002 37448.53451787  2572.71444331
0.45800002 37505.33181396  3873.36332666
0.45900002 37559.22276330  2850.74514284
0.46000002 37610.40934913  2860.83592273
0.46100002 37656.92856004  3131.55032747
0.46200002 37700.97492488  3403.83268242
0.46300002 37741.33801426  3152.15670035
0.46400002 37777.72951049  2634.99675824
0.46500002 37811.72270833  4493.16722239
0.46600002 37841.43908709  2650.79293369
0.46700002 37867.77480889  3721.64508461
0.46800002 37891.46278534  2665.66453329
0.46900002 37910.96416366  3474.54003028
0.47000002 37926.61281112  2947.46685432
0.47100002 37939.51391641  3223.34125511
0.47200002 37948.71617898  4846.43077292
0.47300002 37955.34150622  2968.48739990
0.47400002 37956.83151774  3515.75168597
0.47500002 37956.26245423  3523.10044799
0.47600002 37952.62019452  4344.81616580
0.47700002 37944.32464103  3536.79066743
