# SAXS profile: number of points = 501, q_min = 0, q_max = 0.5, delta_q = 0.001
#    q    intensity    error
0.00000000 1682732.95097189 277.65093691
0.00100000 1682663.59864274 555.27900074
0.00200000 1682455.48459852 832.81549125
0.00300000 1682108.78436177 1412.97142920
0.00400000 1681623.35144076 1261.21756150
0.00500000 1680999.66896389 1815.47971434
0.00600000 1680237.45972332 2293.52422590
0.00700000 1679337.38981916 2619.76643700
0.00800000 1678298.88330040 3398.55538217
0.00900000 1677123.30146008 3270.39057765
0.01000000 1675809.81385795 3318.10357471
0.01100000 1674359.69322635 3315.23233693
0.01200000 1672772.38266251 4240.47817597
0.01300000 1671049.30483658 3860.12406442
0.01400000 1669189.64390957 4882.37992488
0.01500000 1667195.21457551 4401.39556247
0.01600000 1665064.90925603 4670.50727925
0.01700000 1662800.86045318 6285.38753447
0.01800000 1660402.55694422 6625.00650032
0.01900000 1657870.70257453 6465.69603179
0.02000000 1655206.14156812 5213.89958179
0.02100000 1652410.40620790 10360.61371666
0.02200000 1649481.52182072 5690.71150882
0.02300000 1646422.60199067 7112.54596435
0.02400000 1643233.51805114 8010.76376577
0.02500000 1639915.59806318 7674.80534945
0.02600000 1636468.85101261 8616.00889466
0.02700000 1632894.72986889 8229.78981547
0.02800000 1629192.64830358 7795.68717964
0.02900000 1625365.43407288 11702.63166264
0.03000000 1621413.57203431 9801.44549347
0.03100000 1617336.88694580 8539.53915600
0.03200000 1613136.67193447 10380.53496201
0.03300000 1608815.74288594 9845.95280036
0.03400000 1604371.91537786 11792.13412212
0.03500000 1599808.94879546 8638.96872243
0.03600000 1595126.15172958 8852.95055123
0.03700000 1590325.60550255 10877.82764471
0.03800000 1585408.55893980 16694.35289824
0.03900000 1580376.15037075 9482.25734135
0.04000000 1575227.55830564 9687.64993250
0.04100000 1569966.64253379 11868.94836788
0.04200000 1564593.61463461 10091.62928257
0.04300000 1559108.80698270 11319.13046411
0.04400000 1553515.72263624 17826.59374515
0.04500000 1547813.87058669 11747.90782362
0.04600000 1542003.85351130 17393.80427619
0.04700000 1536088.83039011 12165.82410250
0.04800000 1530068.92154335 12370.60780626
0.04900000 1523947.00139832 14858.48395526
0.05000000 1517722.44022646 18576.92353343
0.05100000 1511398.80455737 15325.58459214
0.05200000 1504974.09199679 16750.36242451
0.05300000 1498453.86035968 15778.71988516
0.05400000 1491836.64163656 14769.18344095
0.05500000 1485126.16219936 12475.06034443
0.05600000 1478320.89233484 18959.46632892
0.05700000 1471426.04619751 17921.97007926
0.05800000 1464440.32116791 14256.32719223
0.05900000 1457365.26042967 19674.43193471
0.06000000 1450204.26510511 14596.30661020
0.06100000 1442958.48682303 14761.46601002
0.06200000 1435628.42717743 18993.36497937
0.06300000 1428217.38700969 16453.06506762
0.06400000 1420723.32547565 15237.25837832
0.06500000 1413152.70133682 20985.31859650
0.06600000 1405503.26376796 14125.30846177
0.06700000 1397778.14598455 18534.53908315
0.06800000 1389980.34364398 15824.92695314
0.06900000 1382110.26314702 20317.02181948
0.07000000 1374167.82180650 16098.37678633
0.07100000 1366157.78250401 17705.40569053
0.07200000 1358079.11508156 23793.54721088
0.07300000 1349936.65633547 19479.58686365
0.07400000 1341729.49933522 15094.45757491
0.07500000 1333460.29321701 15201.44805520
0.07600000 1325128.94405725 18366.28802566
0.07700000 1316741.19010141 16946.45991120
0.07800000 1308295.24380609 23254.94904922
0.07900000 1299793.07236479 23396.27639994
0.08000000 1291238.88097820 18826.26376782
0.08100000 1282632.43133608 18931.65557476
0.08200000 1273974.92669784 15860.98858167
0.08300000 1265269.50087243 20725.11539696
0.08400000 1256516.50739646 19224.70346555
0.08500000 1247720.20329390 17705.15051591
0.08600000 1238879.60028988 24251.06931430
0.08700000 1229998.16026005 17859.57412562
0.08800000 1221074.95017050 17931.48648538
0.08900000 1212115.94346002 17999.92260583
0.09000000 1203119.68158925 26276.13508024
0.09100000 1194088.83031776 23069.79728559
0.09200000 1185024.64346700 18184.20400842
0.09300000 1175930.44651508 24870.93011253
0.09400000 1166804.48628212 18289.66118204
0.09500000 1157651.38350557 26672.28912964
0.09600000 1148471.80808625 16710.26559317
0.09700000 1139268.93096445 25120.88110877
0.09800000 1130043.73621555 20137.38032617
0.09900000 1120797.79943254 16811.96778203
0.10000000 1111531.25738358 20207.63920954
0.10100000 1102246.48177220 23610.12074999
0.10200000 1092946.29016230 18574.62307499
0.10300000 1083631.13223596 16904.64645809
0.10400000 1074303.93115939 18612.31648295
0.10500000 1064967.23116198 22012.87370381
0.10600001 1055617.47845826 20331.19359176
0.10700001 1046262.17997500 23729.22735847
0.10800001 1036898.95784022 22039.28838610
0.10900001 1027531.83241397 16954.27603279
0.11000001 1018161.06997936 20342.85913572
0.11100001 1008788.55789012 20337.17828440
0.11200001 999416.92985282 22022.15308605
0.11300001 990044.96188382 22008.70053886
0.11400001 980677.37671351 23683.35976275
0.11500001 971314.15422604 18590.95378730
0.11600001 961956.36146050 25323.50240797
0.11700001 952607.29558618 20233.37991114
0.11800001 943264.90183216 18521.00721978
0.11900001 933933.51055043 16810.80398172
0.12000001 924613.37248302 16781.73350107
0.12100001 915308.03331732 21775.17913841
0.12200001 906015.82463525 18387.59202724
0.12300001 896740.24058549 18347.30618680
0.12400001 887481.00240308 19968.32349493
0.12500001 878240.67798892 18258.62455574
0.12600001 869021.53733071 19865.83327953
0.12700001 859823.30558989 19810.32989438
0.12800001 850646.50677023 23044.01495445
0.12900001 841494.13810449 26254.61834629
0.13000001 832367.10515468 17991.61582595
0.13100001 823264.94707974 19560.77606466
0.13200001 814191.95175022 19491.75624375
0.13300001 805148.27594731 19420.17733137
0.13400001 796133.06797511 25794.71261850
0.13500001 787149.90151147 16057.85874793
0.13600001 778197.99420436 20789.56039541
0.13700001 769280.41036916 17516.51577007
0.13800001 760395.77671488 20610.52849976
0.13900001 751549.12139673 18939.03875233
0.14000001 742737.40704121 20421.56596969
0.14100001 733964.24636649 18760.12702191
0.14200001 725228.41195284 15556.15017010
0.14300001 716535.10524682 17024.87490369
0.14400001 707878.13818162 24634.16037071
0.14500001 699266.73853629 15313.94229634
0.14600001 690695.64588113 19798.79162318
0.14700001 682170.87545025 16658.61356439
0.14800001 673688.16812301 22585.39690187
0.14900001 665250.37043437 16464.94744508
0.15000001 656859.70913468 19341.23504805
0.15100001 648515.80117418 20700.62535024
0.15200001 640220.74198058 17631.68006613
0.15300001 631974.41938643 14598.60977672
0.15400001 623774.96842408 24654.70679044
0.15500001 615628.03875473 18727.40582272
0.15600001 607530.01460149 15738.06577101
0.15700001 599487.19036190 15628.63179036
0.15800001 591491.93529706 22571.33331627
0.15900001 583552.95854500 19607.38033259
0.16000001 575665.00288568 19463.23466628
0.16100001 567834.63710338 13798.38233295
0.16200001 560056.80519616 17801.40639349
0.16300001 552335.58790888 14946.20171439
0.16400001 544670.03254944 17524.75912461
0.16500001 537061.41480297 22733.81076190
0.16600001 529509.43304587 15917.05430885
0.16700001 522014.78858767 18416.68261091
0.16800001 514577.32070272 15653.44283488
0.16900001 507200.42347595 12933.61140934
0.17000001 499881.77800337 17950.75549573
0.17100001 492622.61353667 13980.63043235
0.17200001 485423.19248141 16375.75217167
0.17300001 478284.19782420 19973.14904436
0.17400001 471206.71706207 13606.09459773
0.17500001 464189.23844050 17156.43506302
0.17600001 457231.42344997 15781.34332571
0.17700001 450337.77844199 12024.01925230
0.17800001 443504.94643415 14289.73004904
0.17900001 436734.23856293 14150.18999780
0.18000001 430026.68183702 12842.74745969
0.18100001 423382.66761948 12714.18210919
0.18200001 416798.72079709 13729.35051160
0.18300001 410280.69161762 18117.99619772
0.18400001 403824.20118699 14567.95874602
0.18500001 397432.40242510 15523.71037210
0.18600001 391103.73729077 15358.64448900
0.18700001 384838.62296482 13022.93961640
0.18800001 378636.59186647 13954.65225254
0.18900001 372500.95219805 13801.16093101
0.19000001 366425.07068238 14697.31027950
0.19100001 360418.25724507 12456.05555894
0.19200001 354471.94164797 14366.74847384
0.19300001 348592.42134414 12172.84792854
0.19400001 342775.90588102 11028.81529288
0.19500001 337024.24947899 11890.21608349
0.19600001 331335.45452044 11749.15577252
0.19700001 325711.80540780 12575.73340109
0.19800001 320152.22886834 10512.19893169
0.19900001 314657.68657445 13215.62346070
0.20000001 309225.09243767 11187.76437314
0.20100001 303858.27032643 11048.28723124
0.20200001 298554.04173680 10909.16520067
0.20300001 293314.45172454 12565.59170579
0.20400001 288138.33434994 9746.27962005
0.20500001 283024.92994084 10494.56489825
0.20600001 277975.57162401 9494.25609759
0.20700001 272989.06167399 12775.88869025
0.20800001 268065.35276244 11765.38888890
0.20900001 263206.63667641 8291.00944723
0.21000001 258408.35798524 9814.34990023
0.21100001 253672.53693206 12906.85928925
0.21200001 248999.07022364 11137.72893763
0.21300001 244387.09041672 10982.75636254
0.21400001 239838.19207957 8508.26026626
0.21500001 235350.91091163 12963.12878588
0.21600001 230923.35313776 12026.48880001
0.21700001 226557.74169075 8890.12620427
0.21800001 222252.74345785 7301.00296779
0.21900001 218006.81596893 7913.64779384
0.22000001 213820.90164973 8505.79586980
0.22100001 209697.13237848 9077.78928989
0.22200001 205631.48925153 10317.56046106
0.22300001 201624.85054737 7452.05482860
0.22400001 197675.44664946 10674.47462383
0.22500001 193787.52663412 8540.21670261
0.22600001 189955.78160389 6467.99466947
0.22700001 186182.85895357 7004.19948506
0.22800001 182466.45884265 6267.72315765
0.22900001 178806.67934870 6785.71380219
0.23000001 175203.79658260 7284.97420642
0.23100001 171658.51536048 8960.57492559
0.23200001 168167.12559755 7640.67371288
0.23300001 164732.44759232 6360.32010235
0.23400001 161352.90887703 7962.76642968
0.23500001 158026.33005570 6712.95881826
0.23600001 154755.13078760 9352.62677150
0.23700001 151537.32111361 7573.83566748
0.23800001 148373.05140444 5851.09155888
0.23900001 145261.70990886 7321.19052570
0.24000001 142202.72715239 5654.69171268
0.24100001 139196.72618127 7073.97795914
0.24200001 136241.75711176 6455.81596611
0.24300001 133338.00903583 5368.18849771
0.24400001 130484.41622526 6233.89328005
0.24500001 127681.47928640 4711.44680854
0.24600001 124928.53423722 6942.90361867
0.24700001 122225.44284706 5456.14402680
0.24800001 119570.31362987 7592.11742309
0.24900001 116963.44166669 4386.12927000
0.25000001 114405.24659354 4738.09351182
0.25100001 111893.75228220 5075.50084364
0.25200001 109430.49899581 7059.90897672
0.25300001 107013.68130854 4077.22145075
0.25400001 104642.24093550 6003.84885772
0.25500001 102316.42618978 4714.74114189
0.25600001 100036.20245191 4627.67494437
0.25700001 97800.36319326  6434.28619891
0.25800001 95608.59967837  4085.83370057
0.25900001 93460.76094757  4373.96381930
0.26000001 91356.54009640  4291.93045680
0.26100001 89293.19943019  4561.98977474
0.26200001 87274.46592164  4131.57341222
0.26300001 85295.99796700  3715.49384725
0.26400001 83358.73442931  4307.56280546
0.26500001 81463.15059840  3250.37986268
0.26600001 79606.82883388  4144.72973936
0.26700001 77791.54523198  4378.10837283
0.26800001 76015.15013373  5520.98061547
0.26900001 74277.20319867  4512.34030785
0.27000001 72578.19584072  3245.33418059
0.27100001 70917.00618264  2893.41398918
0.27200001 69293.47081700  3688.83809351
0.27300001 67706.42024360  2782.73400370
0.27400001 66154.68783404  3001.76910253
0.27500001 64641.14496667  3211.37223392
0.27600001 63161.15674273  4461.38851766
0.27700001 61717.79130926  3860.44802910
0.27800001 60307.96853340  3533.44404360
0.27900001 58932.78891653  2722.69497680
0.28000001 57590.84921064  2912.94529094
0.28100001 56281.93437702  2856.87112419
0.28200001 55006.14577877  2802.01319859
0.28300001 53762.47403808  2748.33780291
0.28400001 52550.74362204  2920.50771502
0.28500001 51370.50804548  3305.69234919
0.28600001 50220.43862528  3891.58197327
0.28700001 49101.11666324  2757.51884233
0.28800001 48011.24820045  2705.67402040
0.28900001 46952.22694600  2246.66416571
0.29000001 45920.90655967  2605.78196607
0.29100001 44919.42761327  2557.71232937
0.29200001 43945.43018975  2510.82227274
0.29300001 42999.09895004  2654.76449484
0.29400001 42079.99833137  1862.04001431
0.29500001 41188.76105581  2011.65918519
0.29600001 40322.93948999  1796.38703932
0.29700001 39482.85182888  2117.86027236
0.29800001 38669.09837584  1907.74005868
0.29900001 37880.25879060  1704.61172627
0.30000001 37116.03196785  2178.52559948
0.30100001 36377.07045205  1812.66950644
0.30200001 35660.76006825  2431.17243275
0.30300001 34968.51592502  1913.47728200
0.30400001 34300.08925108  1883.07498903
0.30500001 33653.01164356  1544.67330757
0.30600001 33028.56399490  2129.35162156
0.30700001 32426.69071859  1797.73581855
0.30800001 31846.00447240  2214.09356577
0.30900001 31286.27792446  1600.29319160
0.31000001 30748.20507086  2725.36728549
0.31100001 30228.83005741  2122.06397050
0.31200001 29730.59235613  1535.43651493
0.31300001 29251.34113829  1515.51205613
0.31400001 28792.88672775  1496.51035853
0.31500001 28352.07656827  2015.83273945
0.31600002 27930.06659557  1859.30462130
0.31700002 27525.65838009  1575.56876028
0.31800002 27139.57181144  1298.62857267
0.31900002 26771.10293328  2056.02080263
0.32000002 26419.50679347  1653.72910604
0.32100002 26084.98526445  1385.89533272
0.32200002 25766.94974870  1872.61316166
0.32300002 25464.27030691  1608.83267417
0.32400002 25177.71392237  1227.41361183
0.32500002 24906.16067787  1461.49357778
0.32600002 24650.24198735  2055.46052545
0.32700002 24408.78672170  1681.27730900
0.32800002 24182.50775048  1193.40681400
0.32900002 23969.00971890  1305.11264100
0.33000002 23771.19357353  1298.26379850
0.33100002 23584.30197206  1526.84778197
0.33200002 23413.07216458  1403.37961200
0.33300002 23253.47906172  1281.49929178
0.33400002 23107.15846401  1741.70215170
0.33500002 22972.61391053  1273.60177551
0.33600002 22850.08202389  1617.10038141
0.33700002 22738.57788397  1729.26892997
0.33800002 22639.93981717  1266.36509365
0.33900002 22551.11865233  1150.10710574
0.34000002 22473.81669341  1839.25724529
0.34100002 22406.88028016  1264.42031409
0.34200002 22351.29933864  1149.97440543
0.34300002 22304.27706522  1496.17097639
0.34400002 22268.05127620  1267.60887893
0.34500002 22240.77134949  1385.15530525
0.34600002 22224.03824063  1156.76124521
0.34700002 22214.15523624  1159.57895825
0.34800002 22214.69466771  1628.11504931
0.34900002 22223.26079238  1283.39337154
0.35000002 22240.20644793  1639.32569492
0.35100002 22265.22848164  1410.72494341
0.35200002 22297.34359786  1180.64439943
0.35300002 22337.53211385  1660.57221599
0.35400002 22385.30606771  1907.22816730
0.35500002 22439.90759020  1437.94934649
0.35600002 22500.92911044  1445.90977312
0.35700002 22568.81429416  1211.94538500
0.35800002 22643.72900639  1341.30135122
0.35900002 22724.34673420  1717.96069448
0.36000002 22811.72294747  1482.30582734
0.36100002 22903.94114004  1989.89450050
0.36200002 23003.07082666  1377.76899242
0.36300002 23105.78505813  1513.89110872
0.36400002 23214.57442554  1652.29741300
0.36500002 23327.75585338  1408.76324272
0.36600002 23446.41065711  1807.01495494
0.36700002 23569.24855176  2211.73838886
0.36800002 23697.85759774  1574.01177620
0.36900002 23829.61566831  1322.54373224
0.37000002 23964.70663075  1466.99958589
0.37100002 24104.13932071  1748.51434915
0.37200002 24247.71949960  1763.65796135
0.37300002 24394.15679182  1642.21471302
0.37400002 24545.01398968  1380.65710232
0.37500002 24697.86837583  2089.43976357
0.37600002 24854.86929948  1405.54292547
0.37700002 25013.50028846  1560.09208690
0.37800002 25175.77346690  2003.73990515
0.37900002 25340.41494292  1733.28446421
0.38000002 25507.50598690  1895.08024707
0.38100002 25676.23649300  1471.24842075
0.38200002 25847.50994220  2078.91532314
0.38300002 26020.46666086  1648.65684574
0.38400002 26195.77431766  1512.80603851
0.38500002 26371.78740166  1526.92656289
0.38600002 26550.43847942  2157.75423745
0.38700002 26729.29773119  1866.77424198
0.38800002 26909.54163857  2512.27492640
0.38900002 27091.17674407  1901.80069753
0.39000002 27274.30968950  1919.56600689
0.39100002 27457.39383730  2744.64121801
0.39200002 27641.90705419  2444.23574707
0.39300002 27826.54117619  2302.36812600
0.39400002 28012.55219267  2157.66693486
0.39500002 28197.96232569  1842.45494565
0.39600002 28383.72927297  2028.30138994
0.39700002 28569.28848722  2217.26258454
0.39800002 28756.08326489  2237.36716443
0.39900002 28941.77391966  1910.15716920
0.40000002 29127.30661523  1927.20833351
0.40100002 29312.49123147  1767.54330500
0.40200002 29498.31436925  2318.12514454
0.40300002 29682.53840775  3777.40001674
0.40400002 29866.35154240  2177.25713060
0.40500002 30049.65891865  2562.03404079
0.40600002 30232.30203689  2030.25033948
0.40700002 30413.95534795  1861.33415549
0.40800002 30594.80814445  2440.08903918
0.40900002 30773.96022800  2081.85850807
0.41000002 30952.87284976  2289.89364192
0.41100002 31130.25108110  3078.15937275
0.41200002 31305.70411461  2327.26615415
0.41300002 31480.27201084  1954.92498450
0.41400002 31653.32726477  2758.58760183
0.41500002 31825.23718560  3376.02132062
0.41600002 31994.42584838  2801.75200430
0.41700002 32162.80706690  2621.59052824
0.41800002 32330.28165273  2235.15412797
0.41900002 32493.95562198  2456.54316142
0.42000002 32656.65217189  2680.94798709
0.42100002 32817.82346783  3116.05248592
0.42200002 32976.95299091  3138.58164963
0.42300002 33133.48960930  3160.93505851
0.42400002 33287.95391488  2546.52859516
0.42500002 33440.72851034  3632.66651022
0.42600002 33589.89528036  2366.57618412
0.42700002 33738.07243640  2165.98435306
0.42800002 33883.45109131  2398.44019915
0.42900002 34026.97923153  2414.21429088
0.43000002 34168.11752108  3755.24713410
0.43100002 34305.39016173  2889.88620417
0.43200002 34441.08468271  3355.42283422
0.43300002 34573.79726545  2700.90517037
0.43400002 34704.32183815  2943.79423942
0.43500002 34831.70721894  2277.99376007
0.43600002 34957.48621095  3437.19499458
0.43700002 35079.49967157  2996.14020893
0.43800002 35197.99279597  2317.78793545
0.43900002 35314.83207957  2563.85693048
0.44000002 35428.15474958  2577.92980252
0.44100002 35539.21023494  2591.87472526
0.44200002 35647.19957510  2605.63217642
0.44300002 35752.46930709  2857.33748243
0.44400002 35854.07836540  2632.58582874
0.44500002 35952.16771077  2886.24016060
0.44600002 36048.01160095  2417.01929239
0.44700002 36141.04358478  2428.67824400
0.44800002 36229.87815418  3660.12361399
0.44900002 36317.10832430  2941.68591368
0.45000002 36400.86771014  2708.77069902
0.45100002 36480.26528031  2473.36210322
0.45200002 36557.52662083  2980.90086194
0.45300002 36630.98745085  3242.94147272
0.45400002 36701.92076116  3506.86869493
0.45500002 36769.50403223  2515.03419500
0.45600002 36833.61751786  2777.43906057
0.45700002 36894.56711591  2534.65688099
0.45800002 36951.61494206  3052.94257120
0.45900002 37005.85256836  3064.08473788
0.46000002 37057.55502274  3331.28906665
0.46100002 37104.65760343  3085.62347254
0.46200002 37149.46189629  3612.04235137
0.46300002 37190.55203090  3882.69381605
0.46400002 37227.94502149  3635.30900365
0.46500002 37262.95260648  3125.61661277
0.46600002 37293.84451952  3134.92071889
0.46700002 37321.50321425  2881.96661480
0.46800002 37346.61745186  2890.06812849
0.46900002 37367.57268543  3688.17959886
0.47000002 37384.94967849  3433.62086596
0.47100002 37399.61947403  3177.47182112
0.47200002 37410.68661157  2919.71717499
0.47300002 37419.22459347  3724.70979257
0.47400002 37422.88254080  3199.65660889
0.47500002 37424.53138835  3206.53400134
0.47600002 37423.08774342  3213.14646595
0.47700002 37417.26450816  3487.66339011
