# SAXS profile: number of points = 501, q_min = 0, q_max = 0.5, delta_q = 0.001
#    q    intensity    error
0.00000000 1664650.74656090 299.63713438
0.00100000 1664581.99959677 599.24953409
0.00200000 1664375.70630945 1273.24745564
0.00300000 1664032.03277213 1297.94503180
0.00400000 1663550.84504334 1372.42949931
0.00500000 1662932.59765447 1795.96727655
0.00600000 1662177.05998670 2094.34318085
0.00700000 1661284.85056447 2990.31285529
0.00800000 1660255.39166542 2241.34487338
0.00900000 1659090.10233828 2737.49878588
0.01000000 1657788.12046029 3829.49072362
0.01100000 1656350.67312458 3875.86074386
0.01200000 1654777.22452916 3872.17887517
0.01300000 1653069.22775328 3471.44553139
0.01400000 1651225.83575740 4086.78412467
0.01500000 1649248.84493011 4354.01714449
0.01600000 1647137.20119856 5460.26006607
0.01700000 1644892.95437732 5773.57452886
0.01800000 1642515.66547883 5149.28684298
0.01900000 1640006.04835557 5412.02020378
0.02000000 1637364.82315911 6189.23931152
0.02100000 1634593.56449704 6472.99080888
0.02200000 1631690.41074954 7881.06504198
0.02300000 1628658.32567344 8208.43833503
0.02400000 1625497.24633991 6095.61495172
0.02500000 1622208.46516926 7591.93596372
0.02600000 1618792.03347307 9178.55124960
0.02700000 1615249.23944005 9497.66596291
0.02800000 1611579.80699999 10515.55872291
0.02900000 1607786.28707212 7235.03862402
0.03000000 1603869.19551147 13424.38578349
0.03100000 1599828.44350222 12286.68301145
0.03200000 1595665.27457439 12637.66955670
0.03300000 1591382.47899679 8116.05101704
0.03400000 1586977.90082847 9997.96123653
0.03500000 1582455.22505604 10254.31033189
0.03600000 1577813.81683469 11383.92721456
0.03700000 1573055.73509617 9863.05991519
0.03800000 1568182.22622742 15595.57296159
0.03900000 1563194.42673110 13130.83379263
0.04000000 1558091.41233841 10540.48889290
0.04100000 1552877.20647036 9783.12685437
0.04200000 1547551.94435053 9981.71050414
0.04300000 1542115.80263610 13231.35420079
0.04400000 1536572.44134805 11409.05090687
0.04500000 1530921.41356838 12676.02989334
0.04600000 1525163.14706543 11827.64075532
0.04700000 1519300.93180113 13126.76066126
0.04800000 1513334.73780842 13347.61300851
0.04900000 1507267.45215280 14695.85834255
0.05000000 1501098.54376152 12631.74483396
0.05100000 1494831.48985967 13991.62339687
0.05200000 1488464.37553420 14199.95080433
0.05300000 1482002.65265666 16805.91086458
0.05400000 1475444.76977710 18258.62987746
0.05500000 1468794.61243928 12337.87532004
0.05600000 1462050.60296940 12500.53323872
0.05700000 1455217.85837867 24054.75232184
0.05800000 1448295.03672832 15380.89400823
0.05900000 1441283.95015724 12971.55615726
0.06000000 1434187.57895637 17059.66204869
0.06100000 1427007.33442719 14598.28571339
0.06200000 1419743.68909229 20124.86773359
0.06300000 1412399.77907516 16270.84621569
0.06400000 1404973.84966807 13698.49567490
0.06500000 1397472.13796964 17985.46725699
0.06600000 1389892.30888249 18158.94386518
0.06700000 1382237.52624202 14098.82342748
0.06800000 1374510.74038716 17071.42419471
0.06900000 1366712.62574322 15785.53156640
0.07000000 1358842.88900300 17366.01293468
0.07100000 1350906.16978117 20425.70224379
0.07200000 1342901.60613668 16175.25060367
0.07300000 1334833.88574042 22224.98523894
0.07400000 1326702.19486424 14925.40039169
0.07500000 1318509.21396926 16534.10631817
0.07600000 1310254.69786372 19673.47521073
0.07700000 1301944.43898856 18279.30078049
0.07800000 1293576.53027654 22993.32390397
0.07900000 1285153.23409637 15421.83953250
0.08000000 1276678.24856732 24818.62631642
0.08100000 1268151.78355990 18717.92120356
0.08200000 1259574.70997640 21954.38822510
0.08300000 1250950.42730808 17338.17373621
0.08400000 1242279.26097786 19006.87358512
0.08500000 1233565.14335530 20686.88842522
0.08600000 1224807.20776647 15983.73481181
0.08700000 1216009.24895068 30497.51339578
0.08800000 1207169.73797593 20950.43178648
0.08900000 1198295.05781128 17794.68244431
0.09000000 1189383.47711451 22729.11931537
0.09100000 1180437.97518090 17919.04930510
0.09200000 1171459.46789800 22878.60448304
0.09300000 1162451.41979401 24585.84868399
0.09400000 1153411.96498676 21366.95765557
0.09500000 1144345.74247503 19774.29535941
0.09600000 1135253.81897109 21473.32699525
0.09700000 1126138.67304425 21520.51105361
0.09800000 1117001.62936445 26539.95996155
0.09900000 1107844.34811257 16617.66600309
0.10000000 1098666.52966094 24967.19806068
0.10100000 1089471.17531775 23336.47367286
0.10200000 1080260.20822193 21697.02730269
0.10300000 1071034.87073616 21720.58820028
0.10400000 1061797.83144413 21740.31162159
0.10500000 1052551.45355206 21756.23956854
0.10600001 1043292.33723625 21768.29564071
0.10700001 1034028.13693763 16751.25660666
0.10800001 1024756.07554571 18430.23888605
0.10900001 1015480.28234082 20106.51053667
0.11000001 1006201.03265100 18428.57278043
0.11100001 996920.36429992 25122.39436295
0.11200001 987640.58396342 20088.61042353
0.11300001 978361.05055443 20075.96970257
0.11400001 969085.60196676 18388.40016313
0.11500001 959814.93682221 23381.09296196
0.11600001 950549.63905370 21686.79103627
0.11700001 941293.26517663 24991.33736740
0.11800001 932043.63116269 26619.16735972
0.11900001 922805.05242804 23254.68841652
0.12000001 913577.99569581 19897.72968354
0.12100001 904365.66830469 18204.88176057
0.12200001 895166.64776355 21470.57305812
0.12300001 885984.11226101 19775.16631736
0.12400001 876818.12197447 24660.51084247
0.12500001 867670.90719714 21318.67519438
0.12600001 858545.03941415 21261.86890302
0.12700001 849440.06340728 17940.17498462
0.12800001 840356.33282985 24391.34370993
0.12900001 831297.34694803 27557.50835017
0.13000001 822263.01407993 22620.45658355
0.13100001 813254.33347588 19322.92387422
0.13200001 804273.93279433 24067.89857344
0.13300001 795323.26170592 17584.59814531
0.13400001 786400.84966361 17517.07975211
0.13500001 777510.37387303 20619.57608729
0.13600001 768651.09650168 15795.78077789
0.13700001 759825.84472427 18874.07487293
0.13800001 751033.52489099 23488.57459859
0.13900001 742279.02058522 18705.43220086
0.14000001 733559.33552531 20169.21488146
0.14100001 724877.99301335 18527.88237525
0.14200001 716233.80843864 23044.82387343
0.14300001 707631.92355974 16813.33529682
0.14400001 699066.14791763 19766.09626474
0.14500001 690545.96864335 16635.25316934
0.14600001 682065.52199779 18047.45456344
0.14700001 673631.29802507 22431.92328250
0.14800001 665239.00642023 22302.13874242
0.14900001 656891.33104511 14780.05564585
0.15000001 648590.32289423 19097.74295871
0.15100001 640335.99335416 17519.59360483
0.15200001 632130.11058438 15958.12539472
0.15300001 623972.63528210 17296.52226623
0.15400001 615862.00349210 21478.18838536
0.15500001 607803.40604340 18489.38048441
0.15600001 599793.24931640 19775.18436325
0.15700001 591838.12507856 18234.53349428
0.15800001 583930.11919221 23675.44780010
0.15900001 576078.12242581 16591.05070897
0.16000001 568276.88336067 21958.21980954
0.16100001 560532.49613331 16345.12835881
0.16200001 552840.64666173 14868.64989386
0.16300001 545204.81452665 16094.44688461
0.16400001 537624.40776350 13306.20472033
0.16500001 530100.34920548 13199.49931838
0.16600001 522632.79271827 18328.73290598
0.16700001 515222.05645451 23370.47358421
0.16800001 507867.83761586 18024.23040803
0.16900001 500574.13410467 14041.10512463
0.17000001 493337.77907884 13919.52609399
0.17100001 486160.67653309 21323.00827964
0.17200001 479042.99171082 19889.86595509
0.17300001 471985.16217842 13550.69464607
0.17400001 464988.26308865 20750.10222028
0.17500001 458051.18830989 13301.80713673
0.17600001 451173.06975420 17967.96835157
0.17700001 444358.69678598 13050.81554100
0.17800001 437604.57359777 17624.52503409
0.17900001 430912.07383364 18615.40246889
0.18000001 424282.32768037 18430.82518502
0.18100001 417715.63899174 15965.09247640
0.18200001 411208.46947163 12416.44032222
0.18300001 404766.58922472 13405.87006841
0.18400001 398385.94721363 16582.81583615
0.18500001 392069.01881588 12032.59875590
0.18600001 385815.12304851 11904.32618406
0.18700001 379624.03970721 18199.17732338
0.18800001 373495.72217155 12706.32506860
0.18900001 367432.86037663 12566.20441860
0.19000001 361429.52791180 13461.44340311
0.19100001 355494.67407024 12285.89651638
0.19200001 349619.59959825 15182.23182993
0.19300001 343810.84897466 11005.38579571
0.19400001 338064.54088429 11866.06594576
0.19500001 332382.46172323 13680.86277102
0.19600001 326762.69607484 10621.42193784
0.19700001 321207.55763860 10493.85140397
0.19800001 315715.83820432 16021.00096681
0.19900001 310288.52340831 10239.52175639
0.20000001 304922.52852111 11032.09760328
0.20100001 299621.86185118 9986.39712748
0.20200001 294383.11136400 11653.15601411
0.20300001 289208.45402037 9734.75702244
0.20400001 284096.65921638 13103.95902572
0.20500001 279047.02552078 9484.80884577
0.20600001 274060.63179072 9360.54132127
0.20700001 269136.67859004 10916.18419961
0.20800001 264274.91245026 9942.02267634
0.20900001 259477.52919161 12260.31383386
0.21000001 254739.82167196 9675.01888446
0.21100001 250064.11212085 10337.65088377
0.21200001 245449.93853043 11763.18886017
0.21300001 240896.88588363 8506.06944268
0.21400001 236406.08903395 11436.14509768
0.21500001 231976.49005061 12777.26567607
0.21600001 227606.01799287 8890.29148312
0.21700001 223296.74053069 9492.34488875
0.21800001 219047.43732845 7915.27952210
0.21900001 214856.79847175 9217.35709025
0.22000001 210725.33171831 8382.65409211
0.22100001 206655.43485164 7569.78893654
0.22200001 202643.14078201 7456.25471764
0.22300001 198689.14835666 10681.52912073
0.22400001 194791.82250149 7231.64675233
0.22500001 190955.38754764 8415.40432717
0.22600001 187174.34512945 8285.27277895
0.22700001 183451.56439425 7528.85255877
0.22800001 179784.87247889 6793.17172786
0.22900001 176174.18610173 9117.01456192
0.23000001 172619.54477187 7177.52101105
0.23100001 169122.07945133 5885.44864325
0.23200001 165677.96766082 5790.44524360
0.23300001 162289.70356744 8544.55329694
0.23400001 158956.00091356 6163.51922693
0.23500001 155674.87265274 7164.15797832
0.23600001 152448.37026078 7045.40176483
0.23700001 149274.88178683 5862.02488503
0.23800001 146153.97848132 6811.50648930
0.23900001 143085.65127337 5666.19205843
0.24000001 140068.94788417 5569.84197607
0.24100001 137104.83003882 6469.97723557
0.24200001 134191.00552486 6358.64109757
0.24300001 131327.80970338 5287.25786876
0.24400001 128514.16586462 4722.89581893
0.24500001 125750.69189476 5568.24090050
0.24600001 123036.53627071 5470.20466136
0.24700001 120371.75703624 5373.39548829
0.24800001 117754.23693499 5277.74514910
0.24900001 115184.57937514 5615.24851018
0.25000001 112662.92201094 5514.28697870
0.25100001 110187.32244639 4581.58908407
0.25200001 107759.51445028 5725.26327360
0.25300001 105377.53340232 4416.37263383
0.25400001 103040.29611286 3941.29151278
0.25500001 100748.25179246 4255.60635705
0.25600001 98501.25204699  5316.11282450
0.25700001 96298.10338133  4099.41045490
0.25800001 94138.26545378  3657.27178592
0.25900001 92022.09968457  5742.17929201
0.26000001 89949.03752032  5282.25747831
0.26100001 87916.13764822  4491.63568497
0.26200001 85927.20582932  4067.79411644
0.26300001 83978.22686945  4323.19932380
0.26400001 82069.92001887  4567.19126516
0.26500001 80202.78715934  4480.12790272
0.26600001 78374.33898857  4394.44939503
0.26700001 76586.43597637  4002.40733352
0.26800001 74836.96418406  3925.57314204
0.26900001 73125.38993070  3553.89411881
0.27000001 71452.30576551  3194.99000350
0.27100001 69816.37574807  4272.76239798
0.27200001 68217.83383847  2793.52042788
0.27300001 66655.13411543  3561.38398433
0.27400001 65127.45026808  2686.50745070
0.27500001 63637.42771632  3688.42548499
0.27600001 62180.30885266  2841.95115061
0.27700001 60759.58515517  3040.40978506
0.27800001 59371.80640670  3230.12328043
0.27900001 58018.27012916  2680.44420683
0.28000001 56697.47573158  2867.75845823
0.28100001 55409.22813442  3515.71569152
0.28200001 54153.78529102  2528.71112385
0.28300001 52929.98318016  2705.78086823
0.28400001 51737.63189077  3538.85418883
0.28500001 50576.41025593  2820.64653348
0.28600001 49444.79042534  2767.17782713
0.28700001 48343.77236478  2923.83149101
0.28800001 47271.50333758  3278.75162669
0.28900001 46229.73450261  2413.19225526
0.29000001 45215.31563242  3157.83779324
0.29100001 44230.43399639  2324.75172089
0.29200001 43272.48883740  2852.73896164
0.29300001 42341.88977748  2054.00517033
0.29400001 41438.10501624  1833.63623377
0.29500001 40561.98533066  2521.33312751
0.29600001 39710.61206589  2299.84020666
0.29700001 38884.80670879  1911.96603638
0.29800001 38084.80741417  2049.72443206
0.29900001 37309.52476206  1846.82156315
0.30000001 36558.39522287  2145.79510919
0.30100001 35832.09218690  1947.83262349
0.30200001 35128.20404890  2554.52311937
0.30300001 34448.13195495  1885.00186981
0.30400001 33791.37399237  2009.74206334
0.30500001 33155.77054382  1674.03493401
0.30600001 32542.41546625  1798.29396380
0.30700001 31951.32529798  1623.76642852
0.30800001 31381.03737265  1599.96226619
0.30900001 30831.45545111  2150.49411953
0.31000001 30303.26064873  2261.83548191
0.31100001 29793.34865314  1533.76166128
0.31200001 29304.38998394  1651.00940986
0.31300001 28833.94977477  1493.88700856
0.31400001 28384.04286437  1743.48991549
0.31500001 27951.79053343  1589.89792082
0.31600002 27537.69886455  1440.35940731
0.31700002 27141.14304548  1424.09584302
0.31800002 26762.60260434  1408.64965478
0.31900002 26401.31602707  1267.26322930
0.32000002 26056.58366225  1254.62456274
0.32100002 25728.75405166  1242.69887954
0.32200002 25417.28683306  1477.76112645
0.32300002 25120.86098293  1342.96129174
0.32400002 24840.32033047  1210.96567345
0.32500002 24574.54632675  1682.37352119
0.32600002 24324.07253194  1312.40539561
0.32700002 24087.97662977  1303.64135693
0.32800002 23866.67518722  2120.07685727
0.32900002 23658.13516175  1405.29329515
0.33000002 23464.74529959  1398.02959115
0.33100002 23282.37965968  1159.46256196
0.33200002 23115.23953738  1500.98815044
0.33300002 22959.74104396  1265.31138885
0.33400002 22817.15796794  1490.53091484
0.33500002 22686.25900957  1486.40376070
0.33600002 22567.13446318  1597.07618159
0.33700002 22458.77156521  1821.85563565
0.33800002 22363.21802603  1592.03756667
0.33900002 22277.16714256  1363.36269369
0.34000002 22202.64964182  1476.36525785
0.34100002 22138.26833161  1135.69321920
0.34200002 22084.94097157  1704.40540020
0.34300002 22040.16840306  1251.00001780
0.34400002 22005.84656492  1252.68287504
0.34500002 21980.44083961  1597.09890704
0.34600002 21965.43789935  1257.63120649
0.34700002 21957.15255112  1260.77975920
0.34800002 21959.09301684  1494.42614604
0.34900002 21969.04887091  1153.37512035
0.35000002 21987.06227877  1736.42832571
0.35100002 22013.14124388  1627.21147782
0.35200002 22046.16806622  1284.07911983
0.35300002 22087.04490514  1524.66878201
0.35400002 22135.52038332  1296.58816786
0.35500002 22190.63095807  1421.97569914
0.35600002 22252.03934470  1429.91611602
0.35700002 22320.20364690  1318.45449187
0.35800002 22395.31775485  1326.58671004
0.35900002 22475.99754831  1335.07431761
0.36000002 22563.44940571  1221.81084319
0.36100002 22655.54383070  1353.21569710
0.36200002 22754.45737180  1610.67434136
0.36300002 22856.83106803  1372.78133897
0.36400002 22965.16526835  2137.48285860
0.36500002 23077.94885237  1393.67739721
0.36600002 23196.11301098  1660.02990626
0.36700002 23318.22688648  1544.59942213
0.36800002 23446.14077436  1297.74395333
0.36900002 23577.19996495  1439.38812604
0.37000002 23711.37570695  1715.39955678
0.37100002 23849.92486028  1330.82587024
0.37200002 23992.47471423  1745.09273100
0.37300002 24137.86429861  1624.96110156
0.37400002 24287.60805385  1639.41362130
0.37500002 24439.39896726  1516.22038375
0.37600002 24595.18838241  1808.11535959
0.37700002 24752.58835961  1684.16619177
0.37800002 24913.57704263  1699.60430636
0.37900002 25076.84670694  1715.25639601
0.38000002 25242.52237118  1731.13226622
0.38100002 25409.94033902  1601.58861544
0.38200002 25579.63088215  1616.50485018
0.38300002 25751.11886835  2521.54967904
0.38400002 25924.91992086  1646.88061599
0.38500002 26099.25916617  2115.60604824
0.38600002 26276.32526349  1830.40890457
0.38700002 26453.66721772  1539.60350501
0.38800002 26632.29023595  1709.39362978
0.38900002 26812.10943075  1725.35932361
0.39000002 26993.65714531  2533.08490652
0.39100002 27175.06457165  1917.47264702
0.39200002 27357.83072222  1612.74419748
0.39300002 27540.73751984  1627.65766454
0.39400002 27725.05939533  2135.52280110
0.39500002 27908.75354866  2320.89205506
0.39600002 28092.76084208  2509.38598111
0.39700002 28276.67765070  1856.92950930
0.39800002 28461.58030137  2555.13849261
0.39900002 28645.52671931  2062.47802151
0.40000002 28829.41487685  1907.49832570
0.40100002 29012.75868426  2449.25720417
0.40200002 29196.87401536  2117.94134142
0.40300002 29379.41091256  3382.74553275
0.40400002 29561.42756704  1975.44249076
0.40500002 29742.97836307  2173.61696176
0.40600002 29923.94618602  1826.85700121
0.40700002 30103.86762295  2026.59246440
0.40800002 30283.18631864  2601.02299615
0.40900002 30460.56902808  2247.99010079
0.41000002 30637.91383020  2644.35846798
0.41100002 30813.61193471  2285.13756935
0.41200002 30987.47277618  2111.64143239
0.41300002 31160.43798141  2902.59493550
0.41400002 31331.92483501  2340.49489607
0.41500002 31502.32550324  2358.89424545
0.41600002 31670.02899375  2575.24852965
0.41700002 31836.89448691  2195.79071681
0.41800002 32002.92172921  2011.38372599
0.41900002 32165.22819065  2836.97326084
0.42000002 32326.37742062  2245.55191393
0.42100002 32486.23332496  2262.01653360
0.42200002 32644.11017544  2899.77644429
0.42300002 32799.23267206  2086.03129679
0.42400002 32952.45032244  2310.79068836
0.42500002 33103.95624315  2538.41148501
0.42600002 33252.00525289  3407.66565979
0.42700002 33399.07016867  3216.33060965
0.42800002 33543.28702405  3021.91487119
0.42900002 33685.78290617  2607.27972049
0.43000002 33825.85500463  2842.89411858
0.43100002 33962.10271706  2420.81879639
0.43200002 34096.84510037  2436.04921364
0.43300002 34228.69657572  2896.77472848
0.43400002 34358.32388892  3138.63303599
0.43500002 34484.95411298  2931.91093762
0.43600002 34609.87617998  2268.67749111
0.43700002 34731.10217851  3879.11698615
0.43800002 34849.01002565  2294.80741894
0.43900002 34965.19937391  3230.78457525
0.44000002 35077.85535268  2552.44026570
0.44100002 35188.47285511  3732.79337737
0.44200002 35295.92935682  3752.66338706
0.44300002 35400.74299806  2357.68959540
0.44400002 35502.04948276  2843.71429833
0.44500002 35599.69172789  2381.61948946
0.44600002 35695.19984963  2872.03591601
0.44700002 35787.99831487  2885.94432088
0.44800002 35876.70789801  2657.92603059
0.44900002 35963.75730466  2427.55373311
0.45000002 36047.42222043  3170.19069742
0.45100002 36126.75016569  2449.39377732
0.45200002 36203.99332328  3444.08604807
0.45300002 36277.57791270  4199.85539400
0.45400002 36348.61873653  2976.95201561
0.45500002 36416.38901588  2989.05735208
0.45600002 36480.67739957  3000.90066511
0.45700002 36541.93368166  3012.51715549
0.45800002 36599.34607708  3779.79764525
0.45900002 36653.90858345  2529.11981212
0.46000002 36706.06751475  3553.51456452
0.46100002 36753.75994802  3565.84995916
0.46200002 36799.04849856  2811.26344329
0.46300002 36840.75256301  3076.93979989
0.46400002 36878.77335645  2829.52401988
0.46500002 36914.49324265  2838.35551995
0.46600002 36946.19117982  4399.73738518
0.46700002 36974.64958840  3893.43078619
0.46800002 37000.56237581  3123.58762381
0.46900002 37022.47288919  2610.08446240
0.47000002 37040.91602441  3402.02309351
0.47100002 37056.56766812  3148.32613830
0.47200002 37068.77342084  3156.03551864
0.47300002 37078.33406067  3427.15057967
0.47400002 37083.26195185  2642.18253930
0.47500002 37086.07995472  4501.50859826
0.47600002 37086.00774204  2653.50397971
0.47700002 37081.52782174  2658.74567084
