# SAXS profile: number of points = 501, q_min = 0, q_max = 0.5, delta_q = 0.001
#    q    intensity    error
0.00000000 1664650.74656090 349.57665678
0.00100000 1664581.99309600 798.99937566
0.00200000 1664375.68320957 898.76289739
0.00300000 1664031.97605060 1497.62883180
0.00400000 1663550.74406548 1871.49465819
0.00500000 1662932.44914910 1646.30318982
0.00600000 1662176.84683109 1745.28576023
0.00700000 1661284.56226675 1993.54155757
0.00800000 1660255.02097195 3362.01655941
0.00900000 1659089.61663339 3484.08834387
0.01000000 1657787.51915753 4103.02428708
0.01100000 1656349.93864232 3577.71602324
0.01200000 1654776.37436120 3872.17688578
0.01300000 1653068.22141526 3818.58775989
0.01400000 1651224.66854597 4829.83236961
0.01500000 1649247.50746323 5145.65245242
0.01600000 1647135.69152777 4620.21582128
0.01700000 1644891.25194550 4885.32723743
0.01800000 1642513.76079350 5149.28087179
0.01900000 1640003.91471005 5904.01435936
0.02000000 1637362.44813140 6189.23033391
0.02100000 1634590.97442656 6472.98055220
0.02200000 1631687.52317770 6192.25443179
0.02300000 1628655.19744314 5863.15897768
0.02400000 1625493.87838718 7924.28301847
0.02500000 1622204.79693472 8224.57869608
0.02600000 1618788.04666069 8522.91945549
0.02700000 1615245.01079774 7462.43229167
0.02800000 1611575.20481685 8412.42295493
0.02900000 1607781.33634020 7958.51798029
0.03000000 1603863.95879177 9695.35807655
0.03100000 1599822.85094550 10750.81005303
0.03200000 1595659.31602183 11847.77096715
0.03300000 1591376.21503890 8927.62097794
0.03400000 1586971.19192940 9164.75905626
0.03500000 1582448.11312819 12817.83030824
0.03600000 1577806.33299039 8756.82555278
0.03700000 1573047.84638408 9863.01045297
0.03800000 1568173.94956336 11925.96343836
0.03900000 1563185.68330541 11254.93744102
0.04000000 1558082.25971942 12456.86824370
0.04100000 1552867.61435820 13696.29299369
0.04200000 1547541.85854398 11977.97454082
0.04300000 1542105.29840389 11195.68498609
0.04400000 1536561.53901323 15557.68630504
0.04500000 1530909.96967348 10563.27928157
0.04600000 1525151.19150642 10752.31639996
0.04700000 1519288.50511548 13126.65329469
0.04800000 1513321.78380301 12235.20719133
0.04900000 1507254.02941938 13565.28689620
0.05000000 1501084.59198195 13779.95719607
0.05100000 1494817.05383545 16323.40298829
0.05200000 1488449.32161018 15383.12445571
0.05300000 1481987.08539467 13204.50554643
0.05400000 1475428.69366121 14606.74474841
0.05500000 1468777.99950738 13571.50934855
0.05600000 1462033.37429293 20000.61749364
0.05700000 1455200.10046647 12660.24146502
0.05800000 1448276.73314318 12817.24968679
0.05900000 1441265.04992650 14268.52466070
0.06000000 1434168.08386130 13122.63858040
0.06100000 1426987.27010374 19906.47334820
0.06200000 1419723.11260572 20124.57606188
0.06300000 1412378.50889454 20338.25147900
0.06400000 1404951.86514943 15068.10945841
0.06500000 1397449.61298337 17985.17736040
0.06600000 1389869.12312870 20952.27801149
0.06700000 1382213.79613870 21147.87207062
0.06800000 1374486.43638077 17071.12233893
0.06900000 1366687.62205872 14350.22070348
0.07000000 1358817.27808135 18812.82609601
0.07100000 1350879.94162112 17507.40486342
0.07200000 1342874.72736569 14704.47895351
0.07300000 1334806.35436258 20742.89171871
0.07400000 1326673.96191678 17910.09932522
0.07500000 1318480.33890760 16533.74422488
0.07600000 1310225.19039215 22699.65248772
0.07700000 1301914.28135521 18278.87736730
0.07800000 1293545.76458935 15328.51802923
0.07900000 1285121.85091849 18505.75552122
0.08000000 1276646.23360837 20164.62820579
0.08100000 1268118.95265172 17157.65023438
0.08200000 1259541.36299770 23521.93605775
0.08300000 1250916.35257641 23642.32017328
0.08400000 1242244.51944926 20590.20387635
0.08500000 1233529.75709797 22277.54845901
0.08600000 1224771.21958860 15983.26516607
0.08700000 1215972.44681693 17655.92075686
0.08800000 1207132.37677173 19338.26158408
0.08900000 1198256.92982535 16176.46931245
0.09000000 1189344.78479752 17858.01278262
0.09100000 1180398.58318504 24434.25181988
0.09200000 1171419.48989266 19609.56318219
0.09300000 1162410.72019703 21306.98950247
0.09400000 1153370.64838513 23009.74551668
0.09500000 1144303.75973354 18125.77240614
0.09600000 1135211.11494999 19820.78699876
0.09700000 1126095.37301381 18208.96303769
0.09800000 1116957.56355746 19904.18471844
0.09900000 1107799.64560458 16616.99546544
0.10000000 1098621.27516334 18308.52441160
0.10100000 1089425.14159577 18335.02599539
0.10200000 1080213.63718247 21696.09192331
0.10300000 1070987.66970609 20048.89012001
0.10400000 1061749.96967728 25083.84421370
0.10500000 1052502.99032838 16734.79833358
0.10600001 1043243.24902773 26790.48789562
0.10700001 1033978.37029608 16750.45038703
0.10800001 1024705.68553673 20104.72649639
0.10900001 1015429.31612982 18430.04295518
0.11000001 1006149.36927195 26803.82045905
0.11100001 996868.14104472 20096.86266949
0.11200001 987587.77607707 25109.42038884
0.11300001 978307.62997858 16729.06126025
0.11400001 969031.54172950 21730.53334645
0.11500001 959760.35968689 23379.76346288
0.11600001 950494.57090543 20017.41660592
0.11700001 941237.53946650 24989.85784973
0.11800001 931987.40930566 21626.76885152
0.11900001 922748.33241512 18270.41784239
0.12000001 913520.73176070 21554.52268122
0.12100001 904307.72815605 21513.48186629
0.12200001 895108.17642829 33029.49326627
0.12300001 885925.11418071 23069.49106017
0.12400001 876758.56611666 18083.14627819
0.12500001 867610.92625156 32795.69455766
0.12600001 858484.48871193 21260.36936481
0.12700001 849378.99126636 19569.69288103
0.12800001 840294.84119989 24389.55891529
0.12900001 831235.32184309 16209.08953991
0.13000001 822200.55433213 22618.73831581
0.13100001 813191.25803178 19321.42520160
0.13200001 804210.54133797 17648.40116161
0.13300001 795259.45100349 15984.71571874
0.13400001 786336.53948574 22292.64194542
0.13500001 777445.72795731 20617.86167752
0.13600001 768585.97179308 20532.77520459
0.13700001 759760.33229526 26735.96735416
0.13800001 750967.66512637 20354.97952310
0.13900001 742212.77678219 17145.11595220
0.14000001 733492.69423041 17064.70833605
0.14100001 724810.90631012 20070.01494229
0.14200001 716166.40079515 18434.12402592
0.14300001 707564.16752467 18340.06408730
0.14400001 698998.09145262 15203.20920623
0.14500001 690477.49709842 15121.45789977
0.14600001 681996.70892855 15038.02814128
0.14700001 673562.29001018 23924.93366986
0.14800001 665169.69377215 22299.81503579
0.14900001 656821.62127052 17734.18461102
0.15000001 648520.41575994 20564.58335404
0.15100001 640265.77678552 18977.47851937
0.15200001 632059.67749630 15956.34731133
0.15300001 623901.95821673 17294.56309788
0.15400001 615791.04719843 20043.99953221
0.15500001 607732.23650197 18487.21550686
0.15600001 599721.87275555 16948.14092394
0.15700001 591766.51331506 15427.35373025
0.15800001 583858.37770341 20887.53444820
0.15900001 576006.33380874 15206.56793031
0.16000001 568204.76291944 19211.00394111
0.16100001 560460.37304442 14981.10647865
0.16200001 552768.38304473 14866.70636379
0.16300001 545132.42712954 16092.31000855
0.16400001 537551.95573701 14634.85268585
0.16500001 530027.84010985 18476.77137854
0.16600001 522560.17506111 13090.13300331
0.16700001 515149.36010692 23367.17607772
0.16800001 507795.04765725 18021.64709227
0.16900001 500501.15459724 15315.33605384
0.17000001 493264.91746819 17713.14402269
0.17100001 486087.80832482 15049.27925638
0.17200001 478970.13015732 12429.27546453
0.17300001 471912.36936177 13548.60476420
0.17400001 464915.53044758 14644.83990072
0.17500001 457978.39648700 12090.63023827
0.17600001 451100.41220346 13174.38816062
0.17700001 444286.09649296 20166.14687227
0.17800001 437531.99202324 16446.82835697
0.17900001 430839.72698229 15122.47513137
0.18000001 424210.00751333 12669.03247281
0.18100001 417643.38212016 15962.33081864
0.18200001 411136.44142189 15799.97419020
0.18300001 404694.73035569 12286.53259401
0.18400001 398314.13891239 11053.21787698
0.18500001 391997.54949935 17498.77143633
0.18600001 385743.81976974 12984.13758687
0.18700001 379552.83558417 11773.72951607
0.18800001 373424.77583633 10586.59289514
0.18900001 367362.17939092 12563.78712878
0.19000001 361359.07589892 10352.93801367
0.19100001 355424.51312662 11259.84910788
0.19200001 349549.68010038 12143.35646048
0.19300001 343741.09027746 16004.58591958
0.19400001 337995.11048295 15818.17191807
0.19500001 332313.41325494 10747.01629252
0.19600001 326693.97290923 10619.18809124
0.19700001 321139.13890717 14306.74931442
0.19800001 315647.76444761 16959.75518527
0.19900001 310220.88488091 13959.94047939
0.20000001 304855.30351166 11948.80418585
0.20100001 299555.02282604 10891.82114473
0.20200001 294316.63699291 9858.13622201
0.20300001 289142.38335503 11502.08455350
0.20400001 284030.92463455 11354.13674893
0.20500001 278981.71381443 11206.69597363
0.20600001 273995.84010503 11910.59973236
0.20700001 269072.31650383 11753.07934044
0.20800001 264211.07102263 11596.22445534
0.20900001 259414.12981264 9805.85457045
0.21000001 254676.95887781 11284.73658133
0.21100001 250001.68102417 10335.06998211
0.21200001 245388.12439225 8624.16603947
0.21300001 240835.61161573 11596.23524752
0.21400001 236345.43238225 8384.35461014
0.21500001 231916.36890843 9016.90884946
0.21600001 227546.38384771 8147.29865886
0.21700001 223237.72675337 8029.86141097
0.21800001 218989.03033862 9351.92698278
0.21900001 214798.88336207 8506.03618332
0.22000001 210668.12672373 8380.37847732
0.22100001 206598.81749779 8255.68913757
0.22200001 202587.19443064 10842.46715861
0.22300001 198633.73691346 10011.14081382
0.22400001 194737.18003972 6572.38013712
0.22500001 190901.36329265 8413.02347814
0.22600001 187121.06407743 7645.76703976
0.22700001 183399.06956574 8153.92301848
0.22800001 179732.99718629 8025.97736890
0.22900001 176123.00184246 9114.36577637
0.23000001 172569.00807391 9567.22626007
0.23100001 169072.34709822 6472.08975300
0.23200001 165628.90997384 6946.47681283
0.23300001 162241.40078151 7403.07546779
0.23400001 158908.49081997 7281.98193623
0.23500001 155628.14339848 5509.23653687
0.23600001 152402.36625781 6501.48525206
0.23700001 149229.74526307 6393.00258945
0.23800001 146109.58101002 5761.83159966
0.23900001 143042.10193254 5149.51591314
0.24000001 140026.05783947 6580.52489943
0.24100001 137062.72929198 6965.52823210
0.24200001 134149.79999087 6845.66461735
0.24300001 131287.45107871 7207.68140516
0.24400001 128474.62798061 6610.01992228
0.24500001 125711.97330866 5102.64923798
0.24600001 122998.73711933 5012.81376843
0.24700001 120334.75963983 5819.38925147
0.24800001 117718.09273261 6595.15645734
0.24900001 115149.37573159 6045.34251190
0.25000001 112628.48480828 5512.60144973
0.25100001 110153.82797667 4580.19638395
0.25200001 107726.84086318 6132.35070626
0.25300001 105345.81104166 5619.14582681
0.25400001 103009.47682539 3940.11267498
0.25500001 100718.35337810 5801.37742905
0.25600001 98472.19519193  4175.71363468
0.25700001 96269.91086756  5588.46859027
0.25800001 94111.08714136  4021.83749928
0.25900001 91995.79177434  5740.53767833
0.26000001 89923.58504641  3872.55937326
0.26100001 87891.67905733  4835.80041055
0.26200001 85903.75259012  5083.35480005
0.26300001 83955.68673425  3657.10988719
0.26400001 82048.25295344  4892.12731384
0.26500001 80182.09914468  5438.75204234
0.26600001 78354.57148305  4393.34103095
0.26700001 76567.61978312  3078.01846093
0.26800001 74819.06630154  3924.63430856
0.26900001 73108.47440922  5921.78670738
0.27000001 71436.33605794  3484.66463781
0.27100001 69801.34752226  3702.26364778
0.27200001 68203.74895565  3630.82674748
0.27300001 66642.08364953  3286.78772114
0.27400001 65115.28767840  2954.60631823
0.27500001 63626.22664990  4741.42663434
0.27600001 62170.09658082  4133.06821629
0.27700001 60750.34250501  2533.28940235
0.27800001 59363.44185651  2981.23219113
0.27900001 58010.95322144  2436.46015061
0.28000001 56691.05798251  2389.52820706
0.28100001 55403.85035882  2577.94127921
0.28200001 54149.28504981  2758.36471099
0.28300001 52926.42172796  3156.53194125
0.28400001 51735.09355139  2654.01042480
0.28500001 50574.79939194  3471.45439457
0.28600001 49444.17755981  2767.14352811
0.28700001 48344.05644868  3132.69500615
0.28800001 47272.71405128  2049.27225112
0.28900001 46231.94643799  2212.19874177
0.29000001 45218.48129022  3355.43756297
0.29100001 44234.49603026  3099.95362854
0.29200001 43277.49073425  2472.65955015
0.29300001 42347.83753111  1867.53972352
0.29400001 41444.97796488  2200.72843411
0.29500001 40569.83517230  2161.56092030
0.29600001 39719.33144514  2654.24444947
0.29700001 38894.47518522  1738.58312308
0.29800001 38095.40283478  2562.86834703
0.29900001 37321.05149746  2351.22635565
0.30000001 36570.82475471  2146.52466059
0.30100001 35845.46415267  2110.93948388
0.30200001 35142.42544421  1597.22331205
0.30300001 34463.25001025  1728.67670235
0.30400001 33807.38740900  1701.35685190
0.30500001 33172.65340462  1827.14983603
0.30600001 32560.20878033  1799.27722238
0.30700001 31969.98665595  1772.41614412
0.30800001 31400.47828957  2183.11835644
0.30900001 30851.83308838  1434.61030653
0.31000001 30324.49642586  2121.95673786
0.31100001 29815.41025358  1674.43351912
0.31200001 29327.28881268  2065.37441242
0.31300001 28857.69867086  1495.11743893
0.31400001 28408.56599004  1342.30480658
0.31500001 27977.16578410  1856.56480934
0.31600002 27563.89965027  1572.79618851
0.31700002 27168.11988424  1943.87906976
0.31800002 26790.36800820  1794.68683784
0.31900002 26429.87465889  1268.63404370
0.32000002 26085.95046158  1507.24628904
0.32100002 25758.94346388  2239.48265079
0.32200002 25448.19451766  1356.26159104
0.32300002 25152.52203621  1589.13641749
0.32400002 24872.66364290  1455.05089201
0.32500002 24607.64192829  1804.97062091
0.32600002 24357.93498751  1553.18379803
0.32700002 24122.51026376  1424.19307341
0.32800002 23901.97511376  1887.30004435
0.32900002 23694.08614071  1290.14305145
0.33000002 23501.40448740  2100.32061850
0.33100002 23319.74681365  2206.51454800
0.33200002 23153.26587581  1272.15625379
0.33300002 22998.37023313  1497.88392422
0.33400002 22856.44737768  1378.24384214
0.33500002 22726.21982668  1374.48184021
0.33600002 22607.69066150  1371.38258047
0.33700002 22500.04426137  1140.75229807
0.33800002 22404.97040320  1481.08063864
0.33900002 22319.57750215  1252.12835717
0.34000002 22245.59026458  1593.00679429
0.34100002 22181.78397337  1593.09580041
0.34200002 22129.04712363  1593.95533980
0.34300002 22084.84505169  1253.53586450
0.34400002 22051.04050096  1255.25553997
0.34500002 22026.14327443  1143.15689008
0.34600002 22011.61567702  1718.55697538
0.34700002 22003.82356800  1378.31957358
0.34800002 22006.31083631  1267.23346953
0.34900002 22016.71220161  1733.81616799
0.35000002 22035.16798165  1276.16681410
0.35100002 22061.73185614  1164.85949717
0.35200002 22095.15477104  1169.93850054
0.35300002 22136.46702548  1410.53574567
0.35400002 22185.36109593  1299.50758774
0.35500002 22240.88982960  1781.49535973
0.35600002 22302.70381451  1672.03378417
0.35700002 22371.24880013  1321.46972921
0.35800002 22446.72458012  1571.38302866
0.35900002 22527.75021201  1338.14842598
0.36000002 22615.48571639  1347.09147050
0.36100002 22707.93198359  1356.34484163
0.36200002 22807.14000075  1366.03371505
0.36300002 22909.81706631  1501.05128529
0.36400002 23018.43859801  2268.46723129
0.36500002 23131.53551509  1396.91349592
0.36600002 23249.87013129  1535.88649362
0.36700002 23372.24596854  1290.14803858
0.36800002 23500.37990033  1821.04452474
0.36900002 23631.69715775  1573.87110526
0.37000002 23766.04922084  1851.61298251
0.37100002 23904.82113525  1600.66689904
0.37200002 24047.54562530  1480.00626562
0.37300002 24193.08999857  2035.84861982
0.37400002 24343.01638145  1369.29473632
0.37500002 24494.89498748  1657.81457129
0.37600002 24650.78323055  1672.80222927
0.37700002 24808.33035698  1547.29563766
0.37800002 24969.37010077  1561.45963322
0.37900002 25132.70718331  1432.56437731
0.38000002 25298.49266243  2168.71338622
0.38100002 25465.94808031  1751.03867295
0.38200002 25635.66813307  1620.04612442
0.38300002 25807.23777558  2229.74544944
0.38400002 25980.97439981  1950.52174547
0.38500002 26155.36562447  2725.91233452
0.38600002 26332.37060219  1987.17244164
0.38700002 26509.75452006  1542.86778616
0.38800002 26688.29109730  1868.71423116
0.38900002 26868.09361752  1886.14026131
0.39000002 27049.54602642  1745.10154457
0.39100002 27230.88013441  2081.52857609
0.39200002 27413.50027326  2100.83369297
0.39300002 27596.33934116  3261.88746466
0.39400002 27780.49097258  1975.19300173
0.39500002 27964.07235708  1661.06597671
0.39600002 28147.94136492  3017.17797785
0.39700002 28331.62291958  1860.53776528
0.39800002 28516.35218651  1706.70375922
0.39900002 28700.17720216  1894.21178509
0.40000002 28883.82353033  2432.30689473
0.40100002 29066.93235916  1928.00971473
0.40200002 29250.84756667  2121.85658302
0.40300002 29433.16094982  3032.20438472
0.40400002 29614.95572365  2338.84123909
0.40500002 29796.22022302  2903.34383609
0.40600002 29976.90202723  1830.08995547
0.40700002 30156.50890683  2214.69411905
0.40800002 30335.53865963  2605.51953893
0.40900002 30512.57821863  3002.43783897
0.41000002 30689.57390067  2648.81724887
0.41100002 30864.93223564  1907.45290254
0.41200002 31038.49656056  2307.40194364
0.41300002 31211.08821719  2132.02953714
0.41400002 31382.14743122  2734.95427822
0.41500002 31552.19476742  2756.39986549
0.41600002 31719.45380358  2380.86231531
0.41700002 31885.94715957  2399.09877796
0.41800002 32051.56479851  3021.66141456
0.41900002 32213.37221455  2638.27530938
0.42000002 32374.14821456  2248.87031229
0.42100002 32533.52535787  2059.37225274
0.42200002 32690.92813599  2696.51133507
0.42300002 32845.56114082  2506.77334505
0.42400002 32998.34984115  2314.00939226
0.42500002 33149.35393371  2330.06819841
0.42600002 33296.87477522  2772.46440954
0.42700002 33443.39617092  2791.18597669
0.42800002 33587.10296010  2377.46319569
0.42900002 33729.03206433  2610.62720549
0.43000002 33868.58592555  2627.52502062
0.43100002 34004.23908009  2644.16975617
0.43200002 34138.46218807  2439.02254661
0.43300002 34269.71318599  2677.15012095
0.43400002 34398.77810139  2468.97241523
0.43500002 34524.80152110  2709.50655178
0.43600002 34649.14626390  2725.50197428
0.43700002 34769.74620124  3198.12140715
0.43800002 34887.03134970  2527.04223557
0.43900002 35002.55364220  3696.26983978
0.44000002 35114.59475998  3484.24583018
0.44100002 35224.57929056  2568.92868940
0.44200002 35331.36214242  3052.09986331
0.44300002 35435.50156165  4012.00767694
0.44400002 35536.14924809  2609.24188219
0.44500002 35633.11422680  2860.62654570
0.44600002 35727.95089059  2635.11514282
0.44700002 35820.03174941  2407.10624764
0.44800002 35908.05267970  3143.92970137
0.44900002 35994.42159777  2915.54828759
0.45000002 36077.39049323  3660.95337380
0.45100002 36155.95837365  3431.92373147
0.45200002 36232.52182092  2708.19997185
0.45300002 36305.33287546  2472.39328599
0.45400002 36375.65265408  2979.16609356
0.45500002 36442.71191175  3739.02241935
0.45600002 36506.25012898  2752.75392144
0.45700002 36566.73369235  3516.98861321
0.45800002 36623.39453608  3277.97708331
0.45900002 36677.21016044  3289.94590732
0.46000002 36728.61766087  3555.69764427
0.46100002 36775.52471443  3313.10717855
0.46200002 36820.06465615  3324.29969504
0.46300002 36860.94765445  2822.07428618
0.46400002 36898.21062266  3088.38037549
0.46500002 36933.14123075  2581.62669439
0.46600002 36964.04611731  2848.26470857
0.46700002 36991.71298948  3375.86388742
0.46800002 37016.87689515  2864.55115430
0.46900002 37037.94093816  3655.64494386
0.47000002 37055.58319224  3141.57249194
0.47100002 37070.44253969  3411.96369307
0.47200002 37081.85725843  3157.14947662
0.47300002 37090.63269651  2900.85852069
0.47400002 37094.71890382  3435.89850132
0.47500002 37096.74461232  4237.93230538
0.47600002 37095.84087954  3981.31131110
0.47700002 37090.55657394  3191.27163888
