# SAXS profile: number of points = 501, q_min = 0, q_max = 0.5, delta_q = 0.001
#    q    intensity    error
0.00000000 1682732.95097188 328.13292544
0.00100000 1682663.61947495 555.27900761
0.00200000 1682455.58023925 1059.94704911
0.00300000 1682108.97636124 1110.19196395
0.00400000 1681623.70467323 1513.46139171
0.00500000 1681000.21656998 2118.06035671
0.00600000 1680238.26284551 2117.10029738
0.00700000 1679338.46985116 2418.24749709
0.00800000 1678300.27395379 2492.27601205
0.00900000 1677125.07744856 3018.82526846
0.01000000 1675812.03969335 3594.61698036
0.01100000 1674362.34910420 3616.62283153
0.01200000 1672775.54737592 3914.29495248
0.01300000 1671053.00405189 3860.13260961
0.01400000 1669193.92910258 5633.52976046
0.01500000 1667200.11453351 4801.53654366
0.01600000 1665070.49511881 4245.92995236
0.01700000 1662807.13798681 6285.41126355
0.01800000 1660409.56356382 5678.60096291
0.01900000 1657878.54219831 6465.72660632
0.02000000 1655214.75376906 5735.31938125
0.02100000 1652419.85513713 5998.28434610
0.02200000 1649491.92378445 5690.74739560
0.02300000 1646433.90928399 7705.31104618
0.02400000 1643245.79233905 6162.17200225
0.02500000 1639928.87430292 10872.72893319
0.02600000 1636483.15230473 8616.08419097
0.02700000 1632910.03797222 9601.51146304
0.02800000 1629209.15769006 7795.76617706
0.02900000 1625382.99952386 8045.64621705
0.03000000 1621432.28750024 8293.62653178
0.03100000 1617356.78225659 11644.96936807
0.03200000 1613157.78476403 10380.67082307
0.03300000 1608838.12695330 9846.08979086
0.03400000 1604395.61658392 11792.30832599
0.03500000 1599833.87524359 8639.10332525
0.03600000 1595152.38064328 10623.71534605
0.03700000 1590353.20847660 9971.51507831
0.03800000 1585437.49497674 15767.17661724
0.03900000 1580406.51626289 11378.92744405
0.04000000 1575259.29069088 13562.98312134
0.04100000 1569999.80666788 12858.29901281
0.04200000 1564628.23733007 10091.85259897
0.04300000 1559144.81351839 11319.39187157
0.04400000 1553553.20717157 11535.13309896
0.04500000 1547852.80869799 14952.25882678
0.04600000 1542044.27773535 13045.69519609
0.04700000 1536130.80130477 11060.14228378
0.04800000 1530112.38989237 12370.95924788
0.04900000 1523991.93967138 13715.92809548
0.05000000 1517768.95461818 13933.11965221
0.05100000 1511446.79812399 14147.14268947
0.05200000 1505023.64326258 14357.92622582
0.05300000 1498504.93112242 19420.62481269
0.05400000 1491889.19545879 14769.70372381
0.05500000 1485180.32044607 21208.37596533
0.05600000 1478376.51941899 12640.11983087
0.05700000 1471483.20935584 17922.66632656
0.05800000 1464498.96036556 16849.06132573
0.05900000 1457425.39524054 14428.51208678
0.06000000 1450265.87149891 14596.92667859
0.06100000 1443021.65418953 14762.11221221
0.06200000 1435693.17496603 18994.22159266
0.06300000 1428283.45827690 19196.13057676
0.06400000 1420790.94549746 23549.61102296
0.06500000 1413221.82682500 16789.07608804
0.06600000 1405573.82173810 15538.61932634
0.06700000 1397850.03377933 17109.68521417
0.06800000 1390053.58142654 20141.87733769
0.06900000 1382184.82646321 18866.82376455
0.07000000 1374243.86767920 16099.26766377
0.07100000 1366235.08010456 19181.94142311
0.07200000 1358157.64838493 19333.37503047
0.07300000 1350016.41323820 19480.73775581
0.07400000 1341810.39338344 24152.58821279
0.07500000 1333542.54667264 18242.86289357
0.07600000 1325212.36583413 22959.30531442
0.07700000 1316825.79547582 16947.54878242
0.07800000 1308380.88563635 20155.60848845
0.07900000 1299879.93107062 20278.12787582
0.08000000 1291326.66165127 18827.54361010
0.08100000 1282721.21091154 22088.46028825
0.08200000 1274064.54016504 19034.52512326
0.08300000 1265359.99983281 23915.30511923
0.08400000 1256608.02869374 17623.92842967
0.08500000 1247812.48079160 22535.49446103
0.08600000 1238972.65394626 22636.03145039
0.08700000 1230091.89261665 16237.21374500
0.08800000 1221169.49476409 22823.65892903
0.08900000 1212211.07885862 27820.24556651
0.09000000 1203215.27791463 18066.27824656
0.09100000 1194185.02018641 29663.55729506
0.09200000 1185121.37171441 21492.17708589
0.09300000 1176027.55269330 21556.58605386
0.09400000 1166902.07613143 26605.36858618
0.09500000 1157749.07222930 20005.90490845
0.09600000 1148569.93031863 25067.53990757
0.09700000 1139367.32156570 20098.44049730
0.09800000 1130142.24710948 20139.13579039
0.09900000 1120896.49380702 23538.82747680
0.10000000 1111629.84383283 20209.43151127
0.10100000 1102345.19024688 18552.47042441
0.10200000 1093044.67714311 20265.04926743
0.10300000 1083729.39114184 21978.03308622
0.10400000 1074401.97477084 25382.74784809
0.10500000 1065064.94416947 16934.53340905
0.10600001 1055714.92080362 20333.07033142
0.10700001 1046359.11981420 20341.22224640
0.10800001 1036995.46589131 18650.36433177
0.10900001 1027627.82311271 25433.78981910
0.11000001 1018256.23733314 20344.76057953
0.11100001 1008883.22996741 20339.08687357
0.11200001 999510.60436774 18635.87609576
0.11300001 990138.00034260 23703.90484420
0.11400001 980769.31921599 18610.09870837
0.11500001 971405.31189379 20282.94386743
0.11600001 962046.62032872 20260.70277823
0.11700001 952696.18659035 21921.54028584
0.11800001 943352.68161733 18522.73077595
0.11900001 934019.98566269 18493.59658720
0.12000001 924698.57482296 21818.26390070
0.12100001 915391.81641811 16751.67102959
0.12200001 906098.02666111 21732.76219333
0.12300001 896820.80736246 20017.04136342
0.12400001 887560.02267991 16641.75120937
0.12500001 878317.94571711 28220.35692565
0.12600001 869097.00590955 21523.18836560
0.12700001 859896.99426728 16510.02306799
0.12800001 850718.13138776 18107.53627998
0.12900001 841563.93907236 18051.54734391
0.13000001 832434.55917085 22900.27580219
0.13100001 823330.53479553 24452.91803608
0.13200001 814255.06440008 22742.14502077
0.13300001 805209.21826993 17803.17665524
0.13400001 796191.63739700 20959.74584264
0.13500001 787205.98106087 16059.00277079
0.13600001 778251.63850979 17592.37911801
0.13700001 769331.24242722 25480.25195067
0.13800001 760444.02076821 19026.31029682
0.13900001 751594.58934057 17361.83583252
0.14000001 742779.98434583 18851.75689176
0.14100001 734003.98470247 17197.71417267
0.14200001 725265.26137705 24891.10494446
0.14300001 716568.96294048 17025.67936253
0.14400001 707908.85396913 21555.82562015
0.14500001 699294.38120876 15314.54767089
0.14600001 690719.99843924 18276.45202088
0.14700001 682191.88654262 24231.45695315
0.14800001 673706.00152021 21080.26178211
0.14900001 665264.75384973 17962.14920141
0.15000001 656870.54312613 17853.74220456
0.15100001 648523.03343381 16264.95844598
0.15200001 640224.43381149 17631.78173916
0.15300001 631974.35226211 17518.32987138
0.15400001 623771.30956032 14502.68363167
0.15500001 615620.62958847 20167.73277709
0.15600001 607518.81056913 15737.77553054
0.15700001 599471.97126109 21311.22958415
0.15800001 591472.59233706 15517.28419236
0.15900001 583529.72883898 14004.71415317
0.16000001 575637.75603232 19462.31345012
0.16100001 567803.30158065 16557.14505566
0.16200001 560021.34054617 16431.02690727
0.16300001 552295.94326318 13586.48084566
0.16400001 544626.09208819 18871.29498176
0.16500001 537013.14888345 13371.62803849
0.16600001 529456.88497158 19894.34339208
0.16700001 521957.97852441 15784.01001582
0.16800001 514515.84702462 16955.87053929
0.16900001 507134.72913541 12931.93620357
0.17000001 499811.34516385 16666.21009146
0.17100001 492547.58413728 16520.04675206
0.17200001 485343.74131174 13854.13774998
0.17300001 478200.09689832 14977.22774215
0.17400001 471117.94268614 13603.53123750
0.17500001 464095.81831915 14702.55621872
0.17600001 457133.48349224 15777.96292791
0.17700001 450234.94992140 13223.40110374
0.17800001 443397.46920836 13095.74487161
0.17900001 436621.93390187 11788.79277218
0.18000001 429909.49445019 12839.24765822
0.18100001 423260.77362300 17332.52949859
0.18200001 416672.10392436 16012.70971022
0.18300001 410149.17187488 12452.12944635
0.18400001 403687.83076672 15683.27296618
0.18500001 397291.11423400 17735.07617725
0.18600001 390957.61791157 14256.27021066
0.18700001 384687.58991719 15187.46676746
0.18800001 378480.65733451 12875.91257086
0.18900001 372339.98068937 10611.68995102
0.19000001 366259.43603865 11542.66667213
0.19100001 360247.74547215 15562.70333974
0.19200001 354296.66193802 13333.95550208
0.19300001 348412.20637634 10138.79568464
0.19400001 342590.71042207 11022.85662870
0.19500001 336834.20793228 10893.21879929
0.19600001 331140.70684445 14677.81252450
0.19700001 325512.10875839 13534.79412180
0.19800001 319947.84946950 15280.71001281
0.19900001 314448.45553336 12263.49034537
0.20000001 309010.94881530 13043.35276594
0.20100001 303639.36707976 10120.30058308
0.20200001 298330.41227944 11809.40992824
0.20300001 293086.17174689 12555.81219108
0.20400001 287905.35540058 11509.01712612
0.20500001 282787.34501882 10485.75524893
0.20600001 277733.25793229 9485.97987306
0.20700001 272742.16581755 9360.51157332
0.20800001 267813.95137414 8395.96777246
0.20900001 262950.77095691 10767.83457969
0.21000001 258147.91839253 9804.45840403
0.21100001 253407.68134463 12893.38343633
0.21200001 248729.70795977 8741.60599950
0.21300001 244113.54663826 10186.85878280
0.21400001 239560.35794011 10816.15067235
0.21500001 235068.84957550 9901.10041222
0.21600001 230637.00612674 9759.40537566
0.21700001 226267.27812829 10358.51648246
0.21800001 221958.04972088 9478.71896149
0.21900001 217708.17209417 9339.68102443
0.22000001 213518.32207976 7785.94598278
0.22100001 209390.65701867 9761.79289178
0.22200001 205321.19379174 7554.79368279
0.22300001 201310.76096982 10146.06283264
0.22400001 197357.66462928 6660.82149620
0.22500001 193465.99233422 7214.34719529
0.22600001 189630.70056663 10331.08105541
0.22700001 185854.31206687 7627.46132792
0.22800001 182134.49597254 8758.84832553
0.22900001 178471.42310439 6772.99082711
0.23000001 174865.06162566 6059.07467187
0.23100001 171316.75068116 9538.91712905
0.23200001 167822.25778527 7038.46582439
0.23300001 164384.49982687 7500.86508185
0.23400001 161001.87740088 7945.44302552
0.23500001 157672.47385891 5581.60583859
0.23600001 154398.43679946 6586.63762539
0.23700001 151178.22722922 8095.59445103
0.23800001 148011.22360756 9020.54444942
0.23900001 144897.47533935 6259.57123073
0.24000001 141835.89370995 6665.57814018
0.24100001 138827.60535186 7055.21923770
0.24200001 135870.39317930 5942.97127878
0.24300001 132964.59866632 5839.80544966
0.24400001 130108.91513850 5259.65314327
0.24500001 127304.11238011 5167.27416594
0.24600001 124549.19608659 5076.00272663
0.24700001 121844.46066020 4985.87556608
0.24800001 119187.65076967 5787.15665689
0.24900001 116579.43982319 6120.42088026
0.25000001 114019.71204648 4722.12659780
0.25100001 111506.95001254 5479.45178284
0.25200001 109042.45686911 4138.16143396
0.25300001 106624.51120863 4468.63347617
0.25400001 104252.08753940 5183.93529815
0.25500001 101925.38268296 4696.72185624
0.25600001 99644.46472902  4609.55315645
0.25700001 97407.97658791  5654.53330846
0.25800001 95215.58061761  4069.03803022
0.25900001 93067.35630779  5081.47789483
0.26000001 90962.81753026  5341.79171221
0.26100001 88899.28989144  4192.49070965
0.26200001 86880.40936284  5483.89169846
0.26300001 84902.06002839  3698.33390983
0.26400001 82964.75932935  3297.84933939
0.26500001 81069.55665659  4852.01319549
0.26600001 79213.60894867  4758.75778277
0.26700001 77398.73968187  3422.57243069
0.26800001 75623.00208571  3356.52710641
0.26900001 73885.79813172  4189.32495231
0.27000001 72187.58317110  2934.42539477
0.27100001 70527.26254298  2877.51244793
0.27200001 68904.81641925  3103.81760249
0.27300001 67318.97021749  3043.49078756
0.27400001 65768.59671876  3255.54569165
0.27500001 64256.53195114  3458.28671328
0.27600001 62777.93526546  2608.42333373
0.27700001 61336.25510919  4092.35513456
0.27800001 59928.15634178  2507.99346160
0.27900001 58554.89169539  2705.23612436
0.28000001 57214.96565018  3135.09419118
0.28100001 55908.17244492  3074.39054825
0.28200001 54634.59617508  2551.16258914
0.28300001 53393.23845647  2502.00727249
0.28400001 52183.93907946  2677.03620148
0.28500001 51006.34128300  2625.80657353
0.28600001 49858.85786160  3004.99350555
0.28700001 48742.40795307  3790.20982183
0.28800001 47655.29715459  2272.44295238
0.28900001 46599.42299899  2027.07499640
0.29000001 45571.16795043  1989.18157519
0.29100001 44572.91392229  3318.89932775
0.29200001 43602.29483707  2107.95304368
0.29300001 42659.40967117  2445.66407222
0.29400001 41743.83205644  2031.88112153
0.29500001 40856.31268791  1995.42240613
0.29600001 39994.19557440  2316.26394634
0.29700001 39158.05139212  1925.40147810
0.29800001 38348.13824388  2063.89689799
0.29900001 37563.44401118  2366.49708473
0.30000001 36803.39928652  1994.00826774
0.30100001 36068.68131641  1797.30247508
0.30200001 35356.66516150  1767.65655843
0.30300001 34668.93040118  2055.17429148
0.30400001 34005.04692742  2333.59645587
0.30500001 33362.67286084  1990.75078385
0.30600001 32742.93945318  2261.71864980
0.30700001 32145.95716134  1485.14329117
0.30800001 31570.06549280  2048.58164681
0.30900001 31015.47500728  2019.10751857
0.31000001 30482.47873802  1564.20847050
0.31100001 29968.26311424  1542.76625816
0.31200001 29475.26572607  1937.40930790
0.31300001 29001.35829451  1639.15684841
0.31400001 28548.28103116  1483.79697685
0.31500001 28113.05997036  1732.32683739
0.31600002 27696.57831630  2370.55025033
0.31700002 27297.81320240  1953.15862711
0.31800002 26917.46687176  1288.00085080
0.31900002 26554.72990895  1529.55251518
0.32000002 26208.93101073  1766.74412309
0.32100002 25880.37267308  1500.02647116
0.32200002 25568.29811554  1486.54092283
0.32300002 25271.68795500  1351.02450205
0.32400002 24991.25009662  1583.82054987
0.32500002 24725.89460518  1813.64445517
0.32600002 24476.17292719  1560.72324061
0.32700002 24241.05582917  1550.45800425
0.32800002 24021.05260235  1541.07070268
0.32900002 23814.03479576  1768.19216732
0.33000002 23622.50061951  1407.42865356
0.33100002 23442.17936166  1167.42058749
0.33200002 23277.43356861  1627.79100654
0.33300002 23124.41207974  1853.65296009
0.33400002 22984.57976133  1501.46774401
0.33500002 22856.79220211  2073.56828677
0.33600002 22740.89229098  1379.46259170
0.33700002 22636.06732693  1262.41353461
0.33800002 22544.15123716  1490.28118811
0.33900002 22462.14570612  1145.56948526
0.34000002 22391.53119508  1717.99031230
0.34100002 22331.55010156  1374.73028936
0.34200002 22282.73721271  1605.02563744
0.34300002 22242.61265656  1606.80641441
0.34400002 22213.14951055  1264.48359577
0.34500002 22192.78136602  1151.80540745
0.34600002 22182.90604194  1616.46843983
0.34700002 22179.92355457  1505.12968370
0.34800002 22187.38058992  1509.96225756
0.34900002 22202.93545646  1398.78500001
0.35000002 22226.75049000  1521.31000934
0.35100002 22258.76351062  1527.84159973
0.35200002 22297.71502261  1298.73047300
0.35300002 22344.77802145  1305.15854605
0.35400002 22399.51951796  1789.16170624
0.35500002 22461.00559849  1679.18485808
0.35600002 22528.89049128  1327.06435724
0.35700002 22603.70383202  1577.96463925
0.35800002 22685.42550118  1221.61022110
0.35900002 22772.87099076  1844.60263762
0.36000002 22867.08104010  1362.07774667
0.36100002 22966.11398336  1870.59007255
0.36200002 23071.98769175  1507.52374719
0.36300002 23181.44626824  2278.27264716
0.36400002 23296.85870912  1530.60368969
0.36500002 23416.79714999  1928.37333664
0.36600002 23542.11555612  1295.99352275
0.36700002 23671.51244003  1568.00105830
0.36800002 23806.70998540  1844.78204415
0.36900002 23945.06512393  1727.63653053
0.37000002 24086.55989487  2010.62568247
0.37100002 24232.40011511  2028.25198571
0.37200002 24382.36901995  1500.61297242
0.37300002 24535.16016179  1651.70706033
0.37400002 24692.30878310  1666.73092181
0.37500002 24851.41096948  1541.78160958
0.37600002 25014.66579906  2121.86912692
0.37700002 25179.43864470  1570.44166266
0.37800002 25347.71642312  1441.01774692
0.37900002 25518.39400185  1600.00337971
0.38000002 25691.38339548  1468.26263061
0.38100002 25866.09072524  1926.76518940
0.38200002 26043.06921925  1795.40927703
0.38300002 26221.86864298  1812.45564647
0.38400002 26402.80576648  1829.71452630
0.38500002 26584.40001516  2308.85525070
0.38600002 26768.47734628  1864.69222028
0.38700002 26952.90208885  1725.52487347
0.38800002 27138.50457737  1741.88499882
0.38900002 27325.32275271  1758.38460244
0.39000002 27513.68454956  1936.41321034
0.39100002 27701.92228617  1954.64772912
0.39200002 27891.39423756  1808.61754502
0.39300002 28080.98638390  2655.33819826
0.39400002 28271.91228303  1675.11088213
0.39500002 28462.11467003  2028.77962980
0.39600002 28652.54935201  1876.88533423
0.39700002 28842.74191317  2238.48530594
0.39800002 29033.97648731  2780.29372015
0.39900002 29224.12294617  2104.13695182
0.40000002 29413.92664038  2300.02210262
0.40100002 29603.27390039  2320.60075100
0.40200002 29793.26862778  2521.40444343
0.40300002 29981.53115066  2543.63322334
0.40400002 30169.27665097  2382.61873640
0.40500002 30356.25050951  1848.69574362
0.40600002 30542.68964083  2424.02067820
0.40700002 30727.89349799  2444.71132253
0.40800002 30912.31736837  2655.05906457
0.40900002 31094.78585369  2103.56236267
0.41000002 31277.07732864  2506.70148128
0.41100002 31457.58621822  2721.71048856
0.41200002 31636.11353591  2155.84305905
0.41300002 31813.61752996  2765.87603911
0.41400002 31989.44714188  2588.74613262
0.41500002 32164.10061767  2007.03997364
0.41600002 32335.93900865  2022.61308083
0.41700002 32506.82671930  2445.81375825
0.41800002 32676.70207097  3285.96931596
0.41900002 32842.68044729  2275.99786284
0.42000002 33007.49287092  2292.86560093
0.42100002 33170.71438762  2939.58884832
0.42200002 33331.86104832  2326.39735210
0.42300002 33490.05812452  2129.96779765
0.42400002 33646.29160965  3217.42678763
0.42500002 33800.63255658  2375.84657498
0.42600002 33951.29303833  3479.32867544
0.42700002 34100.85182283  3502.83966523
0.42800002 34247.46061114  2424.20661423
0.42900002 34392.11077656  3549.26600033
0.43000002 34534.24333279  2455.90283099
0.43100002 34672.39694119  2696.12571391
0.43200002 34808.85449035  2713.00224754
0.43300002 34942.24314634  2502.21415028
0.43400002 35073.32606005  2517.38809725
0.43500002 35201.10445179  2532.36757427
0.43600002 35327.15397521  2778.83406338
0.43700002 35449.27281701  2561.91906789
0.43800002 35567.95841766  2576.36519008
0.43900002 35684.65149811  2355.18711049
0.44000002 35797.78173879  3078.43038651
0.44100002 35908.69133876  3571.11952288
0.44200002 36016.21444351  3111.26083215
0.44300002 36120.98093722  3608.48616664
0.44400002 36222.03919116  3626.73184589
0.44500002 36319.25674670  2672.73423065
0.44600002 36414.27251684  2685.73479676
0.44700002 36506.36183468  2453.22763155
0.44800002 36594.08244525  2711.07272644
0.44900002 36680.15282006  2723.50147596
0.45000002 36762.62745199  2735.69105149
0.45100002 36840.59849273  2497.79269618
0.45200002 36916.34778999  2508.46595121
0.45300002 36988.15457578  4030.22951358
0.45400002 37057.37541118  3793.74898752
0.45500002 37123.12135547  3808.83243158
0.45600002 37185.34022334  3058.86623174
0.45700002 37244.22314869  2814.54607674
0.45800002 37299.13050036  2568.04525666
0.45900002 37351.06785936  2577.22380444
0.46000002 37400.42930511  2844.86378992
0.46100002 37445.07121888  2854.43791430
0.46200002 37487.27123438  2603.49111062
0.46300002 37525.80881202  2872.97605881
0.46400002 37560.41486612  3667.77468551
0.46500002 37592.60335947  2627.72309937
0.46600002 37620.54876132  2898.85152220
0.46700002 37645.11750536  3699.76232378
0.46800002 37667.12646020  3179.85896648
0.46900002 37684.85764025  3719.49562538
0.47000002 37698.94931236  2663.43089516
0.47100002 37710.21152025  2936.87141240
0.47200002 37717.85548532  2676.08197352
0.47300002 37722.82318303  3218.51142652
0.47400002 37722.80811747  3225.30024691
0.47500002 37720.66610368  2962.58125620
0.47600002 37715.49546922  2968.39821160
0.47700002 37705.70642048  3244.19913419
