# SAXS profile: number of points = 501, q_min = 0, q_max = 0.5, delta_q = 0.001
#    q    intensity    error
0.00000000 1664650.74656091 249.69761198
0.00100000 1664582.06216431 599.24955661
0.00200000 1664375.95689071 748.96920432
0.00300000 1664032.59644512 1597.47134949
0.00400000 1663551.85250301 1372.43033046
0.00500000 1662934.18137679 1945.63306922
0.00600000 1662179.34813241 1919.81722525
0.00700000 1661287.93466783 2192.90016490
0.00800000 1660259.44935354 2465.48538638
0.00900000 1659095.19912896 2986.37148609
0.01000000 1657794.41784941 2735.36090756
0.01100000 1656358.27257249 3279.58952248
0.01200000 1654786.28619628 4194.88341943
0.01300000 1653079.85788563 5207.20178200
0.01400000 1651238.14224664 3715.28598476
0.01500000 1649262.96805781 4749.87755951
0.01600000 1647153.27589415 6720.38566607
0.01700000 1644911.07473306 4441.26010101
0.01800000 1642535.97098530 7021.84159193
0.01900000 1640028.69343950 5412.09493256
0.02000000 1637389.76309835 5673.55578578
0.02100000 1634621.05291412 6473.09966302
0.02200000 1631720.53722237 5629.43610918
0.02300000 1628691.23834745 6449.61759743
0.02400000 1625533.05054861 8534.04890451
0.02500000 1622247.20896232 8224.79372507
0.02600000 1618833.88317690 8523.16078476
0.02700000 1615294.34650653 10176.35484908
0.02800000 1611628.19544026 10515.87445750
0.02900000 1607838.14964840 9405.85360731
0.03000000 1603924.58835868 10441.54955016
0.03100000 1599887.52732609 7679.46048452
0.03200000 1595727.99712286 7898.85394956
0.03300000 1591449.14490825 10551.30831716
0.03400000 1587048.50525214 13331.20805922
0.03500000 1582529.83196871 10254.79378470
0.03600000 1577892.59722313 11384.49561508
0.03700000 1573138.71953632 11656.95845087
0.03800000 1568269.63075698 11009.25331742
0.03900000 1563286.18634715 10317.68930770
0.04000000 1558187.84893556 12457.71242952
0.04100000 1552978.24421852 11740.51607066
0.04200000 1547657.65361989 10980.63156186
0.04300000 1542226.37853683 10178.69457082
0.04400000 1536687.86147053 13484.43661065
0.04500000 1531041.83202602 12677.02695821
0.04600000 1525288.60343448 17205.25624656
0.04700000 1519431.51182734 10939.90739395
0.04800000 1513470.58952367 12236.41028564
0.04900000 1507408.61310917 12436.12163702
0.05000000 1501245.11636513 13781.43080998
0.05100000 1494983.56010072 13993.04677440
0.05200000 1488621.81732727 17751.81599888
0.05300000 1482165.81774909 13206.09805178
0.05400000 1475613.50507721 13391.19318306
0.05500000 1468969.11294178 12339.34112433
0.05600000 1462230.81483424 13752.28145525
0.05700000 1455404.10671962 17726.82284731
0.05800000 1448487.08477093 17946.75581829
0.05900000 1441481.99971364 16865.34018436
0.06000000 1434391.61110482 19687.02578217
0.06100000 1427217.43649427 13273.12277967
0.06200000 1419959.85067591 18786.06970257
0.06300000 1412622.17117284 17629.52552051
0.06400000 1405202.36384825 16440.86842591
0.06500000 1397706.99097276 16604.75982949
0.06600000 1390133.41525946 15367.92562474
0.06700000 1382485.03083331 15511.48277187
0.06800000 1374764.75150544 27034.75010383
0.06900000 1366972.86286522 17223.85887850
0.07000000 1359109.69763334 17369.42274914
0.07100000 1351179.51741748 14592.73947160
0.07200000 1343181.47812762 19120.18923687
0.07300000 1335120.14058966 22229.75138241
0.07400000 1326995.08327057 17914.43446370
0.07500000 1318808.56790656 18041.30205460
0.07600000 1310560.69327955 21191.76740381
0.07700000 1302256.91957992 21330.96934290
0.07800000 1293895.84780893 15332.66651558
0.07900000 1285479.10857798 27766.35004763
0.08000000 1277010.94161162 15515.68366844
0.08100000 1268491.12633167 17162.68574451
0.08200000 1259920.80493550 18823.21770902
0.08300000 1251302.98932258 20496.34392704
0.08400000 1242638.49761119 15843.64158822
0.08500000 1233931.08697467 23876.56765385
0.08600000 1225179.81062516 23982.89591902
0.08700000 1216388.38554229 20873.22567606
0.08800000 1207555.64959967 25793.38988680
0.08900000 1198687.37859547 21036.96448245
0.09000000 1189782.65990817 19488.64088478
0.09100000 1180843.59770594 22813.89937950
0.09200000 1171871.67582039 19617.13277498
0.09300000 1162870.21836751 21315.41210433
0.09400000 1153837.21137138 19730.61724174
0.09500000 1144777.68404645 24727.19913765
0.09600000 1135691.88469626 18176.74946901
0.09700000 1126583.38368846 19872.93182255
0.09800000 1117452.63665086 26550.67589518
0.09900000 1108301.73317017 19949.43213513
0.10000000 1099130.13439522 23312.55124685
0.10100000 1089941.09837244 23346.53942517
0.10200000 1080736.57298667 20036.85700563
0.10300000 1071517.37770576 16715.67187853
0.10400000 1062286.37189859 16731.01114451
0.10500000 1053046.16267499 25115.15216145
0.10600001 1043793.11236338 18428.16826589
0.10700001 1034534.88619391 20111.35913400
0.10800001 1025268.65806836 18439.45768315
0.10900001 1015998.69863036 18440.37724805
0.11000001 1006725.33614952 18438.17539946
0.11100001 997450.35685521 18432.88346238
0.11200001 988176.57545906 20099.51249106
0.11300001 978902.29620227 16739.23005316
0.11400001 969632.48618381 20071.39340906
0.11500001 960367.20818412 20052.46825111
0.11600001 951107.38594642 16691.93540941
0.11700001 941856.10523112 18337.93923247
0.11800001 932611.99248767 21641.26230494
0.11900001 923378.49567032 18282.89507543
0.12000001 914156.50562102 21569.52376616
0.12100001 904949.02370234 18216.62470528
0.12200001 895754.82482438 21484.68048558
0.12300001 886577.41582146 21437.44292458
0.12400001 877416.09037778 19741.86296369
0.12500001 868273.50359682 19692.44398949
0.12600001 859152.07378377 18003.53255453
0.12700001 850051.73829062 17953.09355876
0.12800001 840972.46484406 17900.09975782
0.12900001 831917.59999175 22711.35155021
0.13000001 822887.53823365 19403.68906614
0.13100001 813882.73478912 16114.87890844
0.13200001 804906.28250204 19269.45731147
0.13300001 795959.59492146 17598.66747337
0.13400001 787040.94107580 19125.09576981
0.13500001 778154.16119681 20636.64932792
0.13600001 769298.34932677 15809.08182408
0.13700001 760476.52599455 23612.79724555
0.13800001 751687.58582982 25076.29904577
0.13900001 742936.29637076 21842.32814334
0.14000001 734219.87258158 17081.62614119
0.14100001 725541.28536099 21635.64214987
0.14200001 716900.02552022 21528.50878177
0.14300001 708300.73442820 21419.01521939
0.14400001 699737.81226698 16741.22794817
0.14500001 691219.94097083 21192.80438988
0.14600001 682741.89432184 22581.68921997
0.14700001 674310.17467101 17963.62390070
0.14800001 665919.79066357 16371.63882586
0.14900001 657574.06741040 16274.95893627
0.15000001 649274.99106050 19117.90301381
0.15100001 641022.38566820 18999.90440772
0.15200001 632818.20593570 18880.13206499
0.15300001 624662.23500782 17315.63797152
0.15400001 616552.95360097 17201.82821724
0.15500001 608495.74744128 21358.20174315
0.15600001 600486.60824343 18383.89837900
0.15700001 592532.41296721 15447.32073512
0.15800001 584625.58558095 18126.31713648
0.15900001 576774.29834028 17995.35895761
0.16000001 568973.42362251 15114.77971199
0.16100001 561229.67671476 15001.66996673
0.16200001 553538.07431160 17594.20852255
0.16300001 545902.63515273 18800.88764221
0.16400001 538322.15101453 17320.51602659
0.16500001 530798.17813330 14538.56278546
0.16600001 523330.42923893 13109.42787137
0.16700001 515919.06634190 15601.39330279
0.16800001 508564.71220020 12892.11606299
0.16900001 501270.16672724 15338.86782613
0.17000001 494033.30958822 13939.15048823
0.17100001 486855.50848403 17585.22179684
0.17200001 479736.75768372 13694.08639476
0.17300001 472677.65855825 14804.26496517
0.17400001 465679.67559654 14668.91047405
0.17500001 458741.15245253 14532.92039605
0.17600001 451861.59668218 13196.61855437
0.17700001 445045.69060820 11882.72050047
0.17800001 438289.62098666 14121.69225519
0.17900001 431595.31187361 12818.38136810
0.18000001 424963.41945833 19614.18755158
0.18100001 418394.65664365 14848.82706569
0.18200001 411885.13775899 14698.12183524
0.18300001 405440.74695334 13428.19817343
0.18400001 399057.54255097 13288.61679471
0.18500001 392738.23323701 10957.39722496
0.18600001 386481.34956978 15177.12331462
0.18700001 380287.26027657 11796.51137110
0.18800001 374155.91954984 11668.05290243
0.18900001 368089.94529284 14686.78951110
0.19000001 362083.23842546 11411.05379814
0.19100001 356144.99976542 10256.97647789
0.19200001 350266.21918984 16224.33203950
0.19300001 344453.66925575 12028.32269878
0.19400001 338703.65647292 11888.49890398
0.19500001 333017.75374289 12727.93914951
0.19600001 327393.87351078 12576.83624525
0.19700001 321834.50879552 10514.33389923
0.19800001 316338.56095695 12275.51843806
0.19900001 310906.72718252 12125.36293316
0.20000001 305536.47524379 13817.88774595
0.20100001 300231.19754190 11826.10743010
0.20200001 294987.62621906 11677.08573578
0.20300001 289808.05526052 11528.56498316
0.20400001 284691.20282486 13131.38235096
0.20500001 279636.44271174 10368.91978586
0.20600001 274645.16340041 11938.82581734
0.20700001 269715.69413472 8415.13005478
0.20800001 264848.70535029 12454.51095782
0.20900001 260045.76751946 12287.16309612
0.21000001 255302.31631885 11312.44617085
0.21100001 250620.88401379 10360.66783491
0.21200001 246001.00919399 8645.70587684
0.21300001 241442.20831696 8525.32477871
0.21400001 236945.23495663 9933.92944520
0.21500001 232509.55557945 12053.29593109
0.21600001 228133.06311158 11138.59733304
0.21700001 223817.35613605 10246.35904835
0.21800001 219561.77298356 7933.86504188
0.21900001 215364.55584868 7817.73374694
0.22000001 211226.69683643 12603.89759617
0.22100001 207150.16289309 8277.72090061
0.22200001 203131.01840991 10192.09933064
0.22300001 199170.25841953 6692.12099934
0.22400001 195266.12774988 9885.34818478
0.22500001 191422.69647388 7138.15268905
0.22600001 187634.72436034 10222.34026655
0.22700001 183904.94482403 7547.45929249
0.22800001 180231.04078023 9286.40481536
0.22900001 176613.04983041 6093.15050730
0.23000001 173051.12549540 6595.84396019
0.23100001 169546.30931249 7080.25421173
0.23200001 166094.74029051 6966.01373723
0.23300001 162699.07318055 7423.95906034
0.23400001 159357.86537826 6179.10152228
0.23500001 156069.02116330 6077.32797153
0.23600001 152834.90766599 6519.93746940
0.23700001 149653.64487970 5342.63537490
0.23800001 146525.08748038 5778.21709809
0.23900001 143448.87675363 6713.40774961
0.24000001 140424.17983967 6599.23464371
0.24100001 137452.15191931 4989.51335068
0.24200001 134530.35642089 5884.35806819
0.24300001 131659.26768224 4818.72942511
0.24400001 128837.56711183 5208.25889686
0.24500001 126066.01531474 5582.20342220
0.24600001 123343.83815958 5483.86730399
0.24700001 120670.77274467 5386.74355015
0.24800001 118045.20091749 5731.68500170
0.24900001 115467.19773760 5196.02414400
0.25000001 112937.21624216 4252.08639268
0.25100001 110453.48437428 4175.14190687
0.25200001 108017.38491477 4509.18594660
0.25300001 105627.06599508 4426.83054529
0.25400001 103281.55605489 5530.72758840
0.25500001 100981.25392357 4265.44836754
0.25600001 98725.81872231  3805.88049181
0.25700001 96514.15764439  5229.13730858
0.25800001 94346.19051183  4031.88464229
0.25900001 92221.47562815  4675.62903557
0.26000001 90140.01901468  3881.88010254
0.26100001 88098.75459793  5193.42182928
0.26200001 86101.47921821  3736.37386747
0.26300001 84144.16532187  5331.37456706
0.26400001 82227.41339529  5229.66373940
0.26500001 80351.80720986  4167.84843719
0.26600001 78514.99581276  3458.97830421
0.26700001 76718.62878546  4009.31573005
0.26800001 74960.91804076  4537.00977911
0.26900001 73240.96011430  3262.88492750
0.27000001 71559.48030259  3490.67161435
0.27100001 69915.25940688  2852.54271879
0.27200001 68308.28544081  3356.66930541
0.27300001 66737.37793217  3291.48763538
0.27400001 65201.43489305  3227.47117995
0.27500001 63703.04646204  3955.95937251
0.27600001 62237.78386033  2585.98004178
0.27700001 60808.82482017  3042.87373801
0.27800001 59412.89073072  2735.07255423
0.27900001 58051.22891892  3169.59724898
0.28000001 56722.39767002  2869.01900994
0.28100001 55426.15743949  2813.43188479
0.28200001 54162.60017142  4138.56447497
0.28300001 52930.76388928  2705.82077809
0.28400001 51730.54042840  2432.62877878
0.28500001 50561.32862992  2169.08110089
0.28600001 49422.02394200  2765.90370083
0.28700001 48313.04734545  2295.83611852
0.28800001 47232.97783956  2457.05962351
0.28900001 46183.58610375  2008.98609061
0.29000001 45161.54664930  1971.30160455
0.29100001 44168.98022788  2514.98185322
0.29200001 43203.52974966  2278.55426685
0.29300001 42265.29572994  2236.67955590
0.29400001 41354.10592417  2927.87083803
0.29500001 40470.49972422  2515.64638194
0.29600001 39611.92498496  1941.18247578
0.29700001 38778.75958086  2253.43382592
0.29800001 37971.65036515  2554.54289924
0.29900001 37189.12582373  1840.86181542
0.30000001 36430.98751902  1644.85916435
0.30100001 35697.70449031  1940.52730796
0.30200001 34986.92499947  1908.18697981
0.30300001 34299.83826210  2189.70177832
0.30400001 33636.33093048  1538.86221292
0.30500001 32994.05220506  1817.31248149
0.30600001 32374.03139534  2087.15390287
0.30700001 31776.23784992  1614.86848399
0.30800001 31199.51932098  1735.31734679
0.30900001 30643.54353298  1709.90981009
0.31000001 30108.96471797  1825.95825177
0.31100001 29592.82195944  1800.42737325
0.31200001 29097.68656978  1502.75009405
0.31300001 28621.18965766  1482.86390637
0.31400001 28165.27418280  1730.05204859
0.31500001 27727.01408973  2234.24290114
0.31600002 27307.20390718  1428.30336799
0.31700002 26904.80265170  1668.36689143
0.31800002 26520.52737068  2157.31240111
0.31900002 26153.73144660  1380.91708577
0.32000002 25803.58153974  1490.93101196
0.32100002 25470.39543542  1722.30822089
0.32200002 25153.50303320  1462.42473560
0.32300002 24851.81158365  1690.91734022
0.32400002 24566.23243984  1916.16622104
0.32500002 24295.40082747  1663.26321941
0.32600002 24040.01539692  1650.82793548
0.32700002 23798.98751339  1288.00126522
0.32800002 23572.93969640  1628.65448075
0.32900002 23359.68692163  1503.19592459
0.33000002 23161.81341903  1494.97931792
0.33100002 22975.00667028  1258.57092500
0.33200002 22803.52796673  1252.93990346
0.33300002 22643.68460276  1588.22811325
0.33400002 22497.01633192  1243.52263663
0.33500002 22361.93960801  1239.74599058
0.33600002 22238.97257725  1236.59812872
0.33700002 22126.75877389  1121.82672296
0.33800002 22027.33540824  1232.09906441
0.33900002 21937.70543384  1454.46993914
0.34000002 21859.58563304  1565.36500131
0.34100002 21791.66845462  1453.28643806
0.34200002 21735.03316064  1341.92101089
0.34300002 21686.94700779  1566.66512604
0.34400002 21649.52310146  1120.36287356
0.34500002 21621.07801579  1234.34740238
0.34600002 21603.10753594  1574.21852070
0.34700002 21591.93795733  1577.93890065
0.34800002 21591.11381512  1469.38332028
0.34900002 21598.35414922  1474.08774050
0.35000002 21613.90094848  1365.56632660
0.35100002 21637.46889209  1827.93345858
0.35200002 21668.13529310  1950.45729079
0.35300002 21706.73602420  1383.15328497
0.35400002 21753.11668231  1390.02422184
0.35500002 21806.24583073  1513.78965727
0.35600002 21865.72211785  1990.54610728
0.35700002 21932.05437743  1766.62706378
0.35800002 22005.37073891  1421.98712450
0.35900002 22084.51873055  1192.56406794
0.36000002 22170.37589697  1440.63109402
0.36100002 22260.97614888  1934.03369942
0.36200002 22358.60449000  1704.39650100
0.36300002 22459.68946355  1226.29910280
0.36400002 22566.92819017  1482.64725232
0.36500002 22678.66029344  1369.56435999
0.36600002 22795.88558028  1756.87898489
0.36700002 22917.16996396  1391.53062613
0.36800002 23044.32931163  1785.70516295
0.36900002 23174.77007300  1800.67971997
0.37000002 23308.43676213  1815.96039416
0.37100002 23446.52814732  1439.14796585
0.37200002 23588.73975625  1583.74806226
0.37300002 23733.89696701  1464.61885121
0.37400002 23883.48089968  2149.51338280
0.37500002 24035.16076526  1626.69975765
0.37600002 24190.94247919  2051.99679300
0.37700002 24348.45098666  1380.55723634
0.37800002 24509.70152300  1672.05191711
0.37900002 24673.28560787  1828.29055015
0.38000002 24839.35621795  1561.52620262
0.38100002 25007.21056220  2292.66117295
0.38200002 25177.54339642  1591.09493031
0.38300002 25349.62346246  1460.13838061
0.38400002 25524.22718645  2063.63386579
0.38500002 25699.41674049  1785.59555972
0.38600002 25877.48873300  1802.62595054
0.38700002 26055.82023519  1516.44880953
0.38800002 26235.47495992  1837.00804372
0.38900002 26416.64218010  1854.44836890
0.39000002 26599.35651950  2184.07326729
0.39100002 26782.12892001  2047.22603164
0.39200002 26966.31447161  1748.63074476
0.39300002 27150.83477900  1765.07585261
0.39400002 27336.61553510  1943.63345663
0.39500002 27522.06975176  2288.73542899
0.39600002 27707.80209079  2144.99960048
0.39700002 27893.52403755  1998.29215673
0.39800002 28080.35003483  2857.03534966
0.39900002 28266.25501428  1695.97538121
0.40000002 28452.24712218  2224.82356913
0.40100002 28637.71559994  2244.91063224
0.40200002 28824.06751838  2265.13945325
0.40300002 29008.88288302  2285.31990180
0.40400002 29193.28188148  2128.19034999
0.40500002 29377.23527269  1789.07371287
0.40600002 29560.63522601  2346.07992587
0.40700002 29743.13864356  2184.33620548
0.40800002 29925.04673784  2203.08204522
0.40900002 30105.19900963  2036.61680950
0.41000002 30285.14727961  2053.78736008
0.41100002 30463.71017170  2823.98606672
0.41200002 30640.52747605  2467.63499721
0.41300002 30816.47344807  3061.92494688
0.41400002 30990.92778150  2315.02241497
0.41500002 31164.37013299  2139.12246729
0.41600002 31335.16994676  2940.02245956
0.41700002 31505.23764128  2370.45419245
0.41800002 31674.47999314  2986.11174285
0.41900002 31840.02344922  3410.06667299
0.42000002 32004.59587899  3031.63548829
0.42100002 32167.84811181  2647.09234655
0.42200002 32329.09242149  2051.28101134
0.42300002 32487.85202012  2686.09573231
0.42400002 32644.55941830  2913.52706614
0.42500002 32799.72605394  3143.85389124
0.42600002 32951.32411416  2321.58565047
0.42700002 33102.10156778  2550.18602563
0.42800002 33250.04784187  2139.64068001
0.42900002 33396.29319388  2584.87321570
0.43000002 33540.19669706  2602.04858306
0.43100002 33680.30696020  2400.73239389
0.43200002 33819.01338469  2416.19952577
0.43300002 33954.70977605  2431.49688229
0.43400002 34088.31405519  2891.54137676
0.43500002 34218.92464547  2461.70955565
0.43600002 34347.97915891  2476.66115462
0.43700002 34473.28321385  3397.34222172
0.43800002 34595.26612405  2505.90822045
0.43900002 34715.64627435  2291.23276269
0.44000002 34832.52623347  2995.42323540
0.44100002 34947.24158929  3243.80311804
0.44200002 35058.92370395  2562.63214958
0.44300002 35168.08490677  2810.63347895
0.44400002 35273.65838485  2825.42017052
0.44500002 35375.65104169  2366.63116685
0.44600002 35475.51795903  2616.49695107
0.44700002 35572.66929085  2868.58018756
0.44800002 35665.79207101  3362.92769375
0.44900002 35757.20413416  2896.33367213
0.45000002 35845.25994591  4122.38431545
0.45100002 35929.06120771  3166.78760493
0.45200002 36010.83013669  3425.71043326
0.45300002 36088.89651885  4423.77714494
0.45400002 36164.41946131  2961.86609425
0.45500002 36236.72230537  3222.16950010
0.45600002 36305.48730744  2986.48952745
0.45700002 36371.29423500  3248.32044208
0.45800002 36433.25553192  2759.27273848
0.45900002 36492.41928373  3021.57245990
0.46000002 36549.15218283  4043.79838916
0.46100002 36601.36722850  3551.06481681
0.46200002 36651.33313760  2545.43520705
0.46300002 36697.52334424  2809.56252039
0.46400002 36740.16836285  2818.88955124
0.46500002 36780.49347443  2828.05227729
0.46600002 36816.76186588  3352.71857822
0.46700002 36849.84883180  2586.85951060
0.46800002 36880.39930346  2853.98983537
0.46900002 36906.92137215  3902.90712009
0.47000002 36929.90825845  3913.64721318
0.47100002 36950.19673444  2616.07405279
0.47200002 36966.97670513  3409.64925800
0.47300002 36981.13890624  2892.29501094
0.47400002 36990.72622992  3689.82511632
0.47500002 36998.17114857  2905.83649974
0.47600002 37002.56276953  3971.30023747
