# SAXS profile: number of points = 501, q_min = 0, q_max = 0.5, delta_q = 0.001
#    q    intensity    error
0.00000000 1700912.83420644 255.13692513
0.00100000 1700842.92446346 612.30346735
0.00200000 1700633.14549658 994.87042162
0.00300000 1700283.65062963 1224.20427206
0.00400000 1699794.33134522 1657.29953604
0.00500000 1699165.64211353 2293.87370765
0.00600000 1698397.30987146 2674.97587195
0.00700000 1697490.00103306 2240.68689449
0.00800000 1696443.14711721 2519.21817983
0.00900000 1695258.13773529 3814.33097296
0.01000000 1693934.11452947 2794.99140966
0.01100000 1692472.30393440 3046.45027972
0.01200000 1690872.23900766 3956.64121275
0.01300000 1689135.28729596 4611.33953770
0.01400000 1687260.64484163 4935.23760495
0.01500000 1685250.16617285 4853.52069470
0.01600000 1683102.72565224 6867.05942764
0.01700000 1680820.40931728 5445.85837048
0.01800000 1678402.72664776 6218.48238205
0.01900000 1675850.51401123 8044.08283022
0.02000000 1673164.36081747 7378.65516498
0.02100000 1670345.99147009 9921.85563917
0.02200000 1667393.54555806 6327.75879288
0.02300000 1664309.79524445 10185.57641053
0.02400000 1661094.88854849 8097.83795092
0.02500000 1657750.08244683 7111.74817849
0.02600000 1654275.39268887 7369.79721151
0.02700000 1650672.19743721 7626.10590144
0.02800000 1646940.17435407 9313.44711308
0.02900000 1643081.76903609 9612.02879019
0.03000000 1639097.67330089 11432.70679678
0.03100000 1634987.77858010 12556.70671727
0.03200000 1630753.31041945 14530.01266506
0.03300000 1626397.11656082 11612.47594758
0.03400000 1621917.06298426 12772.59746033
0.03500000 1617316.63676109 8733.51024181
0.03600000 1612595.46234539 9844.89575259
0.03700000 1607755.58275570 9164.20724553
0.03800000 1602798.10264090 13126.91706814
0.03900000 1597724.36689746 14379.51996799
0.04000000 1592533.40843119 10773.48900727
0.04100000 1587229.12185748 11999.45271762
0.04200000 1581811.75169118 12243.22352609
0.04300000 1576281.61265593 17685.88051494
0.04400000 1570642.12766720 12722.20182495
0.04500000 1564893.01862461 11877.53856325
0.04600000 1559034.77084733 14288.55433905
0.04700000 1553070.62640243 14536.74173920
0.04800000 1547000.66887156 12507.50098978
0.04900000 1540827.54361318 12711.82782651
0.05000000 1534551.16133118 15261.11201009
0.05100000 1528174.52516845 15495.69040706
0.05200000 1521696.02868656 15726.72918936
0.05300000 1515121.03771180 13499.72907534
0.05400000 1508448.08845856 16178.10650317
0.05500000 1501681.13156315 17659.77093100
0.05600000 1494818.41748165 16614.90748563
0.05700000 1487865.38802939 12944.42948008
0.05800000 1480820.36340123 17036.83907642
0.05900000 1473685.24730557 18568.43498330
0.06000000 1466463.32849550 14759.95409087
0.06100000 1459155.90665941 14927.16562269
0.06200000 1451763.29883950 21950.66210450
0.06300000 1444288.77373240 16638.20745132
0.06400000 1436730.63170421 15408.93674565
0.06500000 1429095.06315890 15562.84596580
0.06600000 1421379.75665152 14284.86722272
0.06700000 1413588.03265912 14418.59860790
0.06800000 1405722.91577779 17459.07943120
0.06900000 1397784.58412308 23482.78211271
0.07000000 1389773.35858848 29602.17392416
0.07100000 1381693.59328003 16414.52065699
0.07200000 1373544.46301766 19552.40634702
0.07300000 1365330.80040215 19701.72437294
0.07400000 1357051.76530105 19846.88299764
0.07500000 1348709.97777275 19987.88280747
0.07600000 1340305.34569944 17028.58021542
0.07700000 1331843.56609160 18699.08454470
0.07800000 1323322.89790420 15681.37707556
0.07900000 1314745.43959760 20510.02981972
0.08000000 1306115.27783078 19043.16164411
0.08100000 1297432.30079951 20745.94346315
0.08200000 1288697.27437365 16044.28181883
0.08300000 1279913.94928618 19352.29982145
0.08400000 1271082.48474507 17826.93268532
0.08500000 1262207.01014242 19538.96543426
0.08600000 1253286.58146146 24533.08598397
0.08700000 1244324.61782889 18067.59429929
0.08800000 1235320.61090983 23088.14330221
0.08900000 1226279.98254685 18210.25859615
0.09000000 1217201.56288289 18276.28232522
0.09100000 1208088.12433271 23340.26365866
0.09200000 1198940.80698597 18397.74754765
0.09300000 1189762.93626532 21808.35564656
0.09400000 1180552.88675738 20187.45531231
0.09500000 1171314.97687553 20240.32375176
0.09600000 1162050.08284553 23670.96130028
0.09700000 1152761.71153197 23723.83713865
0.09800000 1143450.48281832 22074.31260869
0.09900000 1134117.95240137 25517.65512893
0.10000000 1124764.05251704 18744.19381668
0.10100000 1115392.11604237 17065.50017807
0.10200000 1106003.84503368 17087.76020952
0.10300000 1096600.51947363 18817.66579936
0.10400000 1087184.56197026 25684.73648489
0.10500000 1077758.69954908 17136.36412909
0.10600001 1068319.61410982 18861.18367459
0.10700001 1058874.24253714 18869.13988995
0.10800001 1049420.90810690 22305.44245154
0.10900001 1039963.26359728 20591.27358837
0.11000001 1030501.71531535 27452.56698818
0.11100001 1021038.26470189 22299.47675080
0.11200001 1011574.89811128 18860.81486320
0.11300001 1002111.17677967 20563.32231566
0.11400001 992651.44294198 20547.88583638
0.11500001 983195.99590304 22239.89447456
0.11600001 973745.72247913 18798.16205769
0.11700001 964303.58872851 18774.99175675
0.11800001 954868.30142792 23862.15997655
0.11900001 945443.58005510 20421.58229108
0.12000001 936029.95515434 16988.94448631
0.12100001 926631.12933733 16957.35046570
0.12200001 917244.83897100 22000.11849917
0.12300001 907875.39522079 20263.77977604
0.12400001 898521.89354104 20216.74355724
0.12500001 889187.10434145 20166.76447673
0.12600001 879873.54699636 18437.75104616
0.12700001 870580.77282110 21729.69711366
0.12800001 861309.21153307 21666.23423723
0.12900001 852062.09495525 18276.73279821
0.13000001 842840.00914450 18217.98765636
0.13100001 833642.94505265 24759.19663515
0.13200001 824474.73313790 21382.75321192
0.13300001 815335.93367780 18027.07834347
0.13400001 806225.56097739 16326.06837949
0.13500001 797147.10318194 17887.98183879
0.13600001 788100.02541014 19434.54754297
0.13700001 779087.06196786 16127.10294318
0.13800001 770107.20411252 17662.40955920
0.13900001 761165.37499375 22378.26308013
0.14000001 752258.50325230 17501.29490354
0.14100001 743390.12283088 19001.05243570
0.14200001 734559.19996943 15756.29558249
0.14300001 725770.98004956 18811.98469020
0.14400001 717018.97951955 24952.26166428
0.14500001 708312.61199691 23268.07040170
0.14600001 699646.72770622 20055.37439580
0.14700001 691027.21802121 18408.96595656
0.14800001 682449.96494785 15252.75743619
0.14900001 673917.75367849 19712.09522513
0.15000001 665432.66319725 21100.87074559
0.15100001 656994.34694560 25465.10208918
0.15200001 648605.57531072 19351.14825252
0.15300001 640265.21189090 22185.19063892
0.15400001 631972.21914122 14693.35478843
0.15500001 623731.76642296 23352.51843695
0.15600001 615540.78296112 14495.98612287
0.15700001 607404.51968138 23032.78047339
0.15800001 599316.47367015 18581.80814318
0.15900001 591284.71600941 15609.91723945
0.16000001 583304.57664884 14086.80619100
0.16100001 575382.11947286 19574.50062847
0.16200001 567512.34303556 16650.81293068
0.16300001 559699.63659287 15145.47288119
0.16400001 551942.68699442 17758.75679243
0.16500001 544243.16672620 18972.31768778
0.16600001 536600.38023670 13441.84015956
0.16700001 529015.46410793 14664.30935744
0.16800001 521487.84898440 15863.66111513
0.16900001 514021.29260556 17039.80665446
0.17000001 506613.26275450 15593.55696391
0.17100001 499265.06751174 14169.14328507
0.17200001 491976.88469989 15320.16091302
0.17300001 484749.57278506 13917.16089189
0.17400001 477584.18214572 16297.56098539
0.17500001 470479.20934761 19873.04274140
0.17600001 463434.34269979 14765.01885575
0.17700001 456453.83663146 20718.44062325
0.17800001 449534.80584312 16898.01414977
0.17900001 442678.06908208 17928.46264465
0.18000001 435884.96340618 13017.70504702
0.18100001 429156.04063298 19917.13278659
0.18200001 422487.42526967 15076.46448293
0.18300001 415885.19310743 11478.43187200
0.18400001 409345.11175737 17038.99108183
0.18500001 402870.14261070 13488.09301181
0.18600001 396458.69942723 13344.80045317
0.18700001 390111.36638496 17601.82568288
0.18800001 383827.53429988 14145.96444496
0.18900001 377610.50487455 13990.46986662
0.19000001 371454.06885415 13834.80744815
0.19100001 365366.93713016 10522.56828654
0.19200001 359341.20601355 11443.22124621
0.19300001 353382.29098887 13368.45269980
0.19400001 347487.26350747 12196.80352546
0.19500001 341657.34888711 12053.67183833
0.19600001 335891.18349989 9925.58494147
0.19700001 330190.40099488 9806.65537299
0.19800001 324554.45757199 10656.74611800
0.19900001 318983.95372067 13397.32668943
0.20000001 313476.08758770 14176.95673117
0.20100001 308034.63816898 9333.44997764
0.20200001 302656.23461432 10137.47105754
0.20300001 297343.07142005 12738.17778170
0.20400001 292094.06339340 10778.27144866
0.20500001 286908.48142167 11525.11424346
0.20600001 281787.22692400 10499.39257147
0.20700001 276729.73978181 12087.55560504
0.20800001 271735.46259273 13630.25144796
0.20900001 266806.96759020 13447.07180221
0.21000001 261939.33610220 8290.38037954
0.21100001 257134.97051227 12265.33867326
0.21200001 252393.44550868 9676.76515827
0.21300001 247714.25008525 12722.60448585
0.21400001 243098.62373594 8623.92408474
0.21500001 238545.36478706 8501.75720295
0.21600001 234052.43779839 9903.92937368
0.21700001 229622.03109136 11262.96115754
0.21800001 225252.81757365 11099.33311072
0.21900001 220943.50803679 8020.24972095
0.22000001 216694.90296614 7183.43637298
0.22100001 212509.21538157 7784.21292749
0.22200001 208382.00865257 6970.37851902
0.22300001 204314.73365673 7551.47291303
0.22400001 200305.25557825 8112.36323452
0.22500001 196357.82250533 6656.53049770
0.22600001 192467.64091519 8519.58052799
0.22700001 188636.61208107 7096.50968208
0.22800001 184862.91830050 9525.06231587
0.22900001 181146.49507499 6249.55437563
0.23000001 177487.68313074 9839.91761812
0.23100001 173887.16486568 7261.52834821
0.23200001 170341.33312122 5953.42987415
0.23300001 166852.77922702 5856.53282785
0.23400001 163420.00027800 5760.55528225
0.23500001 160041.07151651 7365.09045953
0.23600001 156718.06895835 8356.99142246
0.23700001 153449.29127247 6573.76794904
0.23800001 150234.78382612 6463.10070590
0.23900001 147073.73614945 7941.98212772
0.24000001 143965.78994804 5724.79990807
0.24100001 140911.48386639 7161.12194882
0.24200001 137909.05376782 7540.17787142
0.24300001 134958.51653304 7409.22290814
0.24400001 132058.75483704 6309.10731078
0.24500001 129210.46508940 7151.79958101
0.24600001 126412.66125721 5151.94825325
0.24700001 123665.72282318 5980.47463864
0.24800001 120967.35175071 5873.57004212
0.24900001 118317.82366793 6211.68603643
0.25000001 115717.64785711 7406.50840148
0.25100001 113165.08916025 5133.16868715
0.25200001 110661.29552750 4619.55600035
0.25300001 108204.62508150 4122.59641065
0.25400001 105794.07748961 5260.61075206
0.25500001 103429.91423542 6751.90512073
0.25600001 101112.05448828 4287.65687344
0.25700001 98839.25285646  5355.11097313
0.25800001 96611.11474174  5630.01297795
0.25900001 94427.70784342  4787.48501418
0.26000001 92288.50270641  3974.40455710
0.26100001 90190.78965467  4607.84766148
0.26200001 88138.55484917  3824.77276866
0.26300001 86127.36662889  3751.70826788
0.26400001 84157.75987911  4014.32533618
0.26500001 82230.52645224  3609.09797677
0.26600001 80343.48046632  4183.08350842
0.26700001 78497.88294134  3471.17654792
0.26800001 76692.11117373  4641.79024844
0.26900001 74925.27592374  5158.60549146
0.27000001 73198.02399573  3273.04979786
0.27100001 71509.30516364  4376.36968312
0.27200001 69858.88305246  4005.00995493
0.27300001 68245.49962480  3085.37918405
0.27400001 66668.21823334  3575.08337195
0.27500001 65129.76086383  3505.28389558
0.27600001 63625.53796209  2908.00535018
0.27700001 62158.29153916  3369.60114381
0.27800001 60725.58156818  3557.91199247
0.27900001 59327.75973647  3239.29583492
0.28000001 57964.18456767  3176.14764371
0.28100001 56634.03003882  2874.74350083
0.28200001 55337.66363171  3053.80911205
0.28300001 54074.08498181  2994.62296803
0.28400001 52842.92185664  2484.93851792
0.28500001 51644.00927661  2437.08091311
0.28600001 50475.71143610  2172.97948018
0.28700001 49338.83463102  2770.86908403
0.28800001 48231.87165615  2718.10725584
0.28900001 47156.67812568  3076.97339335
0.29000001 46109.38866769  3622.81483910
0.29100001 45092.55410321  2172.55935953
0.29200001 44103.99566372  1938.37070117
0.29300001 43143.51378033  2473.41776211
0.29400001 42210.82786415  1867.82922141
0.29500001 41306.47504517  2200.80909459
0.29600001 40428.23754568  1981.18587471
0.29700001 39576.16023062  1945.95989066
0.29800001 38751.02271502  2259.37848636
0.29900001 37951.21577574  2390.92670706
0.30000001 37176.61214658  3189.19582397
0.30100001 36427.84275540  2640.29016790
0.30200001 35702.25389093  1947.20101939
0.30300001 35001.06779241  1915.25852027
0.30400001 34324.30442038  1884.40440189
0.30500001 33669.39878564  1545.42547742
0.30600001 33037.50511586  1977.79033740
0.30700001 32428.67448953  1498.20483235
0.30800001 31841.60940054  2066.20213182
0.30900001 31275.97606749  2036.06613839
0.31000001 30732.32036385  1720.39537542
0.31100001 30207.91702396  1979.22281712
0.31200001 29705.00167566  1813.04486311
0.31300001 29221.65675545  1376.34009835
0.31400001 28759.42433115  1766.54772318
0.31500001 28315.23987613  2013.21365051
0.31600002 27890.39647583  1724.04493978
0.31700002 27483.54310597  1704.25458869
0.31800002 27095.33155401  1685.46517912
0.31900002 26725.15503287  1539.36900278
0.32000002 26372.30579436  1396.80924254
0.32100002 26036.92021632  1886.37495899
0.32200002 25718.26105487  1993.67969138
0.32300002 25415.41420384  1605.74594543
0.32400002 25129.17534677  1592.56156301
0.32500002 24858.15114492  1215.56364855
0.32600002 24603.07584018  1206.78092710
0.32700002 24362.88788438  1438.38496881
0.32800002 24138.20770492  1310.34266731
0.32900002 23926.67389677  1539.68153817
0.33000002 23731.08824343  1531.72316321
0.33100002 23546.75469643  1172.62843941
0.33200002 23378.38030052  1518.07519670
0.33300002 23221.95574321  1396.10404539
0.33400002 23079.13887653  1507.64481850
0.33500002 22948.29997525  1734.89156029
0.33600002 22829.80450897  1500.26067435
0.33700002 22722.63397352  1152.03759701
0.33800002 22628.47773426  1150.65814728
0.33900002 22544.60539754  1379.72991567
0.34000002 22472.36404753  1264.40762301
0.34100002 22410.77359496  1379.60728784
0.34200002 22360.77729162  1265.50825075
0.34300002 22319.55275306  1497.19566958
0.34400002 22289.36442611  1730.21199552
0.34500002 22268.29043137  1271.29676094
0.34600002 22258.01298998  1390.23555720
0.34700002 22254.82948947  1742.55323155
0.34800002 22262.21280201  1165.42689538
0.34900002 22277.86470582  1754.38192867
0.35000002 22302.11399615  1643.88890051
0.35100002 22334.56570912  1297.19163782
0.35200002 22374.14630268  1540.12443369
0.35300002 22422.05471213  1428.73339393
0.35400002 22477.81896394  1316.63830817
0.35500002 22540.43999900  1564.75741884
0.35600002 22609.68206525  1452.89823833
0.35700002 22685.87907822  1218.23176420
0.35800002 22769.28462808  1226.12603530
0.35900002 22858.55881863  1234.36223467
0.36000002 22954.55555470  1615.88601481
0.36100002 23055.63293010  1377.11302014
0.36200002 23163.70255850  1261.26366405
0.36300002 23275.43208989  1652.09024799
0.36400002 23393.30959543  1280.78376102
0.36500002 23515.74980711  1549.21767068
0.36600002 23643.69838787  1431.74422370
0.36700002 23775.90051552  1837.40167887
0.36800002 23913.94896823  1456.00085190
0.36900002 24055.21496452  1335.06449377
0.37000002 24199.79060664  1481.39025216
0.37100002 24348.75914672  1766.25907217
0.37200002 24502.02469345  1782.15485050
0.37300002 24658.11448952  1659.98434607
0.37400002 24818.70588445  1396.05227213
0.37500002 24981.27539123  1408.94399881
0.37600002 25148.05871216  1706.54734505
0.37700002 25316.47326870  1866.07733304
0.37800002 25488.45095547  1738.82220655
0.37900002 25662.90274859  2047.89973635
0.38000002 25839.73339418  1476.74083343
0.38100002 26018.30552269  2087.18856791
0.38200002 26199.32314416  2257.72677890
0.38300002 26381.96322195  1671.56126893
0.38400002 26567.05164506  1841.09676622
0.38500002 26752.83429206  1858.78701467
0.38600002 26941.05774919  1563.92847643
0.38700002 27129.58263155  1894.73014075
0.38800002 27319.37661723  2391.12855170
0.38900002 27510.51297314  1770.30159369
0.39000002 27703.12111427  2274.70338246
0.39100002 27895.62067119  2132.34134513
0.39200002 28089.57225866  2814.99661727
0.39300002 28283.46865053  2005.86369173
0.39400002 28478.72596307  2193.57397123
0.39500002 28673.27185708  2043.83091480
0.39600002 28868.07888398  2234.82243268
0.39700002 29062.63712172  2602.55927755
0.39800002 29258.38744644  2276.44894313
0.39900002 29452.90624582  2297.32679602
0.40000002 29647.04492938  1961.59682069
0.40100002 29840.92030337  1799.40757955
0.40200002 30035.26011440  1997.19471593
0.40300002 30227.91206193  2014.99271352
0.40400002 30420.07530916  2217.62359511
0.40500002 30611.52872097  2423.51484367
0.40600002 30802.24799393  2256.57279495
0.40700002 30991.84354731  1896.70091496
0.40800002 31180.48071169  2104.21484053
0.40900002 31367.43587069  2507.82661669
0.41000002 31553.85852357  2139.82501717
0.41100002 31738.67415072  2353.74018654
0.41200002 31921.39327167  2373.03648826
0.41300002 32103.21038951  2591.69229755
0.41400002 32283.18724731  2210.59135150
0.41500002 32462.01174382  2633.31851743
0.41600002 32638.00252841  2858.11001684
0.41700002 32812.94281393  2263.10877311
0.41800002 32986.84207201  2280.54543471
0.41900002 33156.81243101  2506.65513856
0.42000002 33325.59068551  2314.96226666
0.42100002 33492.74257782  3180.13605845
0.42200002 33657.66684076  2349.13696847
0.42300002 33819.86914040  2796.22691303
0.42400002 33979.78515700  3899.18053153
0.42500002 34137.88426636  2399.55199879
0.42600002 34292.10594824  2635.69138808
0.42700002 34445.32180901  2874.80669441
0.42800002 34595.49865257  2894.08657692
0.42900002 34743.63516456  2689.15748917
0.43000002 34889.23869333  2481.14832725
0.43100002 35030.80476721  3631.99401038
0.43200002 35170.51719912  3426.48780050
0.43300002 35307.14453381  3447.74282711
0.43400002 35441.45672576  3468.83274142
0.43500002 35572.31196016  3257.00103742
0.43600002 35701.44314221  2808.27565065
0.43700002 35826.70653312  3059.95915000
0.43800002 35948.15592159  3314.06065146
0.43900002 36067.88684529  2856.57677352
0.44000002 36183.81412138  2393.55941756
0.44100002 36297.30396631  2887.81364041
0.44200002 36407.51653206  2903.13550585
0.44300002 36514.87556413  3404.64715895
0.44400002 36618.38980041  4155.27197952
0.44500002 36718.13034339  3439.02025094
0.44600002 36815.47838391  3702.71691394
0.44700002 36909.93531960  3472.48687943
0.44800002 36999.78315330  3488.70971886
0.44900002 37087.94848595  2503.43664144
0.45000002 37172.51255641  3772.08089043
0.45100002 37252.48710591  3283.43436912
0.45200002 37330.11363147  3043.89760977
0.45300002 37403.75779537  3566.07443722
0.45400002 37474.71654039  3069.17943012
0.45500002 37542.13560878  2824.67041707
0.45600002 37605.88956973  3093.46062262
0.45700002 37666.24298635  3363.97232054
0.45800002 37722.58369912  3116.64001293
0.45900002 37775.91614617  4170.46134019
0.46000002 37826.44227210  2877.26846779
0.46100002 37872.24951840  2624.54701601
0.46200002 37915.62817762  3686.53670243
0.46300002 37955.05789487  3170.00658562
0.46400002 37990.59237278  2914.82833795
0.46500002 38023.69152131  3189.42739597
0.46600002 38052.30202204  2932.12027128
0.46700002 38077.62043574  2673.04908128
0.46800002 38100.15232766  3752.48418060
0.46900002 38118.46132524  3224.82198096
0.47000002 38132.89015495  3232.90658057
0.47100002 38144.48668946  2970.69276418
0.47200002 38152.33434776  3789.67155038
0.47300002 38157.53770928  3255.60127166
0.47400002 38157.61849140  3262.47653565
0.47500002 38155.56473941  3541.59968698
0.47600002 38150.24809958  3275.58045709
0.47700002 38140.29292889  2734.65913262
