# SAXS profile: number of points = 501, q_min = 0, q_max = 0.5, delta_q = 0.001
#    q    intensity    error
0.00000000 1646666.22097351 321.09991309
0.00100000 1646598.20374502 642.17331471
0.00200000 1646394.09849268 740.87736778
0.00300000 1646054.08006289 1086.39573154
0.00400000 1645578.00592100 1234.18355134
0.00500000 1644966.32813762 2220.70463088
0.00600000 1644218.81792292 1899.07281202
0.00700000 1643336.06840410 2958.00504606
0.00800000 1642317.56510205 2660.55456779
0.00900000 1641164.62276315 2954.09644725
0.01000000 1639876.48131068 2705.79631100
0.01100000 1638454.29596395 3244.13964726
0.01200000 1636897.57676748 5426.31570489
0.01300000 1635207.72522732 4120.72364932
0.01400000 1633383.93552404 5512.67102678
0.01500000 1631427.93824620 4306.96994875
0.01600000 1629338.74369240 4985.77677858
0.01700000 1627118.34172055 5271.86366366
0.01800000 1624766.32088410 6019.75948975
0.01900000 1622283.40319249 5353.53547210
0.02000000 1619670.19769755 6122.35362425
0.02100000 1616928.41814848 5869.45042399
0.02200000 1614056.13552250 9466.43966492
0.02300000 1611056.25131009 6379.78304559
0.02400000 1607928.84711129 6632.70679677
0.02500000 1604675.00718933 6258.23281386
0.02600000 1601294.91882373 7133.76918965
0.02700000 1597789.80710399 11408.21974523
0.02800000 1594159.40664718 11788.80935279
0.02900000 1590406.24952814 7872.51129662
0.03000000 1586530.83346835 8115.10558620
0.03100000 1582533.12547105 9115.39122214
0.03200000 1578414.14133754 14844.98568301
0.03300000 1574177.02679198 11239.62448945
0.03400000 1569819.32914261 9065.70704409
0.03500000 1565344.77084171 10143.43458346
0.03600000 1560752.81954948 12993.26782322
0.03700000 1556045.33326723 10643.35057178
0.03800000 1551223.81609224 9074.65974411
0.03900000 1546289.12707630 13916.60278816
0.04000000 1541240.53713818 12322.21866542
0.04100000 1536081.88709918 13548.24287240
0.04200000 1530813.28722732 11848.49539283
0.04300000 1525435.16700739 12081.44708349
0.04400000 1519950.92621018 11285.63615124
0.04500000 1514360.15514850 11493.99411164
0.04600000 1508663.28027011 15954.11493051
0.04700000 1502863.58183802 12984.74195097
0.04800000 1496961.06682730 12102.93078843
0.04900000 1490958.57089521 13418.62776266
0.05000000 1484855.43496752 13630.97352774
0.05100000 1478655.37207821 18453.61990318
0.05200000 1472356.13388863 12875.75499088
0.05300000 1465963.56900599 11874.30546250
0.05400000 1459475.56339714 13244.74135548
0.05500000 1452896.49371434 19526.92978644
0.05600000 1446224.49578508 13601.74201757
0.05700000 1439464.87075841 17532.68294424
0.05800000 1432616.06921677 16482.24864593
0.05900000 1425679.97049353 14114.23236710
0.06000000 1418659.48974501 16874.95541889
0.06100000 1411556.05015996 14440.21906795
0.06200000 1404370.08042054 15925.55745639
0.06300000 1397104.74333133 17435.86801199
0.06400000 1389758.26749650 14905.15811597
0.06500000 1382336.95478447 19159.19108954
0.06600000 1374838.27478605 16580.55036970
0.06700000 1367265.47111461 18129.94099544
0.06800000 1359621.43346229 16886.49899404
0.06900000 1351906.81526343 15614.52444735
0.07000000 1344121.35832676 18609.36107748
0.07100000 1336269.90011523 18761.23027635
0.07200000 1328351.21184662 14545.44645113
0.07300000 1320369.99692122 20518.55071356
0.07400000 1312325.49374709 20669.12749516
0.07500000 1304220.41229445 17841.73607647
0.07600000 1296054.58310370 17963.31736395
0.07700000 1287833.36578979 15067.65108624
0.07800000 1279555.52078967 18195.28035892
0.07900000 1271222.61238132 18305.60647689
0.08000000 1262838.66598349 23015.23576722
0.08100000 1254403.74961180 20057.91689737
0.08200000 1245919.04943890 17062.86218274
0.08300000 1237387.21435399 17150.18759584
0.08400000 1228809.36391850 17234.05213790
0.08500000 1220188.95880367 23610.65746126
0.08600000 1211525.27133970 25296.64885329
0.08700000 1202822.03275081 22228.15220902
0.08800000 1194077.58787490 15940.93654678
0.08900000 1185298.31726403 19201.83364158
0.09000000 1176482.92918847 20876.69055914
0.09100000 1167633.68477519 17724.68016761
0.09200000 1158751.88225315 19397.50742034
0.09300000 1149840.87182931 22697.85987653
0.09400000 1140898.80991963 19509.37056652
0.09500000 1131930.42521189 22819.71844486
0.09600000 1122936.35712471 19606.46971705
0.09700000 1113919.58863471 24561.92808412
0.09800000 1104881.01039985 22970.47728623
0.09900000 1095822.55244961 21368.54077757
0.10000000 1086743.80341138 26342.67103351
0.10100000 1077647.52727742 21434.41032565
0.10200000 1068536.29288871 18159.77515181
0.10300000 1059410.38503002 16526.80278390
0.10400000 1050272.96744278 21504.34002006
0.10500000 1041126.73460645 23175.48220273
0.10600001 1031967.45585918 19875.69413507
0.10700001 1022803.40831592 16569.41599444
0.10800001 1013631.53498220 26516.60220305
0.10900001 1004456.02089983 24860.28768734
0.11000001 995277.02878487 24857.04496391
0.11100001 986096.54862489 18223.06507641
0.11200001 976917.38288586 21526.37554529
0.11300001 967738.06324494 18203.15382666
0.11400001 958563.09612696 16535.21418674
0.11500001 949392.51753414 16519.43058296
0.11600001 940227.54658848 23101.39190756
0.11700001 931071.41003828 18127.96120718
0.11800001 921921.84940623 18101.93636566
0.11900001 912783.28215325 19716.11982317
0.12000001 903656.10083770 21321.76670363
0.12100001 894543.33278653 19644.17251339
0.12200001 885443.86079663 16336.44000133
0.12300001 876360.88239877 19560.37581672
0.12400001 867293.99556701 21140.29213802
0.12500001 858245.98052216 21087.10473506
0.12600001 849218.80405666 16177.61897962
0.12700001 840212.55560183 22584.91455892
0.12800001 831227.26948527 24126.37263387
0.12900001 822266.42321025 20844.45481082
0.13000001 813329.89135570 19178.31974214
0.13100001 804418.71387143 17520.24041398
0.13200001 795535.61354314 22219.31073369
0.13300001 786682.05383526 15812.31002753
0.13400001 777856.21433285 15751.58908286
0.13500001 769062.22263585 25102.19213036
0.13600001 760298.84110002 24998.62707407
0.13700001 751569.08460978 17113.22886351
0.13800001 742872.01106851 18586.65859340
0.13900001 734212.43903068 16960.30814143
0.14000001 725587.32360407 15346.17261796
0.14100001 716999.76687133 22908.14363195
0.14200001 708449.25342962 18235.48464336
0.14300001 699940.24860142 27213.67814923
0.14400001 691467.47785380 15039.41835273
0.14500001 683039.37493639 16454.41931841
0.14600001 674650.63149655 14876.04712627
0.14700001 666308.00103938 19229.64981718
0.14800001 658006.33398254 17647.73071001
0.14900001 649748.91896862 21929.02704982
0.15000001 641537.58690968 20343.15784075
0.15100001 633372.65053575 18773.16624769
0.15200001 625255.43040131 15784.57408531
0.15300001 617186.20104263 18534.10249192
0.15400001 609163.22729725 14163.04570303
0.15500001 601191.68930910 21101.82929061
0.15600001 593267.81285072 19560.04071282
0.15700001 585398.80411575 22198.32369976
0.15800001 577576.28836399 19285.27317871
0.15900001 569809.04584813 13675.41774584
0.16000001 562091.74712173 17646.87123386
0.16100001 554430.93937972 17514.47420176
0.16200001 546821.83049040 14706.77382529
0.16300001 539268.42242543 17245.80496330
0.16400001 531769.60712330 23690.33711575
0.16500001 524326.48007018 15666.87596415
0.16600001 516939.50122936 16834.13565232
0.16700001 509608.19314004 14126.33978081
0.16800001 502333.19092018 14007.56169020
0.16900001 495117.59010463 17675.69880135
0.17000001 487959.10753420 12516.15169926
0.17100001 480859.10691921 13646.78209879
0.17200001 473817.76772107 15984.24314889
0.17300001 466835.59186555 14621.29142771
0.17400001 459913.63863115 12072.73358421
0.17500001 453050.74475306 13156.59424898
0.17600001 446246.16539617 13032.61987591
0.17700001 439504.85459761 16428.69224080
0.17800001 432822.65624959 15107.67552996
0.17900001 426201.77274934 14959.68293010
0.18000001 419642.55827019 12532.62559472
0.18100001 413145.98576906 15790.44032198
0.18200001 406708.11187503 13396.96583801
0.18300001 400334.66326343 13259.08467363
0.18400001 394021.87165856 10934.10745506
0.18500001 387772.16039628 14064.49692201
0.18600001 381584.52004519 11773.79092223
0.18700001 375458.95409998 15881.91450877
0.18800001 369395.75032567 10472.37001651
0.18900001 363397.12692534 13463.86418872
0.19000001 357457.13664390 11265.26219360
0.19100001 351585.02487541 13163.34395330
0.19200001 345771.64256890 15015.13428804
0.19300001 340024.05134088 14842.05054236
0.19400001 334338.27641834 14669.09257103
0.19500001 328716.10563533 10630.67935860
0.19600001 323155.16469765 13368.92979531
0.19700001 317658.33139021 10377.89817695
0.19800001 312224.07785597 13047.84483023
0.19900001 306853.37592770 13808.40256933
0.20000001 301543.58836495 10909.84754266
0.20100001 296298.29940398 9875.62278588
0.20200001 291114.06687747 9750.86613092
0.20300001 285993.14244118 10501.66868680
0.20400001 280934.30842414 10366.47647083
0.20500001 275936.93167374 8526.45159174
0.20600001 271002.32348137 10939.00930439
0.20700001 266129.05305150 11624.51758677
0.20800001 261317.63615839 9011.53910890
0.20900001 256569.61811974 12931.10936451
0.21000001 251880.49767138 9566.42175379
0.21100001 247252.75918861 8648.90192528
0.21200001 242685.77507397 10855.33523224
0.21300001 238179.41486974 9939.22745240
0.21400001 233734.30296119 9799.31111493
0.21500001 229349.80071909 11146.40084192
0.21600001 225023.88027391 8056.98041413
0.21700001 220758.21690382 11550.07045449
0.21800001 216551.97937072 11381.97257387
0.21900001 212403.53377422 7009.31694596
0.22000001 208313.79279116 7596.16281330
0.22100001 204284.68305226 10204.02040094
0.22200001 200312.67067412 8040.55098105
0.22300001 196398.14338592 7918.77351576
0.22400001 192539.82318072 7797.86320755
0.22500001 188741.65544557 8317.84514881
0.22600001 184998.12063026 6299.18630534
0.22700001 181312.24012569 8681.23046775
0.22800001 177681.74616194 8544.71557701
0.22900001 174106.61726443 6006.67857968
0.23000001 170586.89346210 7684.08697939
0.23100001 167123.73427725 7560.67809627
0.23200001 163713.30046263 7438.31415830
0.23300001 160358.09039484 9568.56770640
0.23400001 157056.79346005 5536.25223131
0.23500001 153807.45913092 6533.74117290
0.23600001 150612.08503648 5889.68586392
0.23700001 147469.17234685 7896.97455268
0.23800001 144378.17643466 6728.74523100
0.23900001 141339.20042517 6105.85374717
0.24000001 138351.14675898 5501.53361110
0.24100001 135415.31291064 4915.57609117
0.24200001 132529.01118935 5796.81922362
0.24300001 129692.92034167 4746.76110904
0.24400001 126905.68693910 7928.43316656
0.24500001 124168.10964136 4581.80346251
0.24600001 121479.50974978 6751.22407371
0.24700001 118839.30071583 4862.90441534
0.24800001 116246.11403152 6512.68884671
0.24900001 113700.01354451 5116.50085155
0.25000001 111201.56566489 5861.43480349
0.25100001 108748.56417295 6577.11347234
0.25200001 106342.88275042 4842.85510957
0.25300001 103982.59213259 4754.08433722
0.25400001 101666.43042597 4666.48937733
0.25500001 99395.12171556  5343.48199624
0.25600001 97168.10926483  4120.41386832
0.25700001 94984.47173221  4411.07907595
0.25800001 92843.96301356  5771.18101398
0.25900001 90746.41231782  3893.02127263
0.26000001 88691.56658840  5208.41249434
0.26100001 86676.45807628  3747.02345993
0.26200001 84704.86305528  4678.24980790
0.26300001 82772.67481493  4588.91730888
0.26400001 80880.90273785  3536.51763955
0.26500001 79029.72463439  3153.28616212
0.26600001 77216.75645835  3711.03749099
0.26700001 75444.06018883  4245.99190835
0.26800001 73709.35056870  3569.00692343
0.26900001 72012.03915388  3499.78526849
0.27000001 70352.92918973  3145.83137759
0.27100001 68730.53281455  3365.04704584
0.27200001 67145.11218752  3299.51096904
0.27300001 65595.18801481  3774.34729699
0.27400001 64079.95483043  3436.28774040
0.27500001 62601.82380157  2850.88719084
0.27600001 61156.47786878  2541.05177571
0.27700001 59747.12044910  2740.60054470
0.27800001 58370.22888522  2687.07361390
0.27900001 57027.41478479  3832.24245491
0.28000001 55716.89105973  2348.46706932
0.28100001 54438.70825097  2993.58470840
0.28200001 53192.86626533  2258.03727984
0.28300001 51978.39134669  2878.56344902
0.28400001 50795.20470746  2388.64461442
0.28500001 49642.64715240  3194.50449546
0.28600001 48519.56648259  2088.76743594
0.28700001 47426.59447931  2048.82897848
0.28800001 46362.21982783  2411.76278960
0.28900001 45327.95643725  2563.29605786
0.29000001 44320.98175831  2321.53313439
0.29100001 43343.14673786  2847.64487547
0.29200001 42391.94839999  1863.12622037
0.29300001 41467.88076975  2560.22707991
0.29400001 40570.44371977  2513.33910741
0.29500001 39700.39633912  2115.23721708
0.29600001 38854.84330307  2250.27835642
0.29700001 38034.62762825  1870.16272901
0.29800001 37240.05502709  1837.23820173
0.29900001 36469.93252067  1805.26174523
0.30000001 35723.75437374  1612.92758633
0.30100001 35002.14782763  1744.15710882
0.30200001 34302.84750439  1714.97094217
0.30300001 33627.05166323  1533.39362844
0.30400001 32974.48904003  1961.15782850
0.30500001 32342.86011322  2078.35228927
0.30600001 31733.37482724  1607.45417798
0.30700001 31145.78816454  1438.93548133
0.30800001 30578.99679062  1984.27119569
0.30900001 30032.68197259  1815.47571120
0.31000001 29507.64574151  1789.49126072
0.31100001 29000.66282902  1492.95419312
0.31200001 28514.63906769  1472.63860437
0.31300001 28046.80389974  1717.30588409
0.31400001 27599.39616354  1434.47868352
0.31500001 27169.62493832  1416.62431136
0.31600002 26757.75151983  1654.03048851
0.31700002 26363.41084553  1257.53475687
0.31800002 25986.82527319  1740.85750748
0.31900002 25627.49201908  1599.15557771
0.32000002 25284.56052338  1582.68714090
0.32100002 24958.42804666  1446.59055808
0.32200002 24648.57264422  1552.49042151
0.32300002 24353.61956525  1775.37895037
0.32400002 24074.48897912  1408.35767197
0.32500002 23809.98743634  1280.73928485
0.32600002 23560.80042872  1617.92024205
0.32700002 23325.75165390  1262.38973929
0.32800002 23105.53773270  1938.43917988
0.32900002 22897.94753522  1246.79330233
0.33000002 22705.48167879  1352.79266248
0.33100002 22524.02032787  1121.69626545
0.33200002 22357.65113763  2010.17650898
0.33300002 22202.83681996  1891.01570151
0.33400002 22060.97605900  1551.98973925
0.33500002 21930.60459554  1436.89328115
0.33600002 21812.11814148  1102.60262427
0.33700002 21704.29731083  1320.48951092
0.33800002 21609.11843744  1208.70609704
0.33900002 21523.52151735  1646.54947405
0.34000002 21449.46687507  2084.56653697
0.34100002 21385.38869235  1206.77754106
0.34200002 21332.39480186  1097.55176453
0.34300002 21287.90568377  1318.14718237
0.34400002 21253.90698502  1869.81255556
0.34500002 21228.71711966  1432.30161190
0.34600002 21213.96175745  1104.18676177
0.34700002 21205.89883311  1660.42195727
0.34800002 21208.02790621  1554.33643886
0.34900002 21218.14918728  1225.34817360
0.35000002 21236.39125557  1565.33447359
0.35100002 21262.58457769  1571.73032642
0.35200002 21295.85655717  1578.66192135
0.35300002 21336.80967127  1132.98464721
0.35400002 21385.50537191  1366.53385799
0.35500002 21440.84263859  1488.42336647
0.35600002 21502.43240497  1496.89190277
0.35700002 21570.76385113  1505.85509577
0.35800002 21646.02383413  1282.20228255
0.35900002 21727.00144345  1407.90976022
0.36000002 21814.67304912  1181.26460156
0.36100002 21906.91604639  1308.50015743
0.36200002 22006.14274251  1797.35179363
0.36300002 22108.71139562  1569.27640919
0.36400002 22217.35218021  1702.96012528
0.36500002 22330.49492326  1716.32192110
0.36600002 22448.98438808  1482.97997892
0.36700002 22571.47647395  1370.54011642
0.36800002 22699.72436024  1507.71576343
0.36900002 22831.29331182  1393.85052271
0.37000002 22965.92643660  1661.47002676
0.37100002 23105.03977812  1418.18740876
0.37200002 23248.07354088  1821.02168672
0.37300002 23394.02024080  2362.32827582
0.37400002 23544.37382988  1589.24530880
0.37500002 23696.82171380  2004.75121195
0.37600002 23853.19947272  1888.45789171
0.37700002 24011.36355254  1497.58881572
0.37800002 24173.20542908  1511.67147312
0.37900002 24337.21214541  1387.22115800
0.38000002 24503.77743622  1540.43004150
0.38100002 24672.04549494  1555.07910121
0.38200002 24842.74564014  1712.65896557
0.38300002 25015.15961297  1873.13524056
0.38400002 25190.03863015  1600.19727979
0.38500002 25365.39222384  1468.65627934
0.38600002 25543.71908071  1482.81296288
0.38700002 25722.25545065  1646.73887196
0.38800002 25902.07111969  1964.80169787
0.38900002 26083.30260221  1525.87327452
0.39000002 26266.14539827  1694.56045065
0.39100002 26448.97307779  1866.23962878
0.39200002 26633.20530606  1727.03027989
0.39300002 26817.72924391  2060.40623543
0.39400002 27003.49883015  2079.94459593
0.39500002 27188.91941068  2099.52845636
0.39600002 27374.64900203  2445.24063796
0.39700002 27560.27992697  2138.95342647
0.39800002 27746.95620847  2158.85203008
0.39900002 27932.78023665  2346.35365105
0.40000002 28118.67845143  2706.14174238
0.40100002 28303.98972147  1706.73066107
0.40200002 28490.21513817  2411.12702138
0.40300002 28674.87084193  2085.23670642
0.40400002 28859.06673251  2980.42025801
0.40500002 29042.91644154  2299.32780362
0.40600002 29226.13643233  2141.10685648
0.40700002 29408.47954146  1979.77893654
0.40800002 29590.29525477  2178.43763987
0.40900002 29770.16680703  2197.03841446
0.41000002 29949.96189872  2031.05676240
0.41100002 30128.33655628  1861.93128740
0.41200002 30305.00033002  2252.87383128
0.41300002 30480.75993838  1892.85528186
0.41400002 30655.08107123  2099.10677581
0.41500002 30828.39958779  2308.43067052
0.41600002 30999.04390388  2326.78834568
0.41700002 31168.95971305  2540.58202659
0.41800002 31338.08095793  2363.51817784
0.41900002 31503.51383879  2183.19361248
0.42000002 31667.89727831  2199.81058867
0.42100002 31831.10393688  2619.38166708
0.42200002 31992.30497034  2638.88540052
0.42300002 32150.94810269  2249.28043585
0.42400002 32307.66362167  3295.38184556
0.42500002 32462.76349881  2904.11896022
0.42600002 32614.43393047  2297.85005146
0.42700002 32765.20534247  3155.28942400
0.42800002 32913.17996069  2753.35220008
0.42900002 33059.52516378  3198.50921116
0.43000002 33203.51385959  2361.26800002
0.43100002 33343.69587859  2376.73875485
0.43200002 33482.53073138  2392.15952146
0.43300002 33618.45648879  2188.56162113
0.43400002 33752.22574410  3743.96581808
0.43500002 33883.12536994  2215.95650421
0.43600002 34012.37353103  3790.16902404
0.43700002 34137.97177495  2691.43782228
0.43800002 34260.25814247  3609.66096895
0.43900002 34381.02746194  2269.14792002
0.44000002 34498.24613267  2966.67681677
0.44100002 34613.40543969  2753.84266729
0.44200002 34725.55669735  2538.26468708
0.44300002 34835.15512817  2784.02572978
0.44400002 34941.28217635  3964.96218286
0.44500002 35043.85522178  3282.20763562
0.44600002 35144.28254787  2827.70910781
0.44700002 35242.02539652  2605.09064077
0.44800002 35335.88388982  2617.85908204
0.44900002 35427.99502448  2391.38977748
0.45000002 35516.81203400  3123.52618236
0.45100002 35601.42101604  2413.77645928
0.45200002 35683.94678489  3152.14158863
0.45300002 35762.94913029  4140.27681703
0.45400002 35839.40984589  3179.85178928
0.45500002 35912.67100332  3438.99753826
0.45600002 35982.40291279  2466.59383657
0.45700002 36049.28150501  2724.24433245
0.45800002 36112.35602072  2734.96941285
0.45900002 36172.62483493  2745.50235509
0.46000002 36230.55579170  4008.54888278
0.46100002 36284.12559867  3520.28603243
0.46200002 36335.33225712  2775.83783934
0.46300002 36382.79417685  4051.58815156
0.46400002 36426.82685987  2794.84842329
0.46500002 36468.56937099  3568.81436779
0.46600002 36506.30275724  3324.44661815
0.46700002 36540.93787186  3847.76094027
0.46800002 36573.01241187  4631.24078122
0.46900002 36601.14893328  3354.49545873
0.47000002 36625.87701419  3363.90383381
0.47100002 36647.85582858  3113.60197877
0.47200002 36666.39014035  2861.62855414
0.47300002 36682.30088042  2868.92288784
0.47400002 36693.75238470  3398.75897573
0.47500002 36703.11306010  3668.84335538
0.47600002 36709.46535128  3414.53108149
0.47700002 36711.67142180  3685.11775199
