# SAXS profile: number of points = 501, q_min = 0, q_max = 0.5, delta_q = 0.001
#    q    intensity    error
0.00000000 1664650.74656091 399.51617917
0.00100000 1664582.09302419 848.93688760
0.00200000 1664376.07929058 1198.35081503
0.00300000 1664032.87744852 998.41976204
0.00400000 1663552.34210092 1746.73002558
0.00500000 1662934.93491376 2244.96225099
0.00600000 1662180.40791002 2443.40529910
0.00700000 1661289.40525847 2192.90210608
0.00800000 1660261.35492920 2241.35292378
0.00900000 1659097.63650980 4230.69915395
0.01000000 1657797.41029237 3008.90242960
0.01100000 1656361.88588205 2981.45152440
0.01200000 1654790.57708459 3872.21012015
0.01300000 1653084.86627943 3818.62620953
0.01400000 1651243.97024147 4829.88882707
0.01500000 1649269.64052613 3958.24731352
0.01600000 1647160.84565499 4620.28637861
0.01700000 1644919.60018813 6217.79636763
0.01800000 1642545.47143669 6553.75672594
0.01900000 1640039.22630933 6396.15327122
0.02000000 1637401.48871261 5157.81492276
0.02100000 1634633.93348808 7012.57989260
0.02200000 1631734.69883687 7881.27895345
0.02300000 1628706.53957786 9381.35009499
0.02400000 1625549.69282868 7924.55511388
0.02500000 1622265.23925063 6959.51819423
0.02600000 1618853.34922251 7211.99200065
0.02700000 1615315.16591675 8819.62120985
0.02800000 1611650.57640003 8412.81639462
0.02900000 1607862.00433400 8682.45522205
0.03000000 1603949.98395954 11187.55165236
0.03100000 1599914.48227010 11519.38480239
0.03200000 1595756.65915132 9478.79499193
0.03300000 1591479.43768129 10551.50915826
0.03400000 1587080.58451902 10831.82548913
0.03500000 1582563.66230394 12818.76625661
0.03600000 1577928.21554153 11384.75260126
0.03700000 1573176.16577795 11657.23592753
0.03800000 1568308.84751784 15596.83221038
0.03900000 1563327.40791768 13131.95083465
0.04000000 1558230.84618230 12458.05619252
0.04100000 1553023.13699154 12719.26008171
0.04200000 1547704.45550692 11979.23304137
0.04300000 1542275.10651424 13232.72102813
0.04400000 1536738.60799321 11410.28469427
0.04500000 1531094.57010928 15846.82953695
0.04600000 1525343.34614655 12904.40530829
0.04700000 1519488.33439281 13128.37981973
0.04800000 1513529.43900288 16686.66284141
0.04900000 1507469.43170693 16959.03189610
0.05000000 1501307.97632105 14930.50851977
0.05100000 1495048.41959801 13993.65385932
0.05200000 1488688.83345280 15385.59981072
0.05300000 1482234.87362613 16808.54425050
0.05400000 1475684.59876868 17044.15791061
0.05500000 1469042.21185329 13573.95067074
0.05600000 1462306.05847924 12502.71738343
0.05700000 1455481.21725136 17727.76205363
0.05800000 1448566.33713717 12819.81268225
0.05900000 1441563.28678563 15568.88422444
0.06000000 1434474.92625128 14437.99080724
0.06100000 1427302.74893240 21238.26589661
0.06200000 1420047.29473390 14761.39231876
0.06300000 1412711.46105303 18986.84292429
0.06400000 1405293.63596656 19182.25902803
0.06500000 1397800.20354768 19373.51172742
0.06600000 1390228.63975813 16766.15817995
0.06700000 1382582.02908658 19743.27229932
0.06800000 1374863.43484636 14229.83721675
0.06900000 1367073.58178121 18660.55526498
0.07000000 1359211.99611497 20265.85181109
0.07100000 1351283.57937621 17512.63600897
0.07200000 1343287.36233676 19121.69649865
0.07300000 1335227.90485568 25195.75174519
0.07400000 1327104.39342550 26873.86522629
0.07500000 1318919.50395454 21049.95626978
0.07600000 1310673.27773474 15138.27706753
0.07700000 1302371.11483975 15237.74275810
0.07800000 1294011.30069324 26067.85887495
0.07900000 1285596.02293720 18512.58359860
0.08000000 1277129.11821159 24827.39122271
0.08100000 1268610.62695367 31207.82288728
0.08200000 1260041.58868879 17256.27036685
0.08300000 1251425.12250583 26805.52738211
0.08400000 1242761.77506074 19014.25605093
0.08500000 1234055.45614848 20695.11097115
0.08600000 1225305.33720123 20787.30602161
0.08700000 1216514.92528678 22481.19687497
0.08800000 1207682.89361793 19347.08086437
0.08900000 1198815.61656527 22657.61621730
0.09000000 1189911.57230428 19490.75246993
0.09100000 1180973.42413587 24446.15102812
0.09200000 1172002.12119961 19619.31643073
0.09300000 1163001.25291431 24597.47765503
0.09400000 1153968.87301062 21377.27437720
0.09500000 1144909.63245530 29676.05906810
0.09600000 1135824.37748203 18178.87001615
0.09700000 1126716.04162373 23187.81722674
0.09800000 1117585.81243801 18255.76510452
0.09900000 1108434.95276166 21614.48259522
0.10000000 1099263.50238230 16653.84284428
0.10100000 1090074.40325050 16678.13915414
0.10200000 1080869.72727672 25049.15710786
0.10300000 1071650.44517820 21733.07205055
0.10400000 1062419.31894382 16733.10506058
0.10500000 1053178.80567559 20094.65255773
0.10600001 1043925.09626923 20105.99830020
0.10700001 1034666.36678417 21790.07470986
0.10800001 1025399.69973979 18441.81446772
0.10900001 1016129.25265275 21795.97349524
0.11000001 1006855.05005952 20116.96484709
0.11100001 997579.27091859 18435.26579439
0.11200001 988304.30068015 18426.93455367
0.11300001 979029.24317416 21763.82110042
0.11400001 969758.42277281 16728.33358047
0.11500001 960491.91021419 20055.07202963
0.11600001 951230.80115604 20032.92161573
0.11700001 941978.46215873 23342.22739159
0.11800001 932732.52771440 19979.13168463
0.11900001 923497.62473026 19947.54963374
0.12000001 914274.11298387 23231.70630525
0.12100001 905065.08772162 18218.96107410
0.12200001 895869.09787719 21487.42132488
0.12300001 886689.62970146 21440.15625632
0.12400001 877526.30452090 24680.42847753
0.12500001 868381.63108912 21336.13768123
0.12600001 859258.16526990 26190.19011160
0.12700001 850155.42054971 19587.58181256
0.12800001 841073.85834844 17902.25791867
0.12900001 832016.69876755 21091.62430785
0.13000001 822984.11742296 24257.45800441
0.13100001 813976.82726918 16116.74193963
0.13200001 804997.68584534 24089.55688451
0.13300001 796048.17109319 22400.79659060
0.13400001 787126.71127843 17533.24832034
0.13500001 778236.99004632 17463.63888002
0.13600001 769378.31760613 22135.01524121
0.13700001 760553.30009788 17317.79945982
0.13800001 751761.09303759 15674.21952896
0.13900001 743006.73233684 24965.02738382
0.14000001 734286.85991257 21742.23494739
0.14100001 725604.96721956 15455.38653070
0.14200001 716960.10975542 16916.67458756
0.14300001 708357.44682015 15300.52157300
0.14400001 699790.82274552 16742.49622393
0.14500001 691269.27287034 18166.55734799
0.14600001 682787.42575576 18066.55613778
0.14700001 674351.72182004 22455.91339600
0.14800001 665957.56220511 19349.39788275
0.14900001 657607.94200890 16275.79733263
0.15000001 649304.71116572 16177.42764199
0.15100001 641048.00740787 20462.25336197
0.15200001 632839.78368637 14523.67372093
0.15300001 624679.52436329 18759.12700185
0.15400001 616566.02953512 15768.67694950
0.15500001 608504.21996430 18510.69924489
0.15600001 600490.79179592 16969.87057704
0.15700001 592532.14378519 16851.61496459
0.15800001 584620.67465985 22309.12599798
0.15900001 576764.72042547 23532.00170408
0.16000001 568959.47469564 17862.48355122
0.16100001 561210.98278713 24547.36954585
0.16200001 553514.59470415 21653.49196700
0.16300001 545874.28872363 17457.06057749
0.16400001 538289.10901841 14654.92168488
0.16500001 530760.15013680 13215.92836235
0.16600001 523287.56266830 15730.02487647
0.16700001 515871.55514076 16899.95294434
0.16800001 508512.05822165 15468.93754149
0.16900001 501212.59394400 15337.10609887
0.17000001 493970.69544261 17738.48851095
0.17100001 486787.73321409 16326.86134298
0.17200001 479663.90188041 18670.91826239
0.17300001 472599.92012226 14801.83019724
0.17400001 465596.68241551 13444.10483966
0.17500001 458653.02694078 13319.28453140
0.17600001 451768.32183249 13193.89446225
0.17700001 444947.16068293 14256.10770161
0.17800001 438186.02325655 21177.53150425
0.17900001 431486.59248977 15145.18011175
0.18000001 424849.41508142 11534.66216430
0.18100001 418275.43118961 14844.59575413
0.18200001 411760.76870186 15823.96708870
0.18300001 405311.17502639 14542.56564693
0.18400001 398922.80813780 13284.13013854
0.18500001 392598.05235665 17525.57788515
0.18600001 386336.11241715 11920.40131179
0.18700001 380136.80096990 11791.84412319
0.18800001 374000.40687508 14844.07685020
0.18900001 367929.13654869 14680.37324190
0.19000001 361917.39050633 12442.72047351
0.19100001 355973.86077039 10252.04767460
0.19200001 350090.15463533 13175.64359227
0.19300001 344272.60643910 15027.49998116
0.19400001 338517.57663695 14852.45937678
0.19500001 332826.51373073 12720.62995590
0.19600001 327197.64000180 10635.55979086
0.19700001 321633.35148392 10507.76208955
0.19800001 316132.44042209 13211.17530958
0.19900001 310695.83135010 10252.96291911
0.20000001 305320.53465154 11046.49746576
0.20100001 300010.50173253 11817.41422176
0.20200001 294762.16386342 9873.05914524
0.20300001 289577.91340439 12405.51839659
0.20400001 284456.42334006 9621.73897426
0.20500001 279397.11613992 10360.04555616
0.20600001 274400.89363605 9372.16296514
0.20700001 269467.16812744 10088.85125158
0.20800001 264595.55515768 9954.08525556
0.20900001 259788.27616079 9001.66419449
0.21000001 255040.70334030 10493.65023500
0.21100001 250355.03676040 12738.06487254
0.21200001 245730.81533318 8636.20991316
0.21300001 241167.79179462 8515.63513085
0.21400001 236666.97869079 9922.26355070
0.21500001 232227.25192981 9028.99598190
0.21600001 227846.65879084 8899.69091313
0.21700001 223527.25164371 10964.01221150
0.21800001 219267.80921055 8643.53744775
0.21900001 215067.06531042 7097.21349081
0.22000001 210925.50732556 7691.39898830
0.22100001 206845.53939796 8954.34382393
0.22200001 202823.04372226 8819.76047330
0.22300001 198858.74381176 8686.15034043
0.22400001 194951.41679725 11185.33806766
0.22500001 191104.85090587 8421.99117767
0.22600001 187313.80357753 7653.64237611
0.22700001 183581.02941800 6906.31865330
0.22800001 179904.16842865 6179.70847776
0.22900001 176283.42504228 6081.77845157
0.23000001 172718.82824056 6583.17844972
0.23100001 169211.44900304 6477.41457417
0.23200001 165757.28628717 6372.53917269
0.23300001 162359.25187002 6268.69101118
0.23400001 159015.64681297 6165.83199679
0.23500001 155724.71951493 8820.24853049
0.23600001 152488.45806225 8131.44741076
0.23700001 149305.29245072 5330.19919260
0.23800001 146174.77604621 7860.54895368
0.23900001 143096.88004970 6181.78551054
0.24000001 140070.50889673 7595.32370419
0.24100001 137096.93882841 6967.26676082
0.24200001 134173.68107475 6357.82017846
0.24300001 131301.23275363 4805.62534610
0.24400001 128478.28975364 6610.20832051
0.24500001 125705.64830436 6030.10023441
0.24600001 122982.50832751 6834.75322362
0.24700001 120308.58533729 4475.47958626
0.24800001 117682.13473665 5274.51352842
0.24900001 115103.68587015 4316.38842433
0.25000001 112573.12028645 5086.05381515
0.25100001 110088.89475439 5409.76854416
0.25200001 107652.42433509 4902.49163616
0.25300001 105262.00287769 6015.72374907
0.25400001 102916.39590512 5511.17326146
0.25500001 100616.11832779 4636.39095190
0.25600001 98360.81573774  4929.35251392
0.25700001 96149.47127350  4465.18165720
0.25800001 93981.81594358  4746.55183881
0.25900001 91857.73506330  3940.69702067
0.26000001 89776.76480367  3866.23655920
0.26100001 87736.22926497  5861.65775454
0.26200001 85739.89028228  4058.92659802
0.26300001 83783.47589188  3649.60838254
0.26400001 81867.79669585  4230.51859444
0.26500001 79993.43727033  4468.43361736
0.26600001 78157.92906987  3756.27024884
0.26700001 76363.08099344  3376.77560132
0.26800001 74606.76423548  4816.61292697
0.26900001 72888.47156384  4132.77653324
0.27000001 71208.79330237  3473.56510167
0.27100001 69566.40926628  3405.97155886
0.27200001 67961.56499427  3061.32884004
0.27300001 66392.65165328  3274.48573450
0.27400001 64858.92420181  3210.51689993
0.27500001 63362.90329589  3147.86918471
0.27600001 61900.00538951  3600.72348392
0.27700001 60473.60169565  3026.09917207
0.27800001 59080.24042996  2719.75899691
0.27900001 57721.33439586  3636.44423904
0.28000001 56395.29921283  3090.18056662
0.28100001 55101.98250157  3496.22095520
0.28200001 53841.49309341  3656.91438399
0.28300001 52612.81211704  4258.48121431
0.28400001 51415.78246374  3077.23472610
0.28500001 50249.95865990  4958.16365565
0.28600001 49113.97633572  2748.66381573
0.28700001 48008.57992781  2281.36782615
0.28800001 46932.11942200  3051.76120986
0.28900001 45886.38595829  2395.26946040
0.29000001 44868.14646959  2154.34415471
0.29100001 43879.36565383  2114.10793727
0.29200001 42917.89890201  2074.86592063
0.29300001 41983.81110257  2036.63477299
0.29400001 41076.75786474  2181.17594587
0.29500001 40197.44025483  1784.76643180
0.29600001 39343.02562520  2629.09781186
0.29700001 38514.25922104  2238.06370928
0.29800001 37711.55040445  2029.63573885
0.29900001 36933.59794717  2160.61558219
0.30000001 36180.04783093  2613.64677904
0.30100001 35451.41598286  1927.13906406
0.30200001 34745.30593345  2052.92649827
0.30300001 34063.10588911  1863.93324249
0.30400001 33404.42866484  1833.90322052
0.30500001 32767.04507078  1654.40818395
0.30600001 32152.01714963  2220.90068975
0.30700001 31559.34663493  1749.65026027
0.30800001 30987.66288390  2585.30083680
0.30900001 30436.82394293  1556.84361839
0.31000001 29907.45452624  1534.70110167
0.31100001 29396.59518150  1513.33679159
0.31200001 28906.75602823  1492.88948576
0.31300001 28435.56020548  1875.04092873
0.31400001 27985.03003372  1586.75127804
0.31500001 27552.22347011  1958.96318148
0.31600002 27137.74511637  1419.43982552
0.31700002 26740.96310583  1913.31600081
0.31800002 26362.31393537  1513.72413784
0.31900002 26001.09527849  1372.85789571
0.32000002 25656.46036568  1605.96621263
0.32100002 25328.96335773  1835.08348216
0.32200002 25017.73976253  1696.95336844
0.32300002 24721.79322042  1441.77504888
0.32400002 24441.80967912  1668.15358959
0.32500002 24176.67550769  1300.46343714
0.32600002 23927.11539440  1643.07509194
0.32700002 23691.87347603  1515.33229928
0.32800002 23471.58714289  1389.98745642
0.32900002 23264.17312440  1612.20727386
0.33000002 23072.08052081  1374.63462252
0.33100002 22891.06801147  1481.96781324
0.33200002 22725.41320316  1248.64788758
0.33300002 22571.36000318  1470.07274662
0.33400002 22430.46185894  1239.84383797
0.33500002 22301.28922565  1236.38353322
0.33600002 22183.99755589  1457.82146842
0.33700002 22077.68684801  1343.20653144
0.33800002 21984.01919990  1229.67617218
0.33900002 21900.17516300  1340.29078345
0.34000002 21827.82374854  1563.09053266
0.34100002 21765.68842764  1116.57986922
0.34200002 21714.78610553  1228.94837784
0.34300002 21672.48357454  1901.11034919
0.34400002 21640.69294627  1567.86827821
0.34500002 21617.92170680  1346.36422766
0.34600002 21605.58861359  1461.94222278
0.34700002 21600.09016536  1578.53466405
0.34800002 21604.88361556  1244.11728193
0.34900002 21617.71652454  1134.93017129
0.35000002 21638.77046987  1367.13758304
0.35100002 21667.88581333  1144.06442513
0.35200002 21704.01589094  1379.07323503
0.35300002 21748.04712696  1154.82135714
0.35400002 21799.82129102  1276.92459260
0.35500002 21858.26815885  1984.29367744
0.35600002 21923.04172439  1408.77472794
0.35700002 21994.64640529  1417.33508149
0.35800002 22073.20619729  1901.82753604
0.35900002 22157.48469609  1675.10592237
0.36000002 22248.45073776  1566.17976387
0.36100002 22344.19752646  1577.27697810
0.36200002 22446.82059110  1466.67532689
0.36300002 22552.90742268  1354.52768397
0.36400002 22665.07065591  1489.09521263
0.36500002 22781.67351420  1375.78532869
0.36600002 22903.63677547  1386.92979063
0.36700002 23029.76230222  1398.36723323
0.36800002 23161.50824341  1538.38745040
0.36900002 23296.61287788  1422.25828357
0.37000002 23434.77417913  1434.55976933
0.37100002 23577.36949762  1710.30246437
0.37200002 23724.02445426  1858.30292353
0.37300002 23873.50340444  1741.09468576
0.37400002 24027.37352292  1757.00177209
0.37500002 24183.27312501  1773.11766952
0.37600002 24343.24041821  1514.27134195
0.37700002 24504.84892058  2084.13749943
0.37800002 24670.05118241  1542.74172378
0.37900002 24837.57456324  1698.89018061
0.38000002 25007.49253318  1715.01391917
0.38100002 25179.15454392  2164.14843557
0.38200002 25353.22194653  2184.81400474
0.38300002 25528.94124283  1617.51379377
0.38400002 25707.04375325  2078.41458591
0.38500002 25885.78345129  1498.78693283
0.38600002 26067.13532234  2118.47618801
0.38700002 26248.84406074  1985.98763572
0.38800002 26431.76659790  1850.75238486
0.38900002 26615.96852595  2958.36504181
0.39000002 26801.83465656  2043.50598020
0.39100002 26987.59796146  1586.87083531
0.39200002 27174.68906764  1601.94799643
0.39300002 27361.98682631  1778.80284785
0.39400002 27550.60521836  2285.32281114
0.39500002 27738.71109607  1977.21542060
0.39600002 27927.04250867  2494.58319028
0.39700002 28115.19361036  1846.32485187
0.39800002 28304.44017666  1694.02082483
0.39900002 28492.74289532  1709.56465472
0.40000002 28680.88433380  2242.70185674
0.40100002 28868.50948136  2263.00256546
0.40200002 29056.94060136  2283.43978535
0.40300002 29243.75551072  3012.69183545
0.40400002 29430.08383995  2324.24098138
0.40500002 29615.87894105  1803.60711297
0.40600002 29801.01327159  2547.09272501
0.40700002 29985.21663133  2936.15255166
0.40800002 30168.69234618  2776.27404470
0.40900002 30350.26755534  1866.54154309
0.41000002 30531.68878049  2070.50657275
0.41100002 30711.55305091  2087.77147532
0.41200002 30889.57608038  2296.33119462
0.41300002 31066.59305744  2508.00617636
0.41400002 31242.18005723  2333.79096086
0.41500002 31416.61928467  2548.51627713
0.41600002 31588.32872266  2766.19007731
0.41700002 31759.24005761  2787.82622436
0.41800002 31929.24918158  2006.75340615
0.41900002 32095.46270156  2628.61851981
0.42000002 32260.60083111  2037.25703902
0.42100002 32424.31174345  3283.93444899
0.42200002 32586.04068096  2687.85969293
0.42300002 32745.03921893  2707.35997091
0.42400002 32902.14635751  2307.26312265
0.42500002 33057.44548625  2323.60795334
0.42600002 33209.21926520  2977.87083262
0.42700002 33360.05232246  2784.23009877
0.42800002 33507.89931447  2803.10344998
0.42900002 33654.07769183  3256.03217098
0.43000002 33797.85046451  2403.53424968
0.43100002 33937.68164671  2199.16187492
0.43200002 34076.02788290  2434.56192746
0.43300002 34211.35352950  2895.30698640
0.43400002 34344.53555810  3137.37347191
0.43500002 34474.65415883  4509.28497766
0.43600002 34603.05398733  2495.05332599
0.43700002 34727.71818477  2509.77231215
0.43800002 34848.99490977  2294.80642356
0.43900002 34968.51116884  3461.88276977
0.44000002 35084.54269444  3713.34817475
0.44100002 35198.40047749  2333.65406225
0.44200002 35309.11448158  2580.91984534
0.44300002 35417.18512153  2358.78464088
0.44400002 35521.65958285  2608.17797847
0.44500002 35622.46515775  2383.14303199
0.44600002 35721.10552699  3113.63031082
0.44700002 35816.99509325  3851.04349493
0.44800002 35908.75964277  2660.30058421
0.44900002 35998.81927463  2915.90449944
0.45000002 36085.48871970  3417.65679861
0.45100002 36167.75734768  3433.04369014
0.45200002 36247.98971686  3201.96632339
0.45300002 36324.42990903  2968.43255285
0.45400002 36398.31856248  2732.60389558
0.45500002 36468.93818935  2494.47549037
0.45600002 36535.98370817  2754.99598208
0.45700002 36599.98775491  2765.86120572
0.45800002 36660.14869076  2776.45649268
0.45900002 36717.40241334  3040.20106391
0.46000002 36772.25747539  3814.20258741
0.46100002 36822.55072224  3062.16346319
0.46200002 36870.47342662  3840.98175126
0.46300002 36914.67086943  4881.59630714
0.46400002 36955.19544592  3350.91250588
0.46500002 36993.44734173  3103.01051009
0.46600002 37027.62296223  3112.54213373
0.46700002 37058.50298015  2601.50703251
0.46800002 37086.84358061  3130.87148347
0.46900002 37111.07741042  2877.96418958
0.47000002 37131.84356433  3148.03784659
0.47100002 37149.83743112  4208.33378366
0.47200002 37164.33105387  3164.17129590
0.47300002 37176.09641496  3436.18675450
0.47400002 37183.22729103  3973.95760508
0.47500002 37188.28753272  2655.24385569
0.47600002 37190.28654845  2660.96512867
0.47700002 37187.97661138  3199.65365930
