# SAXS profile: number of points = 501, q_min = 0, q_max = 0.5, delta_q = 0.001
#    q    intensity    error
0.00000000 1664650.74656090 274.66737318
0.00100000 1664582.11508997 549.31211103
0.00200000 1664376.16414172 898.76315710
0.00300000 1664033.07388822 998.41987990
0.00400000 1663552.69299328 1497.19748058
0.00500000 1662935.48537035 1646.30619568
0.00600000 1662181.21274229 1919.81937888
0.00700000 1661290.49893428 2591.61328605
0.00800000 1660262.79440550 2241.35486708
0.00900000 1659099.42157927 3484.10893425
0.01000000 1657799.62297953 3555.98034484
0.01100000 1656364.56585828 3875.89325286
0.01200000 1654793.78088878 4840.27202132
0.01300000 1653088.62533469 3818.63489294
0.01400000 1651248.32328042 5944.49422733
0.01500000 1649274.61054949 5145.73701405
0.01600000 1647166.49696067 7140.46708353
0.01700000 1644926.00534345 6217.82057912
0.01800000 1642552.65424788 5617.53033030
0.01900000 1640047.19305473 5904.17016141
0.02000000 1637410.31987031 6705.19556318
0.02100000 1634643.68919647 5933.75686081
0.02200000 1631745.33425655 6192.47382484
0.02300000 1628718.20009594 9967.75583830
0.02400000 1625562.37311851 9143.78876573
0.02500000 1622278.98438764 6326.88832806
0.02600000 1618868.13477069 6556.41624570
0.02700000 1615331.19864379 10176.58701755
0.02800000 1611667.71895749 7711.83038887
0.02900000 1607880.41388988 10853.19329207
0.03000000 1603969.73994913 8950.15156031
0.03100000 1599935.53316859 8447.66000383
0.03200000 1595779.04944034 10268.83865611
0.03300000 1591503.19133235 8116.66664998
0.03400000 1587105.70164421 11665.22744532
0.03500000 1582590.32360188 11109.78458471
0.03600000 1577956.38075628 9633.42414971
0.03700000 1573205.84528678 13450.91059927
0.03800000 1568340.19319679 11927.22772125
0.03900000 1563360.31010161 15008.25967201
0.04000000 1558265.46130730 10541.66633423
0.04100000 1553059.45318048 10762.70250957
0.04200000 1547742.50591869 16970.99736473
0.04300000 1542314.98562194 10179.27937761
0.04400000 1536780.30356579 18671.88155548
0.04500000 1531138.00708344 12677.82328772
0.04600000 1525388.70763558 10753.99088875
0.04700000 1519535.58793544 16410.98511294
0.04800000 1513578.61564487 15574.72467965
0.04900000 1507520.65178261 14698.32703905
0.05000000 1501361.21081570 12633.95517733
0.05100000 1495103.75087047 13994.17176005
0.05200000 1488746.23837652 13019.08646131
0.05300000 1482294.35008522 12006.58479541
0.05400000 1475746.27195318 15827.37950479
0.05500000 1469106.04383759 14808.58961269
0.05600000 1462372.11323296 16254.26679708
0.05700000 1455549.47460865 13929.60912222
0.05800000 1448636.94334507 15384.52505667
0.05900000 1441636.09702464 14272.19802714
0.06000000 1434550.16551298 22314.42886706
0.06100000 1427380.38403695 19911.95728783
0.06200000 1420127.11227703 18788.28257366
0.06300000 1412793.83411340 17631.66787411
0.06400000 1405378.43030315 16442.92840353
0.06500000 1397887.43567490 19374.72076476
0.06600000 1390318.32363785 15369.96978695
0.06700000 1382674.26437845 19744.58941935
0.06800000 1374958.27721767 17076.98260240
0.06900000 1367170.88937233 18661.88351366
0.07000000 1359311.94424128 15924.34017250
0.07100000 1351386.18471842 14594.97147855
0.07200000 1343392.55458772 26478.26849135
0.07300000 1335335.77358671 16304.45055945
0.07400000 1327214.93086596 17917.40240637
0.07500000 1319032.76698727 16540.67167332
0.07600000 1310789.24031215 15139.61643536
0.07700000 1302489.76535131 22858.69645373
0.07800000 1294132.78819469 21469.66396300
0.07900000 1285720.24481986 21600.10112610
0.08000000 1277256.14352623 18622.39544621
0.08100000 1268740.45220960 26529.36410041
0.08200000 1260174.36159717 21964.84015334
0.08300000 1251560.66022175 23654.49758834
0.08400000 1242900.15515272 17431.67549424
0.08500000 1234196.64708552 23881.70624224
0.08600000 1225449.47480698 20789.75131621
0.08700000 1216661.88592925 17665.93141324
0.08800000 1207832.80341889 25799.30989266
0.08900000 1198968.52344283 21041.89857475
0.09000000 1190067.54073593 21117.74950238
0.09100000 1181132.13625413 17929.58667069
0.09200000 1172163.85355259 17986.85517791
0.09300000 1163165.85578394 18040.70327098
0.09400000 1154136.48385098 26314.31306851
0.09500000 1145080.34363268 19786.98926801
0.09600000 1135998.02767483 19834.52649558
0.09700000 1126892.58713351 18221.85399061
0.09800000 1117765.21386261 21578.45846819
0.09900000 1108617.32742451 29932.66924797
0.10000000 1099449.00562740 24984.97982786
0.10100000 1090262.76916769 23353.42961393
0.10200000 1081061.26690820 18372.63709529
0.10300000 1071844.86595739 20064.93683459
0.10400000 1062616.70573400 25104.32085400
0.10500000 1053379.29499247 16748.73157840
0.10600001 1044128.62901396 18434.09181263
0.10700001 1034872.85578795 18441.43515795
0.10800001 1025609.26346723 20122.45469622
0.10900001 1016341.70126567 18446.60274617
0.11000001 1007070.50835237 21798.04217931
0.11100001 997797.58553392 21791.90029388
0.11200001 988525.78236204 25133.26919976
0.11300001 979253.51959549 21768.80676550
0.11400001 969985.80756212 16732.25596828
0.11500001 960722.11720166 20059.87875175
0.11600001 951464.03476563 18368.01405613
0.11700001 942214.68589354 21680.36094345
0.11800001 932971.81170940 19984.25714804
0.11900001 923739.66734953 16627.31479547
0.12000001 914519.01649006 19918.22511740
0.12100001 905312.77107758 18223.94694029
0.12200001 896119.61482792 18186.74843973
0.12300001 886943.14029242 26395.42909871
0.12400001 877782.58896337 18104.26675040
0.12500001 868640.91684369 22984.23974271
0.12600001 859520.10275968 24560.78809375
0.12700001 850420.18263740 17960.87510373
0.12800001 841341.38007885 17907.95211897
0.12900001 832286.80371508 16229.59343738
0.13000001 823257.07597191 16177.00230535
0.13100001 814252.31426487 16122.19658241
0.13200001 805276.11311458 22491.36289954
0.13300001 796329.23213982 19207.46198471
0.13400001 787410.39521142 15945.06125477
0.13500001 778523.34320698 19058.25234027
0.13600001 769667.15028617 15816.66068415
0.13700001 760844.78604238 18899.38537646
0.13800001 752055.16348431 18816.42107768
0.13900001 743303.21162505 15609.36818024
0.14000001 734585.85824048 17090.14079795
0.14100001 725906.46461176 18554.17011055
0.14200001 717264.07593107 15385.31515437
0.14300001 708663.66043779 16837.84936620
0.14400001 700099.41765822 21318.02827326
0.14500001 691580.12745854 22718.40825869
0.14600001 683100.64422299 18074.84389881
0.14700001 674667.31753568 19470.89970265
0.14800001 666275.35571063 16380.38039295
0.14900001 657927.82851352 22205.06525998
0.15000001 649626.85862313 14714.04904207
0.15100001 641372.35003921 17547.94832507
0.15200001 633166.04589409 15984.27758285
0.15300001 625007.94647373 17325.22109381
0.15400001 616896.29179907 18645.69129954
0.15500001 608836.51745140 14246.77518071
0.15600001 600825.02915590 15564.37311484
0.15700001 592868.40384246 15456.08001765
0.15800001 584958.74025055 15346.39327480
0.15900001 577104.62522719 19390.71632289
0.16000001 569301.07809456 13748.62168495
0.16100001 561554.33238408 15010.34801318
0.16200001 553859.65672935 14896.05617092
0.16300001 546220.94410398 14780.73944522
0.16400001 538637.30815319 13331.27400616
0.16500001 531109.89517312 17192.02811841
0.16600001 523638.90028505 13117.15507144
0.16700001 516224.16526816 15610.61949476
0.16800001 508866.18765949 12899.75846625
0.16900001 501567.91413516 16626.97713867
0.17000001 494327.48829358 15215.40080814
0.17100001 487145.83700365 12568.36318819
0.17200001 480023.06292462 14947.91888536
0.17300001 472960.33087355 13578.69174063
0.17400001 465958.30498168 18347.10912511
0.17500001 459015.56644529 16965.21613704
0.17600001 452131.82959734 15605.33083558
0.17700001 445311.69150756 13078.80499730
0.17800001 438551.44204926 12952.61745270
0.17900001 431852.82798358 19822.04574071
0.18000001 425216.54872337 13853.55581178
0.18100001 418643.21423498 13714.75234617
0.18200001 412129.18044459 12444.24119136
0.18300001 405680.31572311 14555.81041575
0.18400001 399292.39517139 13296.43738734
0.18500001 392968.32632155 12060.19850456
0.18600001 386706.71417532 14101.26099860
0.18700001 380507.89286460 12876.38770288
0.18800001 374371.80712480 11674.78535678
0.18900001 368300.92296057 11546.23448034
0.19000001 362289.37422031 12455.50927420
0.19100001 356346.03217561 13341.59607505
0.19200001 350462.27292820 12175.05993681
0.19300001 344644.79285780 13037.91312989
0.19400001 338889.76252467 11895.03122670
0.19500001 333198.84272583 12734.86037077
0.19600001 327569.72604758 14519.52879320
0.19700001 322005.28695377 10519.91322193
0.19800001 316504.15558089 13226.70928680
0.19900001 311067.16908339 11198.41861624
0.20000001 305691.61655441 11059.92320964
0.20100001 300381.17099463 10011.70490243
0.20200001 295132.36319172 9885.45897233
0.20300001 289947.56493320 10646.87508757
0.20400001 284825.50551152 11385.90012099
0.20500001 279765.43660922 13831.60383974
0.20600001 274768.69195362 9384.72511727
0.20700001 269834.04165148 10944.46924672
0.20800001 264961.65673457 9137.20316441
0.20900001 260153.45599057 9833.80110130
0.21000001 255404.93247176 11316.99309280
0.21100001 250718.19517240 13553.82627176
0.21200001 246092.91362910 10221.46965080
0.21300001 241528.73479650 13180.22368095
0.21400001 237026.67371440 10701.75482415
0.21500001 232585.64002491 9796.50762100
0.21600001 228203.79906050 7428.03401061
0.21700001 223882.99232941 9517.26645390
0.21800001 219622.23047320 8657.50873459
0.21900001 215419.81113871 10663.28115554
0.22000001 211276.67606547 10505.73321409
0.22100001 207195.00755510 11039.35052451
0.22200001 203170.83730996 8834.88427818
0.22300001 199204.92666884 8701.27160834
0.22400001 195295.65442690 7250.35151344
0.22500001 191447.32343920 6490.06457149
0.22600001 187654.31881185 7667.55582924
0.22700001 183919.45082401 7548.05461876
0.22800001 180240.55199452 9906.02120608
0.22900001 176617.70358784 9749.29769910
0.23000001 173050.92895772 7795.07946354
0.23100001 169541.26020258 6490.03974749
0.23200001 166084.89254437 8126.53417653
0.23300001 162684.52316952 6852.27243997
0.23400001 159338.58354176 5616.68533549
0.23500001 156045.19969240 7733.60046252
0.23600001 152806.40786428 6518.72166781
0.23700001 149620.52017739 8012.17923446
0.23800001 146487.49773332 7352.20785899
0.23900001 143406.83791867 6711.44033204
0.24000001 140377.79884358 6597.05496870
0.24100001 137401.46204534 5486.44063899
0.24200001 134475.33044145 7352.43903967
0.24300001 131599.97517220 6743.18304679
0.24400001 128774.10983662 4732.44876036
0.24500001 125998.40346058 5579.20956916
0.24600001 123272.25525709 5023.96100066
0.24700001 120595.21056051 5383.37045409
0.24800001 117965.70356794 7930.83462605
0.24900001 115383.77781653 4759.58106010
0.25000001 112850.13778010 5948.33104379
0.25100001 110362.56271944 4588.87557497
0.25200001 107922.76346388 6143.50360083
0.25300001 105528.89958972 4422.71639105
0.25400001 103179.83890628 3946.62902489
0.25500001 100876.06105723 4648.36911344
0.25600001 98617.25853552  4562.03459570
0.25700001 96402.28736555  4103.84556732
0.25800001 94231.07880647  4026.96534333
0.25900001 92103.21059832  4310.43045995
0.26000001 90018.57776368  3876.65023482
0.26100001 87974.27983404  4494.60616939
0.26200001 85974.12543185  5087.51911316
0.26300001 84013.82579336  3992.33719061
0.26400001 82094.31085765  3915.89881320
0.26500001 80216.04441850  3840.74438850
0.26600001 78376.50205827  3452.87696157
0.26700001 76577.71289718  3078.42420414
0.26800001 74817.35191943  4226.43240993
0.26900001 73094.92542665  3552.41354384
0.27000001 71411.17137518  4354.29638066
0.27100001 69764.69930569  3984.95981292
0.27200001 68155.56576783  3349.16466033
0.27300001 66582.51540565  4104.81226901
0.27400001 65044.51361927  3219.70357653
0.27500001 63544.13740981  2630.72741327
0.27600001 62077.03726216  3353.09132640
0.27700001 60646.22355703  2781.84240622
0.27800001 59248.61301327  3471.37640074
0.27900001 57885.24046936  2917.41625773
0.28000001 56554.76563927  2622.16183297
0.28100001 55257.05764033  3973.53520298
0.28200001 53992.09250507  2521.16087885
0.28300001 52758.86870967  3596.04466145
0.28400001 51557.40826129  2865.30309974
0.28500001 50387.01908988  2593.92386552
0.28600001 49246.53643318  2544.07619255
0.28700001 48136.48938441  2495.39572780
0.28800001 47055.51755467  2447.82813906
0.28900001 46005.12818376  3001.83475608
0.29000001 44982.22998883  2552.51676154
0.29100001 43988.90073458  2119.38533771
0.29200001 43022.72110401  2079.93355023
0.29300001 42083.93361109  1855.90156010
0.29400001 41172.26238457  2550.62177546
0.29500001 40288.15712547  1967.67368715
0.29600001 39429.07093466  2283.53475128
0.29700001 38595.56863849  2242.78859975
0.29800001 37788.15802041  1694.79896744
0.29900001 37005.45947676  2331.34405740
0.30000001 36247.19120298  1800.21683632
0.30100001 35513.83626759  1769.65454499
0.30200001 34803.00470514  1581.79663873
0.30300001 34116.02939979  1866.82921713
0.30400001 33452.60825068  2601.77672987
0.30500001 32810.48557491  1656.60149510
0.30600001 32190.64487063  1927.09304641
0.30700001 31593.21711428  1605.56736976
0.30800001 31016.81431069  2012.68117591
0.30900001 30461.19094750  1558.08999073
0.31000001 29927.08535926  1954.53803735
0.31100001 29411.47831442  1651.74870034
0.31200001 28916.91339346  1629.17897772
0.31300001 28440.98869888  1607.48475737
0.31400001 27985.73947622  1586.79150343
0.31500001 27548.20880727  1697.52070708
0.31600002 27129.09818449  1289.98867975
0.31700002 26727.61188076  1402.39786178
0.31800002 26344.22111119  1512.68524783
0.31900002 25978.32979828  1371.65587830
0.32000002 25629.09133483  1234.04080620
0.32100002 25296.95753609  1588.39603890
0.32200002 24981.14418637  1573.43744108
0.32300002 24680.57061121  1439.37094620
0.32400002 24395.99894853  1783.95750758
0.32500002 24126.30801811  1769.66477693
0.32600002 23872.20924627  1522.21149467
0.32700002 23632.40681075  1627.80025820
0.32800002 23407.64512311  1617.23427814
0.32900002 23195.72632192  1492.64505950
0.33000002 22999.23493171  1256.10327528
0.33100002 22813.77284773  1249.73853578
0.33200002 22643.71069951  1131.05340300
0.33300002 22485.25952858  1239.16271130
0.33400002 22340.11404219  1122.59078378
0.33500002 22206.54511036  1119.20992656
0.33600002 22084.97936845  1786.23321591
0.33700002 21974.34987863  1336.91950993
0.33800002 21876.49094464  1779.87138755
0.33900002 21788.47989137  1111.21252708
0.34000002 21711.96873536  1110.56725341
0.34100002 21645.70555527  1443.55217185
0.34200002 21590.71620240  1333.01088147
0.34300002 21544.31259863  1222.85524101
0.34400002 21508.54734908  1224.37411583
0.34500002 21481.80219683  1114.90558682
0.34600002 21465.53922330  1340.73764339
0.34700002 21456.16609638  1232.01311560
0.34800002 21457.02977403  1235.60311806
0.34900002 21466.02194158  1239.66282584
0.35000002 21483.30479575  1470.42486639
0.35100002 21508.67354351  1703.48702533
0.35200002 21541.16702059  1254.66533254
0.35300002 21581.57169359  1604.37411569
0.35400002 21629.67368958  1497.31423208
0.35500002 21684.55402556  1621.13733573
0.35600002 21745.81856535  1397.38636720
0.35700002 21813.93123155  1874.25306019
0.35800002 21889.06295961  1414.47131545
0.35900002 21969.99123624  1542.29345784
0.36000002 22057.59727756  1194.41894915
0.36100002 22150.04969527  1443.29730651
0.36200002 22249.46520560  1332.63178161
0.36300002 22352.42000006  1708.61906574
0.36400002 22461.43271927  1229.76349963
0.36500002 22574.93709904  1363.30051599
0.36600002 22693.89485667  1374.22886814
0.36700002 22817.01998848  1889.24934454
0.36800002 22945.85505538  1651.06907872
0.36900002 23078.07017843  1408.91625113
0.37000002 23213.48223389  1679.37945176
0.37100002 23353.29917970  1694.04840274
0.37200002 23497.20824722  1709.06952282
0.37300002 23644.06755651  1459.07547803
0.37400002 23795.34337278  2007.73219219
0.37500002 23948.73740455  1485.77973896
0.37600002 24106.16428514  1635.84438588
0.37700002 24265.38867169  1651.01712343
0.37800002 24428.22934608  1527.61939452
0.37900002 24593.41289319  1542.00706145
0.38000002 24761.13143590  1556.60860146
0.38100002 24930.55892558  1571.37320352
0.38200002 25102.49999911  2307.42190923
0.38300002 25276.16862098  1601.49811969
0.38400002 25452.28844259  1616.85669991
0.38500002 25629.02585411  1780.70480070
0.38600002 25808.51482778  1797.82122807
0.38700002 25988.36454950  1815.02746612
0.38800002 26169.49558409  1679.68915364
0.38900002 26352.06386772  2929.03203766
0.39000002 26536.25472909  1867.62169631
0.39100002 26720.38770866  1885.39064605
0.39200002 26906.02945746  2061.94366516
0.39300002 27091.89696039  1921.35742346
0.39400002 27279.06611281  2747.68406439
0.39500002 27465.80479014  2773.49709911
0.39600002 27652.83599658  1811.39910778
0.39700002 27839.76598270  1994.44092949
0.39800002 28027.87024617  2180.70854782
0.39900002 28215.02992118  1862.19206303
0.40000002 28402.14879060  2391.74506297
0.40100002 28588.85455008  2758.25281768
0.40200002 28776.35152943  2087.43663885
0.40300002 28962.26823711  1930.62489216
0.40400002 29147.79667541  2301.94735151
0.40500002 29332.90454925  2500.92356036
0.40600002 29517.36623889  1982.23882369
0.40700002 29700.93742328  2181.23694771
0.40800002 29883.87300632  2566.72597413
0.40900002 30064.98438496  2773.49494093
0.41000002 30245.92814610  2424.06002613
0.41100002 30425.44451753  2444.38032836
0.41200002 30603.17989411  2275.04050113
0.41300002 30779.98060892  2484.86795230
0.41400002 30955.40006099  1926.97374510
0.41500002 31129.69567896  2719.49034337
0.41600002 31301.34130116  2545.26868851
0.41700002 31472.21268257  2170.63861157
0.41800002 31642.28297408  2187.58933707
0.41900002 31808.57407704  2003.94026181
0.42000002 31973.89196482  2422.98164791
0.42100002 32137.88642603  2237.76113788
0.42200002 32299.84344457  2869.19522914
0.42300002 32459.26289554  2270.85013978
0.42400002 32616.72803769  2079.31651093
0.42500002 32772.49389008  2722.41119645
0.42600002 32924.76524749  2530.59757684
0.42700002 33076.13267703  2760.53416404
0.42800002 33224.65730341  2138.00679879
0.42900002 33371.51505582  2367.70910541
0.43000002 33516.03409329  2383.49287749
0.43100002 33656.64294978  3489.52090639
0.43200002 33795.81742939  3073.05382448
0.43300002 33932.05033770  3092.56721433
0.43400002 34066.15576288  2889.66179952
0.43500002 34197.25607756  3131.10091484
0.43600002 34326.76280438  2475.13134930
0.43700002 34452.54174639  2942.59173001
0.43800002 34574.91325362  2959.78558934
0.43900002 34695.70756033  2747.90016900
0.44000002 34812.97294630  3914.89305820
0.44100002 34928.09571494  2547.30614121
0.44200002 35040.20649038  3026.94838112
0.44300002 35149.66488452  3745.54846760
0.44400002 35255.54595425  2823.96936477
0.44500002 35357.92008841  2601.98946262
0.44600002 35458.11123746  2377.46647114
0.44700002 35555.56545709  3106.13434554
0.44800002 35648.97084441  2641.05413017
0.44900002 35740.71929927  2894.99840044
0.45000002 35829.09837449  3878.14179185
0.45100002 35913.12440829  2678.40094531
0.45200002 35995.14021180  2445.86989331
0.45300002 36073.46210926  2702.26317467
0.45400002 36149.25575838  2713.90550468
0.45500002 36221.78451333  3220.84123157
0.45600002 36290.81884115  3482.83004925
0.45700002 36356.81429351  3996.34121654
0.45800002 36419.00406047  3008.93825808
0.45900002 36478.34778512  3020.40733976
0.46000002 36535.32764089  3789.62703916
0.46100002 36587.79344123  3042.64104678
0.46200002 36637.94152686  3562.30722349
0.46300002 36684.29499770  3063.87246342
0.46400002 36727.15799658  2817.89133084
0.46500002 36767.65488076  3341.07695737
0.46600002 36804.14150979  3351.56930544
0.46700002 36837.44213222  3361.78512832
0.46800002 36868.15958771  3371.77769490
0.46900002 36894.83096296  2861.19427679
0.47000002 36918.03403523  2869.08515103
0.47100002 36938.50630746  3399.82028168
0.47200002 36955.47420244  4195.18563030
0.47300002 36969.80470766  2891.40856323
0.47400002 36979.51520055  3425.22775780
0.47500002 36987.19206735  2640.88563878
0.47600002 36991.74314185  3970.13902087
0.47700002 36992.11468549  3448.03517326
