# SAXS profile: number of points = 501, q_min = 0, q_max = 0.5, delta_q = 0.001
#    q    intensity    error
0.00000000 1682732.95097188 277.65093691
0.00100000 1682663.74181633 555.27904799
0.00200000 1682456.06399481 908.52630333
0.00300000 1682110.07917496 1211.11930015
0.00400000 1681625.66500851 1765.70701535
0.00500000 1681003.27654339 2571.93511491
0.00600000 1680242.65686892 2293.53132000
0.00700000 1679344.44698599 2216.73476215
0.00800000 1678308.10838755 2265.71604198
0.00900000 1677134.94825933 3521.98354190
0.01000000 1675824.22036596 3594.64310790
0.01100000 1674377.07813736 3315.26675906
0.01200000 1672793.07229961 3914.33596080
0.01300000 1671073.54654456 4211.10552302
0.01400000 1669217.75224975 4131.31411996
0.01500000 1667227.40521209 5201.74973589
0.01600000 1665101.51336877 5519.81176357
0.01700000 1662842.13398637 4489.67396316
0.01800000 1660448.71861257 4732.27906099
0.01900000 1657922.13031901 4973.76661539
0.02000000 1655262.96317909 5735.48642686
0.02100000 1652472.94539649 7089.10925716
0.02200000 1649550.12738594 7398.23265744
0.02300000 1646497.34472918 5927.39071083
0.02400000 1643314.77025230 6162.43066944
0.02500000 1640003.58261765 8314.81854361
0.02600000 1636563.80339002 10604.93393102
0.02700000 1632996.82487046 7544.44567645
0.02800000 1629302.32054827 7796.21196135
0.02900000 1625482.76940295 7314.67279816
0.03000000 1621538.80460044 7540.15578798
0.03100000 1617470.25266126 12422.17211202
0.03200000 1613278.35166064 11180.01949194
0.03300000 1608966.02677077 9846.87253778
0.03400000 1604531.07602252 10108.54624535
0.03500000 1599977.08029737 11231.83962235
0.03600000 1595303.49113816 10624.72174199
0.03700000 1590512.33171941 9972.51278108
0.03800000 1585604.94079789 10203.36826624
0.03900000 1580582.37456321 10431.84415522
0.04000000 1575443.77880143 12595.67359519
0.04100000 1570192.98341109 10881.43787957
0.04200000 1564830.32863673 10093.15608796
0.04300000 1559356.01181835 13379.27520244
0.04400000 1553773.57479456 12585.56654033
0.04500000 1548082.48982776 16022.65451421
0.04600000 1542283.48710044 13047.71890742
0.04700000 1536379.66912604 11061.93413218
0.04800000 1530371.07423420 15747.51908657
0.04900000 1524260.50572756 16004.73605512
0.05000000 1518047.57789672 16258.29031636
0.05100000 1511735.58456538 14149.84573069
0.05200000 1505322.71954833 17950.97426715
0.05300000 1498814.46568070 12140.39773797
0.05400000 1492209.08520646 19697.16084328
0.05500000 1485510.82159074 14973.94978016
0.05600000 1478717.75896468 17700.25240077
0.05700000 1471835.19852432 14085.46350737
0.05800000 1464861.87769272 15556.83386748
0.05900000 1457799.23289127 14432.21307969
0.06000000 1450650.80600378 15928.14659407
0.06100000 1443417.72914935 16108.54261008
0.06200000 1436100.22738268 16285.37733976
0.06300000 1428701.93037577 19201.75484203
0.06400000 1421220.74610636 16628.28350709
0.06500000 1413662.97316245 18193.84331567
0.06600000 1406026.42857330 21195.84940247
0.06700000 1398314.04088134 22820.48621516
0.06800000 1390529.04865389 20148.76685814
0.06900000 1382671.83154255 23228.88785747
0.07000000 1374742.35123117 19033.30874410
0.07100000 1366745.24610411 20665.18908901
0.07200000 1358679.52044780 29755.08289174
0.07300000 1350549.98401822 20987.54773503
0.07400000 1342355.60661317 18121.80153854
0.07500000 1334099.27324945 18250.47891350
0.07600000 1325780.85252940 18375.32347750
0.07700000 1317405.83438769 16955.01388356
0.07800000 1308972.58675567 26369.25399681
0.07900000 1300483.13404736 15605.79834054
0.08000000 1291941.55012661 21975.92679857
0.08100000 1283347.71292863 18942.21313156
0.08200000 1274702.65211949 22218.06826903
0.08300000 1266009.56137536 15951.72122198
0.08400000 1257268.98906092 17633.19839926
0.08500000 1248484.81719521 19326.54587747
0.08600000 1239656.52823581 19413.02214364
0.08700000 1230787.04606935 17871.02874811
0.08800000 1221875.73600056 21205.65439419
0.08900000 1212928.62156519 22924.35202433
0.09000000 1203944.06980331 18077.22105728
0.09100000 1194924.79365157 18138.95921982
0.09200000 1185872.09085618 24814.37466711
0.09300000 1176789.14683478 18252.00052511
0.09400000 1167674.50610092 18303.29874334
0.09500000 1158532.40183397 16682.86737055
0.09600000 1149363.64799549 20067.89023735
0.09700000 1140171.47843316 20112.62582511
0.09800000 1130956.95714925 25192.06740497
0.09900000 1121721.38857146 23556.15026767
0.10000000 1112464.88225935 21909.99688646
0.10100000 1103190.27176819 23630.33673265
0.10200000 1093899.91637786 20280.90540358
0.10300000 1084594.29870843 18611.63904134
0.10400000 1075276.57585222 22016.28892633
0.10500000 1065949.20425872 18643.45245965
0.10600001 1056608.35257772 18654.42134252
0.10700001 1047261.80659327 22055.33468473
0.10800001 1037907.37058531 18666.76493847
0.10900001 1028548.67800317 20365.26478297
0.11000001 1019186.01769115 18666.39279263
0.11100001 1009821.46454685 16965.00140299
0.11200001 1000457.46342641 27132.40768544
0.11300001 991092.88414062 23726.76476340
0.11400001 981732.71278789 16934.89009296
0.11500001 972376.30901901 21995.15314572
0.11600001 963025.52370378 20281.31848428
0.11700001 953682.86263330 27008.29994173
0.11800001 944346.72610037 18542.24884029
0.11900001 935021.15348034 23562.53417754
0.12000001 925706.81051503 21842.05322297
0.12100001 916406.97211070 20124.29805557
0.12200001 907119.67501595 16736.35879252
0.12300001 897849.19359951 18369.99536654
0.12400001 888594.51578412 19993.37754718
0.12500001 879358.62269287 21605.84237764
0.12600001 870143.45305953 24864.35034287
0.12700001 860949.10424110 19836.26829653
0.12800001 851775.72429434 18130.04714606
0.12900001 842626.63417598 23003.70819722
0.13000001 833502.46708830 16378.32425028
0.13100001 824403.11098221 19587.81884026
0.13200001 815332.18073728 26025.40443598
0.13300001 806290.68126849 16206.44345752
0.13400001 797277.34610860 20988.32712582
0.13500001 788295.53874842 19297.47569840
0.13600001 779344.93257725 16015.53911961
0.13700001 770427.98406392 19137.43202654
0.13800001 761543.83514798 20641.64662506
0.13900001 752697.62712621 17387.31600657
0.14000001 743885.90350897 23599.78140180
0.14100001 735112.30747351 20355.26075396
0.14200001 726375.84027725 18696.91501058
0.14300001 717681.56499681 17052.11478863
0.14400001 709023.41235144 23131.88991909
0.14500001 700410.29936053 24542.37804731
0.14600001 691837.40586823 25933.52638237
0.14700001 683310.54626658 30338.98968552
0.14800001 674825.37130871 28656.46074460
0.14900001 666384.78228027 14993.65830872
0.15000001 657990.94358023 16393.84513281
0.15100001 649643.73453813 17774.25341564
0.15200001 641345.02763417 16190.75598662
0.15300001 633094.65624323 17549.38469920
0.15400001 624891.08333574 15981.59021050
0.15500001 616739.53795213 17318.04704299
0.15600001 608636.66496670 15766.73355007
0.15700001 600588.70302748 25621.11528039
0.15800001 592587.96437634 16959.86834093
0.15900001 584643.14522450 16837.72337722
0.16000001 576749.22995231 15321.34401689
0.16100001 568912.70790116 17971.95329095
0.16200001 561128.07404302 15091.54026380
0.16300001 553400.04645996 17697.73432126
0.16400001 545727.15718984 21610.79644495
0.16500001 538111.12901173 17418.65806847
0.16600001 530551.51081320 14619.34757068
0.16700001 523048.87696836 22407.41494728
0.16800001 515603.19748379 18298.75834270
0.16900001 508217.76733424 12959.55367895
0.17000001 500890.36633943 16702.19005426
0.17100001 493622.16348381 16556.08814505
0.17200001 486413.36213909 12622.42734358
0.17300001 479264.80847448 15010.57451029
0.17400001 472177.63827780 12394.66359014
0.17500001 465150.03977758 12279.96163008
0.17600001 458182.06176544 19463.57490304
0.17700001 451277.74885372 19278.58634157
0.17800001 444434.25254387 19092.89639108
0.17900001 437652.44874592 14179.94000914
0.18000001 430933.56766793 11699.84691483
0.18100001 424278.29953635 23165.59624895
0.18200001 417682.67274113 14905.00688085
0.18300001 411152.66628060 12482.59553795
0.18400001 404684.16872088 15721.98069752
0.18500001 398280.03545420 12223.21486554
0.18600001 391938.74777681 14292.04711289
0.18700001 385660.94660852 13050.76704981
0.18800001 379446.12332151 15060.21734617
0.18900001 373297.34002046 15958.46203987
0.19000001 367208.38299134 15780.78100468
0.19100001 361187.99531690 15603.32213495
0.19200001 355228.10644863 16454.16666818
0.19300001 349334.80228956 12198.77187238
0.19400001 343504.36635305 11052.25350967
0.19500001 337738.71626726 10922.47060023
0.19600001 332035.65783298 10792.81956789
0.19700001 326397.55374718 15510.41248705
0.19800001 320823.60439812 11491.90205263
0.19900001 315314.21406126 10405.36955578
0.20000001 309866.90916365 11210.98530338
0.20100001 304485.22202552 11071.08319609
0.20200001 299165.81931478 10020.55959156
0.20300001 293911.15576584 14389.89086643
0.20400001 288719.79128694 12429.38760239
0.20500001 283590.98563279 10515.55424430
0.20600001 278526.12474013 11242.70755656
0.20700001 273523.99600621 8533.94907879
0.20800001 268584.71929709 11788.18388718
0.20900001 263710.32223730 12460.31331473
0.21000001 258896.23111919 8194.06610228
0.21100001 254144.56628628 12930.87614393
0.21200001 249454.99210372 10361.11358684
0.21300001 244827.23870892 8644.85020750
0.21400001 240262.21056161 10072.99365401
0.21500001 235758.86393511 12221.74008421
0.21600001 231315.18776858 8282.24068963
0.21700001 226933.36459928 8162.79351057
0.21800001 222612.16841186 8044.09108589
0.21900001 218350.04012559 7926.10683132
0.22000001 214147.87059513 8518.80269506
0.22100001 210007.94032978 8391.91769238
0.22200001 205926.02537493 8265.87104940
0.22300001 201903.09581385 6783.94434013
0.22400001 197937.37966037 8684.50294326
0.22500001 194033.23139727 8551.04491203
0.22600001 190185.31844040 6475.81039912
0.22700001 186396.12021931 8287.17189684
0.22800001 182663.54125009 9411.73940799
0.22900001 178987.64699532 6175.07411336
0.23000001 175368.55029800 6076.52055520
0.23100001 171807.31012434 7772.56307761
0.23200001 168299.88271610 5882.08117911
0.23300001 164849.25274122 9257.93447180
0.23400001 161453.64032182 5691.24109051
0.23500001 158111.34450562 7276.28441829
0.23600001 154824.30501102 6604.80516416
0.23700001 151590.86762059 6494.15307603
0.23800001 148411.02289654 6916.69604924
0.23900001 145284.11649651 6276.27412951
0.24000001 142209.55223602 5140.87555650
0.24100001 139188.21570245 7073.54545659
0.24200001 136217.90957094 5461.65734259
0.24300001 133299.08710320 6830.24554626
0.24400001 130430.40884023 6231.31307711
0.24500001 127612.57002405 5179.79446230
0.24600001 124844.79473278 5088.04985003
0.24700001 122127.02436334 4997.43807336
0.24800001 119457.36153127 5800.25246354
0.24900001 116835.95542083 4819.48338911
0.25000001 114263.43192282 5592.62394004
0.25100001 111737.85274911 5068.42924048
0.25200001 109260.48347648 4975.72265292
0.25300001 106829.77681712 4884.25762716
0.25400001 104444.61814578 5992.51024963
0.25500001 102105.28752891 3920.84322661
0.25600001 99811.62461621  4617.28597320
0.25700001 97562.45637606  4908.36741251
0.25800001 95357.73442331  5927.43705220
0.25900001 93196.94313974  3998.14904987
0.26000001 91079.92551982  5348.66887923
0.26100001 89003.99252107  4197.42848590
0.26200001 86972.92812720  5146.62326545
0.26300001 84982.33715334  4711.42099471
0.26400001 83032.97818611  3300.56103907
0.26500001 81125.59890553  3884.29385940
0.26600001 79257.67767084  4761.40521138
0.26700001 77430.92203023  4046.54017678
0.26800001 75643.39107155  3357.43207159
0.26900001 73894.29728144  5087.62260858
0.27000001 72184.46741891  3814.58836127
0.27100001 70512.62671619  4315.37295925
0.27200001 68878.67231161  3102.63994110
0.27300001 67281.38612398  3594.84463073
0.27400001 65719.69534845  3524.21882984
0.27500001 64196.40138702  3189.27737184
0.27600001 62706.84944084  3908.20457636
0.27700001 61254.08339357  3065.15447808
0.27800001 59835.10709294  3004.91922042
0.27900001 58450.99588323  2700.43613761
0.28000001 57100.40890856  3369.49528917
0.28100001 55783.09023069  2359.62482844
0.28200001 54499.08855459  2776.18370237
0.28300001 53247.32321981  3175.67050713
0.28400001 52027.93298047  2669.03308823
0.28500001 50840.13246855  2181.04178613
0.28600001 49682.78542346  3208.26602057
0.28700001 48556.27776012  3775.73633734
0.28800001 47459.52302715  3497.52971503
0.28900001 46394.00502871  2421.76717713
0.29000001 45356.23935022  2969.69991202
0.29100001 44348.54725913  2525.20640046
0.29200001 43368.68384499  2096.65911973
0.29300001 42416.71035899  2057.63471691
0.29400001 41492.20322387  2019.63308752
0.29500001 40595.72864950  1982.69548110
0.29600001 39724.93994079  1946.72077395
0.29700001 38880.12729452  1911.73594957
0.29800001 38061.74955000  1707.06954813
0.29900001 37268.70243990  2683.34670270
0.30000001 36500.52594184  2636.79811886
0.30100001 35757.79632208  2915.69085013
0.30200001 35037.89598383  2070.21418221
0.30300001 34342.23970059  2035.80806583
0.30400001 33670.78319860  1848.52608512
0.30500001 33020.90446292  1515.65958660
0.30600001 32393.78958519  1790.08089723
0.30700001 31789.43305404  1615.53906429
0.30800001 31206.58017327  1591.06756546
0.30900001 30645.00965383  1709.99161964
0.31000001 30105.12152458  1404.40398561
0.31100001 29584.30253252  1661.45450889
0.31200001 29084.82785958  2048.29909899
0.31300001 28604.47633186  1751.45216872
0.31400001 28145.13035502  1462.84321946
0.31500001 27703.77748963  1313.15911518
0.31600002 27281.30954878  1686.39422960
0.31700002 26876.78742805  1538.42738522
0.31800002 26490.71181156  1521.09674424
0.31900002 26122.45541226  1880.81687874
0.32000002 25771.28997674  1364.97643825
0.32100002 25437.54326243  1842.95009663
0.32200002 25120.29702322  1338.78629324
0.32300002 24818.68740090  1206.18826480
0.32400002 24533.42271052  1315.60485515
0.32500002 24263.31282369  2135.65689587
0.32600002 24009.10762980  1530.94082051
0.32700002 23769.46370903  1286.40343685
0.32800002 23545.20397493  1394.34704542
0.32900002 23334.02399080  1270.53766646
0.33000002 23138.59912268  1608.36410118
0.33100002 22954.34635443  1486.06445336
0.33200002 22785.92139855  1251.97251053
0.33300002 22629.23401879  1133.72467803
0.33400002 22486.11001553  1355.91249815
0.33500002 22354.83603975  1464.68892669
0.33600002 22235.81233995  1573.62851382
0.33700002 22127.96806731  1682.83205121
0.33800002 22033.06504528  1904.64839804
0.33900002 21948.32966589  2014.85675875
0.34000002 21875.11487142  1342.69461440
0.34100002 21812.55779156  1454.67954801
0.34200002 21761.38305604  1455.51017463
0.34300002 21718.94424891  1568.97660685
0.34400002 21687.41829107  1234.55634469
0.34500002 21665.02110607  1236.85611352
0.34600002 21653.30510377  1577.87641764
0.34700002 21648.61067163  1243.06328364
0.34800002 21654.36604552  1360.32733941
0.34900002 21668.37461594  1251.34869334
0.35000002 21690.92051418  1370.43242299
0.35100002 21721.62927418  1376.28249600
0.35200002 21759.52454502  1267.38356715
0.35300002 21805.52093623  1736.80982483
0.35400002 21859.38472636  1280.41352099
0.35500002 21920.07494415  1287.58526320
0.35600002 21987.30894815  1177.42044994
0.35700002 22061.55228987  1184.70541408
0.35800002 22142.84079655  1669.34884672
0.35900002 22230.06877557  1200.42377074
0.36000002 22323.99322149  1329.72871922
0.36100002 22422.88829527  1339.31918132
0.36200002 22528.86262312  1594.70561631
0.36300002 22638.43746061  1606.87636707
0.36400002 22754.11932770  1245.78809220
0.36500002 22874.39566170  2134.86744823
0.36600002 23000.13946580  1772.62083260
0.36700002 23130.18808704  1659.82237575
0.36800002 23265.95240667  1802.87873739
0.36900002 23405.10488389  1428.88172085
0.37000002 23547.46577990  1572.49983927
0.37100002 23694.24667879  2115.42244369
0.37200002 23845.30629102  2001.21742527
0.37300002 23999.23120398  1615.62832118
0.37400002 24157.64025189  2038.30099281
0.37500002 24318.11394647  2057.31253733
0.37600002 24482.77966374  1522.95138113
0.37700002 24649.09103046  2096.40529145
0.37800002 24819.04661238  1693.15544010
0.37900002 24991.39539052  1566.96056522
0.38000002 25166.22083231  2013.54942418
0.38100002 25342.76060558  2032.99635209
0.38200002 25521.83056326  1759.47508238
0.38300002 25702.56276027  2516.79506472
0.38400002 25885.76073490  1494.90275326
0.38500002 26069.56153233  1660.37045265
0.38600002 26256.01648856  1524.16182937
0.38700002 26442.81774099  2000.66368507
0.38800002 26630.84938532  1553.91013525
0.38900002 26820.30151758  2510.38034098
0.39000002 27011.28013062  2376.31748207
0.39100002 27202.16653801  1919.38496186
0.39200002 27394.49439977  1614.90552137
0.39300002 27586.99773546  2608.62662945
0.39400002 27780.80575842  2139.81666492
0.39500002 27974.00439367  1993.98712765
0.39600002 28167.48650226  1845.11129075
0.39700002 28360.76806614  1693.13793377
0.39800002 28555.25212693  2392.64468908
0.39900002 28748.61247655  2242.39187941
0.40000002 28941.70108566  1914.92774306
0.40100002 29134.53938389  2283.85665051
0.40200002 29327.95352827  2482.02482469
0.40300002 29519.74257352  2862.23437554
0.40400002 29711.08803902  2165.93842067
0.40500002 29901.78905655  1821.01903982
0.40600002 30091.82638444  2571.94852294
0.40700002 30280.85761251  1853.18857369
0.40800002 30469.08906183  2056.20657276
0.40900002 30655.50258098  2262.37619767
0.41000002 30841.57460919  2091.52148122
0.41100002 31026.09113379  2684.37753209
0.41200002 31208.66635751  2706.72776144
0.41300002 31390.26755429  2729.06999048
0.41400002 31570.28173828  2554.82517073
0.41500002 31749.11173142  1981.14466591
0.41600002 31925.16856430  2196.61132715
0.41700002 32100.31279363  2415.22764904
0.41800002 32274.52719035  2231.29954303
0.41900002 32444.82497148  2248.42647706
0.42000002 32614.07432783  3089.36833709
0.42100002 32781.78933546  2905.12230857
0.42200002 32947.32977852  2508.60980821
0.42300002 33110.20460282  2526.97093503
0.42400002 33271.00463043  2969.43730397
0.42500002 33429.95424915  2136.17417775
0.42600002 33585.22591090  2796.47396799
0.42700002 33739.50963709  3249.11493202
0.42800002 33890.80960882  2617.04844201
0.42900002 34040.27546438  2634.71744579
0.43000002 34187.25004371  3315.30873009
0.43100002 34330.21123067  2891.97713112
0.43200002 34471.49224580  3806.16999669
0.43300002 34609.76562849  3604.95335869
0.43400002 34745.78351386  2720.59497806
0.43500002 34878.51325899  2965.37133780
0.43600002 35009.56696985  2524.36494599
0.43700002 35136.78187316  3924.42735339
0.43800002 35260.39406521  3715.03529476
0.43900002 35382.26861366  2802.27580700
0.44000002 35500.53072582  3757.37635008
0.44100002 35616.43861532  2597.50699131
0.44200002 35729.15367810  2611.62261187
0.44300002 35839.09980980  3341.63782463
0.44400002 35945.26729937  2639.28137653
0.44500002 36047.81186827  2893.91847393
0.44600002 36148.04248398  2423.72636341
0.44700002 36245.38816772  4140.67334051
0.44800002 36338.37840698  3426.34586237
0.44900002 36429.73209257  3442.60984590
0.45000002 36517.51723345  2964.49218951
0.45100002 36600.83019661  3225.99732642
0.45200002 36681.91124959  2741.78958629
0.45300002 36759.10095026  3254.28336136
0.45400002 36833.69968712  3016.68014734
0.45500002 36904.83223948  3534.00690274
0.45600002 36972.41856688  2534.45941288
0.45700002 37036.68978469  3053.30485056
0.45800002 37097.05043640  3320.37165668
0.45900002 37154.43284449  3076.38718533
0.46000002 37209.19447281  2830.31751172
0.46100002 37259.33130170  4131.31485054
0.46200002 37307.06422987  2590.97573356
0.46300002 37350.93217104  3639.47500324
0.46400002 37391.03585179  2608.02487427
0.46500002 37428.69652647  3139.51921344
0.46600002 37462.12368947  3411.48845547
0.46700002 37492.23544689  3421.54156905
0.46800002 37519.68620196  2639.51004941
0.46900002 37542.92919819  3440.80962410
0.47000002 37562.50537286  4511.44492163
0.47100002 37579.29018653  3192.73664557
0.47200002 37592.37884024  3200.61528616
0.47300002 37602.82234383  4010.34119305
0.47400002 37608.33923684  2947.55372739
0.47500002 37611.75079230  3222.57496063
0.47600002 37611.94884423  4305.81610777
0.47700002 37607.74538529  4044.71320790
