# SAXS profile: number of points = 501, q_min = 0, q_max = 0.5, delta_q = 0.001
#    q    intensity    error
0.00000000 1628779.37420969 268.74859674
0.00100000 1628712.34735918 537.47508739
0.00200000 1628511.20726418 1025.96209306
0.00300000 1628176.13972106 1074.59629050
0.00400000 1627706.98305737 1342.85831205
0.00500000 1627104.19752226 2050.15137003
0.00600000 1626367.56080440 1878.45460920
0.00700000 1625497.62581160 2535.77640165
0.00800000 1624493.96172123 2850.98702319
0.00900000 1623357.80703516 2922.04417757
0.01000000 1622088.37606301 2676.44593607
0.01100000 1620686.89569370 3500.68384712
0.01200000 1619152.76234142 4736.02203749
0.01300000 1617487.43326680 3736.39613564
0.01400000 1615690.20354320 3635.30311913
0.01500000 1613762.62764015 5422.24267032
0.01600000 1611703.70527240 5753.78248504
0.01700000 1609515.50589285 4780.26126694
0.01800000 1607197.69916222 6412.71910821
0.01900000 1604750.80496036 5295.67789532
0.02000000 1602175.50729426 7065.59430678
0.02100000 1599473.34885077 6861.74097767
0.02200000 1596642.66808139 6610.10094617
0.02300000 1593686.42928922 6884.72568791
0.02400000 1590604.30247143 5964.76640625
0.02500000 1587397.43961911 6190.85029725
0.02600000 1584066.41085878 8340.11003463
0.02700000 1580611.91270958 7302.42737118
0.02800000 1577033.85301213 9604.13660529
0.02900000 1573335.10095512 9204.01076318
0.03000000 1569515.53835706 8028.07234771
0.03100000 1565575.61972555 12023.62131274
0.03200000 1561516.20633026 10821.30780828
0.03300000 1557340.08836063 11119.40874350
0.03400000 1553045.19151354 9784.18515798
0.03500000 1548634.98824939 11707.68105180
0.03600000 1544109.20067021 13711.69033562
0.03700000 1539469.43351357 14039.96188296
0.03800000 1534717.27942421 12569.33510019
0.03900000 1529853.51860885 18358.24307348
0.04000000 1524877.36779010 14066.99436971
0.04100000 1519792.73479332 13404.57254240
0.04200000 1514599.77970549 10746.08593555
0.04300000 1509298.60334429 10957.50836890
0.04400000 1503892.91172793 10151.27762561
0.04500000 1498382.18974348 12406.60510755
0.04600000 1492766.77982904 11576.40691573
0.04700000 1487049.86386639 14989.46332490
0.04800000 1481231.54967284 11975.75763631
0.04900000 1475314.74256731 12171.34719273
0.05000000 1469298.54654302 13488.16128536
0.05100000 1463186.66254828 12554.14214949
0.05200000 1456976.94753968 12741.26399999
0.05300000 1450675.32607478 12925.51775789
0.05400000 1444279.44647751 13106.83658801
0.05500000 1437793.57354203 16908.45321362
0.05600000 1431216.30712911 15907.96999607
0.05700000 1424552.27177508 14872.32641155
0.05800000 1417800.19773288 17566.54527013
0.05900000 1410962.27285018 19047.99157313
0.06000000 1404040.85871195 16701.06679463
0.06100000 1397037.30867323 12992.44757782
0.06200000 1389952.53371434 15762.06246909
0.06300000 1382789.47229776 18584.69137661
0.06400000 1375546.01979084 16093.88918421
0.06500000 1368228.89337232 16254.56001362
0.06600000 1360835.22832638 13676.39468458
0.06700000 1353368.67248898 15184.79721596
0.06800000 1345831.33077706 15322.29041812
0.06900000 1338224.51925958 16861.62973211
0.07000000 1330547.70617454 18421.43385463
0.07100000 1322805.58409936 17143.56117289
0.07200000 1314996.83363482 20158.90240400
0.07300000 1307126.37608744 15960.01379984
0.07400000 1299193.65279548 17539.11513469
0.07500000 1291200.52235302 16191.65530925
0.07600000 1283147.60619589 16302.39110098
0.07700000 1275040.03395251 16409.76600640
0.07800000 1266876.27923606 22518.72691946
0.07900000 1258658.01520822 18124.67626911
0.08000000 1250389.42530245 22788.34834516
0.08100000 1242070.30595443 19860.70512404
0.08200000 1233701.88094356 24575.34262160
0.08300000 1225286.55028271 20070.19463557
0.08400000 1216825.88120325 15514.53071357
0.08500000 1208323.21005827 20263.58118395
0.08600000 1199777.44123628 17222.80597758
0.08700000 1191192.39506902 18868.48842391
0.08800000 1182566.52884238 17365.99029162
0.08900000 1173906.04316816 25356.37172341
0.09000000 1165209.80035630 17495.62597422
0.09100000 1156480.16176300 20747.25507676
0.09200000 1147717.84097956 24015.99695093
0.09300000 1138926.55338524 19270.63818885
0.09400000 1130104.39295896 17714.38719216
0.09500000 1121256.02972340 16146.08758693
0.09600000 1112382.19142206 24277.74246903
0.09700000 1103485.82177695 21087.61504554
0.09800000 1094567.27427771 17879.75726599
0.09900000 1085629.20152285 24426.65818287
0.10000000 1076670.70146756 17942.71808375
0.10100000 1067694.72858605 21236.44915036
0.10200000 1058703.59537481 21264.06271329
0.10300000 1049697.92821295 21287.87498556
0.10400000 1040680.49111781 19668.86220745
0.10500000 1031653.93188040 21324.28777526
0.10600001 1022614.41287549 18054.25830883
0.10700001 1013570.19188658 19703.80545749
0.10800001 1004517.40441398 22993.40446914
0.10900001 995460.95263252 24637.65973724
0.11000001 986400.73321711 21350.64487545
0.11100001 977338.82167230 18061.22227471
0.11200001 968278.22456033 18053.54834684
0.11300001 959216.62879924 16402.60512471
0.11400001 950159.35839468 18029.27467444
0.11500001 941105.90849413 16375.24357888
0.11600001 932057.90474134 21264.90209807
0.11700001 923017.83498402 27773.60796267
0.11800001 913984.26450782 27734.85381275
0.11900001 904961.27203138 17918.23403020
0.12000001 895949.28932620 17887.62840399
0.12100001 886950.87497805 16231.20177672
0.12200001 877965.53159826 21058.00426745
0.12300001 868995.84640880 17779.65585520
0.12400001 860042.10459094 17738.36924298
0.12500001 851106.12887676 16085.90659375
0.12600001 842191.02480330 22461.23568996
0.12700001 833295.83411848 19199.13692288
0.12800001 824421.30154766 19143.06352413
0.12900001 815570.21640100 17493.98196633
0.13000001 806742.62891648 19022.99208650
0.13100001 797939.96821907 15799.21211547
0.13200001 789164.92403549 15743.84097668
0.13300001 780418.29445075 17255.04930376
0.13400001 771698.82409363 18752.28230956
0.13500001 763010.40772830 17121.95435669
0.13600001 754351.77288357 20152.50856279
0.13700001 745726.30018300 21611.14919834
0.13800001 737132.70254929 15369.21757290
0.13900001 728575.31944950 19890.10715895
0.14000001 720052.00708355 19797.83086844
0.14100001 711565.15871647 16671.97245503
0.14200001 703114.64644137 15081.80987751
0.14300001 694704.79308260 21007.87393371
0.14400001 686330.47498961 14927.68853516
0.14500001 677999.74391349 19302.65361976
0.14600001 669707.38891725 19197.16320893
0.14700001 661460.30883041 16152.86150367
0.14800001 653253.22151973 20440.29426570
0.14900001 645089.76530483 18868.87652541
0.15000001 636971.27190382 17312.87998722
0.15100001 628898.53146227 15772.77591331
0.15200001 620872.01259278 17098.81603365
0.15300001 612892.57980810 16989.38311399
0.15400001 604958.99453194 18284.88647261
0.15500001 597075.52145531 18163.03821984
0.15600001 589238.71613596 20814.85862986
0.15700001 581455.77141759 15158.55267629
0.15800001 573718.40853348 15051.50315829
0.15900001 566035.27503124 20377.27086294
0.16000001 558401.20019774 25622.24028051
0.16100001 550822.61271724 17400.48715711
0.16200001 543294.55657552 19925.32880300
0.16300001 535821.40268303 14499.32784108
0.16400001 528401.66499861 22232.50110440
0.16500001 521036.57034191 14271.19233543
0.16600001 513726.79283468 16729.51379851
0.16700001 506471.33658355 16592.00176986
0.16800001 499271.45754695 16453.49166033
0.16900001 492129.90786781 16314.10721614
0.17000001 485044.17152543 14929.66030453
0.17100001 478016.00895762 13566.09497483
0.17200001 471045.64770071 14668.36216208
0.17300001 464133.16997680 15748.03920101
0.17400001 457279.98943544 18005.40043434
0.17500001 450484.96303862 17839.20537883
0.17600001 443747.23939595 16494.08566735
0.17700001 437071.62727872 14003.77559942
0.17800001 430454.28247518 15025.00743946
0.17900001 423896.82269525 18312.34360539
0.18000001 417400.39891220 11332.42136575
0.18100001 410965.26361772 12341.28744940
0.18200001 404587.97744225 14437.72265703
0.18300001 398274.06390716 10992.36468311
0.18400001 392019.85164151 11966.40653666
0.18500001 385827.57840073 11841.04894051
0.18600001 379696.65478441 11715.54083686
0.18700001 373626.22578203 13697.13808429
0.18800001 367617.80148770 12506.35819749
0.18900001 361672.57802283 13399.96964886
0.19000001 355785.01323408 10193.24111077
0.19100001 349964.54456080 13102.67316746
0.19200001 344201.51899166 11957.56133478
0.19300001 338503.40430520 10835.49448381
0.19400001 332866.26902711 11683.60659495
0.19500001 327291.61744583 12509.08620990
0.19600001 321777.46010865 12361.08171421
0.19700001 316326.30070056 13152.84820470
0.19800001 310936.61336536 12065.89585186
0.19900001 305609.80736894 11001.95358523
0.20000001 300342.86399592 12677.47288842
0.20100001 295139.54252943 9837.00141743
0.20200001 289996.11243962 8830.38204114
0.20300001 284915.12977986 9590.24372167
0.20400001 279895.52454137 11188.82412239
0.20500001 274936.43069172 11044.19694291
0.20600001 270039.35734715 8384.72244196
0.20700001 265202.45323764 9929.18031856
0.20800001 260426.64083701 10613.68824902
0.20900001 255713.55644883 9665.97289069
0.21000001 251058.06378713 8740.58690394
0.21100001 246463.36970791 8621.28907994
0.21200001 241928.64668957 10821.46887800
0.21300001 237453.70456987 9146.71713245
0.21400001 233038.87157940 7515.50396374
0.21500001 228684.15934767 7409.36711316
0.21600001 224387.34851592 9494.95110136
0.21700001 220149.71893846 7918.78576461
0.21800001 215970.87633443 11351.42979684
0.21900001 211849.06184056 11185.63099406
0.22000001 207785.13032736 8954.50061485
0.22100001 203780.90036057 10178.85645430
0.22200001 199833.25382399 8689.74945343
0.22300001 195942.26976778 6583.66057551
0.22400001 192106.76916472 7131.96414248
0.22500001 188330.80717873 6384.41466526
0.22600001 184608.49793029 8171.69554731
0.22700001 180943.44213955 9282.39902072
0.22800001 177332.84485185 6091.38350872
0.22900001 173777.06402518 6594.83989163
0.23000001 170276.16873174 9440.11124093
0.23100001 166831.05048563 7547.43708091
0.23200001 163437.92280199 6283.37123929
0.23300001 160099.44207542 7305.33788740
0.23400001 156814.14083155 6633.23847090
0.23500001 153580.33190859 5436.74400670
0.23600001 150399.95991735 5881.39071074
0.23700001 147271.44316016 5783.34984644
0.23800001 144193.93052477 5686.28791920
0.23900001 141168.17097533 7114.87615369
0.24000001 138192.63814110 7993.06256816
0.24100001 135268.91042607 5892.31401687
0.24200001 132394.09461684 6756.07096787
0.24300001 129568.96102402 6639.11387692
0.24400001 126792.14105274 6523.45596575
0.24500001 124064.34973075 6866.96208243
0.24600001 121385.03411620 7195.70516280
0.24700001 118753.89272431 5742.93852382
0.24800001 116168.99799138 4338.91228024
0.24900001 113630.94969502 4687.27689666
0.25000001 111139.92055674 5439.74366899
0.25100001 108693.92215802 4108.63045195
0.25200001 106294.80862496 6050.83226724
0.25300001 103940.77747597 5544.20133287
0.25400001 101630.16765954 5442.29573565
0.25500001 99364.23502324  4578.70416650
0.25600001 97142.00926536  3744.82463436
0.25700001 94962.87971492  4042.56998073
0.25800001 92826.42590931  3966.93749893
0.25900001 90732.64220056  4246.28785590
0.26000001 88681.34344530  3471.87476016
0.26100001 86669.08328305  3746.70464761
0.26200001 84700.00936409  4009.69863302
0.26300001 82770.06073397  4588.77238422
0.26400001 80880.25675316  4179.48746549
0.26500001 79030.64002322  3468.65495475
0.26600001 77218.93625914  4638.92781528
0.26700001 75447.25400686  3942.87368098
0.26800001 73713.27635351  4164.06317826
0.26900001 72016.27706153  3499.99123082
0.27000001 70357.34650215  4004.03677892
0.27100001 68734.66360280  3084.81184848
0.27200001 67148.80918617  3024.71825293
0.27300001 65598.09289607  4044.12261843
0.27400001 64081.90090441  2907.71639114
0.27500001 62602.59121619  3628.44635861
0.27600001 61155.56464865  3811.52074711
0.27700001 59744.60273853  4235.29508858
0.27800001 58365.76519969  2442.60738921
0.27900001 57020.89311485  2634.36538658
0.28000001 55707.88096596  2817.70475262
0.28100001 54427.17882432  2992.95070520
0.28200001 53178.54916840  2483.17247095
0.28300001 51961.11987408  2434.89819254
0.28400001 50774.83774432  2170.62441631
0.28500001 49618.86979299  2128.64961487
0.28600001 48492.18576312  2922.62417428
0.28700001 47395.59854293  2252.23894936
0.28800001 46327.30792645  3213.26222987
0.28900001 45288.94738242  3152.11088702
0.29000001 44277.78401032  2125.99789989
0.29100001 43295.79060653  2085.99129016
0.29200001 42339.95047230  2233.00909361
0.29300001 41411.44939406  2191.49400567
0.29400001 40509.21866479  1971.78631185
0.29500001 39634.50005682  1935.74907441
0.29600001 38783.81464999  2418.94663423
0.29700001 37958.67179220  1866.42798038
0.29800001 37158.78802295  1666.57172172
0.29900001 36383.43679338  1637.25473321
0.30000001 35631.97128029  1930.54029536
0.30100001 34904.76375622  1897.42304761
0.30200001 34199.87981984  2020.69999482
0.30300001 33518.42353251  2139.81625962
0.30400001 32860.00462077  2104.68339560
0.30500001 32222.69045424  1479.02156187
0.30600001 31607.44240330  1892.17962905
0.30700001 31013.89728394  2149.26318353
0.30800001 30440.91615345  1693.12383661
0.30900001 29888.59436059  1528.80167392
0.31000001 29357.43658788  1780.38182616
0.31100001 28844.20165341  1484.89957142
0.31200001 28351.95956541  1863.57439047
0.31300001 27877.75317999  1575.65068433
0.31400001 27423.93391001  2073.24950176
0.31500001 26987.89791801  1535.07170626
0.31600002 26569.48465024  2147.74439339
0.31700002 26168.69161095  1747.54530852
0.31800002 25785.56429285  1357.22324082
0.31900002 25419.75710362  1464.17807850
0.32000002 25070.19046473  1569.26864644
0.32100002 24737.52781021  1792.23397471
0.32200002 24421.12492352  1774.80533785
0.32300002 24119.59977999  1172.21260481
0.32400002 23833.78104239  1975.22469742
0.32500002 23562.63975960  1267.43445268
0.32600002 23306.85188023  1600.48159440
0.32700002 23065.10878025  1134.80340572
0.32800002 22838.30580502  1239.77748933
0.32900002 22624.10730759  1567.85071066
0.33000002 22424.78507545  1447.40782124
0.33100002 22236.68773040  1218.12581155
0.33200002 22063.72667642  1102.08319968
0.33300002 21902.17573993  1426.48877349
0.33400002 21753.81238652  1967.63242354
0.33500002 21616.78170596  1634.22877436
0.33600002 21491.68945111  1086.40495320
0.33700002 21377.20806700  1300.58940039
0.33800002 21275.40025880  1190.03956983
0.33900002 21183.18942181  1512.47979635
0.34000002 21102.65755896  1295.28118231
0.34100002 21032.07374975  1078.94543446
0.34200002 20972.51340905  1726.45738560
0.34300002 20921.62284197  1187.51136875
0.34400002 20880.97755556  1404.76783158
0.34500002 20849.42480023  1298.50223806
0.34600002 20828.27008327  1084.11150918
0.34700002 20813.81206219  1629.72156165
0.34800002 20809.58960978  1307.25848120
0.34900002 20813.38719037  1529.78403095
0.35000002 20825.30435865  1535.03325698
0.35100002 20845.36942682  1761.01689258
0.35200002 20872.49557685  1215.71856245
0.35300002 20907.23510586  1221.19166037
0.35400002 20949.77896277  1115.57578261
0.35500002 20999.11909825  1569.89421814
0.35600002 21054.62364102  1578.46520913
0.35700002 21117.00967438  1247.38182055
0.35800002 21186.28159877  1597.23384538
0.35900002 21261.34168310  1492.54625685
0.36000002 21343.17540781  1386.87960369
0.36100002 21429.69236215  1279.99558542
0.36200002 21523.10181190  1406.31953900
0.36300002 21620.03980647  1652.63592109
0.36400002 21723.08273422  1308.27271964
0.36500002 21830.67178507  1677.90551288
0.36600002 21943.59857102  1570.39370612
0.36700002 22060.58914812  1461.29349439
0.36800002 22183.53931782  1350.64485534
0.36900002 22309.82221489  1733.47326821
0.37000002 22439.14420391  1248.73843410
0.37100002 22572.98103138  1385.52964134
0.37200002 22710.88656276  1651.87641239
0.37300002 22851.80423059  1794.78078929
0.37400002 22997.13875568  1681.66585117
0.37500002 23144.66736440  1696.96709155
0.37600002 23296.25894696  1449.14385644
0.37700002 23449.52654926  1861.42350566
0.37800002 23606.72027579  1878.85895576
0.37900002 23766.02794320  1490.13002263
0.38000002 23928.02845628  1367.48689106
0.38100002 24091.91830550  1794.60707959
0.38200002 24258.14013417  1951.08230342
0.38300002 24426.21185242  1688.33984322
0.38400002 24596.83973169  1562.51431798
0.38500002 24767.92206786  1864.28158237
0.38600002 24942.15654131  2171.83838372
0.38700002 25116.77327108  1900.33515572
0.38800002 25292.76017196  1918.58241374
0.38900002 25469.98285017  1936.99228752
0.39000002 25649.19499823  1805.19042950
0.39100002 25828.38132654  2278.06334093
0.39200002 26008.89895326  1533.22466593
0.39300002 26189.99774944  1857.39472839
0.39400002 26372.40922239  2187.59144864
0.39500002 26554.54724998  2208.27625393
0.39600002 26737.12039178  1910.63471372
0.39700002 26919.53970746  2571.35455468
0.39800002 27103.25038615  2595.40737994
0.39900002 27286.25474630  2455.76304352
0.40000002 27469.31948997  2478.41946841
0.40100002 27651.81013622  2167.62549928
0.40200002 27835.53126649  1850.92373926
0.40300002 28017.79039140  1697.87817816
0.40400002 28199.50430638  1884.43196456
0.40500002 28381.03242903  2246.92644387
0.40600002 28562.11920469  2092.46095208
0.40700002 28742.35557903  2286.74191822
0.40800002 28922.28442233  2129.25868006
0.40900002 29100.28339126  2147.60101603
0.41000002 29278.32882943  2346.51177522
0.41100002 29455.04355697  2548.45048930
0.41200002 29630.20056411  1835.59101192
0.41300002 29804.58733416  2406.12444950
0.41400002 29977.56997868  3172.37649331
0.41500002 30149.82677914  3010.15884826
0.41600002 30319.31431034  2275.76783997
0.41700002 30488.35442524  2102.78190435
0.41800002 30656.63158583  2697.47714105
0.41900002 30821.33043651  2912.61586426
0.42000002 30985.13185021  2152.38228596
0.42100002 31147.99699162  3154.66928480
0.42200002 31308.72738745  2185.19273155
0.42300002 31467.22349175  2201.44705980
0.42400002 31623.89269076  2217.62558002
0.42500002 31778.94825060  3249.07982310
0.42600002 31930.86170154  2454.20614668
0.42700002 32081.95158083  2677.55980582
0.42800002 32230.32665675  2488.82594237
0.42900002 32377.31814906  2506.00454349
0.43000002 32521.89687697  2312.79480600
0.43100002 32662.82260890  2116.55100535
0.43200002 32802.61448352  2556.63589400
0.43300002 32939.62829174  2787.68087443
0.43400002 33074.60758469  2373.93007189
0.43500002 33206.87671676  2388.90282421
0.43600002 33337.54448510  2622.33137347
0.43700002 33464.61881694  2858.21322860
0.43800002 33588.70301490  2875.36105785
0.43900002 33711.32176885  2447.44207640
0.44000002 33830.47271323  2909.25163884
0.44100002 33947.80264565  2475.81336428
0.44200002 34062.12621059  2716.11407275
0.44300002 34174.09234022  2731.19358926
0.44400002 34282.80842869  2517.21532817
0.44500002 34387.97388593  2990.72223059
0.44600002 34491.18074298  2543.89715626
0.44700002 34591.78710208  2789.48184411
0.44800002 34688.75310018  2569.91639522
0.44900002 34783.96854513  2817.50158568
0.45000002 34876.13637704  2595.30781149
0.45100002 34964.10652109  2607.62318792
0.45200002 35050.13629234  3334.31962351
0.45300002 35132.89868399  3588.82577065
0.45400002 35213.12108444  2643.62519070
0.45500002 35290.36321982  2655.24705450
0.45600002 35364.12791621  2666.63219190
0.45700002 35435.21373325  2434.39929885
0.45800002 35502.61377373  2688.79058159
0.45900002 35567.31874764  4172.04668683
0.46000002 35629.89718276  2956.56900835
0.46100002 35688.19472714  3215.14961535
0.46200002 35744.16276373  2730.67544376
0.46300002 35796.54758842  2740.58381326
0.46400002 35845.69156090  3750.35565731
0.46500002 35892.53063499  2759.77681133
0.46600002 35935.67041898  4027.67013145
0.46700002 35975.74670157  3030.59704578
0.46800002 36013.29756140  2533.53560352
0.46900002 36047.13309760  2795.45530421
0.47000002 36077.67997864  4078.22113808
0.47100002 36105.54695271  3323.15469903
0.47200002 36130.11791877  3332.46158419
0.47300002 36151.99439731  2827.44761583
0.47400002 36169.71379172  2577.09222981
0.47500002 36185.38150363  4908.90908745
0.47600002 36198.18436635  3625.97229984
0.47700002 36206.97175534  3894.05999686
