# SAXS profile: number of points = 501, q_min = 0, q_max = 0.5, delta_q = 0.001
#    q    intensity    error
0.00000000 1628779.37420969 366.47535920
0.00100000 1628712.34192991 537.47508560
0.00200000 1628511.18357786 952.67907256
0.00300000 1628176.08933529 1563.04910144
0.00400000 1627706.89735648 1464.93626329
0.00500000 1627104.05338250 1903.71181781
0.00600000 1626367.34153521 1878.45435595
0.00700000 1625497.34892136 2340.71627973
0.00800000 1624493.58461850 3070.29300456
0.00900000 1623357.32958350 2435.03609847
0.01000000 1622087.79667237 4282.31196812
0.01100000 1620686.18625940 3792.40584097
0.01200000 1619151.93665719 4104.55033939
0.01300000 1617486.46393862 4076.06606890
0.01400000 1615689.06577190 4362.36067097
0.01500000 1613761.31190403 3873.02732103
0.01600000 1611702.22388199 5753.77719647
0.01700000 1609513.83466552 5214.82505825
0.01800000 1607195.80495501 7328.81320037
0.01900000 1604748.72673219 7702.79423588
0.02000000 1602173.21235012 8074.95335552
0.02100000 1599470.84370947 5806.07942590
0.02200000 1596639.90738799 6059.24872382
0.02300000 1593683.40324453 5737.26051283
0.02400000 1590601.00097946 7157.70483078
0.02500000 1587393.86832341 7429.00364304
0.02600000 1584062.51387599 7056.99882209
0.02700000 1580607.74061587 8630.11865903
0.02800000 1577029.40331374 6860.07821902
0.02900000 1573330.31058381 11327.97875632
0.03000000 1569510.40042941 12406.98028568
0.03100000 1565570.13296280 9769.15807920
0.03200000 1561510.35240543 9275.37192049
0.03300000 1557333.93036703 8736.64375212
0.03400000 1553038.70320058 8153.45356801
0.03500000 1548628.12667840 10871.36995130
0.03600000 1544101.93131869 9426.74272635
0.03700000 1539461.78328774 12284.90559878
0.03800000 1534709.14601256 10773.65870361
0.03900000 1529845.02094923 9179.07055078
0.04000000 1524868.45524491 12191.32386462
0.04100000 1519783.31363545 15319.41651175
0.04200000 1514589.89922727 12699.83689420
0.04300000 1509288.33282877 9961.30345905
0.04400000 1503882.18306573 11166.32572785
0.04500000 1498370.98807083 12406.51235769
0.04600000 1492755.11483974 19995.45569280
0.04700000 1487037.73998892 16060.00833880
0.04800000 1481218.90138663 11975.65537492
0.04900000 1475301.64470672 11064.76285034
0.05000000 1469284.87233546 12364.03277645
0.05100000 1463172.47343994 11412.74582448
0.05200000 1456962.35395488 13899.42150446
0.05300000 1450660.16011511 14100.41741365
0.05400000 1444263.66005505 19064.28120177
0.05500000 1437777.33407987 13285.06318664
0.05600000 1431199.46232114 17131.45836341
0.05700000 1424534.91661615 14872.14522368
0.05800000 1417782.32165062 12547.37413248
0.05900000 1410943.79686562 12698.49476488
0.06000000 1404021.79634155 14131.48004038
0.06100000 1397017.72873369 18189.17167812
0.06200000 1389932.29953427 13134.86084457
0.06300000 1382768.68326347 18584.41197198
0.06400000 1375524.70632736 17434.77646807
0.06500000 1368206.96751600 20317.87441804
0.06600000 1360812.74416121 15043.78559058
0.06700000 1353345.45110899 16564.94909680
0.06800000 1345807.58174997 16714.93094775
0.06900000 1338200.15212357 18266.43293170
0.07000000 1330522.67094184 21255.10066364
0.07100000 1322779.93883688 17143.22881028
0.07200000 1314970.57441965 18718.60700377
0.07300000 1307099.57362964 17410.56713653
0.07400000 1299166.11737290 19000.30535701
0.07500000 1291172.44651935 16191.30323828
0.07600000 1283118.90673588 20748.03369460
0.07700000 1275010.65593195 16409.38791126
0.07800000 1266846.26629340 15012.12895959
0.07900000 1258627.45650850 19634.58924247
0.08000000 1250358.11378650 18230.22215421
0.08100000 1242038.36695404 18332.48715637
0.08200000 1233669.21073719 24574.69183106
0.08300000 1225253.25411563 18525.83007168
0.08400000 1216792.03916369 17065.50915030
0.08500000 1208288.70555588 18704.31004008
0.08600000 1199742.25756273 15656.63719630
0.08700000 1191156.66738668 20440.24937218
0.08800000 1182530.08707367 20522.81062499
0.08900000 1173868.96210723 20601.40125262
0.09000000 1165171.98712023 17495.05820845
0.09100000 1156441.70330594 25534.23400862
0.09200000 1147678.77656952 16010.11968541
0.09300000 1138886.84624564 30510.78004469
0.09400000 1130064.15639345 16103.41498543
0.09500000 1121214.95861641 17760.04577925
0.09600000 1112340.55106780 19421.46693460
0.09700000 1103443.58302223 17842.68357630
0.09800000 1094524.36507219 17879.05634409
0.09900000 1085585.69362216 16283.78617004
0.10000000 1076626.50624487 19573.07080400
0.10100000 1067650.09580382 22869.06612769
0.10200000 1058658.28226337 19627.52547637
0.10300000 1049651.90475690 16374.57048448
0.10400000 1040633.83701946 24584.97555619
0.10500000 1031606.68367294 22963.56585898
0.10600001 1022566.56834481 21335.85245244
0.10700001 1013521.70099386 24628.57849311
0.10800001 1004468.39332746 22992.28260532
0.10900001 995411.35315616 16424.28810010
0.11000001 986350.46208806 26276.37754684
0.11100001 977288.08293500 16418.44056618
0.11200001 968226.76417543 21334.87775299
0.11300001 959164.72588941 19682.06110190
0.11400001 950106.70979897 16389.34151572
0.11500001 941052.82366810 22924.04786400
0.11600001 932004.18478211 17992.34163450
0.11700001 922963.54237384 19603.74656326
0.11800001 913929.45785142 17945.00575009
0.11900001 904905.98686246 21174.80108995
0.12000001 895893.47484864 17886.51406790
0.12100001 886894.55794900 22722.23964506
0.12200001 877908.69187081 24296.12419215
0.12300001 868938.43681911 22627.15796083
0.12400001 859984.20152874 17737.17499226
0.12500001 851047.79342338 22518.72567508
0.12600001 842132.06970511 17646.87835225
0.12700001 833236.53238681 15998.14217576
0.12800001 824361.38992561 19141.67237621
0.12900001 815509.89372398 17492.68804485
0.13000001 806681.82908676 20606.68829531
0.13100001 797878.87285980 22117.20339823
0.13200001 789103.14763940 18891.13024502
0.13300001 780356.26352257 17253.67779987
0.13400001 771636.36899727 15625.63720888
0.13500001 762947.50055276 18676.95569412
0.13600001 754288.41933038 17050.69052292
0.13700001 745662.63180895 15435.21720627
0.13800001 737068.50016881 21515.03053448
0.13900001 728510.77105931 18358.47229645
0.14000001 719987.17913638 18273.27546826
0.14100001 711500.02713733 19701.43668061
0.14200001 703049.12371172 16588.44485638
0.14300001 694638.97891590 19505.46344798
0.14400001 686264.30701054 23881.99901048
0.14500001 677933.35025387 16331.41517800
0.14600001 669640.64383748 17718.69227181
0.14700001 661393.32218033 14682.93244509
0.14800001 653185.92152530 20438.18844877
0.14900001 645022.22542547 23220.80121089
0.15000001 636903.43236798 17311.03610855
0.15100001 628830.39826995 17204.80050847
0.15200001 620803.68726434 17096.93435401
0.15300001 612824.07500392 14156.23680061
0.15400001 604890.24570318 18282.80853916
0.15500001 597006.64047796 15366.95165111
0.15600001 589169.61766867 18037.42869620
0.15700001 581386.52449065 15156.74740882
0.15800001 573648.94480200 15049.68077721
0.15900001 565965.63420464 16299.81103445
0.16000001 558331.50101075 17528.81830164
0.16100001 550752.67761992 20074.93604687
0.16200001 543224.54132909 14610.02472873
0.16300001 535751.29345958 19769.22366192
0.16400001 528331.51023553 13076.20549565
0.16500001 520966.34190947 14269.26877857
0.16600001 513656.48582492 16727.22425063
0.16700001 506401.02879013 12761.30652803
0.16800001 499201.08703412 16451.17259997
0.16900001 492059.61326873 16311.77695007
0.17000001 484973.72984674 13683.53443376
0.17100001 477945.62727837 14797.19731928
0.17200001 470975.30209650 13443.99063321
0.17300001 464062.83181179 23012.87691632
0.17400001 457209.70110157 15602.28178693
0.17500001 450414.81985730 16647.33252814
0.17600001 443677.06445550 14135.55194116
0.17700001 437001.52630878 14001.52956423
0.17800001 430384.22800769 12711.39877459
0.17900001 423826.92577797 13731.99304382
0.18000001 417330.58220357 13596.63101043
0.18100001 410895.67410902 11217.45243305
0.18200001 404518.50136154 13324.84006429
0.18300001 398204.75351012 10990.45171606
0.18400001 391950.74742972 17402.61400799
0.18500001 385758.56223138 12915.19727365
0.18600001 379627.77724686 10648.55965485
0.18700001 373557.73080977 11587.76135718
0.18800001 367549.45575911 13546.03583200
0.18900001 361604.50565341 10305.72889804
0.19000001 355717.21665034 11210.42861241
0.19100001 349896.98363504 13100.14368628
0.19200001 344134.22376077 13947.76074807
0.19300001 338436.55236666 12803.05538101
0.19400001 332799.61892925 9734.38931367
0.19500001 327225.26873826 11544.50802662
0.19600001 321711.33549188 10457.22745433
0.19700001 316260.59752059 10332.23420927
0.19800001 310871.33976970 13919.26489600
0.19900001 305544.84561818 10999.61496210
0.20000001 300278.28679144 9958.72985210
0.20100001 295075.24672601 10728.93647803
0.20200001 289932.37537328 11476.97362159
0.20300001 284851.83768577 10459.75997420
0.20400001 279832.63366664 9465.33928116
0.20500001 274874.04308161 12740.41249903
0.20600001 269977.33256692 10059.35588693
0.20700001 265140.97507267 10754.11845728
0.20800001 260365.64160366 8162.46325012
0.20900001 255653.04555430 12079.60697346
0.21000001 250998.09167915 9532.90797262
0.21100001 246403.90994823 8619.20917745
0.21200001 241869.61347861 10046.05487076
0.21300001 237395.24921060 8382.42664591
0.21400001 232980.99387568 9767.72863002
0.21500001 228626.87313947 8148.26214392
0.21600001 224330.62310200 8032.15833992
0.21700001 220093.59052045 8636.47290035
0.21800001 215915.27843838 7802.09895526
0.21900001 211794.15569353 7688.12821518
0.22000001 207730.81182545 8263.53208514
0.22100001 203727.27030660 8140.94210638
0.22200001 199780.22885983 8019.17876562
0.22300001 195889.92642769 9214.66257488
0.22400001 192055.03713913 6481.85780995
0.22500001 188279.75433685 8297.48916599
0.22600001 184558.09129892 6284.20330590
0.22700001 180893.78164621 7423.88114983
0.22800001 177283.94002202 8525.58507883
0.22900001 173728.90445641 5993.64748719
0.23000001 170228.69195466 6488.26690069
0.23100001 166784.31941433 5804.09459011
0.23200001 163391.88873278 6852.65613754
0.23300001 160054.11856845 6179.68981019
0.23400001 156769.61363548 6631.35497041
0.23500001 153536.57493703 7065.75351279
0.23600001 150356.99157579 9621.34434600
0.23700001 147229.22238560 6307.30018532
0.23800001 144152.58034990 6201.44429997
0.23900001 141127.55573824 6096.71069626
0.24000001 138152.86070988 7491.33922634
0.24100001 135229.95501273 5399.73235907
0.24200001 132355.92543988 4824.37371049
0.24300001 129531.62399179 4740.85766236
0.24400001 126755.65293674 5589.92455893
0.24500001 124028.77454917 5034.32819710
0.24600001 121350.30694804 4945.63199362
0.24700001 118719.97439463 5299.65990768
0.24800001 116135.98004029 4771.44696568
0.24900001 113598.79788166 5111.94614651
0.25000001 111108.68260367 4601.56630772
0.25100001 108663.55529615 5339.72735987
0.25200001 106265.30531223 4032.76852739
0.25300001 103912.19327047 7918.10950182
0.25400001 101602.43549779 4663.55200999
0.25500001 99337.43885163  3814.55783238
0.25600001 97116.13646177  5241.35813282
0.25700001 94937.96896432  4408.91948730
0.25800001 92802.38027385  4686.98443749
0.25900001 90709.53430017  4245.20640611
0.26000001 88659.12266286  3818.10529813
0.26100001 86647.82498679  3745.78565142
0.26200001 84679.68014879  4008.73624792
0.26300001 82750.69363064  4587.69867196
0.26400001 80861.80703879  3857.10837826
0.26500001 79013.15224522  5359.46237040
0.26600001 77202.38387311  4019.54230656
0.26700001 75431.67959372  3638.82439579
0.26800001 73698.61137039  2973.73910952
0.26900001 72002.55882539  3207.71414746
0.27000001 70344.57979753  3431.40876491
0.27100001 68722.90132404  3645.06285872
0.27200001 67138.02124271  3574.09272999
0.27300001 65588.26926705  3234.81359334
0.27400001 64073.03505520  3700.21794955
0.27500001 62594.66428850  2591.41922418
0.27600001 61148.66677945  2540.72722493
0.27700001 59738.66571556  2989.32297388
0.27800001 58360.76814738  4640.55669886
0.27900001 57016.83016242  2634.17767817
0.28000001 55704.82598043  2817.55023144
0.28100001 54425.07442416  3223.05305994
0.28200001 53177.43032853  2934.59663157
0.28300001 51960.95459501  2656.24412462
0.28400001 50775.60951809  2604.78889156
0.28500001 49620.60382911  2980.21360703
0.28600001 48494.89401916  2296.47581497
0.28700001 47399.26728916  2457.17813257
0.28800001 46331.91993680  2008.48882433
0.28900001 45294.56002577  2167.34479982
0.29000001 44284.34880161  2319.61430003
0.29100001 43303.26420043  2465.68798029
0.29200001 42348.45814837  2047.33630609
0.29300001 41420.85453797  2557.32368023
0.29400001 40519.60323569  2151.59103366
0.29500001 39645.75314274  2464.38013201
0.29600001 38796.04503303  1901.20027684
0.29700001 37971.85047320  1867.07597615
0.29800001 37172.86497322  2667.52491676
0.29900001 36398.45929750  2456.89611889
0.30000001 35647.86503073  1931.40141880
0.30100001 34921.60668463  1898.33862924
0.30200001 34217.62209201  1710.71009748
0.30300001 33537.07013139  1988.07761151
0.30400001 32879.59446469  2256.36227696
0.30500001 32243.12294388  1627.95535451
0.30600001 31628.78643531  2330.40909488
0.30700001 31036.08621163  1433.86725086
0.30800001 30464.07387423  2259.21582547
0.30900001 29912.57371064  1808.21516642
0.31000001 29382.25825801  1781.88713642
0.31100001 28869.89406372  1351.11110615
0.31200001 28378.50491077  1865.31921610
0.31300001 27905.17625271  1840.06740922
0.31400001 27452.20237119  1556.53994814
0.31500001 27017.01308124  1408.66712875
0.31600002 26599.39609434  1770.72188184
0.31700002 26199.44727560  1499.65643306
0.31800002 25817.16188005  2223.63225801
0.31900002 25452.14321081  1343.87322516
0.32000002 25103.35410790  1329.59921328
0.32100002 24771.43275783  1675.04436240
0.32200002 24455.83428131  1421.86227244
0.32300002 24155.06118574  1291.32963214
0.32400002 23870.06401350  1163.66567576
0.32500002 23599.64425327  1500.22945622
0.32600002 23344.58718034  1259.55726096
0.32700002 23103.56848472  1932.38255957
0.32800002 22877.50598907  1129.00497402
0.32900002 22664.00218892  1794.98905836
0.33000002 22465.39698186  1561.56981816
0.33100002 22277.99194907  1442.27726708
0.33200002 22105.70409444  1545.85196053
0.33300002 21944.87731215  1539.21376756
0.33400002 21797.15167096  1095.30692333
0.33500002 21660.77485145  1091.70310421
0.33600002 21536.33614522  1088.66184370
0.33700002 21422.44840696  1086.11818567
0.33800002 21321.33643206  1951.54201605
0.33900002 21229.70811628  1515.80123129
0.34000002 21149.78698169  1189.99282088
0.34100002 21079.78131530  1081.39283269
0.34200002 21020.81281379  1297.82504459
0.34300002 20970.44045916  1406.69721262
0.34400002 20930.42314727  1191.46439409
0.34500002 20899.38349687  1518.54927680
0.34600002 20878.75563799  1412.76106715
0.34700002 20864.82920331  1198.05854960
0.34800002 20861.10365520  1528.91035930
0.34900002 20865.42520330  1314.52185007
0.35000002 20877.85055547  1758.75021409
0.35100002 20898.35948374  1434.46346290
0.35200002 20925.94939107  1108.02907274
0.35300002 20961.12486727  1446.94651812
0.35400002 21004.11962234  1118.46942286
0.35500002 21053.86623904  1461.55946354
0.35600002 21109.77317014  1356.51408816
0.35700002 21172.57895589  1364.36105254
0.35800002 21242.26842171  1601.45469217
0.35900002 21317.66590004  1266.26941444
0.36000002 21399.89478414  1506.44566468
0.36100002 21486.71225998  1166.72853098
0.36200002 21580.51297266  1175.05898702
0.36300002 21677.71224650  1420.32377367
0.36400002 21781.10311522  1311.76699725
0.36500002 21888.95443528  2042.89621421
0.36600002 22002.18314766  1332.34226362
0.36700002 22119.45310487  1465.19264307
0.36800002 22242.66786599  1231.13172470
0.36900002 22369.15336672  1365.63687773
0.37000002 22498.70651649  1627.66900004
0.37100002 22632.78583387  2020.65521497
0.37200002 22770.89885576  2038.45096213
0.37300002 22911.95241360  1413.89665042
0.37400002 23057.48169573  1426.68174751
0.37500002 23205.18868380  1570.52724452
0.37600002 23356.94684666  2245.42019147
0.37700002 23510.32263978  1999.55303524
0.37800002 23667.64516809  1345.50569155
0.37900002 23827.06858959  1765.58586613
0.38000002 23989.12366450  1782.27202709
0.38100002 24153.08558214  1660.76624330
0.38200002 24319.39492523  1536.86423511
0.38300002 24487.48029516  2679.90997046
0.38400002 24658.19147990  1851.21381305
0.38500002 24829.28408488  1868.90030161
0.38600002 25003.55737035  1451.45657411
0.38700002 25178.12931621  1611.90391519
0.38800002 25354.09407379  1627.35260522
0.38900002 25531.32363396  1642.94075368
0.39000002 25710.42637786  1809.49989420
0.39100002 25889.60269327  1522.30871049
0.39200002 26070.05215020  1690.51261177
0.39300002 26251.05881013  2792.58776853
0.39400002 26433.37845625  2036.03107205
0.39500002 26615.40912634  2213.33752781
0.39600002 26797.87644088  1595.81361766
0.39700002 26980.20298365  2255.00547221
0.39800002 27163.73808175  2438.62470183
0.39900002 27346.52100424  1640.79133799
0.40000002 27529.45344729  2318.25538463
0.40100002 27711.77018234  2172.32576752
0.40200002 27895.25556450  2192.14876240
0.40300002 28077.28702501  2211.92877663
0.40400002 28258.77384118  2060.06471063
0.40500002 28440.06036060  2771.19961284
0.40600002 28620.90197281  3145.15106681
0.40700002 28800.91331352  3172.70876094
0.40800002 28980.52739288  2489.13761571
0.40900002 29158.27645236  1972.55749547
0.41000002 29336.03034604  2712.84953479
0.41100002 29512.39718085  2371.02610185
0.41200002 29687.20305797  2390.85901156
0.41300002 29861.23885724  2967.01283344
0.41400002 30033.94184193  2243.53556190
0.41500002 30205.77957728  2261.80888192
0.41600002 30374.93089538  2089.94721929
0.41700002 30543.57186849  2489.60666097
0.41800002 30711.40836608  2123.23331800
0.41900002 30875.75811238  1945.17285325
0.42000002 31039.09789605  2548.15486252
0.42100002 31201.50956784  2172.56121416
0.42200002 31361.82923157  1989.90815903
0.42300002 31519.84912265  2606.06124895
0.42400002 31676.03848423  2625.15181377
0.42500002 31830.64480981  2440.77395967
0.42600002 31982.07318723  2662.98745012
0.42700002 32132.67236789  2062.91766377
0.42800002 32280.53223543  2077.25234778
0.42900002 32426.97554445  2509.84802607
0.43000002 32571.00059882  2105.71528850
0.43100002 32711.42857752  2331.67073950
0.43200002 32850.65462566  2773.74515476
0.43300002 32987.11414965  2791.69960278
0.43400002 33121.50753437  3457.88555045
0.43500002 33253.20082515  2392.23538073
0.43600002 33383.25558712  2188.27250744
0.43700002 33509.78336948  2862.07073322
0.43800002 33633.22171959  3322.12163278
0.43900002 33755.27909113  2227.84852559
0.44000002 33873.79827464  2688.90223447
0.44100002 33990.47635759  2478.92555824
0.44200002 34104.16807596  3172.71090646
0.44300002 34215.48529131  2278.75142839
0.44400002 34323.53668217  2520.20580032
0.44500002 34428.03323284  2533.55908567
0.44600002 34530.57896448  2315.27542929
0.44700002 34630.48835675  3258.03649901
0.44800002 34726.76697917  2572.73265358
0.44900002 34821.31865368  3760.70259282
0.45000002 34912.73749862  3070.40084483
0.45100002 35000.04951865  2847.60416379
0.45200002 35085.33324234  2622.45335748
0.45300002 35167.40582081  3113.37058487
0.45400002 35246.91295332  3367.84269230
0.45500002 35323.37886987  3140.95499797
0.45600002 35396.40413340  5338.13196035
0.45700002 35466.74023315  2680.22168644
0.45800002 35533.42000818  3914.36173362
0.45900002 35597.34980867  2456.21725321
0.46000002 35659.14625606  3205.57910462
0.46100002 35716.68251472  3217.71608025
0.46200002 35771.88113894  2981.22871541
0.46300002 35823.53143702  2991.98148742
0.46400002 35871.85289148  2752.26804354
0.46500002 35917.90879418  2510.66194371
0.46600002 35960.25245615  3022.81896473
0.46700002 35999.51537153  3538.03253840
0.46800002 36036.26755607  3295.69700554
0.46900002 36069.28999399  2797.17357161
0.47000002 36099.05573419  2805.43824935
0.47100002 36126.13047086  2813.50317442
0.47200002 36149.87058164  2821.31678327
0.47300002 36170.93804725  2571.75381705
0.47400002 36187.85309402  3867.57698274
0.47500002 36202.68701195  3101.84637020
0.47600002 36214.66234204  2850.27513473
0.47700002 36222.64444840  2856.88010306
