# SAXS profile: number of points = 501, q_min = 0, q_max = 0.5, delta_q = 0.001
#    q    intensity    error
0.00000000 1664650.74656091 299.63713438
0.00100000 1664582.51729405 749.06215057
0.00200000 1664377.77106628 823.86702277
0.00300000 1664036.68824568 1098.26425337
0.00400000 1663559.11587170 1497.20326118
0.00500000 1662945.53236991 2244.97655756
0.00600000 1662195.65809279 2443.42771687
0.00700000 1661310.11771790 2990.35833617
0.00800000 1660288.43161301 3586.22316369
0.00900000 1659131.89965864 2986.43754705
0.01000000 1657839.64807446 3008.97909118
0.01100000 1656413.00682345 4174.16095894
0.01200000 1654851.34126649 4195.04833404
0.01300000 1653156.07677673 4513.11628865
0.01400000 1651326.50543438 5201.67872271
0.01500000 1649364.29888901 4354.32194296
0.01600000 1647268.37898417 5460.69492044
0.01700000 1645040.84968857 4885.77154274
0.01800000 1642681.24648740 5149.80593947
0.01900000 1640190.25089109 5904.68516964
0.02000000 1637568.59343614 7221.67782373
0.02100000 1634817.77241450 7013.36856163
0.02200000 1631936.10388019 8445.26972127
0.02300000 1628926.48565506 5864.13561528
0.02400000 1625788.63965992 7925.71997974
0.02500000 1622523.98842146 6960.62822822
0.02600000 1619132.69583720 6557.48771807
0.02700000 1615615.80700145 8142.70404023
0.02800000 1611973.13071857 9816.91681628
0.02900000 1608207.32498097 9408.01328310
0.03000000 1604318.55912655 7460.08164284
0.03100000 1600307.21420952 11522.21247248
0.03200000 1596174.18614400 9481.27510239
0.03300000 1591922.28921355 9742.56485912
0.03400000 1587549.48167802 9168.09867971
0.03500000 1583059.05972538 10258.22318073
0.03600000 1578450.94137108 10512.48375535
0.03700000 1573726.72655117 13455.36413429
0.03800000 1568887.83442355 11013.59310736
0.03900000 1563935.44423882 10321.97440999
0.04000000 1558868.51977470 13421.85857722
0.04100000 1553690.98471220 12724.72975479
0.04200000 1548403.03945819 11984.64008141
0.04300000 1543004.89431619 14257.36588528
0.04400000 1537500.12254537 18680.62735649
0.04500000 1531888.27542026 12684.03550984
0.04600000 1526169.82973907 13987.34713979
0.04700000 1520347.83932249 16419.75742833
0.04800000 1514422.59859704 12244.10727935
0.04900000 1508396.80258004 12444.27420054
0.05000000 1502269.79396548 14940.07379669
0.05100000 1496045.12522385 18670.64403255
0.05200000 1489720.78519580 17764.92119133
0.05300000 1483302.49591463 15619.17601011
0.05400000 1476788.20250745 14620.20388662
0.05500000 1470182.20072292 18524.29659325
0.05600000 1463482.76162346 20020.44511325
0.05700000 1456694.87185326 17742.54436737
0.05800000 1449817.17060666 14113.97081487
0.05900000 1442851.75046529 18179.93290497
0.06000000 1435801.24459855 17078.85660240
0.06100000 1428667.07738782 19929.90666091
0.06200000 1421449.72933591 17462.51074115
0.06300000 1414152.51110350 14933.45121547
0.06400000 1406773.29584072 15087.64430349
0.06500000 1399318.57033453 15238.57994377
0.06600000 1391785.93176942 22379.91882998
0.06700000 1384178.60204068 19766.07136217
0.06800000 1376499.30802529 14246.76850494
0.06900000 1368748.73762229 15809.04865970
0.07000000 1360926.68691410 17392.64387323
0.07100000 1353037.86886633 18996.65256864
0.07200000 1345080.81350339 16201.49915764
0.07300000 1337060.91454557 19293.78990091
0.07400000 1328977.12502415 23921.58937150
0.07500000 1320831.67427103 16563.22997172
0.07600000 1312624.99209820 24257.31099117
0.07700000 1304362.42997614 18313.24937555
0.07800000 1296042.09795968 19965.52945538
0.07900000 1287666.10760935 18542.39281928
0.08000000 1279238.66847707 17097.02560624
0.08100000 1270759.26337193 18756.40760739
0.08200000 1262229.46998292 20429.18493032
0.08300000 1253651.88583296 17375.61595312
0.08400000 1245027.31563137 19048.91882329
0.08500000 1236359.64961712 25518.46436607
0.08600000 1227647.96889197 19224.96809549
0.08700000 1218895.60473633 16089.42273804
0.08800000 1210101.71350289 21001.31622414
0.08900000 1201272.16035785 17838.89241920
0.09000000 1192405.55689769 21159.23760112
0.09100000 1183504.72574355 16332.36598257
0.09200000 1174570.36626946 19662.30885522
0.09300000 1165605.96050185 16435.04481539
0.09400000 1156610.09340670 24722.54190847
0.09500000 1147586.66795997 19830.29855443
0.09600000 1138537.10536918 16565.71566184
0.09700000 1129464.23232375 21584.06249443
0.09800000 1120368.54827933 18301.22109662
0.09900000 1111252.18768255 20002.54031885
0.10000000 1102114.98893003 18366.74715426
0.10100000 1092959.58149264 18394.51062165
0.10200000 1083788.19146408 16744.52834572
0.10300000 1074601.73648231 16763.78787771
0.10400000 1065402.80431238 18458.10445308
0.10500000 1056194.07134291 20152.18382937
0.10600001 1046971.99154834 21845.07163154
0.10700001 1037744.18848385 26898.33063127
0.10800001 1028507.82202403 18497.71404964
0.10900001 1019267.12253682 25226.86247010
0.11000001 1010022.26464188 23543.62009699
0.11100001 1000775.32784405 21856.93418899
0.11200001 991528.83753841 16806.41458747
0.11300001 982281.15510711 20156.41025178
0.11400001 973037.40262732 21820.36478132
0.11500001 963797.43744394 18447.08382131
0.11600001 954562.42758667 25128.85708957
0.11700001 945335.02536287 18405.67381063
0.11800001 936113.96546627 25064.45260585
0.11900001 926903.35035695 20021.11331074
0.12000001 917703.17598760 21653.20745740
0.12100001 908516.92730210 18288.44660813
0.12200001 899342.90052414 19911.45275566
0.12300001 890184.89329882 19868.92775454
0.12400001 881042.50298926 23127.36679317
0.12500001 871918.01801749 21423.02671215
0.12600001 862814.02407638 16436.60793320
0.12700001 853730.03635309 24587.42620569
0.12800001 844666.60011499 19613.15937902
0.12900001 835626.66695218 19553.66492829
0.13000001 826610.83779929 19491.48447404
0.13100001 817619.36018051 19426.63691361
0.13200001 808655.79809986 22585.75750563
0.13300001 799720.67425468 17681.82494135
0.13400001 790813.04919762 17615.36150136
0.13500001 781936.48053891 23927.25743262
0.13600001 773090.04178067 23830.50166152
0.13700001 764276.97548907 26894.90803564
0.13800001 755495.66560916 18902.50244490
0.13900001 746751.30060027 25090.84488341
0.14000001 738041.02756272 15609.56846911
0.14100001 729367.65882327 18642.63823876
0.14200001 720730.87970164 20097.58152839
0.14300001 712135.46635025 23073.19019806
0.14400001 703575.35483409 16833.04115842
0.14500001 695059.61573977 18266.16756329
0.14600001 686582.60638389 16653.06190344
0.14700001 678151.06135415 18065.94512676
0.14800001 669760.37557817 16466.05961044
0.14900001 661413.58713880 22322.70961914
0.15000001 653112.39716569 17751.59579254
0.15100001 644857.20288440 24994.66636317
0.15200001 636649.24809907 16072.21102666
0.15300001 628488.76021482 15969.90015066
0.15400001 620374.41375476 18750.81754061
0.15500001 612310.98961135 20059.30896633
0.15600001 604295.17686292 21346.72813014
0.15700001 596333.39229630 22612.96330314
0.15800001 588418.02337874 15437.14757195
0.15900001 580557.56000488 23686.74956623
0.16000001 572746.98155766 15215.02428327
0.16100001 564992.65716946 13729.32221730
0.16200001 557289.55256887 19076.02228494
0.16300001 549642.00329069 17577.55209503
0.16400001 542048.58261155 14757.27335828
0.16500001 534511.05694796 17302.12373026
0.16600001 527028.95219469 18482.90622610
0.16700001 519602.71784840 14403.38801881
0.16800001 512232.40540479 15582.11050814
0.16900001 504921.70641094 21888.35700644
0.17000001 497667.54027440 17871.24221513
0.17100001 490471.80215167 12654.17309306
0.17200001 483334.75726193 13796.79129757
0.17300001 476256.50996373 14916.35459648
0.17400001 469238.64987397 12317.51514090
0.17500001 462279.86728499 17085.86470178
0.17600001 455379.20688792 15717.41406806
0.17700001 448541.59416236 13173.66724275
0.17800001 441763.55756638 13047.48728898
0.17900001 435046.30547478 18794.00128422
0.18000001 428390.98946279 16283.14227862
0.18100001 421798.09758095 16121.12405105
0.18200001 415264.09068370 18238.39972437
0.18300001 408794.65956432 12411.00645066
0.18400001 402385.86401889 11166.20825402
0.18500001 396040.29674704 13259.42976149
0.18600001 389756.71714997 10932.67643255
0.18700001 383535.41232399 14060.40888008
0.18800001 377376.40011686 14978.07002829
0.18900001 371282.25813180 12697.85382805
0.19000001 365247.09774246 15696.49476712
0.19100001 359279.64123502 11381.97957212
0.19200001 353371.56175691 12276.12863550
0.19300001 347529.22675150 12135.72117161
0.19400001 341748.71899322 13994.61070407
0.19500001 336032.03423609 9879.34227339
0.19600001 330377.33644806 11715.18090406
0.19700001 324786.49992263 10610.77545391
0.19800001 319258.75531778 15247.79887457
0.19900001 313794.80770464 11296.61361124
0.20000001 308391.96334487 13017.22538800
0.20100001 303053.89290491 10100.78672791
0.20200001 297777.37263945 9974.05356797
0.20300001 292564.37635494 17904.94067919
0.20400001 287414.02128623 10605.57788674
0.20500001 282325.42720345 13085.78416940
0.20600001 277299.87401555 12915.24224275
0.20700001 272336.18426768 9346.57828587
0.20800001 267434.52883062 8384.07287516
0.20900001 262596.95746184 10753.34591639
0.21000001 257818.51753111 10607.94340528
0.21100001 253102.07589926 11268.10495172
0.21200001 248446.82908106 8731.66422084
0.21300001 243852.66730280 7827.67099048
0.21400001 239320.14412647 11577.11251944
0.21500001 234848.88973782 10652.74614214
0.21600001 230436.52745496 8250.78025561
0.21700001 226085.01839572 7392.98045108
0.21800001 221793.46538166 7285.91568227
0.21900001 217560.30844727 8615.38862186
0.22000001 213386.42927147 12025.39279018
0.22100001 209273.76305341 9756.34329486
0.22200001 205218.66152409 7551.02100782
0.22300001 201221.90659233 7437.16201932
0.22400001 197281.48978465 6658.25059508
0.22500001 193402.02074739 9178.86033871
0.22600001 189578.04111537 6455.13260523
0.22700001 185812.26462573 8261.21367593
0.22800001 182102.30356105 7506.25730776
0.22900001 178448.44498105 8003.41313589
0.23000001 174850.87108047 6058.58296946
0.23100001 171310.34282635 10730.88038214
0.23200001 167823.11280029 7038.50168372
0.23300001 164391.91539488 6347.17215358
0.23400001 161015.28645286 6243.36802749
0.23500001 157691.35121506 6140.50150674
0.23600001 154422.11095388 6038.67693446
0.23700001 151205.95082808 7557.27377983
0.23800001 148042.65091090 5838.06221480
0.23900001 144931.86019105 5739.30193503
0.24000001 141872.83250257 7180.18439258
0.24100001 138866.70866605 6049.03411562
0.24200001 135910.88081051 5449.34702386
0.24300001 133006.02853454 8275.63548688
0.24400001 130150.89810305 5739.65487785
0.24500001 127346.10473328 4699.07148694
0.24600001 124590.73611265 6000.91308874
0.24700001 121885.13272394 6801.19072773
0.24800001 119227.06173846 4453.13096659
0.24900001 116616.90514895 5685.07439496
0.25000001 114054.95599997 4294.16929655
0.25100001 111539.59759366 6745.91518161
0.25200001 109072.13063505 4139.28755343
0.25300001 106650.96078217 4063.40179804
0.25400001 104274.69364304 5583.91010877
0.25500001 101944.03389942 4697.58130434
0.25600001 99658.53336950  3841.83664316
0.25700001 97417.27340538  4901.06325691
0.25800001 95219.84283862  5179.00749703
0.25900001 93066.24600808  4355.50051926
0.26000001 90956.19437313  3560.93517820
0.26100001 88886.56538575  3842.56640344
0.26200001 86861.45377306  4112.02141618
0.26300001 84876.50833543  4705.55384477
0.26400001 82932.64281589  3955.88724950
0.26500001 81030.26684260  3879.72936001
0.26600001 79167.10224830  4438.89963311
0.26700001 77344.79203080  3420.18686545
0.26800001 75561.52967112  3353.79865316
0.26900001 73816.29060585  3288.51590211
0.27000001 72110.04802016  3517.52830888
0.27100001 70441.51712715  3448.81684175
0.27200001 68810.64792965  2817.79616607
0.27300001 67216.09967642  3315.09819292
0.27400001 65656.99817835  3520.85669394
0.27500001 64136.03634936  3451.80163968
0.27600001 62648.44178861  3383.95574336
0.27700001 61197.68699868  3062.33240234
0.27800001 59780.23614870  2751.98330135
0.27900001 58397.64554215  2943.24147462
0.28000001 57048.19208389  3366.41397420
0.28100001 55731.76464901  2357.45375623
0.28200001 54448.50297232  3004.74077874
0.28300001 53197.44910970  3172.69601507
0.28400001 51978.42926813  2444.28575202
0.28500001 50790.79557702  2614.71028006
0.28600001 49633.40772225  2350.39013394
0.28700001 48506.89402429  2514.59750524
0.28800001 47409.77018659  2260.73499836
0.28900001 46343.66121504  2822.32910159
0.29000001 45305.30521095  2175.33433267
0.29100001 44296.93981452  2716.28847800
0.29200001 43316.08151811  2284.49024740
0.29300001 42363.08239803  2055.03322441
0.29400001 41437.22948102  2016.95724046
0.29500001 40539.55559411  2159.94762430
0.29600001 39667.29434049  2650.76706978
0.29700001 38820.90086684  3123.52983161
0.29800001 38000.80454238  1874.76978085
0.29900001 37205.95041604  1841.69463278
0.30000001 36435.75979591  2303.10448573
0.30100001 35690.89722907  1778.47749312
0.30200001 34968.86563438  1748.26852015
0.30300001 34270.97247262  1719.03206061
0.30400001 33597.05105492  1844.47819024
0.30500001 32944.70101987  2268.24277260
0.30600001 32315.26279624  1488.11792222
0.30700001 31708.16509767  1611.40902655
0.30800001 31122.60106828  1875.29241615
0.30900001 30558.25501613  1705.15071063
0.31000001 30015.52426547  1680.26912793
0.31100001 29491.65436060  2622.39802990
0.31200001 28989.21429926  1361.04367579
0.31300001 28505.72930180  1745.40588779
0.31400001 28043.22533171  1590.05095159
0.31500001 27598.73391588  1438.99805451
0.31600002 27172.92236193  2067.31603118
0.31700002 26765.06332494  1276.69358105
0.31800002 26375.52151744  1388.27564080
0.31900002 26003.86664727  1622.64135562
0.32000002 25649.14098623  1482.00743636
0.32100002 25311.79434716  1589.32764231
0.32200002 24991.07484531  1695.14468702
0.32300002 24685.78331897  1319.70203872
0.32400002 24396.88555210  1546.15269508
0.32500002 24122.96899775  1651.45853579
0.32600002 23865.00306466  1638.80983805
0.32700002 23621.52331281  1394.61480243
0.32800002 23393.54332367  1269.91855946
0.32900002 23178.48515948  1721.00260459
0.33000002 22979.02632766  1254.99958231
0.33100002 22790.84332834  1588.97767210
0.33200002 22618.46981529  1242.77188285
0.33300002 22457.84217831  1462.67933034
0.33400002 22310.75502700  1457.45014116
0.33500002 22175.40654441  1229.40459704
0.33600002 22052.39172057  1226.22329969
0.33700002 21940.38355496  1557.32849848
0.33800002 21841.40961793  1110.63573167
0.33900002 21752.44750788  1220.31236298
0.34000002 21675.24682969  1330.42671341
0.34100002 21608.49185243  1330.21882143
0.34200002 21553.15766241  1219.80101567
0.34300002 21506.56786383  1331.68674520
0.34400002 21470.80789879  1666.67154208
0.34500002 21444.19636136  1335.54461264
0.34600002 21428.32046589  1449.94737300
0.34700002 21419.35619853  1229.89949117
0.34800002 21420.96349523  1569.94248892
0.34900002 21430.71677249  1350.13522061
0.35000002 21449.02919823  1581.00801708
0.35100002 21475.44406547  1133.90350036
0.35200002 21509.17188190  1366.69284611
0.35300002 21550.94602958  1258.79081721
0.35400002 21600.55032009  1610.32110263
0.35500002 21657.03066074  1734.72823809
0.35600002 21720.09947440  1860.97821111
0.35700002 21790.08362813  1287.14030088
0.35800002 21867.22123497  1177.54991928
0.35900002 21950.17914449  1422.37167593
0.36000002 22039.96052666  1432.15670286
0.36100002 22134.65487076  1201.91181641
0.36200002 22236.36951201  2058.30964137
0.36300002 22341.75768593  1341.84603018
0.36400002 22453.35356749  1352.25328265
0.36500002 22569.51159820  1362.97286998
0.36600002 22691.11913863  1498.97540130
0.36700002 22816.96753400  1385.44633429
0.36800002 22948.77072986  1905.32178010
0.36900002 23083.74230999  1409.26253478
0.37000002 23222.13771912  1809.23683540
0.37100002 23364.90055745  1564.51381544
0.37200002 23511.95545587  1315.49397007
0.37300002 23661.85641388  1460.17322847
0.37400002 23816.31857292  1607.60157983
0.37500002 23972.83980861  1487.27505218
0.37600002 24133.63670019  1501.23294205
0.37700002 24295.92019205  2066.36811022
0.37800002 24462.15804380  2086.01062600
0.37900002 24630.62177027  1544.34005816
0.38000002 24801.69617636  1559.15870399
0.38100002 24974.49461266  1431.03860910
0.38200002 25149.80895409  2022.79923000
0.38300002 25326.79281327  1750.58800219
0.38400002 25506.33685489  1914.88833010
0.38500002 25686.47341510  2528.31969803
0.38600002 25869.44636774  1501.72143279
0.38700002 26052.64639516  1667.89050123
0.38800002 26237.27094639  2143.32276515
0.38900002 26423.22147863  2164.06194162
0.39000002 26610.81204880  2028.94146078
0.39100002 26798.40068355  1575.74603485
0.39200002 26987.37298068  2386.35856887
0.39300002 27176.56941367  2248.58945982
0.39400002 27367.14036703  1945.80377228
0.39500002 27557.15979153  1800.58490609
0.39600002 27747.66599115  2148.08566448
0.39700002 27937.84749513  2001.46748938
0.39800002 28129.35905767  2188.60488517
0.39900002 28319.76327716  2548.77881570
0.40000002 28510.03546255  2400.83020005
0.40100002 28699.96634314  1903.66885773
0.40200002 28890.65498400  1921.08419418
0.40300002 29079.85758513  2467.13523442
0.40400002 29268.44103944  1955.86366513
0.40500002 29456.61252689  2152.68934546
0.40600002 29644.14351534  2533.68506630
0.40700002 29830.80327894  2008.20977189
0.40800002 30016.63829190  2393.97710040
0.40900002 30200.76033841  1857.34684882
0.41000002 30384.65909481  4495.71437268
0.41100002 30566.99006293  2833.56011309
0.41200002 30747.47590289  2857.20933366
0.41300002 30927.14147498  2496.74824958
0.41400002 31105.23145591  2129.93082487
0.41500002 31282.27836862  2928.02139404
0.41600002 31456.58079692  2361.13106650
0.41700002 31630.04202684  2181.52410196
0.41800002 31802.62667779  2998.19277211
0.41900002 31971.40559102  2215.61851244
0.42000002 32139.25815914  2029.59424892
0.42100002 32305.72955596  2249.44805557
0.42200002 32469.96003612  2472.26287430
0.42300002 32631.74594964  2490.45496889
0.42400002 32791.45173306  2299.50066174
0.42500002 32949.45027618  2105.46997242
0.42600002 33103.85183904  2544.36217292
0.42700002 33257.36456757  2989.17206898
0.42800002 33408.07071447  2364.79039758
0.42900002 33556.91168543  2813.74717816
0.43000002 33703.27725909  3268.37546708
0.43100002 33845.91189874  3289.82279245
0.43200002 33986.89947372  2869.68399305
0.43300002 34125.04029232  3332.31034246
0.43400002 34260.93779117  2906.18418586
0.43500002 34393.74186197  2474.28590680
0.43600002 34524.87980567  2715.72717421
0.43700002 34652.24995462  2504.31822290
0.43800002 34776.21925663  2519.01556123
0.43900002 34898.56664508  2533.63605850
0.44000002 35017.33670833  2548.03662633
0.44100002 35133.90625214  3028.19152338
0.44200002 35247.32588284  3044.84039068
0.44300002 35358.13269967  2825.82209927
0.44400002 35465.31455489  3077.50281635
0.44500002 35568.93970876  3569.34326893
0.44600002 35670.38970192  2630.86971715
0.44700002 35768.94935698  2403.67351070
0.44800002 35863.45698921  3140.02512550
0.44900002 35956.22969739  2912.45474352
0.45000002 36045.61118865  3413.87999747
0.45100002 36130.73464642  2694.63031764
0.45200002 36213.59145187  2706.78502135
0.45300002 36292.79740862  3213.00150686
0.45400002 36369.43524493  2730.43548042
0.45500002 36442.74850660  2991.22093919
0.45600002 36512.58873799  2753.23188427
0.45700002 36579.28714903  4020.79543398
0.45800002 36642.12140749  2775.09119632
0.45900002 36702.15422328  4305.16289443
0.46000002 36759.66862199  4067.08992909
0.46100002 36812.67654138  4081.78976836
0.46200002 36863.29877859  4864.29682087
0.46300002 36910.22981986  3853.42817583
0.46400002 36953.54210624  2835.26065248
0.46500002 36994.41460952  4137.45552603
0.46600002 37031.26821797  3631.65664626
0.46700002 37064.88272366  3122.34586863
0.46800002 37095.87482857  2870.66440967
0.46900002 37122.87362218  3140.59525729
0.47000002 37146.26933880  2624.38405317
0.47100002 37166.94165252  4210.27134995
0.47200002 37184.03826074  3165.84916757
0.47300002 37198.55048959  3702.74389123
0.47400002 37208.34972023  3181.31405187
0.47500002 37216.08412665  3188.67423911
0.47600002 37220.72597448  2663.14306970
0.47700002 37221.01088293  3202.49592816
