# SAXS profile: number of points = 501, q_min = 0, q_max = 0.5, delta_q = 0.001
#    q    intensity    error
0.00000000 1664650.74656091 299.63713438
0.00100000 1664582.50989780 599.24971779
0.00200000 1664377.73891262 973.66100809
0.00300000 1664036.61723733 1198.10640709
0.00400000 1663558.99318190 2121.03779690
0.00500000 1662945.34757814 1795.98104647
0.00600000 1662195.36529608 1919.83572508
0.00700000 1661309.73583692 2192.92894244
0.00800000 1660287.92945868 3137.94431916
0.00900000 1659131.26968052 3235.30611418
0.01000000 1657838.86994750 3282.52110423
0.01100000 1656412.06996220 2981.54185575
0.01200000 1654850.21866128 3872.34968145
0.01300000 1653154.75165694 4165.95015791
0.01400000 1651324.96673991 4458.57760785
0.01500000 1649362.55192038 6333.55248140
0.01600000 1647266.38546497 4200.52947071
0.01700000 1645038.57086380 5774.08564275
0.01800000 1642678.68814005 5149.79791905
0.01900000 1640187.44415416 6396.73132084
0.02000000 1637565.48824296 6705.83097770
0.02100000 1634814.33029874 5394.88753458
0.02200000 1631932.36529115 5630.16691605
0.02300000 1628922.37374450 8209.76913737
0.02400000 1625784.16005472 7925.69814166
0.02500000 1622519.17777700 6960.60759056
0.02600000 1619127.44998067 9180.45306129
0.02700000 1615610.17680857 6785.56305338
0.02800000 1611967.10251780 7713.26293927
0.02900000 1608200.83681435 9407.97532732
0.03000000 1604311.61775992 8206.05430204
0.03100000 1600299.79418709 10754.01511176
0.03200000 1596166.30458223 10271.33064306
0.03300000 1591913.86810411 12990.01776258
0.03400000 1587540.65484184 11668.42435147
0.03500000 1583049.65165907 9403.31536508
0.03600000 1578441.02767341 9636.38291928
0.03700000 1573716.22916970 12558.25608956
0.03800000 1568876.77657397 10095.72252448
0.03900000 1563923.79196022 11260.25182358
0.04000000 1558856.23347451 10545.66290813
0.04100000 1553678.14707888 11745.80733653
0.04200000 1548389.59202099 14980.66999780
0.04300000 1542990.73449480 14257.23504852
0.04400000 1537485.36731297 13491.43472474
0.04500000 1531872.84851725 10569.92314590
0.04600000 1526153.73517419 11835.32276646
0.04700000 1520331.03065034 12041.02232275
0.04800000 1514405.11989312 14470.14159385
0.04900000 1508378.62677829 15837.97631839
0.05000000 1502250.85471715 14939.88544585
0.05100000 1496025.39888102 14002.79838583
0.05200000 1489700.46277977 13027.43115410
0.05300000 1483281.37145392 14417.49560265
0.05400000 1476766.20771540 14619.98613817
0.05500000 1470159.42657499 13584.27373525
0.05600000 1463459.20354484 17517.60748388
0.05700000 1456670.48559090 20276.85410592
0.05800000 1449791.99572273 14113.72573736
0.05900000 1442825.75417515 20776.69183051
0.06000000 1435774.25930185 15764.80210365
0.06100000 1428639.29750139 14614.98069642
0.06200000 1421421.07994437 16118.91580002
0.06300000 1414122.96017302 19005.81347335
0.06400000 1406742.96295155 16458.89343626
0.06500000 1399287.32541284 20779.41775440
0.06600000 1391753.79604581 16784.55156564
0.06700000 1384145.47919934 14118.28454855
0.06800000 1376465.22838100 15671.05735867
0.06900000 1368713.77012985 18682.94383699
0.07000000 1360890.69736048 20290.88124784
0.07100000 1353001.01021884 16073.65275425
0.07200000 1345042.89321804 14728.22037071
0.07300000 1337022.08453740 20777.32416724
0.07400000 1328937.27090431 19435.70849781
0.07500000 1320790.78763524 19574.12039024
0.07600000 1312583.08157095 22740.50295431
0.07700000 1304319.52553576 19838.70091361
0.07800000 1295998.11661332 19964.85192270
0.07900000 1287621.08044329 24722.32590408
0.08000000 1279192.68993281 20204.84948532
0.08100000 1270712.24641478 18755.71363707
0.08200000 1262181.27923212 15714.15766383
0.08300000 1253602.70318923 22113.55272209
0.08400000 1244977.08192366 17460.80439357
0.08500000 1236308.16036559 30301.91443309
0.08600000 1227595.47687884 20826.15824307
0.08700000 1218842.02025683 22524.20159203
0.08800000 1210047.08484549 22615.78107788
0.08900000 1201216.41688804 19459.70686760
0.09000000 1192348.65359127 21158.22785190
0.09100000 1183446.73888763 24497.34864589
0.09200000 1174511.24941445 16384.43269918
0.09300000 1165545.68667424 24651.29243158
0.09400000 1156548.71014380 21425.06586234
0.09500000 1147524.16298818 21481.65334083
0.09600000 1138473.43963809 18221.26825795
0.09700000 1129399.40146326 19922.60637843
0.09800000 1120302.55633826 24954.74061575
0.09900000 1111185.07143496 18334.55454081
0.10000000 1102046.59191538 18365.60731795
0.10100000 1092890.14252178 25081.82995052
0.10200000 1083717.56541438 20092.12460784
0.10300000 1074529.87998186 28496.53375762
0.10400000 1065329.82438239 23490.52373275
0.10500000 1056119.89474396 23509.22996309
0.10600001 1046896.60270930 18482.96039052
0.10700001 1037667.62970584 18491.23803151
0.10800001 1028430.12530854 25222.25001019
0.10900001 1019188.19554053 20179.92722148
0.11000001 1009942.19306875 20178.64596731
0.11100001 1000694.08422299 18492.82754696
0.11200001 991446.38671765 16805.01704600
0.11300001 982197.62852531 18475.13826239
0.11400001 972952.65568044 18461.77751080
0.11500001 963711.42579820 21799.15347803
0.11600001 954475.25876853 20101.24989626
0.11700001 945246.75816310 16730.86840743
0.11800001 936024.38996246 21720.44699208
0.11900001 926812.65233767 23355.67993900
0.12000001 917611.25291790 18320.10952747
0.12100001 908423.97967257 19948.99153337
0.12200001 899248.78516523 21568.48312831
0.12300001 890089.56397052 19866.80000383
0.12400001 880945.92241254 23124.83155291
0.12500001 871820.35353240 21420.62709564
0.12600001 862715.16376630 19721.66957305
0.12700001 853630.00310854 21306.60588169
0.12800001 844565.29429529 17976.57313630
0.12900001 835524.37712552 24439.08918279
0.13000001 826507.27927329 16240.86880323
0.13100001 817514.87805973 17805.47488345
0.13200001 808550.14382802 20969.74896870
0.13300001 799613.86979398 20893.91140272
0.13400001 790705.08815059 24017.66818490
0.13500001 781827.40392578 23923.91968810
0.13600001 772979.87296199 17473.21085218
0.13700001 764165.68546442 17400.05347849
0.13800001 755383.23126236 22049.63756032
0.13900001 746637.72503480 18815.27155817
0.14000001 737926.48862772 18728.57516462
0.14100001 729252.11276776 18639.68488145
0.14200001 720614.33484088 20094.33167479
0.14300001 712017.80239605 19993.46083432
0.14400001 703456.72405864 15300.18446998
0.14500001 694939.87187805 16741.10230326
0.14600001 686461.90326874 21191.07995358
0.14700001 678029.39003340 16557.47848574
0.14800001 669637.69311500 17959.68377666
0.14900001 661289.84085329 14879.02212120
0.15000001 652987.69971047 14790.17209629
0.15100001 644731.53552240 22049.81955529
0.15200001 636522.75093264 16069.01760554
0.15300001 628361.21520169 14515.14475611
0.15400001 620246.03206978 15862.79301877
0.15500001 612181.68501390 17190.06252644
0.15600001 604165.07208067 14228.08811899
0.15700001 596202.35450762 16955.99576247
0.15800001 588286.07911494 16836.74837894
0.15900001 580424.75680456 16716.23378499
0.16000001 572613.41361531 17977.19896902
0.16100001 564858.20975153 16471.26617387
0.16200001 557154.35930799 16346.90967377
0.16300001 549506.01291868 16221.41826714
0.16400001 541911.91114645 22800.94473791
0.16500001 534373.45664205 18628.25957801
0.16600001 526890.66352728 15838.33409341
0.16700001 519463.73804823 17017.63286194
0.16800001 512092.64931206 16876.01405490
0.16900001 504781.35705466 12871.92521268
0.17000001 497526.52505094 16590.02276120
0.17100001 490330.10219448 16445.67240419
0.17200001 483192.54633987 17554.38603750
0.17300001 476113.65170554 21125.16372380
0.17400001 469095.13977989 17239.24720105
0.17500001 462135.84475157 13420.42556540
0.17600001 455234.62766144 14503.77592229
0.17700001 448396.42459084 14366.62212243
0.17800001 441617.99484280 13043.18809374
0.17900001 434900.15909911 14090.76582037
0.18000001 428244.34826113 12789.51806493
0.18100001 421651.04976683 16115.50388333
0.18200001 415116.56186295 12534.44517755
0.18300001 408646.81316845 13534.38309149
0.18400001 402237.63612108 14510.72340856
0.18500001 395891.56126800 12149.91258930
0.18600001 389607.78554103 13114.19868087
0.18700001 383386.24784329 11892.64196996
0.18800001 377226.91564452 14972.13698931
0.18900001 371132.53672225 10577.27779633
0.19000001 365097.05649518 12552.03739537
0.19100001 359129.32774315 10342.92512771
0.19200001 353221.28501981 16361.21069521
0.19300001 347378.60977396 11119.58982429
0.19400001 341598.08857889 14987.61684462
0.19500001 335881.22250186 10862.39924901
0.19600001 330226.41738952 10734.01020450
0.19700001 324635.53900627 9641.67596413
0.19800001 319107.72624171 10477.90268632
0.19900001 313643.71590591 12232.10549842
0.20000001 308240.90471211 9293.46371629
0.20100001 302902.88212146 11931.34509067
0.20200001 297626.39552507 11781.54142370
0.20300001 292413.50887436 10737.42455337
0.20400001 287263.27491853 11483.34995764
0.20500001 282174.81647181 9591.12246522
0.20600001 277149.39524412 12047.68478073
0.20700001 272185.98776696 10190.64386370
0.20800001 267284.44653399 11731.11491291
0.20900001 262447.25160984 10747.21546146
0.21000001 257669.09617696 10601.79546337
0.21100001 252952.93785420 13674.63646684
0.21200001 248297.98729953 11106.36949696
0.21300001 243704.19389291 12516.64799007
0.21400001 239172.02135171 9255.95766390
0.21500001 234701.25415380 12166.91359055
0.21600001 230289.28393370 8995.09985573
0.21700001 225938.43766118 8127.00598691
0.21800001 221647.17268637 10921.66495050
0.21900001 217414.61627296 8609.61921149
0.22000001 213241.29701188 7775.84426320
0.22100001 209129.19521592 10446.00379496
0.22200001 205074.83950462 6859.75370579
0.22300001 201078.75772419 8107.49589481
0.22400001 197139.00891283 7318.78605197
0.22500001 193260.19309262 7206.67294121
0.22600001 189437.00243640 7740.39628558
0.22700001 185671.89427733 6349.97908457
0.22800001 181962.81149435 8125.54973154
0.22900001 178309.77181900 6766.85616054
0.23000001 174713.07960111 7264.57019337
0.23100001 171173.27955486 6552.51345125
0.23200001 167687.04999928 6446.72894211
0.23300001 164256.74860054 8071.57700797
0.23400001 160881.14047754 6805.27256406
0.23500001 157558.21875550 6693.07344929
0.23600001 154289.96361022 9873.01523838
0.23700001 151074.87376713 5393.37324858
0.23800001 147912.68475711 5302.66999935
0.23900001 144803.01637834 6255.49060343
0.24000001 141745.19652493 7173.72473545
0.24100001 138740.19478373 6547.15010153
0.24200001 135785.61781726 5939.26320427
0.24300001 132882.03560646 5836.17927990
0.24400001 130028.09073346 4778.53256050
0.24500001 127224.62976317 6102.96577844
0.24600001 124470.46849093 5533.95729089
0.24700001 121766.34263651 6341.59142450
0.24800001 119109.56887925 4448.74260810
0.24900001 116500.85012406 5679.41671223
0.25000001 113940.33293769 6434.78060707
0.25100001 111426.44272895 4633.11170786
0.25200001 108960.47828599 4962.06041590
0.25300001 106540.78791075 5276.96547488
0.25400001 104166.09703873 4382.78874026
0.25500001 101836.91581483 5865.80662846
0.25600001 99553.06780999  4221.54804022
0.25700001 97313.47830871  3766.03178873
0.25800001 95117.58494344  4434.38201987
0.25900001 92965.76140526  4713.36432626
0.26000001 90857.43613125  4268.48255141
0.26100001 88789.38713408  4885.19231127
0.26200001 86766.08349231  5476.67544917
0.26300001 84782.89765216  4364.62377766
0.26400001 82840.89952517  3951.51109433
0.26500001 80940.30982848  3229.51851497
0.26600001 79078.93475402  3800.53378412
0.26700001 77258.54846922  4348.11131360
0.26800001 75477.19728473  3350.05556001
0.26900001 73733.90790092  3583.46809356
0.27000001 72029.61441485  3806.40515388
0.27100001 70363.01196125  3444.97322865
0.27200001 68734.11460041  3377.59455130
0.27300001 67141.56616257  3311.42219985
0.27400001 65584.57684848  2975.90031533
0.27500001 64065.58202149  3448.00978757
0.27600001 62580.05211074  4160.32206121
0.27700001 61131.35866028  3313.93110981
0.27800001 59716.13171303  3498.76832265
0.27900001 58335.65556849  3185.12694478
0.28000001 56988.34129448  2402.05869925
0.28100001 55674.15468557  3768.02696746
0.28200001 54393.02064947  3001.67898661
0.28300001 53144.19591267  3169.51999425
0.28400001 51927.34502392  2885.86233629
0.28500001 50742.04118984  2612.20040409
0.28600001 49586.81314860  2775.12612921
0.28700001 48462.66638748  2931.02220185
0.28800001 47367.75058443  2053.39208503
0.28900001 46303.97383330  3021.33443563
0.29000001 45267.96302029  1975.94667937
0.29100001 44261.95479901  2326.40845436
0.29200001 43283.48208893  2473.00186621
0.29300001 42332.81180624  2426.94021573
0.29400001 41409.35513066  2382.07326665
0.29500001 40514.07027122  1798.82480519
0.29600001 39644.15518129  2649.22079540
0.29700001 38800.21390835  2081.24357257
0.29800001 37982.62391937  2725.63322148
0.29900001 37190.14990780  2008.26819009
0.30000001 36422.38683438  1973.36501211
0.30100001 35679.98295353  2101.19429560
0.30200001 34960.44154958  1588.95214365
0.30300001 34265.02680655  1874.98235562
0.30400001 33593.60230609  2459.05180522
0.30500001 32943.78316233  1512.11971874
0.30600001 32316.81944320  1934.64648756
0.30700001 31712.27894191  1758.12882778
0.30800001 31129.17914873  2019.97253059
0.30900001 30567.40900160  1989.93842022
0.31000001 30027.16592894  1540.84409259
0.31100001 29505.83580737  1933.22245363
0.31200001 29005.94512990  1498.01210716
0.31300001 28524.99830020  1746.58572862
0.31400001 28064.97817643  1326.07028162
0.31500001 27623.09638771  1440.26831385
0.31600002 27199.82083252  1552.02185019
0.31700002 26794.61770404  1789.34465500
0.31800002 26407.60716721  1389.96446906
0.31900002 26038.41598808  2249.71924789
0.32000002 25686.22124012  1484.14993353
0.32100002 25351.45504508  1469.37040399
0.32200002 25033.24790712  1698.00528594
0.32300002 24730.56686330  1442.28672776
0.32400002 24444.17531475  1787.48040453
0.32500002 24172.85326888  1536.66835507
0.32600002 23917.35320084  1525.09009907
0.32700002 23676.45900042  1164.88183798
0.32800002 23451.00231814  1504.49912496
0.32900002 23238.47248716  1380.36533110
0.33000002 23041.50031850  1944.81792648
0.33100002 22855.83710991  1593.50903876
0.33200002 22685.96161346  1246.48021988
0.33300002 22527.73475419  2031.55121634
0.33400002 22383.18458349  1574.65711002
0.33500002 22250.32488798  1233.55807021
0.33600002 22129.71260728  1230.52272780
0.33700002 22020.24924060  1451.35469618
0.33800002 21923.65628536  1337.78156989
0.33900002 21837.10602740  1225.06170615
0.34000002 21762.37814805  1558.40397298
0.34100002 21698.02317308  1224.41950564
0.34200002 21645.02149453  1336.36369036
0.34300002 21600.85534630  1783.36670185
0.34400002 21567.51165083  1674.17817118
0.34500002 21543.13191695  1453.51517928
0.34600002 21529.64680194  1456.80361985
0.34700002 21523.01582533  1348.20177515
0.34800002 21526.94408469  1239.62913383
0.34900002 21538.94697818  1356.95372389
0.35000002 21559.47383245  1816.17016166
0.35100002 21588.16570980  1139.85520346
0.35200002 21624.13409506  1259.49775002
0.35300002 21668.13676302  1495.75155159
0.35400002 21719.90623615  1503.56058041
0.35500002 21778.55425153  1511.86730775
0.35600002 21843.68493760  1169.72938381
0.35700002 21915.82562807  1294.56788117
0.35800002 21995.02713208  1539.76194731
0.35900002 22080.05273683  1669.25206597
0.36000002 22171.87208397  1440.72831626
0.36100002 22268.67194598  1934.70231031
0.36200002 22372.35881505  1461.80999422
0.36300002 22479.71913868  1472.87126773
0.36400002 22593.26528646  2226.56639945
0.36500002 22711.32395319  1496.22209291
0.36600002 22834.84397261  2136.99897440
0.36700002 22962.57446707  1394.28758769
0.36800002 23096.21032775  1661.88789285
0.36900002 23233.06507211  1289.43517258
0.37000002 23373.16896483  1690.93198886
0.37100002 23517.72686894  1705.97598788
0.37200002 23666.39706840  1986.20246805
0.37300002 23818.04676483  1603.43098416
0.37400002 23974.17615998  1618.25696746
0.37500002 24132.40695492  1497.17459841
0.37600002 24294.71006900  1786.02569533
0.37700002 24458.66602627  1802.84835820
0.37800002 24626.39414903  1820.01374580
0.37900002 24796.29564827  1696.06670269
0.38000002 24968.90727914  1855.06505418
0.38100002 25143.16296793  1584.77363694
0.38200002 25319.88591874  1600.09026644
0.38300002 25498.21395538  1468.69719341
0.38400002 25679.07070062  1927.85632418
0.38500002 25860.54414034  1796.79069199
0.38600002 26044.69555213  1814.27357811
0.38700002 26229.21430451  1831.84841381
0.38800002 26415.02777053  1849.58033212
0.38900002 26602.09494401  1711.84489075
0.39000002 26790.80817981  1728.40907161
0.39100002 26979.49652157  1745.03391769
0.39200002 27169.54252300  1761.80906837
0.39300002 27359.69755237  1778.65402215
0.39400002 27551.28766500  1958.89664579
0.39500002 27742.19439936  2307.04099555
0.39600002 27933.63897585  2661.51724772
0.39700002 28124.65289619  3022.27534341
0.39800002 28316.96921781  2033.72482558
0.39900002 28508.22921426  2052.59260068
0.40000002 28699.21904530  1726.25810736
0.40100002 28889.78914685  1742.05436809
0.40200002 29081.21373743  2109.55134446
0.40300002 29270.93756577  1951.20079058
0.40400002 29460.19080871  1968.67734407
0.40500002 29648.86282079  2347.30058074
0.40600002 29836.98962147  2550.16762378
0.40700002 30024.01941423  2204.96409025
0.40800002 30210.30398875  2965.44358004
0.40900002 30394.74600511  2803.91545183
0.41000002 30579.00243430  2450.75426622
0.41100002 30761.62563769  1901.06855449
0.41200002 30942.41673140  2108.57108807
0.41300002 31122.29812296  2705.77272702
0.41400002 31300.48539667  2143.30083909
0.41500002 31477.69877429  2749.89189522
0.41600002 31652.10674208  2375.80724463
0.41700002 31825.65140572  2195.01528146
0.41800002 31998.23941117  2815.52521920
0.41900002 32167.02232269  2026.52250236
0.42000002 32334.69102999  2246.12941883
0.42100002 32501.09938177  2468.78362602
0.42200002 32665.16034022  2487.12542616
0.42300002 32826.73505054  2296.55849296
0.42400002 32986.22433409  3364.59504151
0.42500002 33143.93373267  2329.68721246
0.42600002 33298.01435803  3199.10688104
0.42700002 33451.16167834  2577.07761782
0.42800002 33601.45253061  3243.38035921
0.42900002 33749.82141006  2394.54994251
0.43000002 33895.72590886  2191.35878385
0.43100002 34037.81722734  2205.65066085
0.43200002 34178.23821711  2219.87667740
0.43300002 34315.75722710  2680.74708162
0.43400002 34450.97947996  2472.71916935
0.43500002 34583.11084902  2714.08266805
0.43600002 34713.52847163  2503.01908906
0.43700002 34840.09134698  2517.89352097
0.43800002 34963.26207950  2532.56400874
0.43900002 35084.83057826  2315.59892790
0.44000002 35202.66188567  3725.84991055
0.44100002 35318.26237438  2809.92108767
0.44200002 35430.74831168  3060.68533795
0.44300002 35540.55718649  3313.80170911
0.44400002 35646.74478520  2617.36235989
0.44500002 35749.20023461  2869.94593084
0.44600002 35849.54215117  3124.82548970
0.44700002 35946.93882489  2898.76128422
0.44800002 36040.21690176  2670.03959570
0.44900002 36131.79614952  2682.78599124
0.45000002 36219.96021349  4165.47672176
0.45100002 36303.74297224  3445.95144624
0.45200002 36385.21701193  2719.61317445
0.45300002 36463.01254439  3724.69690793
0.45400002 36538.30679633  3491.23537985
0.45500002 36610.14074374  3505.78724377
0.45600002 36678.52124628  4022.90040095
0.45700002 36743.71004072  3029.15159932
0.45800002 36804.95129247  2787.42311824
0.45900002 36863.36877695  2543.57256616
0.46000002 36919.26717207  3063.56093513
0.46100002 36970.68318665  2562.06846626
0.46200002 37019.57802633  3856.51472367
0.46300002 37064.81822158  3611.59605868
0.46400002 37106.35232565  3105.80183686
0.46500002 37145.47131812  3375.40913866
0.46600002 37180.52202708  3385.84439887
0.46700002 37212.29096713  4440.91501450
0.46800002 37241.42132112  3143.92093694
0.46900002 37266.54756672  3415.47924637
0.47000002 37287.99531397  2897.83669317
0.47100002 37306.71238354  3433.70997053
0.47200002 37321.81611694  3707.17617061
0.47300002 37334.29728079  2654.46866248
0.47400002 37342.06339100  2926.68435699
0.47500002 37347.71335600  3466.61491801
0.47600002 37350.30928107  3206.89770687
0.47700002 37348.49717888  3213.46484958
