# SAXS profile: number of points = 501, q_min = 0, q_max = 0.5, delta_q = 0.001
#    q    intensity    error
0.00000000 1646666.22097351 345.79990640
0.00100000 1646598.55394491 543.37753571
0.00200000 1646395.48725090 889.05359127
0.00300000 1646057.21368440 1185.16123607
0.00400000 1645583.56732083 2098.11912806
0.00500000 1644975.02646998 2072.66861539
0.00600000 1644231.30545844 1899.08723512
0.00700000 1643353.06669355 2169.22613819
0.00800000 1642339.76598339 2438.87465545
0.00900000 1641192.74301380 2461.78921976
0.01000000 1639911.14042621 3517.60954810
0.01100000 1638496.23836050 3244.22269321
0.01200000 1636947.42522756 3830.45714297
0.01300000 1635266.12869738 4807.68263041
0.01400000 1633451.62263064 4042.79294523
0.01500000 1631505.57927706 5090.29763401
0.01600000 1629426.94532344 4155.03889632
0.01700000 1627217.75574854 5272.18576513
0.01800000 1624877.64197842 6483.26208323
0.01900000 1622407.27953034 5840.66646986
0.02000000 1619807.24175244 6122.87165080
0.02100000 1617079.17693393 6403.63383099
0.02200000 1614221.30367083 6125.97012575
0.02300000 1611236.59391483 8700.67800318
0.02400000 1608124.78188708 6030.46820705
0.02500000 1604887.15713393 6884.96621855
0.02600000 1601523.97561294 10377.87583664
0.02700000 1598036.27378458 8725.27845449
0.02800000 1594423.83746810 9016.46721437
0.02900000 1590689.32024377 8589.72272371
0.03000000 1586832.91219609 8116.65071897
0.03100000 1582854.96504644 8357.47460000
0.03200000 1578756.33299435 7814.84420826
0.03300000 1574539.90516042 10439.20005247
0.03400000 1570203.62102886 9892.28326892
0.03500000 1565750.74566602 12682.58162555
0.03600000 1561181.14471025 9531.01132892
0.03700000 1556496.46345227 13308.04537798
0.03800000 1551698.11028301 9985.17780178
0.03900000 1546787.22831905 9280.72379970
0.04000000 1541762.84540565 11378.21032635
0.04100000 1536628.78893845 14521.14272876
0.04200000 1531385.35794392 13828.41042377
0.04300000 1526032.67847935 13093.36098912
0.04400000 1520574.41753757 13343.04113357
0.04500000 1515009.99764360 14634.99725725
0.04600000 1509339.88722458 12769.01603951
0.04700000 1503567.17835055 10825.68418760
0.04800000 1497692.11872392 19814.46765265
0.04900000 1491717.53305903 11187.88201871
0.05000000 1485642.48918775 13638.19868582
0.05100000 1479470.81081733 11539.87286195
0.05200000 1473200.49005965 11711.94444177
0.05300000 1466836.99799881 14257.65628521
0.05400000 1460378.25941498 13252.93332223
0.05500000 1453828.86880673 15875.81198796
0.05600000 1447186.77706447 14848.13702556
0.05700000 1440457.25036482 13785.17652946
0.05800000 1433638.69729748 15225.24367620
0.05900000 1426733.35912960 15408.72099828
0.06000000 1419743.58340038 16887.85071353
0.06100000 1412671.07449009 15765.40992805
0.06200000 1405516.15736377 17266.76680032
0.06300000 1398282.23441292 17450.56310138
0.06400000 1390967.16754546 14918.12356960
0.06500000 1383577.32081291 19176.38256350
0.06600000 1376110.33246493 19361.87328370
0.06700000 1368569.35803668 19543.17134736
0.06800000 1360957.20079389 14085.90768757
0.06900000 1353274.56392723 17051.26030380
0.07000000 1345521.16259517 17195.76126322
0.07100000 1337701.78527898 17336.61594922
0.07200000 1329814.85964750 18929.91541389
0.07300000 1321865.80743528 16139.98226503
0.07400000 1313853.47825471 19215.10801997
0.07500000 1305780.25892261 17863.07477935
0.07600000 1297646.48091057 19484.16282430
0.07700000 1289457.42924781 18103.98315551
0.07800000 1281211.38623393 16700.59120275
0.07900000 1272910.33333768 18329.90965980
0.08000000 1264558.28606904 16900.82228615
0.08100000 1256154.96716777 15450.70682108
0.08200000 1247701.82525499 15533.88845336
0.08300000 1239201.43462153 17175.33268993
0.08400000 1230654.93508181 18829.02139056
0.08500000 1222065.67891848 18917.57759775
0.08600000 1213433.00056506 20585.89182112
0.08700000 1204760.49604647 19083.40715349
0.08800000 1196046.67676318 19160.66866160
0.08900000 1187297.81148423 17631.37332868
0.09000000 1178512.31886424 16086.69390818
0.09100000 1169693.28076857 17755.94483626
0.09200000 1160841.11908623 17813.10780936
0.09300000 1151959.49764717 16242.62968010
0.09400000 1143046.82747505 17917.25986274
0.09500000 1134107.00397383 24496.71243725
0.09600000 1125141.64471842 31104.54223040
0.09700000 1116153.29263334 16407.45417307
0.09800000 1107142.46783517 19729.27970445
0.09900000 1098111.61220508 18118.84245338
0.10000000 1089060.09998613 21449.03967791
0.10100000 1079991.02268749 21481.02245155
0.10200000 1070906.14538470 21509.15094176
0.10300000 1061806.49861785 23189.85502068
0.10400000 1052694.84381941 21553.92794121
0.10500000 1043573.81700457 21570.67181237
0.10600001 1034439.60058194 18263.03200761
0.10700001 1025300.28458503 19931.83847028
0.10800001 1016152.47441310 28243.95935552
0.10900001 1007000.72570161 16615.51275610
0.11000001 997844.89890405 19936.94201853
0.11100001 988687.45370607 23253.93000581
0.11200001 979530.69562257 19923.65528691
0.11300001 970373.13299916 23230.73389772
0.11400001 961219.48662008 19897.24430989
0.11500001 952069.92767940 23192.42453035
0.11600001 942925.52095532 21512.84677367
0.11700001 933788.87963914 18180.87034280
0.11800001 924658.88917637 19806.19433900
0.11900001 915539.43991661 18127.68176419
0.12000001 906430.71993932 18096.89017604
0.12100001 897335.91805939 21347.62249628
0.12200001 888253.62298427 18027.10812775
0.12300001 879187.24319389 17988.17184325
0.12400001 870136.80621861 17946.57247386
0.12500001 861104.42984643 30922.26153286
0.12600001 852092.37347998 16232.36047972
0.12700001 843100.71204897 19425.04132104
0.12800001 834129.43201751 20982.52685129
0.12900001 825181.96829119 17700.15405409
0.13000001 816258.33625957 17643.42476987
0.13100001 807359.48860006 22380.00607893
0.13200001 798488.24323662 27080.73004596
0.13300001 789645.65901010 17459.06634379
0.13400001 780830.43727789 18974.18052040
0.13500001 772046.30976952 22049.64364662
0.13600001 763292.28742150 21959.92014454
0.13700001 754571.51716951 17181.59425612
0.13800001 745882.53171909 18661.98182363
0.13900001 737230.38996577 18578.20670325
0.14000001 728612.40925971 26197.26041041
0.14100001 720031.17587759 24538.66363122
0.14200001 711486.45076163 18313.66210637
0.14300001 702982.87684715 16702.87394172
0.14400001 694514.77810268 15105.69713627
0.14500001 686090.68656806 19533.00276801
0.14600001 677705.25086461 16437.74163516
0.14700001 669365.32429584 17831.89308049
0.14800001 661065.76437527 20684.74874318
0.14900001 652810.18045762 19094.69867929
0.15000001 644599.85445551 16060.20613153
0.15100001 636435.52710537 17412.87684323
0.15200001 628318.04739079 17303.87984166
0.15300001 620247.96622571 20058.82017430
0.15400001 612223.92161827 15657.62753429
0.15500001 604250.55414854 18381.30272467
0.15600001 596324.26984003 14043.43721751
0.15700001 588452.00146507 20919.46963942
0.15800001 580625.84323916 16617.51241783
0.15900001 572854.36209567 24747.30961062
0.16000001 565132.50332391 15012.74565944
0.16100001 557466.48961003 18965.01087176
0.16200001 549851.53992741 20165.80617879
0.16300001 542291.79268601 20010.56809477
0.16400001 534786.02468574 13235.95473584
0.16500001 527335.46248597 14443.71899940
0.16600001 519940.44297495 15629.41045374
0.16700001 512600.51758639 18084.54711430
0.16800001 505316.49509665 17933.68325774
0.16900001 498091.73620545 22862.41177135
0.17000001 490922.86381781 13851.38925668
0.17100001 483812.21837313 18723.53373519
0.17200001 476760.12968588 19795.08151934
0.17300001 469766.15091073 13486.98682956
0.17400001 462832.16465674 19438.95183361
0.17500001 455957.00477178 13240.99204391
0.17600001 449139.45990636 15502.04919082
0.17700001 442384.59114590 14174.00296976
0.17800001 435688.82501135 16377.54370572
0.17900001 429053.40162535 11584.44239106
0.18000001 422479.49449204 11470.31881726
0.18100001 415967.70496650 17033.87832300
0.18200001 409514.24722089 14613.51660239
0.18300001 403124.86714436 14464.12091641
0.18400001 396795.66760535 12112.18832584
0.18500001 390529.08666819 13074.91443934
0.18600001 384324.26465720 11858.32574623
0.18700001 378181.19824445 12797.65235321
0.18800001 372099.98380661 11603.93854325
0.18900001 366083.14655814 13563.38122081
0.19000001 360124.49438157 13412.83742698
0.19100001 354233.30470686 12242.30358912
0.19200001 348400.72340423 14120.68198679
0.19300001 342633.63873167 10967.70329405
0.19400001 336927.73717234 11826.16413358
0.19500001 331285.13462399 13635.69678548
0.19600001 325703.86634461 18286.64444008
0.19700001 320186.19077962 12362.38941022
0.19800001 314730.81073749 11273.65817340
0.19900001 309338.75249368 11136.19561607
0.20000001 304007.32349466 10998.98548386
0.20100001 298739.96928549 10862.18579659
0.20200001 293533.72056054 8938.10221351
0.20300001 288390.34644752 10589.69402207
0.20400001 283309.04625658 8711.75358416
0.20500001 278288.87589593 9459.03933880
0.20600001 273331.34299814 9335.63246138
0.20700001 268434.90666014 9212.68643205
0.20800001 263600.04288487 9916.63408209
0.20900001 258828.68663787 8968.41441595
0.21000001 254115.71843590 10455.59172931
0.21100001 249464.16886515 8726.25703942
0.21200001 244873.22069430 7823.69977104
0.21300001 240342.85726628 10029.50790787
0.21400001 235873.28730268 12931.75358774
0.21500001 231464.60080058 8999.34410459
0.21600001 227114.21805591 7392.56814723
0.21700001 222824.12564012 10200.88895410
0.21800001 218593.04920021 8616.93840689
0.21900001 214420.05397781 7783.44832741
0.22000001 210305.50226492 8365.95327566
0.22100001 206251.61275930 7554.99693260
0.22200001 202254.79872802 7441.96567109
0.22300001 198315.53908542 7996.08291402
0.22400001 194432.04734350 8530.70648058
0.22500001 190608.88670792 9046.29819093
0.22600001 186840.33472595 7634.29643791
0.22700001 183129.63839713 8768.24750110
0.22800001 179474.04853750 6164.93385880
0.22900001 175874.00675707 7281.18422408
0.23000001 172329.44803916 8956.82348542
0.23100001 168841.33636500 6463.24666172
0.23200001 165405.85869141 6937.12204160
0.23300001 162025.80046761 6824.52703846
0.23400001 158699.74094839 7272.41597291
0.23500001 155425.63950612 7152.68826837
0.23600001 152205.69485407 8657.46033277
0.23700001 149038.24884063 6384.79888232
0.23800001 145922.72855023 6800.72908575
0.23900001 142859.37580308 5657.23154939
0.24000001 139846.99081852 5561.01585294
0.24100001 136886.94942374 5465.89614903
0.24200001 133976.45423103 4883.44198772
0.24300001 131116.47213782 5278.74941797
0.24400001 128305.41046397 5186.74646336
0.24500001 125544.10486170 4632.57768854
0.24600001 122831.64931023 5916.18666889
0.24700001 120168.26138317 5364.31144191
0.24800001 117551.60723150 5268.66328536
0.24900001 114982.48101842 5174.21189061
0.25000001 112460.97715640 5504.40278732
0.25100001 109985.23960935 4988.93070470
0.25200001 107556.83066883 4081.78191699
0.25300001 105174.16853113 5609.99041486
0.25400001 102835.59587839 4720.15407413
0.25500001 100542.16884001 4632.98335934
0.25600001 98293.21107625  6062.72554603
0.25700001 96087.94972978  4462.32459658
0.25800001 93925.77949270  4378.82004713
0.25900001 91806.99500513  3938.52027207
0.26000001 89731.09436767  3864.26976178
0.26100001 87694.91180916  4135.69223661
0.26200001 85702.70416627  4057.16620720
0.26300001 83750.00157761  4643.10030716
0.26400001 81837.93233573  4554.28114998
0.26500001 79966.72641485  4786.00880240
0.26600001 78133.90341352  3755.11557574
0.26700001 76341.63160920  3682.72048310
0.26800001 74587.60368827  4213.45393173
0.26900001 72871.12005815  3541.53660242
0.27000001 71193.18952825  4051.60460778
0.27100001 69552.16528660  2837.72847798
0.27200001 67948.32087511  3060.73225866
0.27300001 66380.26123028  3273.87463881
0.27400001 64847.09608541  4012.41426017
0.27500001 63351.36670927  3409.57071765
0.27600001 61888.48284216  3600.05321730
0.27700001 60462.00496420  2773.39229896
0.27800001 59068.21725915  2966.40601115
0.27900001 57708.79121232  2423.76934563
0.28000001 56381.79494349  2614.14204628
0.28100001 55087.57682427  3728.32737592
0.28200001 53825.75734409  2513.39385814
0.28300001 52595.61876065  3136.80285135
0.28400001 51397.08455775  2416.94801572
0.28500001 50229.34300566  3016.77448371
0.28600001 49091.33197952  3381.41110680
0.28700001 47983.75025295  2694.76754176
0.28800001 46904.89813067  2236.66017323
0.28900001 45856.66065873  2194.24131638
0.29000001 44835.76555423  2739.91376271
0.29100001 43844.36206377  2304.45977915
0.29200001 42879.79739422  3203.76421396
0.29300001 41942.70640425  2404.57547198
0.29400001 41032.31298687  2360.38391630
0.29500001 40149.65967563  2139.17396878
0.29600001 39291.72080015  2275.58011786
0.29700001 38459.48700613  2062.96698067
0.29800001 37652.93367007  2195.35440156
0.29900001 36871.18839540  1825.12391197
0.30000001 36113.69169458  2282.74656008
0.30100001 35381.00881795  1763.03575286
0.30200001 34670.71094280  2363.67583042
0.30300001 33984.18256124  1859.61455779
0.30400001 33321.16442756  2286.66501710
0.30500001 32679.39173389  2099.97781224
0.30600001 32060.03660867  2214.54713359
0.30700001 31462.66530312  1598.93272640
0.30800001 30886.29740770  1717.89594315
0.30900001 30330.82052847  2115.57483202
0.31000001 29796.60397785  1529.01280551
0.31100001 29280.75131095  1918.47491672
0.31200001 28786.08670332  1756.95888512
0.31300001 28309.83898790  1866.75087125
0.31400001 27854.18799002  1579.33253381
0.31500001 27416.49107044  1689.40425975
0.31600002 26996.72831205  1540.43339042
0.31700002 26594.84791017  1776.00402753
0.31800002 26210.83422761  1254.18847718
0.31900002 25844.27526753  1860.78790737
0.32000002 25494.30909659  1841.32656169
0.32100002 25161.39981894  1336.82523568
0.32200002 24844.85512482  1444.47994535
0.32300002 24543.46934128  1192.81266647
0.32400002 24258.04629241  1182.57981275
0.32500002 23987.39079873  1290.28181216
0.32600002 23732.33069830  1746.10631381
0.32700002 23491.46682545  1386.93626705
0.32800002 23265.79876997  1148.16722367
0.32900002 23052.74173013  1483.44400058
0.33000002 22854.93867361  1929.07119010
0.33100002 22668.29795400  1128.88129157
0.33200002 22497.10741811  1348.47668250
0.33300002 22337.33126354  1119.10034930
0.33400002 22190.96167439  2007.17257850
0.33500002 22056.04983537  1445.11245365
0.33600002 21933.16729773  1441.33815723
0.33700002 21821.04426376  1438.22509553
0.33800002 21721.82521935  1325.46583765
0.33900002 21632.17523697  1213.56508827
0.34000002 21554.31626763  1323.00399516
0.34100002 21486.57441674  1212.48745176
0.34200002 21429.89588815  1212.82501523
0.34300002 21381.96427504  1654.96411327
0.34400002 21344.53168672  1767.32730736
0.34500002 21316.09465450  1106.30536496
0.34600002 21298.18552250  1108.57060895
0.34700002 21287.01080358  1555.65482320
0.34800002 21286.21989978  1671.50049679
0.34900002 21293.41238512  1341.48504380
0.35000002 21308.87733984  1234.10368959
0.35100002 21332.44508464  1351.62378458
0.35200002 21363.14742404  1131.17870968
0.35300002 21401.63181022  1250.06937324
0.35400002 21447.84077875  1256.30733312
0.35500002 21500.85124062  1262.96006169
0.35600002 21560.09874677  1269.99767683
0.35700002 21626.36944566  1509.73692251
0.35800002 21699.48373488  1285.36897992
0.35900002 21778.37058922  2116.85772154
0.36000002 21863.98641354  1775.90238056
0.36100002 21954.39380645  1788.18546023
0.36200002 22051.69452425  1681.00075321
0.36300002 22152.51515357  1330.48012314
0.36400002 22259.47516977  1340.57695560
0.36500002 22370.90372328  1350.97893984
0.36600002 22487.68733335  1361.74197097
0.36700002 22608.61050649  1247.99535907
0.36800002 22735.43681683  1510.08778490
0.36900002 22865.45715995  1522.83951899
0.37000002 22998.58637261  1535.84567072
0.37100002 23136.24251767  1678.30311173
0.37200002 23277.88102211  1562.87700586
0.37300002 23422.49650433  1576.80253937
0.37400002 23571.55863931  1856.26033078
0.37500002 23722.75649252  1471.75988252
0.37600002 23878.00293768  1755.39146912
0.37700002 24034.83903142  1635.33052517
0.37800002 24195.49179059  1650.61652815
0.37900002 24358.30200420  1804.95026402
0.38000002 24523.74606007  1681.83858447
0.38100002 24690.96368415  1556.27151474
0.38200002 24860.58503171  2570.83321992
0.38300002 25031.84835893  1586.01798716
0.38400002 25205.66525506  1892.31540867
0.38500002 25380.02836135  1763.40445409
0.38600002 25557.27605797  1780.31993454
0.38700002 25734.81472560  2246.64943198
0.38800002 25913.70287762  1663.27109800
0.38900002 26093.89982872  2137.09049722
0.39000002 26275.76136976  1695.18082508
0.39100002 26457.70343815  1866.85564304
0.39200002 26640.88990799  2198.67274827
0.39300002 26824.47035759  2219.45678254
0.39400002 27009.40882774  2240.43056841
0.39500002 27193.83881248  1615.31410199
0.39600002 27378.75089616  1630.40469311
0.39700002 27563.37817176  1974.64050578
0.39800002 27749.28663355  2657.27181393
0.39900002 27934.22194915  2514.08009454
0.40000002 28119.16723379  2537.05198387
0.40100002 28303.56185477  1877.37534678
0.40200002 28488.97636797  2755.45392486
0.40300002 28672.81368484  1911.32985079
0.40400002 28856.16553001  2278.91578071
0.40500002 29039.06604028  2122.17504677
0.40600002 29221.53831546  2319.16749829
0.40700002 29403.04085540  2339.30604129
0.40800002 29583.99018139  1996.47567199
0.40900002 29763.04608264  2013.47016289
0.41000002 29942.11975651  2215.11812454
0.41100002 30119.57452294  2419.80673183
0.41200002 30295.39025110  2064.47946648
0.41300002 30470.33990288  2270.64983715
0.41400002 30643.88247834  2479.85630706
0.41500002 30816.43590230  2692.12396799
0.41600002 30986.31086098  2519.65198705
0.41700002 31155.44301105  2344.13564323
0.41800002 31323.73712416  2362.43636585
0.41900002 31488.38129908  2975.65217376
0.42000002 31652.03423571  2198.70866237
0.42100002 31814.59074781  2215.25005874
0.42200002 31974.91303831  3043.21249262
0.42300002 32132.84794995  3269.83876233
0.42400002 32288.84090612  3087.62055796
0.42500002 32443.22703748  2073.12230593
0.42600002 32594.18003928  2713.95452957
0.42700002 32744.30530522  2943.05830029
0.42800002 32891.63372229  2328.23440336
0.42900002 33037.32260298  2343.99814976
0.43000002 33180.52718758  3861.21813179
0.43100002 33320.12777743  2590.97325875
0.43200002 33458.26616905  2607.73738879
0.43300002 33593.61941681  2186.94472767
0.43400002 33726.81262271  2640.80955350
0.43500002 33857.14375454  2435.68303713
0.43600002 33985.78229134  2227.76813477
0.43700002 34110.75048008  2689.29169529
0.43800002 34232.54784411  2479.63472060
0.43900002 34352.83608639  2494.01601806
0.44000002 34469.53936962  2508.17615109
0.44100002 34584.22650121  2522.22775826
0.44200002 34695.90308070  2536.09715587
0.44300002 34805.02878789  3245.22103798
0.44400002 34910.77230103  3728.47065844
0.44500002 35012.89261913  3279.30767812
0.44600002 35113.03675906  2589.76214890
0.44700002 35210.32510555  3312.58754292
0.44800002 35303.86100039  2615.48666617
0.44900002 35395.70739560  2628.13139868
0.45000002 35484.27605482  2880.61366665
0.45100002 35568.61504877  3135.01787897
0.45200002 35650.87241678  2422.47689553
0.45300002 35729.62806829  3406.46290147
0.45400002 35805.95028466  2932.50746729
0.45500002 35879.01474368  3190.36214221
0.45600002 35948.69109298  2464.28289121
0.45700002 36015.41309328  2474.25899677
0.45800002 36078.38154805  3974.39469970
0.45900002 36138.57041208  2992.27377194
0.46000002 36196.50153341  3754.48229949
0.46100002 36250.07623777  3265.76952304
0.46200002 36301.25119426  2773.23421642
0.46300002 36348.89155831  3794.82445854
0.46400002 36392.99330471  3807.61710497
0.46500002 36434.77064803  3820.18588351
0.46600002 36472.73493620  4087.86432540
0.46700002 36507.50739550  3075.39256876
0.46800002 36539.80451430  3855.86305412
0.46900002 36568.17882630  3867.08509417
0.47000002 36593.17974777  2585.30827171
0.47100002 36615.47230270  3370.08823047
0.47200002 36634.31367721  2599.20467859
0.47300002 36650.54361655  3127.02452958
0.47400002 36662.39189269  3657.07376463
0.47500002 36672.12077944  3665.74536686
0.47600002 36678.96107625  2624.37978940
0.47700002 36681.62766011  3419.09467626
