# SAXS profile: number of points = 501, q_min = 0, q_max = 0.5, delta_q = 0.001
#    q    intensity    error
0.00000000 1646666.22097351 321.09991309
0.00100000 1646598.58662113 691.57142280
0.00200000 1646395.62180597 963.14146925
0.00300000 1646057.50971195 1086.39799511
0.00400000 1645584.08711455 1357.60692346
0.00500000 1644975.84206932 2072.66964305
0.00600000 1644232.50636705 2934.95514335
0.00700000 1643354.68354054 1972.02570221
0.00800000 1642341.89228996 2882.31014266
0.00900000 1641195.42592804 2707.97256854
0.01000000 1639914.45676259 4329.37435279
0.01100000 1638500.23753678 3539.16066717
0.01200000 1636952.16933975 4468.87961823
0.01300000 1635271.70618224 4120.88488133
0.01400000 1633458.09629986 3675.28087960
0.01500000 1631513.01686299 4698.75769780
0.01600000 1629435.37803142 5401.57851964
0.01700000 1627227.26291373 4393.51380695
0.01800000 1624888.33440128 6946.39794214
0.01900000 1622419.16259420 5353.98347815
0.02000000 1619820.37750207 5612.67786194
0.02100000 1617093.62599039 6403.69104926
0.02200000 1614237.16171049 8353.67769138
0.02300000 1611253.91424451 6380.56579084
0.02400000 1608143.64472761 6030.53894271
0.02500000 1604907.57634973 10640.53771716
0.02600000 1601546.04825811 7134.88797133
0.02700000 1598060.06282188 8725.40834264
0.02800000 1594449.33051811 9710.19686816
0.02900000 1590716.69386294 7874.04799615
0.03000000 1586862.17365544 9592.58228067
0.03100000 1582886.18589833 9117.42485030
0.03200000 1578789.56745366 12504.01395014
0.03300000 1574575.21955766 8030.33398995
0.03400000 1570240.91786850 9892.51823902
0.03500000 1565790.25598603 10146.32132733
0.03600000 1561222.87473266 11264.22356176
0.03700000 1556540.47620685 11533.96546211
0.03800000 1551744.56413596 11801.01795640
0.03900000 1546836.07908503 10209.11859475
0.04000000 1541814.09808069 11378.58857111
0.04100000 1536682.62231139 14521.65145416
0.04200000 1531441.80255499 12841.14011016
0.04300000 1526091.72692861 13093.86762484
0.04400000 1520636.07292519 11290.72336583
0.04500000 1515074.34744294 12544.81617972
0.04600000 1509406.98677229 11705.45172657
0.04700000 1503637.13190242 11908.80663852
0.04800000 1497764.94114543 14311.14467852
0.04900000 1491793.30420310 16782.67545348
0.05000000 1485721.21079249 12502.34457100
0.05100000 1479552.57676800 11540.51063639
0.05200000 1473285.17294091 12883.87943777
0.05300000 1466924.77624515 11882.09124150
0.05400000 1460469.38511001 15663.53488576
0.05500000 1453922.99865769 12212.95375845
0.05600000 1447284.23585450 16086.56503219
0.05700000 1440557.98808336 15039.42609761
0.05800000 1433742.73027124 15226.34850644
0.05900000 1426840.76087912 16694.03768199
0.06000000 1419854.41088874 14290.83531325
0.06100000 1412785.23463173 21022.24527372
0.06200000 1405633.89651606 14611.56503728
0.06300000 1398403.40988679 16109.60803511
0.06400000 1391091.75145629 16275.77425320
0.06500000 1383705.59106619 20548.02898852
0.06600000 1376242.20765868 13831.23483411
0.06700000 1368705.02236983 16752.95025783
0.06800000 1361096.46004392 14087.34902087
0.06900000 1353417.55736987 19895.23902481
0.07000000 1345667.96292883 15764.50092394
0.07100000 1337852.26059523 17338.56610941
0.07200000 1329969.24731585 14563.16394035
0.07300000 1322023.92122216 19076.80607709
0.07400000 1314015.53516018 17739.21055600
0.07500000 1305946.09366173 20842.90063180
0.07600000 1297816.29135845 22484.66830188
0.07700000 1289631.06072848 19615.28935341
0.07800000 1281388.98414627 21258.24424392
0.07900000 1273091.92636472 16804.81421622
0.08000000 1264743.94990388 18439.96765464
0.08100000 1256344.70209811 16998.34461692
0.08200000 1247895.65166924 20197.19207002
0.08300000 1239399.26905707 18739.71782764
0.08400000 1230856.77674755 17262.76710418
0.08500000 1222271.64346866 18920.76592913
0.08600000 1213643.13533353 19005.65239167
0.08700000 1204974.60540435 22267.93175352
0.08800000 1196264.92440426 23955.20623622
0.08900000 1187520.16574863 19237.82758872
0.09000000 1178739.06393992 17698.76787647
0.09100000 1169924.12239290 19373.94437704
0.09200000 1161076.05513008 19436.41407613
0.09300000 1152198.57429686 17870.60072712
0.09400000 1143289.97746160 21179.44782786
0.09500000 1134354.55412327 21235.11825130
0.09600000 1125393.24509916 21286.81423170
0.09700000 1116409.08249084 18052.33571257
0.09800000 1107402.50273158 24667.39190815
0.09900000 1098375.85922295 21418.33026199
0.10000000 1089328.52484053 18153.66072018
0.10100000 1080263.39609982 21486.43995897
0.10200000 1071182.88879427 26479.64225650
0.10300000 1062087.47638585 16568.56541102
0.10400000 1052980.03559382 21559.76724306
0.10500000 1043863.04954589 18257.16559555
0.10600001 1034733.15807878 18268.21476547
0.10700001 1025597.88619897 23260.56115358
0.10800001 1016454.17442722 18280.92918740
0.10900001 1007306.44107928 23268.77988409
0.11000001 998154.87388173 21605.06326211
0.11100001 989001.47026789 19938.27057916
0.11200001 979848.88887324 18269.28339311
0.11300001 970695.25755123 24898.33452842
0.11400001 961545.81653036 16586.66611612
0.11500001 952400.17003798 21543.29286069
0.11600001 943259.78932924 18209.63109052
0.11700001 934127.20979039 18187.45763116
0.11800001 925001.19977682 18162.39941304
0.11900001 915885.48752972 18134.53350725
0.12000001 906780.74336974 16458.07126742
0.12100001 897689.70154468 18070.49454336
0.12200001 888611.44936732 21313.34661717
0.12300001 879549.02359602 21267.49639256
0.12400001 870502.44192067 16321.92155506
0.12500001 861473.56396385 21166.40646396
0.12600001 852465.60872603 21111.31179494
0.12700001 843477.52254088 17814.24611558
0.12800001 834510.19945972 22606.88236881
0.12900001 825566.23077370 22537.95916238
0.13000001 816646.22034938 16047.09898624
0.13100001 807750.85274676 22390.85469359
0.13200001 798883.14762361 22312.80736496
0.13300001 790044.03013639 22231.84005611
0.13400001 781232.30785395 20565.94147385
0.13500001 772451.57572217 18909.61546523
0.13600001 763700.92792493 20402.27125150
0.13700001 754983.59154534 25005.05773105
0.13800001 746298.01800967 18672.37729111
0.13900001 737649.09671811 18588.75811391
0.14000001 729034.21313312 18502.88920193
0.14100001 720456.18878517 19949.43280834
0.14200001 711914.55798376 15270.56798899
0.14300001 703414.05850177 16713.11881832
0.14400001 694948.93604989 15115.14007206
0.14500001 686527.67810677 15034.95685977
0.14600001 678145.29669589 14953.10449755
0.14700001 669808.19451226 14869.74261967
0.14800001 661511.45130493 19220.21612445
0.14900001 653258.52874652 19107.81286736
0.15000001 645051.00659388 16071.44658758
0.15100001 636889.34029651 18877.40093712
0.15200001 628774.42166814 15873.41102403
0.15300001 620706.79415316 18639.82590801
0.15400001 612685.15686414 17093.91668319
0.15500001 604714.15945903 21225.46799871
0.15600001 596790.31427404 16865.29507734
0.15700001 588920.23544454 16748.89228654
0.15800001 581096.44875514 23560.55662681
0.15900001 573327.12704348 15135.83686837
0.16000001 565607.23418351 16391.29842035
0.16100001 557943.34980603 14913.82644431
0.16200001 550330.27909827 14801.13355505
0.16300001 542772.45478989 18693.08422542
0.16400001 535268.45760846 13247.89495124
0.16500001 527819.77921911 17085.52705995
0.16600001 520426.36425480 18251.35345612
0.16700001 513088.13082077 21980.69656217
0.16800001 505805.72503496 14104.39330856
0.16900001 498582.09565796 13985.22844356
0.17000001 491414.83197509 12604.79103536
0.17100001 484305.59783288 14994.10201695
0.17200001 477254.52164761 14861.70650592
0.17300001 470261.77507963 15955.98278196
0.17400001 463328.99450356 12162.38668010
0.17500001 456454.75126119 19280.64960385
0.17600001 449638.26575128 15519.26547537
0.17700001 442884.34128616 14190.01496501
0.17800001 436189.25704938 12882.85031544
0.17900001 429554.65682210 13917.57153841
0.18000001 422981.41279041 18374.31343953
0.18100001 416470.15954777 11369.63589272
0.18200001 410017.17844327 13505.96649591
0.18300001 403628.14445368 13368.16477581
0.18400001 397299.33871440 12127.56288717
0.18500001 391033.08907607 15273.75318088
0.18600001 384828.66728921 10794.44462743
0.18700001 378685.32087308 11746.81920846
0.18800001 372604.32755357 11619.66650374
0.18900001 366587.28793075 16716.38111945
0.19000001 360628.44144510 13431.60693625
0.19100001 354737.19340121 12259.71798322
0.19200001 348904.24511356 10100.77837331
0.19300001 343136.55559799 11982.32908768
0.19400001 337430.39825625 11843.80753846
0.19500001 331787.27214947 10730.00088836
0.19600001 326205.34365910 10603.30519671
0.19700001 320686.83074212 12381.71912008
0.19800001 315230.63436686 14114.45232081
0.19900001 309837.88374854 10224.65064692
0.20000001 304505.43865274 10098.92335020
0.20100001 299237.16968029 14507.01867174
0.20200001 294029.55712733 10743.84052522
0.20300001 288885.00947711 11491.84622016
0.20400001 283802.32587181 9599.61412635
0.20500001 278780.87339335 9475.76233453
0.20600001 273821.87679392 10202.60361160
0.20700001 268923.86987359 8390.42513666
0.20800001 264087.35741889 9107.05295108
0.20900001 259314.21746773 10618.91770727
0.21000001 254599.51480941 12892.92003943
0.21100001 249946.05909962 8743.11356062
0.21200001 245353.23565355 9406.84349966
0.21300001 240820.71308261 10822.48335757
0.21400001 236349.17749661 10671.16586847
0.21500001 231938.16364373 9769.23591454
0.21600001 227585.51176574 8889.49050985
0.21700001 223292.92821019 8762.01491723
0.21800001 219059.60225160 7915.71910162
0.21900001 214883.99620273 8509.40665197
0.22000001 210766.86940144 8384.30646122
0.22100001 206710.20807350 10325.17538148
0.22200001 202710.58969762 11527.13822821
0.22300001 198768.30429893 7346.47687427
0.22400001 194882.08049163 9208.17873865
0.22500001 191055.86790687 7772.15307398
0.22600001 187284.31219421 8290.14047130
0.22700001 183570.41147290 8161.54088004
0.22800001 179911.55671149 10505.93585099
0.22900001 176308.13492234 6082.63094247
0.23000001 172760.18605395 7781.98294882
0.23100001 169268.67479352 7657.71520981
0.23200001 165829.68083445 6375.32238119
0.23300001 162446.02435206 7982.59801419
0.23400001 159116.22737724 6169.73200835
0.23500001 155838.40672407 6068.34784484
0.23600001 152614.64864904 7053.08632091
0.23700001 149443.18841775 6935.65870251
0.23800001 146323.69500768 6294.84565697
0.23900001 143256.28197357 6704.39431348
0.24000001 140239.75134162 6590.56742604
0.24100001 137275.49990082 4983.10088211
0.24200001 134360.91356914 5876.94663751
0.24300001 131496.48429044 7219.15732903
0.24400001 128681.04285386 7093.54282287
0.24500001 125915.24690469 7434.03652892
0.24600001 123198.30362007 5477.39683806
0.24700001 120530.24954801 5380.47059435
0.24800001 117909.03014173 4844.29273254
0.24900001 115335.23270678 5622.59286045
0.25000001 112808.84518164 4247.25322202
0.25100001 110328.33988033 5004.49373373
0.25200001 107895.04900399 4913.54076410
0.25300001 105507.39801143 4823.79846530
0.25400001 103163.88910897 5129.82462864
0.25500001 100865.43457289 6197.17259336
0.25600001 98611.32326527  5702.20003760
0.25700001 96400.79574287  5222.99536047
0.25800001 94233.52641177  3660.97267431
0.25900001 92109.39267152  5029.17307782
0.26000001 90028.23779840  5286.90851486
0.26100001 87986.71795099  4495.24163281
0.26200001 85989.02273817  4749.17395055
0.26300001 84030.87785343  3660.38521250
0.26400001 82113.29047111  3590.40379574
0.26500001 80236.49479375  3521.57992314
0.26600001 78398.13723738  3767.81465392
0.26700001 76600.16949155  4618.99043891
0.26800001 74840.46627777  3019.81295721
0.26900001 73118.24199598  4738.06230555
0.27000001 71434.54687697  3194.19591476
0.27100001 69787.65838129  3986.27123538
0.27200001 68178.06809842  3629.45962698
0.27300001 66604.04452678  2737.42635960
0.27400001 65064.95200078  3220.71527646
0.27500001 63563.38733464  2631.52436019
0.27600001 62094.50615179  3096.03222325
0.27700001 60662.01357309  3541.44852000
0.27800001 59262.16678325  2976.14615671
0.27900001 57896.66763365  2431.66015570
0.28000001 56563.62266100  2384.15680800
0.28100001 55263.23918781  2805.16215394
0.28200001 53995.28337491  2521.30987652
0.28300001 52759.07167325  2472.29021562
0.28400001 51554.27305539  2203.94527743
0.28500001 50380.36769392  3025.84502691
0.28600001 49236.12128959  2119.61512184
0.28700001 48122.33113696  2286.77328387
0.28800001 47037.28547275  2650.78634829
0.28900001 45982.66169311  2200.27046616
0.29000001 44955.50801388  2551.00042300
0.29100001 43957.81686533  2695.49345777
0.29200001 42986.90510901  2078.20202587
0.29300001 42043.54957745  2595.76887379
0.29400001 41126.82297130  2001.84820289
0.29500001 40237.91224947  1965.21972729
0.29600001 39373.59529112  2104.91250390
0.29700001 38534.99989122  2067.01749201
0.29800001 37722.14820095  2876.12532573
0.29900001 36934.09353946  1828.23771675
0.30000001 36170.21867740  2286.31963083
0.30100001 35431.14441793  1765.53400993
0.30200001 34714.59109857  2366.66736018
0.30300001 34021.79031505  1861.67245417
0.30400001 33352.40898780  1525.87278343
0.30500001 32704.31936863  2401.80532814
0.30600001 32078.66611661  2068.11170245
0.30700001 31475.05252641  1890.39174423
0.30800001 30892.33891783  1575.04597429
0.30900001 30330.60901370  1410.37338591
0.31000001 29790.24566222  1945.60103631
0.31100001 29268.11593433  1917.64704681
0.31200001 28767.23378136  1485.68385898
0.31300001 28284.77281707  1598.65543531
0.31400001 27822.98125786  1577.56311201
0.31500001 27379.08454629  1427.54553583
0.31600002 26953.23193289  1794.27673473
0.31700002 26545.17395317  1266.20485752
0.31800002 26155.07488489  1501.82447100
0.31900002 25782.47696590  1980.09432474
0.32000002 25426.50023113  1469.14325292
0.32100002 25087.57580494  1332.90296563
0.32200002 24765.13786995  1799.80647992
0.32300002 24457.78094261  2139.56677817
0.32400002 24166.47990943  1531.55073678
0.32500002 23889.97077363  1518.68551399
0.32600002 23629.05760313  1390.80639638
0.32700002 23382.45419314  1380.50016093
0.32800002 23150.95501061  1142.49968387
0.32900002 22932.26967119  1362.17688297
0.33000002 22728.78855018  1467.02972644
0.33100002 22536.51228902  1346.78203817
0.33200002 22359.69307923  1451.92673886
0.33300002 22194.43085359  1445.52334995
0.33400002 22042.55360428  1107.63837107
0.33500002 21902.19889875  1324.64505213
0.33600002 21773.94531472  1320.80758534
0.33700002 21656.52656077  1317.58313835
0.33800002 21551.90505530  1095.91442396
0.33900002 21457.09570745  1313.17431949
0.34000002 21373.96098355  1093.27815608
0.34100002 21301.08476995  1420.56941058
0.34200002 21239.41235761  1092.76781755
0.34300002 21186.41373204  1421.18470045
0.34400002 21144.01579637  1313.04344314
0.34500002 21110.66166810  1314.77207096
0.34600002 21087.90215310  1207.38789496
0.34700002 21071.93780808  1429.94176738
0.34800002 21066.42708714  1654.24126536
0.34900002 21068.98479384  1437.95828028
0.35000002 21079.81532614  1220.83756243
0.35100002 21098.87049344  1225.42245630
0.35200002 21125.05059590  1566.00007484
0.35300002 21159.11527050  1348.25888889
0.35400002 21201.00417963  1580.53493645
0.35500002 21249.81262257  1475.16206213
0.35600002 21304.87818402  1140.87628079
0.35700002 21366.95056440  1606.36741952
0.35800002 21435.99871999  1269.76144432
0.35900002 21510.87960382  1161.58755363
0.36000002 21592.63395828  1286.16530265
0.36100002 21679.19209444  1294.89820514
0.36200002 21772.67231801  1778.28309580
0.36300002 21869.84385729  1552.32159052
0.36400002 21973.15552072  1563.93941827
0.36500002 22081.02720472  1575.92298625
0.36600002 22194.35752519  1832.69915945
0.36700002 22311.84632863  1354.77537325
0.36800002 22435.32469705  1365.97480888
0.36900002 22562.14674415  1627.85896470
0.37000002 22692.14747316  1515.38168004
0.37100002 22826.64543669  1910.59031356
0.37200002 22965.35228068  1798.87612936
0.37300002 23107.05941117  1685.19792268
0.37400002 23253.25785078  1569.59497928
0.37500002 23401.65214717  1847.79454107
0.37600002 23554.23411288  1331.99200218
0.37700002 23708.44014154  1478.69548168
0.37800002 23866.56517476  2170.90287114
0.37900002 24027.00228855  2191.26271252
0.38000002 24190.06781410  1520.70868517
0.38100002 24355.04909119  1535.09881694
0.38200002 24522.40374457  2113.21824280
0.38300002 24691.64189859  1564.46250481
0.38400002 24863.43614424  1866.62255696
0.38500002 25035.86678135  1594.53443084
0.38600002 25211.22956238  1609.86313997
0.38700002 25387.06215442  1773.03250486
0.38800002 25564.30255860  1939.18026245
0.38900002 25742.85177646  1505.95690027
0.39000002 25923.30273813  1672.44195538
0.39100002 26103.77428781  1841.88240101
0.39200002 26285.61296472  2479.25913229
0.39300002 26467.94324878  1720.68107212
0.39400002 26651.70018532  2368.66996619
0.39500002 26835.10911502  2391.00833543
0.39600002 27018.93418603  1769.87536771
0.39700002 27202.70217799  1948.80167636
0.39800002 27387.73411155  2130.90275351
0.39900002 27572.01979222  2316.04977228
0.40000002 27756.30985956  2003.45054058
0.40100002 27940.12300088  2358.70529549
0.40200002 28125.07216651  2380.22497023
0.40300002 28308.55632440  1715.49859454
0.40400002 28491.53919908  2423.20552369
0.40500002 28674.26441187  2270.14162105
0.40600002 28856.56763640  1937.86289144
0.40700002 29037.96048929  2310.26024599
0.40800002 29218.97554735  2330.35950519
0.40900002 29398.17789098  1988.78682856
0.41000002 29577.37503109  1823.44525706
0.41100002 29755.20194773  2390.53303775
0.41200002 29931.33829253  1854.24649508
0.41300002 30106.79645414  1869.63214839
0.41400002 30280.80746508  2073.47838942
0.41500002 30453.97022971  2090.36061562
0.41600002 30624.50422775  2107.11911323
0.41700002 30794.41782673  2703.13412492
0.41800002 30963.60351200  2529.88134482
0.41900002 31129.21619533  2157.25478456
0.42000002 31293.89461784  2569.07240039
0.42100002 31457.47778130  2190.38428170
0.42200002 31619.01873250  2608.09488373
0.42300002 31778.20825169  2425.31296869
0.42400002 31935.54586862  2239.48026016
0.42500002 32091.26474835  2255.69510605
0.42600002 32243.74517181  2271.73317373
0.42700002 32395.41123212  2287.76404962
0.42800002 32544.36817099  2094.23019104
0.42900002 32691.75126141  2741.20347317
0.43000002 32836.79426091  3184.34827435
0.43100002 32978.20030848  2350.68622938
0.43200002 33118.31506252  3441.65546439
0.43300002 33255.65125535  2381.43729925
0.43400002 33390.94055142  2614.51076907
0.43500002 33523.34094725  2192.42660185
0.43600002 33654.23938333  2647.24259534
0.43700002 33781.49034020  2441.38842258
0.43800002 33905.64103453  3349.02985189
0.43900002 34028.26040581  3817.97099846
0.44000002 34147.45049668  2258.85395740
0.44100002 34264.72160515  2498.92626509
0.44200002 34378.96041529  2741.37843343
0.44300002 34490.75792909  2526.79304563
0.44400002 34599.26941121  3233.30187971
0.44500002 34704.16572063  3250.39231543
0.44600002 34807.09094991  3033.96022643
0.44700002 34907.40704958  3284.08901086
0.44800002 35003.90289653  3536.26945771
0.44900002 35098.73581029  2842.99773537
0.45000002 35190.38573034  2618.69267823
0.45100002 35277.87406162  3587.75996210
0.45200002 35363.33499418  3604.40809010
0.45300002 35445.33524018  2896.59293311
0.45400002 35524.90141713  2909.48956395
0.45500002 35601.38248915  3409.18854873
0.45600002 35674.43645275  3423.67582863
0.45700002 35744.61101132  2946.78587143
0.45800002 35811.11670607  2712.15505227
0.45900002 35874.89540938  2970.44148068
0.46000002 35936.43764433  3727.50717132
0.46100002 35993.59772140  3242.66337241
0.46200002 36048.51241073  3755.35395837
0.46300002 36099.81933272  3517.56656250
0.46400002 36147.73794517  3277.69629353
0.46500002 36193.36290257  3035.89942416
0.46600002 36235.15001716  3807.40856851
0.46700002 36273.84729697  3310.35146122
0.46800002 36310.05361085  3065.29487111
0.46900002 36342.39731527  2818.35304538
0.47000002 36371.41075467  3083.56834993
0.47100002 36397.71924297  3092.35037345
0.47200002 36420.69543783  2842.45331017
0.47300002 36441.04465277  3886.43759642
0.47400002 36456.94736096  4156.09219614
0.47500002 36470.88897735  2604.02159641
0.47600002 36481.97069611  3132.34215243
0.47700002 36488.79612328  3139.49616725
