# SAXS profile: number of points = 501, q_min = 0, q_max = 0.5, delta_q = 0.001
#    q    intensity    error
0.00000000 1664650.74656091 249.69761198
0.00100000 1664582.54324352 549.31225232
0.00200000 1664377.87689824 898.76408198
0.00300000 1664036.92314309 1098.26440840
0.00400000 1663559.53365177 1247.66969765
0.00500000 1662946.17907427 2244.97743061
0.00600000 1662196.59813788 2094.36779892
0.00700000 1661311.40854551 2990.36065966
0.00800000 1660290.11926408 2465.53093120
0.00900000 1659134.01748616 2737.57124588
0.01000000 1657842.27774645 3008.98386404
0.01100000 1656416.17804578 3577.85910036
0.01200000 1654855.10494459 3226.96759612
0.01300000 1653160.50739889 3818.80094052
0.01400000 1651331.63722319 4087.04598331
0.01500000 1649370.18474651 4750.18634359
0.01600000 1647275.05907194 5460.71706494
0.01700000 1645048.38110935 5774.12007671
0.01800000 1642689.70943003 5149.83247079
0.01900000 1640199.67391893 6396.77901692
0.02000000 1637579.01723587 6190.04896516
0.02100000 1634829.24907161 5934.43044319
0.02200000 1631948.67491401 6193.24550267
0.02300000 1628940.21639171 7037.02205513
0.02400000 1625803.61369298 6706.44021228
0.02500000 1622540.19123564 6960.69773830
0.02600000 1619150.16979277 9180.58188263
0.02700000 1615634.67375144 10178.49891082
0.02800000 1611993.35864893 7713.38857487
0.02900000 1608229.01992380 7960.73401413
0.03000000 1604341.74920846 8206.20842440
0.03100000 1600331.96805012 9217.91256011
0.03200000 1596200.50273548 7901.19285245
0.03300000 1591950.29663087 13802.20970808
0.03400000 1587579.07552947 11668.70674354
0.03500000 1583090.44364140 8548.68879043
0.03600000 1578484.05156854 8760.58689106
0.03700000 1573761.64938225 11661.57436124
0.03800000 1568924.66313603 9178.20970411
0.03900000 1563974.22461667 11260.61493872
0.04000000 1558909.20123807 9587.29203188
0.04100000 1553733.67365197 10767.37485765
0.04200000 1548447.79859726 12983.73539359
0.04300000 1543051.73193126 13239.38447452
0.04400000 1537549.05207431 13491.99355855
0.04500000 1531939.35551644 13741.49665748
0.04600000 1526223.08211139 15063.82252071
0.04700000 1520403.40759762 13136.28605258
0.04800000 1514480.41079000 14470.86099840
0.04900000 1508456.99010688 11313.42795241
0.05000000 1502332.25130241 12642.12648340
0.05100000 1496110.02341127 12836.62459885
0.05200000 1489788.12559909 21318.86907081
0.05300000 1483372.21030357 12015.31546359
0.05400000 1476860.56893319 14620.92031427
0.05500000 1470257.03072577 14820.19156107
0.05600000 1463560.16456661 13764.78399007
0.05700000 1456774.92239417 15208.73089972
0.05800000 1449899.89525035 15397.93760653
0.05900000 1442937.11453111 19479.65195598
0.06000000 1435889.34741663 19707.58221401
0.06100000 1428757.87959539 15944.93868141
0.06200000 1421543.31074198 16120.30189733
0.06300000 1414248.84809305 21722.86332237
0.06400000 1406872.40464802 15088.70724550
0.06500000 1399420.61961920 16625.11773876
0.06600000 1391890.88828365 18185.05530628
0.06700000 1384286.49127034 24003.52888197
0.06800000 1376610.13291421 17097.49865111
0.06900000 1368862.54021588 17247.66881424
0.07000000 1361043.50712074 15944.62543258
0.07100000 1353157.61439219 16075.51321192
0.07200000 1345203.71547148 16202.97951191
0.07300000 1337186.86468861 19295.60736156
0.07400000 1329106.17566381 14952.44517695
0.07500000 1320963.79837868 16564.88680811
0.07600000 1312760.32624166 25776.05021415
0.07700000 1304500.76076752 16788.92557829
0.07800000 1296183.59730110 15359.77634833
0.07900000 1287810.94876916 20089.85174309
0.08000000 1279386.60054590 23316.82188877
0.08100000 1270910.54203673 20321.86052063
0.08200000 1262383.90564094 20431.68447156
0.08300000 1253809.60429766 20537.40228226
0.08400000 1245188.30756103 22226.61233325
0.08500000 1236523.92103091 20736.50712917
0.08600000 1227815.62136261 24034.49191663
0.08700000 1219066.49481303 19310.01418459
0.08800000 1210275.88464107 19388.62058251
0.08900000 1201449.65763398 16219.57113989
0.09000000 1192586.48208123 19534.56749414
0.09100000 1183688.98190380 19601.89046125
0.09200000 1174757.94390209 16387.87408745
0.09300000 1165796.87222434 23012.83133913
0.09400000 1156804.36552360 18132.90928178
0.09500000 1147784.33463795 19833.71423478
0.09600000 1138738.11669560 18225.50441445
0.09700000 1129668.59266011 23248.58072993
0.09800000 1120576.33462800 19968.67122195
0.09900000 1111463.41525376 16671.95201276
0.10000000 1102329.50126973 26720.46836737
0.10100000 1093177.43247441 18398.17705384
0.10200000 1084009.54819878 16747.94830743
0.10300000 1074826.44678524 26827.66937375
0.10400000 1065630.92600749 23497.16302389
0.10500000 1056425.43733536 23516.03134150
0.10600001 1047206.90899905 16807.67168030
0.10700001 1037982.31438020 26904.50285480
0.10800001 1028749.38162796 18502.05849932
0.10900001 1019511.92369512 21868.53179252
0.11000001 1010270.43272025 28595.70594413
0.11100001 1001026.81806058 18498.97646857
0.11200001 991783.63986372 25216.10023064
0.11300001 982539.25923724 18481.56433638
0.11400001 973298.74723346 16789.40418030
0.11500001 964062.12332454 21807.08625645
0.11600001 954830.31489011 21784.45466008
0.11700001 945606.20729502 16737.23065736
0.11800001 936388.43362727 26743.25492396
0.11900001 927180.87132279 20027.10776388
0.12000001 917983.92297820 28324.39527771
0.12100001 908800.77649588 18294.16049267
0.12200001 899629.97657528 19917.80861973
0.12300001 890475.19462350 28156.82698059
0.12400001 881335.97497787 19830.06037134
0.12500001 872214.36064838 18133.33741233
0.12600001 863113.65452047 24663.47384015
0.12700001 854032.64207407 18037.17025063
0.12800001 844972.33637247 17985.23702732
0.12900001 835935.26599506 22821.03383727
0.13000001 826922.43616627 17873.92930022
0.13100001 817933.89003782 25912.14685784
0.13200001 808973.07155792 22594.61895373
0.13300001 800040.89155444 17688.90494618
0.13400001 791136.13856278 17622.55831731
0.13500001 782262.28236252 17553.96644385
0.13600001 773418.61677019 17483.12865643
0.13700001 764608.36916105 22158.35158313
0.13800001 755829.79575208 17334.95718302
0.13900001 747088.12744327 17257.73655778
0.14000001 738380.32561214 15616.74462319
0.14100001 729709.66195273 17097.09818590
0.14200001 721075.45690275 15467.06928007
0.14300001 712482.60741772 23084.43756917
0.14400001 703924.91621194 18372.44117976
0.14500001 695411.50804370 21321.31784239
0.14600001 686937.02801858 18176.35461883
0.14700001 678507.82955852 18075.44943218
0.14800001 670119.50952665 20968.04044233
0.14900001 661774.88321330 19356.91624726
0.15000001 653475.92782768 17761.47655639
0.15100001 645222.94969414 16182.19234189
0.15200001 637017.08434167 17543.45133059
0.15300001 628858.66493878 15979.29943014
0.15400001 620746.32486949 15875.58800772
0.15500001 612684.90725201 14336.82750629
0.15600001 604671.09129326 24208.00828242
0.15700001 596711.08391623 15556.25869190
0.15800001 588797.58266066 26681.36371759
0.15900001 580938.94548457 19519.54948962
0.16000001 573130.12205386 15225.20241103
0.16100001 565377.48034224 16486.40810501
0.16200001 557675.95619332 14998.69554985
0.16300001 550029.98346395 13530.73823197
0.16400001 542438.13363358 18795.48221773
0.16500001 534902.09971405 13319.06291169
0.16600001 527421.37414835 14533.09665081
0.16700001 519996.55397825 14414.30515684
0.16800001 512627.55523782 15594.13096663
0.16900001 505317.89111573 14174.16751507
0.17000001 498064.95827728 15330.44013967
0.17100001 490870.42688586 15197.34913402
0.17200001 483734.28097655 13808.19570254
0.17300001 476657.01472856 18661.12300788
0.17400001 469640.18282151 14793.66645752
0.17500001 462682.23365878 13436.29270001
0.17600001 455782.47850862 14521.23045111
0.17700001 448945.53861003 13185.53109174
0.17800001 442168.13088721 14246.65785009
0.17900001 435451.57129778 17635.78947056
0.18000001 428796.86124508 15134.38593252
0.18100001 422204.45492910 18441.89146243
0.18200001 415670.81627587 18256.26311322
0.18300001 409201.74505139 13552.76243633
0.18400001 402793.28030487 12295.26546214
0.18500001 396447.93276396 13273.07741599
0.18600001 390164.66938948 12038.53144275
0.18700001 383943.26519528 14075.36076705
0.18800001 377784.35858800 12852.22448638
0.18900001 371690.19019840 11652.48801327
0.19000001 365654.82534280 15714.01686157
0.19100001 359687.32717235 11394.89506323
0.19200001 353778.94520567 10241.90094765
0.19300001 347936.25413769 12149.93456860
0.19400001 342155.45117142 13010.46164559
0.19500001 336438.36521189 11869.54608557
0.19600001 330783.05280430 9774.63967228
0.19700001 325191.63019846 14487.28780998
0.19800001 319663.16506132 12404.52970643
0.19900001 314198.69257410 13196.34571177
0.20000001 308795.00493687 11172.20380663
0.20100001 303456.12900113 11953.13748629
0.20200001 298178.51010769 9987.48966810
0.20300001 292964.52533161 9861.18638875
0.20400001 287813.00886008 13275.37566114
0.20500001 282723.46207437 14851.46416475
0.20600001 277696.63210978 8622.48083458
0.20700001 272731.79584815 11912.92540576
0.20800001 267828.63517717 9236.07092068
0.20900001 262989.64062804 11597.84369994
0.21000001 258209.81477013 11441.27743332
0.21100001 253491.76104558 14509.86908818
0.21200001 248834.91141110 7950.27579543
0.21300001 244238.93070302 8624.07705083
0.21400001 239704.78328278 13141.81536478
0.21500001 235231.61455547 7621.50467192
0.21600001 230817.31851861 9015.72488759
0.21700001 226463.90732595 9626.98115559
0.21800001 222170.29373613 10217.61229202
0.21900001 217935.01979559 8630.22719196
0.22000001 213758.93916699 8503.33100212
0.22100001 209643.99138133 8377.37429171
0.22200001 205586.60901161 8939.93411559
0.22300001 201587.35523772 6773.33545627
0.22400001 197644.59282110 8004.60638776
0.22500001 193762.58671834 11166.53840061
0.22600001 189936.07787981 7114.05613340
0.22700001 186167.64486006 10187.09400848
0.22800001 182454.94911184 8147.52613789
0.22900001 178798.32897768 6168.54264145
0.23000001 175197.85748631 7891.78786369
0.23100001 171654.43122398 6570.93193801
0.23200001 168164.16755539 6465.07172742
0.23300001 164729.89766753 6360.22164975
0.23400001 161350.22490025 6256.35526640
0.23500001 158023.17900583 6712.82496166
0.23600001 154750.67342095 5501.38670031
0.23700001 151531.22170832 7573.53081919
0.23800001 148364.52607942 7978.30276728
0.23900001 145250.35441277 7320.61820867
0.24000001 142187.83289968 6682.11752319
0.24100001 139178.14245682 5557.38349117
0.24200001 136218.86194743 6951.24885399
0.24300001 133310.25695510 4879.15563535
0.24400001 130451.45002517 6711.72742128
0.24500001 127642.84457093 6123.02754371
0.24600001 124883.57061916 5552.32381238
0.24700001 122174.18686585 5453.85595969
0.24800001 119512.10415215 5356.53276150
0.24900001 116898.03857149 7013.88264610
0.25000001 114332.05712691 4735.06236992
0.25100001 111812.64636611 4226.51823259
0.25200001 109340.98236429 5809.28666785
0.25300001 106915.63531984 5295.53166793
0.25400001 104535.07864411 5597.85372623
0.25500001 102200.13658927 5494.27960298
0.25600001 99910.29210525  4236.69613717
0.25700001 97664.64724137  5291.47083789
0.25800001 95462.76095388  4450.47412624
0.25900001 93304.63850089  3638.88107371
0.26000001 91190.14808171  4641.12280622
0.26100001 89115.91645448  3502.25568237
0.26200001 87086.13242969  3779.10289560
0.26300001 85096.56271695  4717.75366026
0.26400001 83148.01317831  4957.70052035
0.26500001 81240.90924631  3889.81491877
0.26600001 79372.90908892  4132.55070726
0.26700001 77545.83627189  3740.81131877
0.26800001 75757.61364319  3973.86581170
0.26900001 74007.51360618  3896.49577575
0.27000001 72296.44872726  3232.73585782
0.27100001 70622.87826407  3457.69628344
0.27200001 68987.07167332  2825.02071871
0.27300001 67387.47514599  3600.51296744
0.27400001 65823.28762579  2715.21074306
0.27500001 64297.32550433  3726.67316260
0.27600001 62804.60390975  3914.29712392
0.27700001 61348.68562272  3069.88837385
0.27800001 59926.09980892  2507.90739570
0.27900001 58538.24256873  3196.18819552
0.28000001 57183.56824102  2892.34501852
0.28100001 55861.94277697  2599.25632043
0.28200001 54573.36775203  2779.96748486
0.28300001 53317.09205677  2952.70069786
0.28400001 52092.69008955  2672.35512808
0.28500001 50899.74783315  2401.95921393
0.28600001 49736.95143314  2355.29344660
0.28700001 48605.19498452  2939.64233180
0.28800001 47502.65004898  2882.93596793
0.28900001 46431.10393748  2827.65436364
0.29000001 45387.31552428  2971.73462462
0.29100001 44373.61142905  2915.34640889
0.29200001 43387.19648162  1906.86737563
0.29300001 42428.85203302  2619.55744852
0.29400001 41497.52373404  2203.51861458
0.29500001 40594.49782774  2162.87494665
0.29600001 39716.57929322  2300.18579865
0.29700001 38864.78094639  1737.25579054
0.29800001 38039.25613056  1706.06071822
0.29900001 37238.92380922  2178.47714597
0.30000001 36463.23658125  2469.47281437
0.30100001 35712.86182186  1779.57198883
0.30200001 34985.37010872  1908.10217606
0.30300001 34282.07448744  2032.24147182
0.30400001 33602.65963033  2152.25045121
0.30500001 32944.83788327  1814.60175652
0.30600001 32309.92353659  1487.87204930
0.30700001 31697.44873212  1903.74886098
0.30800001 31106.38013883  1730.13694523
0.30900001 30536.59376893  1703.94201298
0.31000001 29988.53918007  1398.96541898
0.31100001 29459.19301333  1516.55932813
0.31200001 28951.33585005  1767.04486727
0.31300001 28462.47878663  2144.93250291
0.31400001 27994.55276608  1851.83975315
0.31500001 27544.80573626  1958.43578057
0.31600002 27113.58190180  1418.17596852
0.31700002 26700.46138747  1528.33448218
0.31800002 26305.63708839  1888.08719142
0.31900002 25928.64350037  2115.77740981
0.32000002 25568.69216274  1231.13258593
0.32100002 25226.04310773  1340.25973377
0.32200002 24900.21862179  1447.69877922
0.32300002 24589.73618952  1314.56735894
0.32400002 24295.65758405  1776.62004496
0.32500002 24016.67069999  1174.41525284
0.32600002 23753.55173712  1398.13412145
0.32700002 23505.08844857  1850.32065029
0.32800002 23272.00635657  1607.86299531
0.32900002 23052.03679907  1483.39863826
0.33000002 22847.54969174  1588.13325428
0.33100002 22654.44239790  1353.82954181
0.33200002 22477.15966570  1235.00759632
0.33300002 22311.65995416  2123.84701161
0.33400002 22159.77364835  1670.29301784
0.33500002 22019.72610979  1442.73252304
0.33600002 21891.88247557  1438.62512501
0.33700002 21775.22615835  1214.40442036
0.33800002 21671.55346442  1212.19840044
0.33900002 21577.96287495  1650.71423811
0.34000002 21496.19263777  1209.48333604
0.34100002 21424.92829120  1209.00876073
0.34200002 21365.13027051  1319.08320537
0.34300002 21314.10397662  1539.73094419
0.34400002 21273.99776240  1431.20826725
0.34500002 21242.99499031  1764.01838754
0.34600002 21222.81414227  1325.57703411
0.34700002 21209.60082439  1217.85533702
0.34800002 21207.11903627  1332.23128095
0.34900002 21212.74302291  1447.76977988
0.35000002 21226.85920945  1564.63186643
0.35100002 21249.37104729  1346.36021332
0.35200002 21279.05721034  1352.07135918
0.35300002 21316.91575646  1471.50676436
0.35400002 21362.66015963  1706.34256107
0.35500002 21415.39657438  1372.29867748
0.35600002 21474.68049644  1494.95995357
0.35700002 21540.98731948  1850.80171815
0.35800002 21614.50110756  1862.30550364
0.35900002 21693.85633123  1405.76195685
0.36000002 21780.17025229  1179.39627502
0.36100002 21871.45429813  1425.14402957
0.36200002 21969.75141579  1555.12892763
0.36300002 22071.84319648  1446.14723473
0.36400002 22180.16224269  1578.67312240
0.36500002 22293.15473582  1468.67310356
0.36600002 22411.61531785  2097.39111887
0.36700002 22534.35194510  1368.28591492
0.36800002 22663.20897099  1881.61301395
0.36900002 22795.31409812  1644.68199009
0.37000002 22930.80613158  1658.92924817
0.37100002 23070.78627882  1673.55491594
0.37200002 23215.07167345  1558.65998599
0.37300002 23362.33799217  1441.68994579
0.37400002 23514.20411300  1719.47625722
0.37500002 23668.26186895  1868.84604570
0.37600002 23826.58832977  1751.61172404
0.37700002 23986.50554160  1904.04890009
0.37800002 24150.36517669  1372.94832533
0.37900002 24316.63010054  1663.25757767
0.38000002 24485.51685946  1679.21682577
0.38100002 24656.28084080  2401.76843048
0.38200002 24829.53436510  1569.10249854
0.38300002 25004.58604348  1440.26422434
0.38400002 25182.19150639  2035.98027974
0.38500002 25360.55866010  1908.88934078
0.38600002 25541.73777074  1482.69794783
0.38700002 25723.41439959  2095.94390457
0.38800002 25906.43275926  1662.80446543
0.38900002 26090.77934582  2136.83492966
0.39000002 26277.01808729  1849.37662060
0.39100002 26463.20964832  2022.84784135
0.39200002 26650.85845430  2042.38863441
0.39300002 26838.82622391  2062.02711648
0.39400002 27028.25854907  2081.85171337
0.39500002 27217.24845296  1940.04556164
0.39600002 27406.72515119  1958.48467209
0.39700002 27595.98974265  1812.22873226
0.39800002 27786.58599463  1663.02725057
0.39900002 27976.32958495  2350.01179648
0.40000002 28165.88108594  2202.43117586
0.40100002 28355.15267865  2051.77894504
0.40200002 28545.34241522  1898.12263383
0.40300002 28734.04041597  1915.41122488
0.40400002 28922.24461122  2811.24230941
0.40500002 29110.04674303  2304.64250984
0.40600002 29297.36020968  2504.04549576
0.40700002 29483.70160346  2165.28314835
0.40800002 29669.54493379  2366.29466831
0.40900002 29853.57605685  2753.99252173
0.41000002 30037.54538614  2036.99623688
0.41100002 30219.94942828  2054.35225947
0.41200002 30400.57432962  1883.31566896
0.41300002 30580.57970800  2088.95949883
0.41400002 30758.94092306  1914.74416319
0.41500002 30936.40383044  2702.60436669
0.41600002 31111.17401180  2335.20483198
0.41700002 31285.13216625  2157.73566775
0.41800002 31458.35823326  1977.15790865
0.41900002 31627.85929216  2191.81075280
0.42000002 31796.37940837  2409.52974574
0.42100002 31963.68667877  2023.30146264
0.42200002 32128.85128880  2446.29085305
0.42300002 32291.53766360  3491.36121763
0.42400002 32452.30753241  2689.48511419
0.42500002 32611.29724435  3542.56538752
0.42600002 32766.93398772  2728.33888777
0.42700002 32921.65377079  2747.64135391
0.42800002 33073.65541694  2128.28982693
0.42900002 33223.81736319  2571.52358577
0.43000002 33371.60735229  2804.71687283
0.43100002 33515.66549729  3257.72284071
0.43200002 33658.22871042  2404.71226417
0.43300002 33797.99615370  2420.27461926
0.43400002 33935.59878968  3321.44688894
0.43500002 34070.06849465  2228.18258514
0.43600002 34203.02306173  2466.20909474
0.43700002 34332.24507413  2481.19146909
0.43800002 34458.14037065  3176.69611131
0.43900002 34582.46861917  2967.17594814
0.44000002 34703.22487960  2754.74212149
0.44100002 34821.89995029  2539.56128372
0.44200002 34937.43280076  2785.91102356
0.44300002 35050.38044969  2567.79099343
0.44400002 35159.96584558  2581.62061456
0.44500002 35265.78165371  3302.99326622
0.44600002 35369.57918649  3082.98951590
0.44700002 35470.59331271  2860.34878029
0.44800002 35567.55539521  2874.56996327
0.44900002 35662.88261572  3610.86703597
0.45000002 35754.87685377  2660.69928717
0.45100002 35842.51271816  3159.15922070
0.45200002 35928.06128349  2685.44306790
0.45300002 36009.93828729  2452.27691359
0.45400002 36089.35395419  2955.71822893
0.45500002 36165.51867191  3710.58239160
0.45600002 36238.19749879  3477.77997878
0.45700002 36307.74686239  2743.77656043
0.45800002 36373.60033160  3506.05150213
0.45900002 36436.57999873  2514.12413907
0.46000002 36497.12131139  4542.79690493
0.46100002 36553.20697118  2533.13736316
0.46200002 36606.97959468  4322.00325069
0.46300002 36657.02225882  2806.46175715
0.46400002 36703.51279352  3328.09118029
0.46500002 36747.65973782  3082.39384490
0.46600002 36787.73853525  3865.47180980
0.46700002 36824.67937551  3360.62039909
0.46800002 36858.99452904  2593.03038802
0.46900002 36889.34318783  3901.04822701
0.47000002 36916.18130059  3390.56683225
0.47100002 36940.20378362  3399.97651739
0.47200002 36960.82654861  3409.08199829
0.47300002 36978.80686932  2892.11262233
0.47400002 36992.06579797  3162.82177564
0.47500002 37003.33207260  3170.44564225
0.47600002 37011.64817267  3177.82026273
0.47700002 37015.50711048  2654.01198562
