# SAXS profile: number of points = 501, q_min = 0, q_max = 0.5, delta_q = 0.001
#    q    intensity    error
0.00000000 1664650.74656091 274.66737318
0.00100000 1664582.53505935 699.12468133
0.00200000 1664377.84463844 898.76406456
0.00300000 1664036.84849125 1098.26435913
0.00400000 1663559.40428970 1372.43656069
0.00500000 1662945.98254808 1646.31658789
0.00600000 1662196.29478701 1919.83679864
0.00700000 1661311.00499112 2392.28794661
0.00800000 1660289.58597383 2913.80834640
0.00900000 1659133.35465527 3484.18019372
0.01000000 1657841.46489426 2735.43853519
0.01100000 1656415.18485781 2981.54746256
0.01200000 1654853.92851544 3549.66183230
0.01300000 1653159.12127119 3818.79773856
0.01400000 1651330.02339803 4458.59126083
0.01500000 1649368.34678902 4750.18105027
0.01600000 1647272.97486429 5880.76478316
0.01700000 1645046.00149470 6662.43660492
0.01800000 1642687.02541613 7022.48734965
0.01900000 1640196.73651113 5904.70851788
0.02000000 1637575.74883352 6190.03661060
0.02100000 1634825.64465598 8092.38730794
0.02200000 1631944.75473872 6193.23062561
0.02300000 1628935.91080036 7037.00345497
0.02400000 1625798.91230450 7925.77005888
0.02500000 1622535.11425713 11390.19702228
0.02600000 1619144.66073009 7869.04341106
0.02700000 1615628.74164071 6785.64102568
0.02800000 1611987.00989944 7713.35819610
0.02900000 1608222.21030090 9408.10036223
0.03000000 1604334.44943667 9698.20219263
0.03100000 1600324.17276007 8449.71202097
0.03200000 1596192.22833714 7901.15189418
0.03300000 1591941.46829163 9742.68223509
0.03400000 1587569.79716955 11668.63854759
0.03500000 1583080.57027816 9403.49902169
0.03600000 1578473.63436796 14892.89942852
0.03700000 1573750.63356238 10764.45483140
0.03800000 1568913.05043766 9178.14176982
0.03900000 1563961.97942742 10322.14954224
0.04000000 1558896.29834931 10545.93394702
0.04100000 1553720.15825505 12724.96868612
0.04200000 1548433.65249350 11984.87702631
0.04300000 1543036.88577141 15276.06587822
0.04400000 1537533.53072581 14529.69254015
0.04500000 1531923.11959614 10570.27001636
0.04600000 1526206.15845251 11835.72930901
0.04700000 1520385.72944119 14230.81108941
0.04800000 1514462.04052064 13357.55581889
0.04900000 1508437.87553496 19232.58380830
0.05000000 1502312.38144645 14940.49732921
0.05100000 1496089.28391725 11669.49695817
0.05200000 1489766.69869548 11843.64580656
0.05300000 1483350.02893367 15619.67653283
0.05400000 1476837.41821841 12183.90926848
0.05500000 1470233.04601398 18524.93724395
0.05600000 1463535.39003211 16267.19661930
0.05700000 1456749.27834747 17743.20703850
0.05800000 1449873.36150717 14114.51783331
0.05900000 1442909.76026965 14284.80729385
0.06000000 1435860.96475019 14451.94128539
0.06100000 1428728.64645872 17273.33014289
0.06200000 1421513.13720423 16119.95972940
0.06300000 1414217.80713786 17649.43905829
0.06400000 1406840.47787632 21946.71248125
0.06500000 1399387.73332573 18010.12097038
0.06600000 1391857.06467625 13988.16415448
0.06700000 1384251.65862528 19767.11461025
0.06800000 1376574.23334334 21371.31597303
0.06900000 1368825.70581628 24433.53999277
0.07000000 1361005.61350271 15944.18150883
0.07100000 1353118.79801606 21920.52555457
0.07200000 1345163.79643728 16202.49868712
0.07300000 1337145.99932214 19295.01767430
0.07400000 1329064.17462625 16447.16993178
0.07500000 1320920.72045208 15058.49691898
0.07600000 1312716.13783911 15161.87210284
0.07700000 1304455.56784484 15262.13085940
0.07800000 1296137.27353201 15359.22741164
0.07900000 1287763.47748550 18543.79494556
0.08000000 1279338.21634649 20207.14807513
0.08100000 1270860.98265931 21884.22714816
0.08200000 1262333.13132700 20430.86268925
0.08300000 1253757.75741036 20536.55303020
0.08400000 1245135.32025449 25400.76172547
0.08500000 1236469.67925309 17545.50557228
0.08600000 1227760.29041322 20828.95430481
0.08700000 1219009.99600716 19309.11924347
0.08800000 1210218.22632251 24234.62112026
0.08900000 1201390.84831940 22706.28809974
0.09000000 1192526.46522931 24416.98052257
0.09100000 1183627.74412908 19600.87636365
0.09200000 1174695.55433919 21303.10487890
0.09300000 1165733.31035654 23011.57662780
0.09400000 1156739.56304064 21428.60141242
0.09500000 1147718.34386006 18179.85942125
0.09600000 1138670.87933827 19881.19448782
0.09700000 1129600.17329798 19926.14799376
0.09800000 1120506.64500359 23295.33424492
0.09900000 1111392.56421211 18337.97817180
0.10000000 1102257.33252615 23378.87912232
0.10100000 1093104.15203385 23414.29203778
0.10200000 1083934.96475257 23445.51439039
0.10300000 1074750.55591002 28502.38608351
0.10400000 1065553.81721151 16782.47341061
0.10500000 1056347.11116130 18475.51184347
0.10600001 1047127.19931757 18487.03157383
0.10700001 1037901.45475644 18495.40479411
0.10800001 1028667.23347221 20182.45207055
0.10900001 1019428.45007413 18502.62723968
0.11000001 1010185.78687454 16819.59414315
0.11100001 1000940.95675639 20178.97063810
0.11200001 991696.44135479 18490.18101952
0.11300001 982450.84609867 23519.87436294
0.11400001 973209.09516748 21824.21498671
0.11500001 963971.05089742 16773.09707543
0.11600001 954738.03938639 18431.21871831
0.11700001 945512.71922092 18409.13351021
0.11800001 936293.55763125 20055.40894904
0.11900001 927084.75044279 20025.03155278
0.12000001 917886.59483512 21657.53522531
0.12100001 908702.23200153 21618.02711770
0.12200001 899530.21143897 16596.33318292
0.12300001 890374.15735104 19873.15212839
0.12400001 881233.57076569 21480.06929950
0.12500001 872110.79040691 23076.05260152
0.12600001 863008.73962370 19728.38071747
0.12700001 853926.55925861 22953.54699459
0.12800001 844864.86270247 24522.20379565
0.12900001 835826.74477864 30967.38235361
0.13000001 826812.54133454 16246.86720302
0.13100001 817822.97552054 17812.18524646
0.13200001 808860.77767516 19364.12793037
0.13300001 799927.42818394 19294.25047739
0.13400001 791021.45998196 17620.00385180
0.13500001 782146.38791396 20742.52318545
0.13600001 773301.55639120 19069.61727975
0.13700001 764490.09510927 20572.42942945
0.13800001 755710.24034155 23634.83888120
0.13900001 746967.34796931 17254.94655180
0.14000001 738258.62060362 15614.17056214
0.14100001 729586.73292728 23310.29721641
0.14200001 720951.29921390 17010.84670727
0.14300001 712357.35906980 15386.91968167
0.14400001 703798.58826544 22961.43002525
0.14500001 695284.03624774 15226.72111210
0.14600001 686808.40160910 19687.36376086
0.14700001 678378.17377765 27107.99310302
0.14800001 669988.63141481 22461.36992788
0.14900001 661642.87886394 19353.05511986
0.15000001 653342.98341222 22197.32890876
0.15100001 645088.88984892 16178.83012081
0.15200001 636882.03282854 14616.44334312
0.15300001 628722.51371553 18880.53797783
0.15400001 620609.16199843 20200.82917635
0.15500001 612546.81118210 17200.31526973
0.15600001 604531.99182824 17084.07489535
0.15700001 596571.00150465 21208.10010445
0.15800001 588656.61918918 18251.29933940
0.15900001 580796.91123052 16726.95183296
0.16000001 572987.09680178 15221.40294503
0.16100001 565233.63515330 15108.69578084
0.16200001 557531.15402689 14994.80109540
0.16300001 549884.29960285 13527.15440882
0.16400001 542291.52564915 20132.57384018
0.16500001 534754.68425229 15978.47071982
0.16600001 527273.02350864 18491.46580749
0.16700001 519847.39719197 19650.23254164
0.16800001 512477.61976837 12991.30827453
0.16900001 505167.22419800 12881.76482530
0.17000001 497913.50433913 19157.22298405
0.17100001 490718.16241301 12660.52918810
0.17200001 483581.33535847 15058.72349418
0.17300001 476503.29281546 16167.75748874
0.17400001 469485.77082760 13556.40227286
0.17500001 462527.23863814 18316.07951509
0.17600001 455626.76365463 15725.95849026
0.17700001 448789.16857262 16775.73991357
0.17800001 442011.15935769 15428.40024610
0.17900001 435293.91489864 16454.11076036
0.18000001 428638.57313251 17456.30671537
0.18100001 422045.72314843 16130.58830069
0.18200001 415511.49364415 15968.10745504
0.18300001 409041.92670788 11289.55771045
0.18400001 402632.96209260 14524.98479366
0.18500001 396287.07147222 14373.33276132
0.18600001 390003.38254502 13127.51447665
0.18700001 383781.61240440 11904.90617923
0.18800001 377622.35120016 14987.83182725
0.18900001 371527.78343469 12706.25079380
0.19000001 365492.05213448 11518.48256725
0.19100001 359524.11759019 13460.58359859
0.19200001 353615.56414438 12284.60527884
0.19300001 347772.51992443 10120.18080801
0.19400001 341991.51954738 14004.55338723
0.19500001 336274.14596398 13841.04450194
0.19600001 330618.60999184 9769.78038694
0.19700001 325026.95281682 10618.63105034
0.19800001 319498.44535106 9537.02904444
0.19900001 314033.76081397 10363.11459662
0.20000001 308629.95593556 14888.30977797
0.20100001 303291.02567623 11027.66221478
0.20200001 298013.31788963 9981.95655450
0.20300001 292799.42136566 10751.59526072
0.20400001 287647.88747093 10614.20754937
0.20500001 282558.27239287 10477.26123556
0.20600001 277531.49484406 10340.82398668
0.20700001 272566.67374980 11055.30480987
0.20800001 267663.62552310 10908.63157385
0.20900001 262824.86736487 10762.67882736
0.21000001 258045.13643426 12250.69343134
0.21100001 253327.30801760 11278.13228610
0.21200001 248670.60133878 8739.52869721
0.21300001 244074.94689288 8618.28678222
0.21400001 239540.96180053 8497.71602162
0.21500001 235068.15697240 9901.07123978
0.21600001 230654.19699215 9009.35336046
0.21700001 226301.13700090 7400.04752980
0.21800001 222007.89937342 10210.14377493
0.21900001 217773.06795679 8623.81389884
0.22000001 213597.41162374 9913.05634217
0.22100001 209482.97271135 8370.93998535
0.22200001 205426.10219491 8245.80413200
0.22300001 201427.40467568 8121.55334055
0.22400001 197485.17141770 7998.14982062
0.22500001 193603.70833203 7219.48262509
0.22600001 189777.75930401 9692.89951481
0.22700001 186009.94635700 7633.84855949
0.22800001 182297.98590093 8140.51694537
0.22900001 178642.08544253 6779.46746315
0.23000001 175042.33775170 6671.73901892
0.23100001 171499.71418034 7161.82840287
0.23200001 168010.20401211 8220.73967110
0.23300001 164576.78990870 5776.64559900
0.23400001 161197.87488295 7955.11550171
0.23500001 157871.67858709 6147.52345494
0.23600001 154600.16753699 7144.84708065
0.23700001 151381.59375513 6485.18778321
0.23800001 148215.93053864 5844.89549725
0.23900001 145102.71749205 5746.06788447
0.24000001 142041.24193773 6161.74936671
0.24100001 139032.59369099 5551.57172868
0.24200001 136074.32396355 6943.87308032
0.24300001 133166.89334433 6336.08108504
0.24400001 130309.18023453 6704.40764021
0.24500001 127501.84091132 6586.74541306
0.24600001 124743.75355393 5083.93191659
0.24700001 122035.54422084 6355.61144368
0.24800001 119374.74341132 4904.51156507
0.24900001 116761.93088123 5692.14439974
0.25000001 114197.23683781 6019.33663849
0.25100001 111679.15557004 4643.61950829
0.25200001 109208.89128457 4558.92538236
0.25300001 106784.89551735 6102.75706754
0.25400001 104405.78924747 4792.22595318
0.25500001 102072.25922218 3919.57493957
0.25600001 99783.89852387  4231.33641710
0.25700001 97539.70817855  4907.22295064
0.25800001 95339.40604739  4444.72332023
0.25900001 93182.88149466  4360.95906029
0.26000001 91069.87965832  3921.92455305
0.26100001 88997.21236265  4896.62685588
0.26200001 86969.14408987  4803.30605536
0.26300001 84981.23242839  3701.78265974
0.26400001 83034.32972542  5941.10657298
0.26500001 81128.91486058  4855.56578417
0.26600001 79262.67283747  3491.91721709
0.26700001 77437.30415792  3112.97977446
0.26800001 75650.96843555  3357.76839290
0.26900001 73902.61272917  4190.27834003
0.27000001 72193.26885413  3815.05347313
0.27100001 70521.60797441  3452.73808982
0.27200001 68887.66142393  3667.23482945
0.27300001 67289.91929666  4148.42372096
0.27400001 65727.66266500  2982.39283457
0.27500001 64203.65632582  4252.85039629
0.27600001 62712.86828032  2866.29178040
0.27700001 61258.93370771  2554.49765651
0.27800001 59838.24824019  3756.34621106
0.27900001 58452.46762418  3682.50563461
0.28000001 57099.81857956  2888.10896044
0.28100001 55780.27189415  2359.50561280
0.28200001 54493.82158406  3238.56797002
0.28300001 53239.55625447  2721.60624454
0.28400001 52017.33727634  2446.11540120
0.28500001 50826.48681247  3270.68458119
0.28600001 49665.85394082  2779.54964736
0.28700001 48536.18126655  2516.11575595
0.28800001 47435.82790461  2673.24620810
0.28900001 46366.52238849  2420.33258324
0.29000001 45324.96328010  2769.80863715
0.29100001 44313.43425651  2329.11421477
0.29200001 43329.35268583  2666.05519696
0.29300001 42373.19421919  2242.38954423
0.29400001 41444.14491586  2750.85524901
0.29500001 40543.34244728  2700.18673481
0.29600001 39667.85153307  2297.36373029
0.29700001 38818.35131607  1735.18038597
0.29800001 37995.05475445  2726.52525825
0.29900001 37197.08903586  1673.86908585
0.30000001 36423.74203669  1808.98523389
0.30100001 35675.74956444  2100.94499131
0.30200001 34950.61401630  1906.20657869
0.30300001 34249.62544641  2342.67449144
0.30400001 33572.63940627  2611.11215344
0.30500001 32917.22391830  1661.99071432
0.30600001 32284.71011651  1932.72426263
0.30700001 31674.59795707  1609.70314439
0.30800001 31085.94614595  2161.25050812
0.30900001 30518.64176599  1561.02860024
0.31000001 29972.90407863  1538.05964561
0.31100001 29446.05944556  2067.11347095
0.31200001 28940.66341666  1358.76421174
0.31300001 28454.22171964  2010.29085967
0.31400001 27988.73803308  1454.71472814
0.31500001 27541.43386548  1305.46402703
0.31600002 27112.65432249  1675.96880630
0.31700002 26701.96421405  1783.15725464
0.31800002 26309.62078682  1762.48157996
0.31900002 25935.05158728  1493.85904216
0.32000002 25577.54184501  1231.55869815
0.32100002 25237.39470248  1340.86284403
0.32200002 24913.94914315  1207.08089314
0.32300002 24605.93541678  1195.84851788
0.32400002 24314.30370130  1303.85459772
0.32500002 24037.75132380  1410.53531447
0.32600002 23777.12019018  1282.89458061
0.32700002 23531.00662786  1157.72558091
0.32800002 23300.41893850  1264.86330197
0.32900002 23082.83090208  1485.38023889
0.33000002 22880.81820461  1590.44574872
0.33100002 22690.06242011  1129.96516203
0.33200002 22515.23505995  1686.95406675
0.33300002 22352.12074777  1455.79369324
0.33400002 22202.64386260  1338.81948832
0.33500002 22064.89686407  1334.48502553
0.33600002 21939.53354734  1441.75651534
0.33700002 21825.18131514  1327.84409410
0.33800002 21723.84544308  1767.45214895
0.33900002 21632.64191064  1985.87662144
0.34000002 21553.15561809  1653.66594311
0.34100002 21484.25991683  1322.57110312
0.34200002 21426.74751003  1102.40621160
0.34300002 21378.01038944  1323.72646600
0.34400002 21340.16534278  1214.78896967
0.34500002 21311.43486677  1548.48893076
0.34600002 21293.53676982  1329.99436963
0.34700002 21282.56205051  1666.42468748
0.34800002 21282.21677777  1225.53651119
0.34900002 21290.05854059  1453.04656421
0.35000002 21306.42664447  1458.31844075
0.35100002 21331.04164586  1802.04648359
0.35200002 21362.93620017  1809.86804060
0.35300002 21402.87519360  1591.08981725
0.35400002 21450.75972850  1370.70361157
0.35500002 21505.57863802  1263.23774903
0.35600002 21566.90017911  1847.85209487
0.35700002 21635.28455559  1394.17780280
0.35800002 21710.78893971  1286.03864376
0.35900002 21792.15850017  1294.45427622
0.36000002 21880.43830547  1895.72126458
0.36100002 21973.66999563  1193.17033728
0.36200002 22073.93027536  1322.11811647
0.36300002 22177.91433624  1210.91418012
0.36400002 22288.13286785  2074.46806494
0.36500002 22402.95488033  1352.91450931
0.36600002 22523.27728102  1983.85035688
0.36700002 22647.88497114  1625.21230251
0.36800002 22778.43422496  1891.17959111
0.36900002 22912.31918932  1525.96053029
0.37000002 23049.48578006  1282.70394442
0.37100002 23191.14808413  1552.87934927
0.37200002 23337.14604812  1697.42739822
0.37300002 23486.03327280  1449.32318192
0.37400002 23639.51720408  1595.66748686
0.37500002 23795.13152949  1878.86367457
0.37600002 23955.03295883  1625.58861359
0.37700002 24116.47057769  2051.10591980
0.37800002 24281.85738136  2346.72021779
0.37900002 24449.53511025  1672.34828076
0.38000002 24619.87222887  1407.02576453
0.38100002 24792.01753613  1562.64093933
0.38200002 24966.62397193  1864.63239968
0.38300002 25142.98009927  1593.05929456
0.38400002 25321.94907514  1462.34262837
0.38500002 25501.53223080  1771.84654334
0.38600002 25683.92505188  3280.09422377
0.38700002 25866.75930181  1957.07910149
0.38800002 26050.96183697  1520.07369520
0.38900002 26236.48229086  1688.31771540
0.39000002 26423.75511566  2014.67930424
0.39100002 26611.00096041  2660.03578203
0.39200002 26799.65893955  1579.83996933
0.39300002 26988.60034799  1914.03162736
0.39400002 27178.99923769  1771.39135924
0.39500002 27368.87510318  2601.13801304
0.39600002 27559.20168248  2133.49569933
0.39700002 27749.32260342  2153.62502929
0.39800002 27940.73014592  1672.25277846
0.39900002 28131.15682844  2531.80423451
0.40000002 28321.42127503  2214.59364153
0.40100002 28511.39482068  2063.08462697
0.40200002 28702.19696376  1735.04788867
0.40300002 28891.51492063  2801.32141943
0.40400002 29080.25238622  2296.61304102
0.40500002 29268.59716585  2317.19494741
0.40600002 29456.39753048  2337.80710077
0.40700002 29643.22246419  3084.08101130
0.40800002 29829.44041156  2196.04350715
0.40900002 30013.84795232  2953.36277844
0.41000002 30198.10485195  2047.88457757
0.41100002 30380.84749801  2628.55105007
0.41200002 30561.71726482  2271.95816912
0.41300002 30741.85059423  2099.97591359
0.41400002 30920.43887691  1924.79741129
0.41500002 31098.00773067  2522.67050664
0.41600002 31272.84090104  1956.11629105
0.41700002 31446.89943854  2957.58103234
0.41800002 31620.07041383  2384.78582361
0.41900002 31789.53590320  2603.56311384
0.42000002 31958.02305195  2219.96417650
0.42100002 32125.17548861  2440.22844574
0.42200002 32290.15593528  3073.21573677
0.42300002 32452.65107821  3095.98305957
0.42400002 32613.18663630  2079.09074658
0.42500002 32771.91080709  2303.53771979
0.42600002 32927.18793063  2741.68243296
0.42700002 33081.59085750  3610.52499728
0.42800002 33233.17729834  2138.55506049
0.42900002 33382.92978644  2153.19907326
0.43000002 33530.22331247  3251.59355981
0.43100002 33673.80356646  2400.26883196
0.43200002 33815.79374565  2415.96949865
0.43300002 33954.92490147  2873.60543059
0.43400002 34091.89987559  3336.74485845
0.43500002 34225.68128024  2909.86756034
0.43600002 34357.92229827  2702.59429605
0.43700002 34486.39557964  2492.33192665
0.43800002 34611.46253664  2734.99789925
0.43900002 34735.00236566  2980.26334421
0.44000002 34854.89870803  3227.91232232
0.44100002 34972.65032468  3246.16155697
0.44200002 35087.25798995  2564.70324432
0.44300002 35199.23892604  2578.69636593
0.44400002 35307.69932707  3063.82575430
0.44500002 35412.52900471  2606.00813296
0.44600002 35515.20944291  2619.42439660
0.44700002 35615.11832290  2632.66967119
0.44800002 35710.90963484  2886.15585347
0.44900002 35805.02953421  2658.52356891
0.45000002 35895.76728468  2914.01852627
0.45100002 35982.20655778  3415.43120833
0.45200002 36066.41087045  2695.78400827
0.45300002 36146.96870881  3200.09129145
0.45400002 36225.01143515  2966.82857715
0.45500002 36299.73458274  3227.77255207
0.45600002 36370.98877501  2991.87767843
0.45700002 36439.09705594  2753.70269503
0.45800002 36503.39643958  2764.58486038
0.45900002 36564.86358174  3027.57084806
0.46000002 36623.82385125  2785.79129328
0.46100002 36678.30130298  2795.98704084
0.46200002 36730.43828678  3316.20777789
0.46300002 36778.84780369  3839.71189269
0.46400002 36823.62877641  3852.67234333
0.46500002 36866.01199297  3350.01466858
0.46600002 36904.36257673  3877.72608154
0.46700002 36939.51290026  2852.46932135
0.46800002 36972.02042899  2861.07993650
0.46900002 37000.55652528  3651.95510213
0.47000002 37025.49297373  2615.85120258
0.47100002 37047.70030639  4983.65688142
0.47200002 37066.36415831  2892.84452785
0.47300002 37082.41028556  2900.21544590
0.47400002 37093.70600817  2907.21934619
0.47500002 37102.98858989  3973.73026632
0.47600002 37109.24723485  3451.71679515
0.47700002 37111.09261022  2926.95201290
