# SAXS profile: number of points = 501, q_min = 0, q_max = 0.5, delta_q = 0.001
#    q    intensity    error
0.00000000 1646666.22097351 321.09991309
0.00100000 1646598.45247987 740.96932121
0.00200000 1646395.08708856 814.96559391
0.00300000 1646056.30420884 987.63381771
0.00400000 1645581.94852438 1727.86111161
0.00500000 1644972.50631913 1924.61790857
0.00600000 1644227.69103041 2589.65871880
0.00700000 1643348.14844946 2760.82500414
0.00800000 1642333.35182955 3104.01016601
0.00900000 1641184.62435835 2707.95474595
0.01000000 1639901.12851253 2705.83697888
0.01100000 1638484.13368519 2949.27156904
0.01200000 1636933.01990014 4149.62538738
0.01300000 1635249.26562169 5151.03541389
0.01400000 1633432.06538995 4042.74454106
0.01500000 1631483.16732521 5090.22770872
0.01600000 1629401.45998570 4570.47129958
0.01700000 1627189.02011085 5272.09266166
0.01800000 1624845.52068301 5093.89093655
0.01900000 1622371.48693108 5353.82614845
0.02000000 1619767.69865316 6632.94902603
0.02100000 1617035.62500594 5869.83958490
0.02200000 1614173.58757395 8910.23860822
0.02300000 1611184.58792294 6380.29125860
0.02400000 1608068.28108429 9648.41012645
0.02500000 1604825.90434042 8136.46770660
0.02600000 1601457.99122411 9728.85774167
0.02700000 1597965.18471306 9396.03571646
0.02800000 1594347.56413994 9709.57711089
0.02900000 1590607.71450508 10020.82906148
0.03000000 1586745.87705992 8854.04240097
0.03100000 1582762.25145767 9876.43690354
0.03200000 1578657.83246658 8595.79229369
0.03300000 1574435.43019159 11241.46948980
0.03400000 1570092.96514435 10715.88498155
0.03500000 1565633.87563685 10145.30798262
0.03600000 1561057.86805786 11263.03303854
0.03700000 1556366.67177068 10645.54852724
0.03800000 1551561.73653276 10891.96389454
0.03900000 1546644.10108103 13919.79755436
0.04000000 1541612.72435558 14221.37804118
0.04100000 1536471.71155794 11615.72667796
0.04200000 1531221.17293203 11851.65242833
0.04300000 1525861.13400507 13091.88913746
0.04400000 1520395.50880724 15394.00524160
0.04500000 1514823.58012336 11497.51150737
0.04600000 1509145.87022849 13831.32254362
0.04700000 1503365.55716127 14071.50226947
0.04800000 1497482.66485467 12107.14790867
0.04900000 1491500.13128528 12304.87665586
0.05000000 1485417.24652357 15908.81945108
0.05100000 1479237.41659945 11538.05238696
0.05200000 1472958.85381444 12881.02577688
0.05300000 1466587.16298605 17819.03486097
0.05400000 1460120.38817255 15659.79189343
0.05500000 1453562.48118735 12209.92541156
0.05600000 1446912.12749387 14845.31912083
0.05700000 1440174.05761574 15035.41786334
0.05800000 1433347.00869756 19027.68242891
0.05900000 1426433.07319307 17973.05756168
0.06000000 1419434.67924949 23378.09025944
0.06100000 1412353.45168297 15761.86525736
0.06200000 1405189.97817628 18590.66428027
0.06300000 1397947.29135741 21472.47139920
0.06400000 1390623.47105471 14914.43742456
0.06500000 1383224.78877509 17802.10386428
0.06600000 1375748.96624330 16591.53330919
0.06700000 1368199.42776714 16746.76177960
0.06800000 1360578.32939952 18306.58227898
0.06900000 1352886.96677204 18466.90796104
0.07000000 1345124.75953785 20055.81110389
0.07100000 1337296.47404786 20219.92363466
0.07200000 1329400.95415619 17468.32935595
0.07300000 1321442.95316095 23468.82794778
0.07400000 1313422.01476008 22163.99753777
0.07500000 1305340.03618405 22321.31566500
0.07600000 1297197.49665559 14982.63178877
0.07700000 1288999.82593441 18097.55840469
0.07800000 1280745.13414079 16694.51360643
0.07900000 1272435.33732565 18323.06971691
0.08000000 1264074.80383790 15358.50958711
0.08100000 1255663.01523031 20078.05255556
0.08200000 1247201.60192628 18633.19280714
0.08300000 1238692.71309617 20289.78759276
0.08400000 1230137.80533848 21957.96085597
0.08500000 1221540.42291512 29939.95717119
0.08600000 1212899.51761130 23742.50917199
0.08700000 1204218.92377344 19074.82864828
0.08800000 1195497.11407706 20747.85338920
0.08900000 1186740.34381881 22429.39355168
0.09000000 1177947.19075092 19294.77589088
0.09100000 1169120.29222515 20974.01902790
0.09200000 1160260.49048328 17804.19806303
0.09300000 1151371.33512414 19481.20390576
0.09400000 1142450.94294123 16279.92670203
0.09500000 1133504.11449314 16322.46001590
0.09600000 1124531.43413540 21270.51307655
0.09700000 1115535.98227090 21317.89362341
0.09800000 1106518.31272527 19718.15725987
0.09900000 1097480.58376305 18108.43048359
0.10000000 1088422.45823101 19787.52122119
0.10100000 1079346.57160655 21468.20431894
0.10200000 1070255.30585907 23149.62335460
0.10300000 1061149.41514092 21520.11115138
0.10400000 1052031.67506496 18226.44962797
0.10500000 1042904.62400684 18240.40273208
0.10600001 1033764.52436533 18251.11353645
0.10700001 1024619.54840307 18258.72121176
0.10800001 1015466.05697203 16602.87081285
0.10900001 1006308.79631976 28226.96306529
0.11000001 997147.88555421 24903.76961393
0.11100001 987985.27936859 24897.23021208
0.11200001 978823.68403226 23227.48711557
0.11300001 969661.36177811 23213.69409389
0.11400001 960503.29394266 19882.41912077
0.11500001 951349.29526680 19864.17422053
0.11600001 942200.57830044 18189.18302065
0.11700001 933060.20811666 18166.68310759
0.11800001 923926.15904355 19790.49925881
0.11900001 914803.06614652 16466.45596623
0.12000001 905690.84629136 16438.28963451
0.12100001 896592.74943020 22970.70732251
0.12200001 887507.41879284 18011.96391297
0.12300001 878438.15563720 17972.84551112
0.12400001 869385.01297680 21191.26068979
0.12500001 860349.98709640 21138.80017903
0.12600001 851335.84990085 17839.74357534
0.12700001 842341.88872399 19407.55803081
0.12800001 833368.84162831 19350.82541460
0.12900001 824419.53337534 19291.41799023
0.13000001 815494.54941994 24036.70297712
0.13100001 806594.26350378 20761.73732125
0.13200001 797722.00230311 17506.01016578
0.13300001 788878.40885945 19027.74811871
0.13400001 780062.49059553 18955.51941514
0.13500001 771277.83184505 18880.88221377
0.13600001 762523.57695263 25071.77639236
0.13700001 753802.75576723 17164.08955816
0.13800001 745114.05988024 18642.75465732
0.13900001 736462.21599999 20105.41944493
0.14000001 727844.70579681 21551.48275502
0.14100001 719264.35989488 24512.53054130
0.14200001 710720.57476112 18293.94845719
0.14300001 702218.06791510 15167.91098240
0.14400001 693751.18772840 25651.45137623
0.14500001 685328.75477620 19511.31056887
0.14600001 676945.27799844 20897.30171763
0.14700001 668607.27294306 19296.00680746
0.14800001 660309.98869453 22136.89341537
0.14900001 652056.81559230 16138.40694733
0.15000001 643849.20439778 16041.50368446
0.15100001 635687.67715357 20291.15161218
0.15200001 627573.23184261 14402.80635041
0.15300001 619506.34913894 24328.01547870
0.15400001 611485.69407194 15638.74736390
0.15500001 603515.98306245 15534.50213715
0.15600001 595593.59889710 15428.85290759
0.15700001 587725.41618226 13929.09302093
0.15800001 579903.58504072 16596.84138722
0.15900001 572136.44107596 15104.40275734
0.16000001 564419.19282590 19083.01381021
0.16100001 556758.08283146 18940.91087202
0.16200001 549148.06940422 16112.00511690
0.16300001 541593.55075569 14655.52217530
0.16400001 534093.10757910 14540.68554030
0.16500001 526648.21104925 17047.60339650
0.16600001 519258.90184795 22112.64137920
0.16700001 511925.00726810 16770.66402993
0.16800001 504647.07278991 17909.92545896
0.16900001 497428.37486815 17758.19382130
0.17000001 490266.14753755 13832.86000596
0.17100001 483162.03828952 22438.04611772
0.17200001 476116.66443800 14826.27363074
0.17300001 469129.79119022 12244.28812829
0.17400001 462202.86641262 24265.65163263
0.17500001 455334.85046250 13222.92468192
0.17600001 448524.82439030 14290.00157998
0.17700001 441777.62789368 16513.64851062
0.17800001 435089.59087840 11682.15606686
0.17900001 428461.96975594 13882.16847580
0.18000001 421896.27559553 13745.38130817
0.18100001 415392.57898000 12474.23973601
0.18200001 408947.34566288 14593.28671934
0.18300001 402566.38709702 11110.83280875
0.18400001 396245.74825797 15394.14804705
0.18500001 389987.87832417 13056.79478312
0.18600001 383792.04838870 12918.44095908
0.18700001 377657.72944759 10649.94847358
0.18800001 371585.79636629 12641.34938964
0.18900001 365577.99632043 16670.35741984
0.19000001 359628.55762971 12364.03039549
0.19100001 353746.91817850 12225.49406990
0.19200001 347923.92957972 12086.87788472
0.19300001 342166.19720816 9957.03680925
0.19400001 336470.21455686 10825.92966493
0.19500001 330837.34400127 11671.94204792
0.19600001 325265.97939214 12495.09318882
0.19700001 319758.30394509 10446.50428356
0.19800001 314312.89349066 13135.13643973
0.19900001 308931.01574180 10194.72400128
0.20000001 303609.79131396 10069.21920481
0.20100001 298352.75533739 11752.11558817
0.20200001 293156.71559019 8926.62241162
0.20300001 288023.75698197 9694.88011824
0.20400001 282952.97115156 12181.12598382
0.20500001 277943.25276257 10306.13629957
0.20600001 272996.35565382 11867.15214121
0.20700001 268110.54402568 14220.58392732
0.20800001 263286.30463653 9904.83124863
0.20900001 258525.62855273 9772.26922124
0.21000001 253823.42332120 12050.26759182
0.21100001 249182.61451235 12678.41202574
0.21200001 244602.52927542 10159.56653374
0.21300001 240082.82810301 7706.65914644
0.21400001 235624.21550804 9118.65757126
0.21500001 231226.26637214 10488.42393851
0.21600001 226886.77641535 8123.68141363
0.21700001 222607.48720276 10190.97124597
0.21800001 218387.50844407 7891.43299074
0.21900001 214225.23108660 7069.43296011
0.22000001 210121.60692341 6965.53159886
0.22100001 206078.52263341 7548.65664099
0.22200001 202092.48541444 8787.99214378
0.22300001 198163.95820659 7324.14024164
0.22400001 194291.33199808 9180.26587101
0.22500001 190479.12167859 7102.96678327
0.22600001 186721.26635505 8265.21724605
0.22700001 183021.15437395 10640.85041850
0.22800001 179376.33077387 6777.73497881
0.22900001 175786.83980181 8490.50476395
0.23000001 172252.95672420 8952.84784914
0.23100001 168775.44242385 9397.41707859
0.23200001 165350.56551061 6356.90279170
0.23300001 161981.07160738 6822.64305878
0.23400001 158665.33283110 7270.83922086
0.23500001 155401.62701000 6601.46142761
0.23600001 152192.00328876 7033.55376466
0.23700001 149034.68496200 7448.75390671
0.23800001 145929.32796846 7847.34998267
0.23900001 142876.02033148 5143.53697522
0.24000001 139873.76048998 6573.36768515
0.24100001 136923.66469696 4970.32926360
0.24200001 134023.09392643 5862.17040563
0.24300001 131172.76430473 5281.01574072
0.24400001 128371.47014587 5661.18210123
0.24500001 125619.68371040 5098.90320301
0.24600001 122916.88185081 7286.51310081
0.24700001 120262.78075938 4473.77565589
0.24800001 117655.48355387 5712.76227421
0.24900001 115095.48818660 5179.29721342
0.25000001 112583.19549014 4238.75751073
0.25100001 110116.43066514 4578.64140367
0.25200001 107696.91658171 5721.93744869
0.25300001 105322.99078670 4012.80613882
0.25400001 102993.18984007 5121.33660709
0.25500001 100708.27340430 5027.35724620
0.25600001 98467.84350703  4934.71621083
0.25700001 96270.88784822  5215.95695040
0.25800001 94116.93747009  4387.73183246
0.25900001 92006.20384699  3947.06633179
0.26000001 89938.28605534  4225.30087880
0.26100001 87909.95658186  3800.34760285
0.26200001 85925.38397323  3728.73221395
0.26300001 83980.28968600  4988.42944339
0.26400001 82075.68341596  4241.26114121
0.26500001 80211.72832996  3520.49292299
0.26600001 78386.14736588  5022.98456089
0.26700001 76600.84370356  3079.35406260
0.26800001 74853.74076010  3926.45315737
0.26900001 73144.01558503  2962.33277138
0.27000001 71472.65488700  3486.43627037
0.27100001 69838.13903791  3419.27544911
0.27200001 68240.61920308  3073.89883747
0.27300001 66678.67490541  3014.54303513
0.27400001 65151.55611019  2687.50181673
0.27500001 63661.66294405  3426.27086180
0.27600001 62204.59857523  3876.90178968
0.27700001 60783.67161972  3295.08299445
0.27800001 59395.36717989  2982.83548094
0.27900001 58041.18573791  3412.82188291
0.28000001 56719.36629324  2868.86568289
0.28100001 55430.02818769  2813.62836397
0.28200001 54173.14099653  3679.43991063
0.28300001 52947.74670076  2481.13152783
0.28400001 51753.67279144  2654.96353986
0.28500001 50590.32672164  2387.35763099
0.28600001 49456.51699734  2342.01347326
0.28700001 48353.07834310  2924.39431661
0.28800001 47278.28972215  2869.31953905
0.28900001 46233.66886500  2413.39762899
0.29000001 45216.38173698  2565.80370312
0.29100001 44228.42102427  2518.36641233
0.29200001 43267.14599173  2662.22761889
0.29300001 42333.22360896  2053.58477448
0.29400001 41425.89146420  2016.40536247
0.29500001 40546.04593735  2160.29342980
0.29600001 39690.86012365  2298.69627288
0.29700001 38861.12667468  2084.51093351
0.29800001 38057.05719781  2389.60273457
0.29900001 37277.50255769  2180.73400286
0.30000001 36522.17161293  1813.87373902
0.30100001 35791.40496617  2107.75593824
0.30200001 35082.96045900  1753.97269118
0.30300001 34398.12102843  1725.40983247
0.30400001 33736.67133210  1852.14334382
0.30500001 33096.22738465  1974.85198154
0.30600001 32478.04556496  1645.17547598
0.30700001 31881.84312445  2651.29419975
0.30800001 31306.46838033  1741.26585375
0.30900001 30751.65224462  2001.93265591
0.31000001 30218.13223063  1691.61112236
0.31100001 29702.94964711  1946.13735302
0.31200001 29208.64112729  1508.48034244
0.31300001 28732.68576590  1353.30956365
0.31400001 28277.18883460  1870.53612997
0.31500001 27839.30841511  1451.54160949
0.31600002 27419.54859330  1564.55951681
0.31700002 27017.32907411  1675.34465521
0.31800002 26632.94770432  1274.38660799
0.31900002 26265.96736660  1765.07309061
0.32000002 25915.32187417  1372.60508806
0.32100002 25581.65086134  1482.71255413
0.32200002 25264.24339798  1346.45791565
0.32300002 24961.85022702  1334.46057632
0.32400002 24675.35169395  1563.80048765
0.32500002 24403.40657095  1312.65930161
0.32600002 24147.03068418  1421.29429337
0.32700002 23904.70556727  1293.72272656
0.32800002 23677.42320090  1168.48089030
0.32900002 23462.71895618  1393.68557199
0.33000002 23263.17386958  1617.02329225
0.33100002 23074.60419905  1264.02687788
0.33200002 22901.41131900  1830.28087929
0.33300002 22739.62815090  1253.18096674
0.33400002 22591.05016717  1475.76042206
0.33500002 22453.80869269  1131.67201170
0.33600002 22328.56725339  1580.19277936
0.33700002 22213.94439274  1576.74584767
0.33800002 22112.17127345  1124.40396250
0.33900002 22019.89590925  1347.61769347
0.34000002 21939.28355616  1234.41384775
0.34100002 21868.64537628  1346.23387312
0.34200002 21809.11218913  1234.28676280
0.34300002 21758.21777951  1908.63095401
0.34400002 21717.65916998  2023.00004749
0.34500002 21686.19726748  1463.16779893
0.34600002 21665.06042193  2029.79960706
0.34700002 21650.66689748  1243.18135213
0.34800002 21646.39708507  1586.46451750
0.34900002 21650.23762263  1363.96503483
0.35000002 21662.25578348  1596.72494942
0.35100002 21682.27775022  1602.75404721
0.35200002 21709.35718476  1724.26577607
0.35300002 21744.20687081  1847.38790324
0.35400002 21786.65669715  1740.20928611
0.35500002 21835.92115854  1166.03824509
0.35600002 21891.39280550  2227.33986649
0.35700002 21953.69688501  1178.91357856
0.35800002 22022.90289923  1423.12005275
0.35900002 22097.86247668  1670.59848237
0.36000002 22179.47546988  1441.22238430
0.36100002 22265.85454622  1450.84315095
0.36200002 22359.06423139  1826.17665760
0.36300002 22455.76780827  1471.30197649
0.36400002 22558.57434137  1482.09840443
0.36500002 22665.73486746  1617.65357412
0.36600002 22778.38036901  1880.92484807
0.36700002 22894.99964170  1263.80404009
0.36800002 23017.51354802  1528.82332228
0.36900002 23143.22780030  1412.89412414
0.37000002 23272.09955513  2072.14784255
0.37100002 23405.36248208  2220.23279022
0.37200002 23542.68972710  1844.09897368
0.37300002 23682.91225807  1328.61144061
0.37400002 23827.56303705  1474.33053276
0.37500002 23974.28254412  1622.57951945
0.37600002 24125.07007119  2592.11827659
0.37700002 24277.46533052  1927.14528923
0.37800002 24433.68600567  1527.96062675
0.37900002 24592.09266198  1822.27415258
0.38000002 24753.05390487  1414.63709768
0.38100002 24915.77881769  1570.44161328
0.38200002 25080.91064589  2017.25773881
0.38300002 25247.74944796  1745.12452452
0.38400002 25417.14056424  1467.83993712
0.38500002 25586.99229747  1925.93300147
0.38600002 25759.82699909  1644.89383095
0.38700002 25932.87230424  1660.22256357
0.38800002 26107.34347173  1828.03627649
0.38900002 26283.05505152  1691.31467269
0.39000002 26460.56059275  1707.10314752
0.39100002 26638.08058965  1722.95113417
0.39200002 26816.89443623  2213.19840268
0.39300002 26996.06311864  2393.20110885
0.39400002 27176.59285319  1610.21320284
0.39500002 27356.72001171  2274.98494396
0.39600002 27537.23855208  2131.79542351
0.39700002 27717.57732628  2482.10916717
0.39800002 27899.18845444  2003.71980973
0.39900002 28079.82105462  1853.26827741
0.40000002 28260.52440887  1699.87062373
0.40100002 28440.73521158  2057.97169742
0.40200002 28621.90736027  2422.27213467
0.40300002 28801.57021102  1919.91276123
0.40400002 28980.71539728  2464.80996132
0.40500002 29159.55222449  2486.14354045
0.40600002 29337.86140703  1970.18417614
0.40700002 29515.33339100  2348.24003585
0.40800002 29692.22498853  2185.94170723
0.40900002 29867.34431865  2020.52593889
0.41000002 30042.32236270  2037.32018756
0.41100002 30215.92066662  2427.54718138
0.41200002 30387.82786413  3012.04164061
0.41300002 30558.89042697  3036.33149669
0.41400002 30728.64191798  2104.14385503
0.41500002 30897.39325729  2699.19640285
0.41600002 31063.43289542  2331.62138361
0.41700002 31228.85268154  2937.07373387
0.41800002 31393.45698203  1973.07886481
0.41900002 31554.44634977  2584.30927850
0.42000002 31714.50629104  4005.54233436
0.42100002 31873.40914593  2824.62165236
0.42200002 32030.22633859  3454.94052773
0.42300002 32184.71116699  2661.03204538
0.42400002 32337.19586468  3092.24450109
0.42500002 32488.14486568  2698.79032188
0.42600002 32635.76425704  3135.48119957
0.42700002 32782.51265550  2525.56489466
0.42800002 32926.49377614  2966.34796486
0.42900002 33068.91992747  3199.41815459
0.43000002 33208.97976121  2361.65670763
0.43100002 33345.36775860  2376.85792647
0.43200002 33480.39587681  2609.46217830
0.43300002 33612.61382847  2625.81751671
0.43400002 33742.71730554  3082.39737193
0.43500002 33870.05204976  2436.61165993
0.43600002 33995.71322332  2896.94483961
0.43700002 34117.78930992  3138.15440944
0.43800002 34236.66160140  3607.17483726
0.43900002 34354.09820963  2720.84470714
0.44000002 34467.96760646  2964.07301478
0.44100002 34579.89975685  2751.17695503
0.44200002 34688.86602314  3227.10535907
0.44300002 34795.31059937  2549.10457531
0.44400002 34898.36529063  3028.30579161
0.44500002 34997.93738202  2341.36212182
0.44600002 35095.44118549  2353.14944301
0.44700002 35190.28000326  3310.70169961
0.44800002 35281.34066897  2376.19840667
0.44900002 35370.69467499  2626.27420408
0.45000002 35456.82147189  2398.65408625
0.45100002 35538.80300493  3132.39024531
0.45200002 35618.75764333  3146.38310554
0.45300002 35695.28475290  3160.10370894
0.45400002 35769.26853757  2441.25269339
0.45500002 35840.16634588  3432.05449194
0.45600002 35907.59594950  3446.05214659
0.45700002 35972.24665048  3212.68150062
0.45800002 36033.10071963  2728.96701234
0.45900002 36091.25315825  3237.38556173
0.46000002 36147.18086491  2999.49321033
0.46100002 36198.72647576  2508.57186366
0.46200002 36247.96873738  3272.64801256
0.46300002 36293.62745403  3283.84756768
0.46400002 36335.89405876  3801.64309608
0.46500002 36375.82736279  2796.93749849
0.46600002 36411.95876054  2550.65783207
0.46700002 36444.99120634  2814.28235434
0.46800002 36475.50484062  2566.05188716
0.46900002 36502.14525004  3345.42177073
0.47000002 36525.48348003  3612.73574224
0.47100002 36546.12386442  2587.46569224
0.47200002 36563.34475714  3631.83720686
0.47300002 36577.95991405  2600.69307315
0.47400002 36588.29080149  3128.29901180
0.47500002 36596.51558588  2874.29047035
0.47600002 36601.82402618  3928.29094980
0.47700002 36603.03509405  2886.88151470
