# SAXS profile: number of points = 501, q_min = 0, q_max = 0.5, delta_q = 0.001
#    q    intensity    error
0.00000000 1664650.74656091 349.57665678
0.00100000 1664582.40891979 599.24968144
0.00200000 1664377.33917548 1123.45473952
0.00300000 1664035.71480911 1098.26361090
0.00400000 1663557.38707802 1621.96851403
0.00500000 1662942.82924888 1945.64318723
0.00600000 1662191.76076670 1919.83156185
0.00700000 1661304.84026040 2192.92248028
0.00800000 1660281.53471363 2689.65619979
0.00900000 1659123.16426953 3484.15879391
0.01000000 1657828.88315941 3008.95955286
0.01100000 1656399.98935467 4472.28016598
0.01200000 1654835.87020919 4195.00911491
0.01300000 1653137.94955190 5554.54375548
0.01400000 1651305.48002571 4086.98124424
0.01500000 1649340.19714564 4354.25831435
0.01600000 1647240.96653759 4620.51111769
0.01700000 1645009.94229974 5329.83245214
0.01800000 1642646.69242637 5617.85194089
0.01900000 1640151.77221425 6888.63775413
0.02000000 1637526.08966243 5674.02815735
0.02100000 1634770.97619565 8092.11669905
0.02200000 1631884.80183264 6193.00310432
0.02300000 1628870.53896376 6450.32762790
0.02400000 1625727.87105619 6706.12777389
0.02500000 1622458.11986263 7593.10434774
0.02600000 1619061.68408423 6557.20012046
0.02700000 1615539.32290593 8142.31856037
0.02800000 1611891.09977247 8414.07192668
0.02900000 1608119.51116134 9407.49957223
0.03000000 1604224.86143224 10443.50432796
0.03100000 1600207.39794075 9217.19503625
0.03200000 1596068.12794225 9480.64511664
0.03300000 1591809.81248509 8118.23041793
0.03400000 1587430.38837186 12501.01488523
0.03500000 1582933.27063508 11112.19207300
0.03600000 1578318.22178676 13139.49980360
0.03700000 1573586.98408268 10763.33546890
0.03800000 1568740.93336706 11012.56186189
0.03900000 1563781.28177148 11259.22575017
0.04000000 1558706.79268124 10544.65194112
0.04100000 1553521.68577282 13702.06190383
0.04200000 1548226.04011045 12981.87594859
0.04300000 1542819.95739922 14255.65706809
0.04400000 1537307.25466363 11414.50689599
0.04500000 1531687.32380501 16909.82884052
0.04600000 1525960.64205188 10758.02302657
0.04700000 1520130.42379430 16417.40934052
0.04800000 1514196.63686527 11129.34579879
0.04900000 1508162.30419867 13573.46136960
0.05000000 1502026.73183696 12639.55553698
0.05100000 1495793.22581476 11667.18770486
0.05200000 1489460.12520056 14209.45025659
0.05300000 1483032.85420829 14415.08001490
0.05400000 1476509.77227392 14617.44742718
0.05500000 1469894.59336788 14816.53819233
0.05600000 1463186.10704034 16263.31433867
0.05700000 1456388.95220112 15204.70137071
0.05800000 1449502.09799086 15393.71299943
0.05900000 1442527.22292570 15579.29473524
0.06000000 1435467.38202408 19701.79073872
0.06100000 1428323.77807453 14611.75293253
0.06200000 1421097.02617883 17458.17778266
0.06300000 1413790.28557844 13572.38737613
0.06400000 1406401.60172296 15083.65788389
0.06500000 1398937.23208606 18004.32301915
0.06600000 1391394.99163961 15381.87235227
0.06700000 1383778.11685756 16937.44494299
0.06800000 1376089.16838748 17091.02827139
0.06900000 1368329.06603547 15804.20145265
0.07000000 1360497.30782622 24631.80491166
0.07100000 1352598.80529537 18990.48811582
0.07200000 1344632.24760072 19140.84094128
0.07300000 1336602.65708872 19287.17724550
0.07400000 1328509.33381586 19429.44991760
0.07500000 1320354.27990013 22578.05924458
0.07600000 1312138.05950483 15155.19529777
0.07700000 1303865.91395601 18306.27829030
0.07800000 1295536.05969304 16887.31333005
0.07900000 1287150.59793956 20079.55026966
0.08000000 1278713.62584532 17090.00841113
0.08100000 1270224.91965230 20310.89741819
0.08200000 1261685.86252890 17278.78869814
0.08300000 1253098.83623141 22104.66450854
0.08400000 1244465.15959989 17453.62468264
0.08500000 1235788.41001790 19130.00548514
0.08600000 1227067.59204294 19215.87939361
0.08700000 1218306.31498185 17689.80852421
0.08800000 1209503.56884248 22605.62276331
0.08900000 1200665.15628437 17829.87840829
0.09000000 1191789.89663156 17894.72613854
0.09100000 1182880.29467322 22853.24836676
0.09200000 1173937.38714222 18014.07005212
0.09300000 1164964.51082461 22996.40052433
0.09400000 1155960.17427000 23061.40656051
0.09500000 1146928.64780813 19818.92796567
0.09600000 1137870.91606648 19867.22712844
0.09700000 1128790.12392203 24889.82340262
0.09800000 1119686.59512858 24941.02007916
0.09900000 1110562.48123007 19990.12560213
0.10000000 1101417.64339386 18355.12589035
0.10100000 1092254.69621360 16711.49763804
0.10200000 1083075.99737710 25100.28741984
0.10300000 1073882.28522402 18427.82088130
0.10400000 1064676.35839734 21799.24946373
0.10500000 1055460.73907386 21816.37450310
0.10600001 1046231.90102708 21829.62964209
0.10700001 1036997.48065824 16799.35997720
0.10800001 1027754.62910762 20164.54677207
0.10900001 1018507.53097133 20166.45006238
0.11000001 1009256.60574664 16804.12327664
0.11100001 1000003.70998342 20160.07574227
0.11200001 990751.37335674 18472.56022587
0.11300001 981498.17757095 16783.61962665
0.11400001 972249.02592862 20125.55578432
0.11500001 963003.84023942 18431.89437010
0.11600001 953763.66116879 30129.39547516
0.11700001 944531.59449761 31764.59901891
0.11800001 935305.73032416 26712.33291616
0.11900001 926090.61120614 20003.55814425
0.12000001 916886.07393896 19969.77963107
0.12100001 907695.72788695 18271.91586312
0.12200001 898517.85488120 18235.42072391
0.12300001 889356.07717073 18196.22619622
0.12400001 880210.17314209 24755.91228606
0.12500001 871082.28421327 21402.49273162
0.12600001 861975.26610558 16420.62959311
0.12700001 852888.30934217 18013.00194219
0.12800001 843822.20773933 21226.34863606
0.12900001 834779.70430144 17906.02550121
0.13000001 825761.72788736 16226.21871781
0.13100001 816768.15254891 21023.61323761
0.13200001 807802.67043528 27396.62885930
0.13300001 798865.96521782 17662.92732365
0.13400001 789956.92029502 15996.62839014
0.13500001 781078.92069550 17527.41180679
0.13600001 772231.48542882 19043.22932858
0.13700001 763417.68438066 25284.39489893
0.13800001 754635.87048765 18880.99036995
0.13900001 745891.13126785 18796.45739436
0.14000001 737180.71304882 23387.05922442
0.14100001 728507.61086604 17068.93412761
0.14200001 719871.10558635 21617.73032036
0.14300001 711276.09279635 19972.63362778
0.14400001 702716.52815186 22926.12781238
0.14500001 694201.82081946 18243.62471173
0.14600001 685726.18889674 15120.26317846
0.14700001 677295.99688444 27064.74931232
0.14800001 668906.93909422 14950.07079408
0.14900001 660561.99542223 17835.17471788
0.15000001 652262.88681993 19205.88160860
0.15100001 644009.84322583 14683.42511839
0.15200001 635804.35214439 20428.39479835
0.15300001 627646.56308921 17398.36354984
0.15400001 619535.15609458 15844.61236484
0.15500001 611474.81820558 15739.36256340
0.15600001 603462.45904359 17053.84989743
0.15700001 595504.24857515 14113.45135734
0.15800001 587592.56422169 28028.16663627
0.15900001 579735.91293872 18087.76133744
0.16000001 571929.70474438 16574.52362585
0.16100001 564179.64367466 16451.47918613
0.16200001 556481.11360913 16327.15664403
0.16300001 548838.29065534 22952.41839874
0.16400001 541249.92304862 13395.93622787
0.16500001 533717.57198042 15947.48180368
0.16600001 526240.80553026 13182.33280091
0.16700001 518820.22262803 15689.12427303
0.16800001 511455.57608058 18151.55925215
0.16900001 504150.72521048 14141.42850988
0.17000001 496902.73257542 15294.66683088
0.17100001 489713.23658394 15161.52252059
0.17200001 482582.71898157 13775.32436384
0.17300001 475511.27229631 17375.18271024
0.17400001 468500.14003818 13527.94218247
0.17500001 461548.25598864 14621.84944027
0.17600001 454654.82002639 12071.08604181
0.17700001 447824.60451932 14348.30100648
0.17800001 441054.05740259 14210.76240072
0.17900001 434344.50062956 14072.76248510
0.18000001 427697.08559624 12773.17406467
0.18100001 421112.12639094 12645.99775287
0.18200001 414586.19085580 14794.50891955
0.18300001 408125.07355486 13517.10307468
0.18400001 401724.69607936 11147.86084284
0.18500001 395387.58567984 14340.70841009
0.18600001 389112.83179560 14189.00008176
0.18700001 382900.31343384 15116.90508856
0.18800001 376750.46490072 20293.66475067
0.18900001 370665.39950576 14789.55013905
0.19000001 364639.31969083 14625.68380384
0.19100001 358681.33955137 15495.03460076
0.19200001 352782.83103578 10213.06344107
0.19300001 346949.91951453 11105.86744844
0.19400001 341179.23506457 12973.34102637
0.19500001 335472.29802335 10849.17463075
0.19600001 329827.42704950 9746.40092989
0.19700001 324246.73664516 13482.17994684
0.19800001 318729.05280494 10465.46894344
0.19900001 313275.22760166 13157.56018110
0.20000001 307882.69554642 10210.93008038
0.20100001 302554.94978306 11000.89849404
0.20200001 297288.84917573 12673.42423935
0.20300001 292086.40336520 11619.19767504
0.20400001 286946.67974852 11470.69406512
0.20500001 281868.75914955 14806.56661799
0.20600001 276853.88151703 9455.94477018
0.20700001 271901.08193274 11028.30840449
0.20800001 267010.26020627 10044.92646379
0.20900001 262183.61024363 12388.17616962
0.21000001 257416.13503299 11406.10948251
0.21100001 252710.59395678 8839.81699450
0.21200001 248066.36275727 8718.29273126
0.21300001 243483.23973670 8597.39360155
0.21400001 238961.86341042 8477.17250526
0.21500001 234501.68496014 9117.42594230
0.21600001 230100.45336129 9736.70114432
0.21700001 225760.18590759 11811.77348514
0.21800001 221479.82955389 10913.41911726
0.21900001 217257.90908517 7169.51133880
0.22000001 213095.20041003 7770.51685036
0.22100001 208993.73052842 9743.28817793
0.22200001 204949.90895541 8226.68973446
0.22300001 200964.28724485 9453.36051900
0.22400001 197035.08765703 7314.92797516
0.22500001 193166.87332863 7203.19304704
0.22600001 189354.03531789 10316.00833194
0.22700001 185599.29847598 7616.99556966
0.22800001 181900.56026080 6873.11299448
0.22900001 178257.82032753 8609.85312899
0.23000001 174671.31949184 15130.90376655
0.23100001 171141.77064484 7146.88068012
0.23200001 167665.57690823 6445.90340909
0.23300001 164245.44183218 7494.51986525
0.23400001 160879.69686631 6805.21149930
0.23500001 157566.73970862 7809.00798930
0.23600001 154308.26903994 7679.92291336
0.23700001 151102.80916131 5933.80759642
0.23800001 147950.20567841 7425.62117422
0.23900001 144850.05916028 6778.98308934
0.24000001 141801.74219407 5638.74654506
0.24100001 138806.13041596 8061.86043589
0.24200001 135860.81066402 5942.55213954
0.24300001 132966.24037585 5353.22109075
0.24400001 130121.41831861 5738.35481930
0.24500001 127326.75990281 4698.35766267
0.24600001 124581.61723345 6000.47387790
0.24700001 121886.01181980 5440.99182503
0.24800001 119237.89615726 7571.01057466
0.24900001 116637.53186880 5248.68918240
0.25000001 114085.49494938 4724.85099685
0.25100001 111579.79123840 4639.48793918
0.25200001 109121.86525391 4141.17498230
0.25300001 106710.12774273 4878.78727122
0.25400001 104343.21081572 6784.91760429
0.25500001 102021.84880132 5484.69485105
0.25600001 99745.54697866  4614.22922154
0.25700001 97513.35740853  3773.76711026
0.25800001 95324.79154537  4073.70515943
0.25900001 93180.01791482  5087.62921887
0.26000001 91078.67468986  4278.87633939
0.26100001 89017.53258307  3848.22811565
0.26200001 87000.90925200  3432.18603239
0.26300001 85024.24888100  5723.83270551
0.26400001 83088.64549539  7596.37977386
0.26500001 81194.29353417  4211.54820490
0.26600001 79339.03015542  3495.28113889
0.26700001 77524.52573192  3428.13469009
0.26800001 75748.83493169  3667.75876095
0.26900001 74011.15895446  3297.19728745
0.27000001 72312.37841031  4115.29765008
0.27100001 70651.11218565  3170.82206494
0.27200001 69027.34540068  3109.33692072
0.27300001 67439.76776176  2771.77458618
0.27400001 65887.48249589  2989.64465974
0.27500001 64373.11444198  3198.05647683
0.27600001 62892.17348424  3919.75489791
0.27700001 61447.75114379  3843.55701595
0.27800001 60036.64632211  3768.80065124
0.27900001 58660.03724928  2956.46601729
0.28000001 57316.54395456  3140.66017463
0.28100001 56005.93427995  3316.67158503
0.28200001 54728.33217070  3717.14849696
0.28300001 53482.83571645  2734.04269123
0.28400001 52269.10302357  2681.40511202
0.28500001 51086.68464926  2191.61887519
0.28600001 49934.28358069  2149.67100990
0.28700001 48812.76617645  2530.45391836
0.28800001 47720.42641149  3103.02087428
0.28900001 46658.83116775  2435.59110224
0.29000001 45624.85290064  2588.98240039
0.29100001 44620.81374593  2345.27008150
0.29200001 43644.07155024  3069.05125669
0.29300001 42695.04781097  2447.70720687
0.29400001 41773.08235077  2218.15077783
0.29500001 40878.99232632  2178.03281425
0.29600001 40010.19261139  2495.43583130
0.29700001 39167.23713622  2801.24093259
0.29800001 38350.44466697  2752.02803958
0.29900001 37558.52674161  2704.21405341
0.30000001 36791.28289669  2159.46445185
0.30100001 36049.20110944  1796.33177632
0.30200001 35329.83479703  1926.88928105
0.30300001 34634.41695509  2526.92718067
0.30400001 33962.84422518  1709.18021655
0.30500001 33312.65197088  1681.95587764
0.30600001 32685.13249824  1806.18050736
0.30700001 32080.00692884  2074.93494639
0.30800001 31496.16757785  1897.80166725
0.30900001 30933.35829283  1726.08147446
0.31000001 30392.09450401  1417.79127574
0.31100001 29869.57159838  1677.47522039
0.31200001 29368.27786808  2068.26106678
0.31300001 28885.86390649  1496.57667985
0.31400001 28424.20637612  1745.95695932
0.31500001 27980.45289986  1458.90088327
0.31600002 27555.24856306  1441.27734433
0.31700002 27147.95176704  1424.45309666
0.31800002 26758.74455290  1536.48718498
0.31900002 26387.28129844  1393.24851853
0.32000002 26032.62348355  1629.51214411
0.32100002 25695.19671176  1365.18586594
0.32200002 25374.33499742  1475.26390660
0.32300002 25068.79066144  1705.68059737
0.32400002 24779.49720529  1208.00054596
0.32500002 24505.00995094  1557.78355634
0.32600002 24246.36607980  1308.21274378
0.32700002 24002.13263123  1771.35747206
0.32800002 23773.23896104  1290.53033811
0.32900002 23557.17345744  1282.68815550
0.33000002 23356.58751864  1623.51647530
0.33100002 23167.16053672  1384.46957924
0.33200002 22993.40227519  1607.92869725
0.33300002 22831.35042955  1258.23578176
0.33400002 22682.72631905  1139.80705151
0.33500002 22545.67536874  1704.45313859
0.33600002 22420.84971707  1586.72360962
0.33700002 22306.99660612  1130.96478149
0.33800002 22206.04852664  1129.17762105
0.33900002 22114.97909184  1917.36877807
0.34000002 22035.61898743  1352.54635750
0.34100002 21966.60931536  1803.01937799
0.34200002 21908.89236670  1465.37633535
0.34300002 21859.90496508  1240.76826458
0.34400002 21821.62459136  1355.12295130
0.34500002 21792.44918377  1244.13098282
0.34600002 21773.85392726  1246.66206565
0.34700002 21762.15249468  1249.58285543
0.34800002 21760.83897438  1253.09797169
0.34900002 21767.72621225  1714.20852040
0.35000002 21782.97855956  1605.62342567
0.35100002 21806.36716736  1611.92673736
0.35200002 21836.91376479  1618.77049405
0.35300002 21875.51906835  1742.38517632
0.35400002 21921.76993288  1400.80116506
0.35500002 21974.96099560  1642.84816184
0.35600002 22034.55898310  1297.94575838
0.35700002 22101.05048373  1186.82646719
0.35800002 22174.64889923  1194.10489978
0.35900002 22254.01442881  1201.71683608
0.36000002 22340.15183534  1572.63506294
0.36100002 22431.24482233  1461.61998185
0.36200002 22529.16094633  1594.72673312
0.36300002 22630.80593462  1482.77047507
0.36400002 22738.52357060  1618.41449180
0.36500002 22850.72960426  1756.30716058
0.36600002 22968.45913571  1390.85510884
0.36700002 23090.31751813  1784.41982233
0.36800002 23218.12408013  1413.63555158
0.36900002 23349.09350346  1684.63717607
0.37000002 23483.37226485  1698.90464698
0.37100002 23622.03957270  1713.54283177
0.37200002 23764.89155018  2127.43319235
0.37300002 23910.62853985  1475.52495709
0.37400002 24060.89097200  1894.79525380
0.37500002 24213.23747123  1502.18932388
0.37600002 24369.70433779  1929.34958382
0.37700002 24527.77188549  1529.79720497
0.37800002 24689.64231778  1403.60623226
0.37900002 24853.83034699  1983.33575565
0.38000002 25020.53694011  1572.91612925
0.38100002 25189.04267235  1731.99865620
0.38200002 25359.93536188  2185.39253334
0.38300002 25532.54114950  1764.80932786
0.38400002 25707.73915300  2078.47080899
0.38500002 25883.48620268  1648.51931435
0.38600002 26062.02551889  1664.19071835
0.38700002 26240.83726080  1832.66016112
0.38800002 26421.06589138  1541.66926780
0.38900002 26602.52992093  2023.12249633
0.39000002 26785.71055223  1728.08019815
0.39100002 26968.90879941  2061.50348629
0.39200002 27153.48524527  1920.83763725
0.39300002 27338.23875810  2100.39698330
0.39400002 27524.38543806  1793.90190592
0.39500002 27710.02172505  1975.17044214
0.39600002 27896.07205188  2325.69563715
0.39700002 28081.89735285  2347.08509195
0.39800002 28268.99938796  1861.08966288
0.39900002 28455.02363110  1707.30149876
0.40000002 28640.94751760  2928.68022717
0.40100002 28826.49446112  1738.23769836
0.40200002 29012.86257928  2104.59315122
0.40300002 29197.67542988  1769.37921488
0.40400002 29381.94475221  2498.93451958
0.40500002 29565.82013593  2340.72609107
0.40600002 29749.10291071  2361.03766438
0.40700002 29931.43214236  2381.34485408
0.40800002 30113.07297929  2032.18082629
0.40900002 30292.98285804  1863.01853404
0.41000002 30472.60959606  2066.50011767
0.41100002 30650.80875272  2651.90809894
0.41200002 30827.11159802  1909.73965399
0.41300002 31002.64869955  2310.31749056
0.41400002 31176.63082086  2328.89443267
0.41500002 31349.62047172  2347.45969215
0.41600002 31519.85136152  2563.03683491
0.41700002 31689.24912695  2384.29921729
0.41800002 31857.80401936  2202.48938524
0.41900002 32022.68016354  2017.42894590
0.42000002 32186.45790539  2235.83240434
0.42100002 32348.98105861  3481.07401667
0.42200002 32509.36884942  2681.53541661
0.42300002 32667.26676632  2700.92974422
0.42400002 32823.07510324  2510.96536438
0.42500002 32977.25183270  2317.97114116
0.42600002 33127.95534150  2970.58389624
0.42700002 33277.65687151  2350.06823963
0.42800002 33424.61384454  2581.04880338
0.42900002 33569.77011020  2598.30032965
0.43000002 33712.50238419  2397.46472066
0.43100002 33851.46848447  2193.57526174
0.43200002 33988.88520726  2207.57819882
0.43300002 34123.44553347  3110.01097330
0.43400002 34255.74686756  2682.22510684
0.43500002 34385.07422717  2923.41914933
0.43600002 34512.73691848  2488.54101344
0.43700002 34636.70848845  2275.63185553
0.43800002 34757.23508945  3433.14605865
0.43900002 34876.27147226  2301.83402625
0.44000002 34991.63889840  2777.63642739
0.44100002 35104.90510103  2327.45531850
0.44200002 35215.09545153  3042.05616474
0.44300002 35322.64009185  2822.98552992
0.44400002 35426.64951714  3074.14765754
0.44500002 35527.06653739  3327.46520958
0.44600002 35625.32165042  2627.54572285
0.44700002 35720.83689599  2400.44035317
0.44800002 35812.25481169  2894.34657105
0.44900002 35902.02535386  2423.38682623
0.45000002 35988.39756292  3651.92281577
0.45100002 36070.50148675  3179.25415171
0.45200002 36150.42685046  2947.70594509
0.45300002 36226.74666770  3453.85819099
0.45400002 36300.48228587  2725.25883677
0.45500002 36370.97045580  3234.10684620
0.45600002 36437.97181567  2997.38770361
0.45700002 36501.91310320  3009.21785885
0.45800002 36562.00948426  2769.02391953
0.45900002 36619.29099596  2779.40431832
0.46000002 36674.14028743  3550.42368950
0.46100002 36724.52163827  2545.00947015
0.46200002 36772.52523115  3320.00759785
0.46300002 36816.83920586  2562.45213018
0.46400002 36857.63187957  3084.98393453
0.46500002 36895.94028069  3094.83161743
0.46600002 36930.28466007  2845.66321935
0.46700002 36961.47552034  3113.63484541
0.46800002 36989.99752613  3382.92038409
0.46900002 37014.57500756  3392.38596023
0.47000002 37035.64022253  4186.50896918
0.47100002 37053.92400847  2885.75973856
0.47200002 37068.71414727  2893.02793274
0.47300002 37080.88840249  3427.38667749
0.47400002 37088.46250987  2642.55307908
0.47500002 37093.95347011  3178.21008396
0.47600002 37096.39186550  2919.67166016
0.47700002 37094.51455232  2925.64450141
