# SAXS profile: number of points = 501, q_min = 0, q_max = 0.5, delta_q = 0.001
#    q    intensity    error
0.00000000 1682732.95097189 429.09690250
0.00100000 1682663.99346276 706.71889404
0.00200000 1682457.06277994 832.81627245
0.00300000 1682112.33192542 1110.19417862
0.00400000 1681629.65655166 1765.71120647
0.00500000 1681009.53166149 2269.36295757
0.00600000 1680251.62101883 1940.69070129
0.00700000 1679356.66413339 2015.22808071
0.00800000 1678324.04941734 3172.03258732
0.00900000 1677155.17720285 3270.45273535
0.01000000 1675849.13341881 3041.66630849
0.01100000 1674407.23678746 3315.32647319
0.01200000 1672828.90696770 3262.01651161
0.01300000 1671115.54315965 5264.01419312
0.01400000 1669266.37194675 6009.35920541
0.01500000 1667283.24285834 4801.77595325
0.01600000 1665164.94161350 8067.72450277
0.01700000 1662913.58193604 4489.86687264
0.01800000 1660528.75330496 5205.75787586
0.01900000 1658011.16512290 5968.84046377
0.02000000 1655361.51240582 6778.70569994
0.02100000 1652581.32925220 7089.57422392
0.02200000 1649668.86535718 6260.49362846
0.02300000 1646627.06633877 10077.35810470
0.02400000 1643455.68064293 6779.25499177
0.02500000 1640156.16921521 7036.27028728
0.02600000 1636728.59461471 7291.62622251
0.02700000 1633174.16406779 8917.13134422
0.02800000 1629492.58142852 9214.78097056
0.02900000 1625686.44097477 10241.82504839
0.03000000 1621756.15773426 9049.39977612
0.03100000 1617701.88813644 8541.46636238
0.03200000 1613524.69531708 7986.94760968
0.03300000 1609227.35876493 12310.58986208
0.03400000 1604807.82255513 11795.33804002
0.03500000 1600269.38445291 13826.32812015
0.03600000 1595611.94864309 14169.03475875
0.03700000 1590837.23031955 9974.54989540
0.03800000 1585946.56342904 10205.56660798
0.03900000 1580941.24631702 9485.64791718
0.04000000 1575819.99202938 16475.19878011
0.04100000 1570587.11752408 10884.16922910
0.04200000 1565242.69913119 14134.14222888
0.04300000 1559786.71717993 15441.88921686
0.04400000 1554223.04817773 12589.20727491
0.04500000 1548551.05536588 12822.00333420
0.04600000 1542771.41595258 11964.19288689
0.04700000 1536887.16911019 17704.94101157
0.04800000 1530898.48184363 13502.52523811
0.04900000 1524808.21974647 12579.66839846
0.05000000 1518615.63572871 15102.63320059
0.05100000 1512324.17964910 16514.58081108
0.05200000 1505932.26167314 11972.16203822
0.05300000 1499445.11079285 13360.05655998
0.05400000 1492861.14443379 13547.71551752
0.05500000 1486184.27198384 13732.34331373
0.05600000 1479413.13470964 15178.77947043
0.05700000 1472552.50810174 16654.56964404
0.05800000 1465601.13860669 14267.62775053
0.05900000 1458560.99894239 17065.16448467
0.06000000 1451434.81623785 15936.75502684
0.06100000 1444224.32493092 16117.54421942
0.06200000 1436929.64036435 17652.68145702
0.06300000 1429554.14791431 16468.46455396
0.06400000 1422095.93111347 15251.97957448
0.06500000 1414561.09195909 21006.23319822
0.06600000 1406947.76612693 15553.80828227
0.06700000 1399258.89849748 22835.90629218
0.06800000 1391497.16124678 20162.79481027
0.06900000 1383663.56252530 15981.31489540
0.07000000 1375757.46883088 20512.54482084
0.07100000 1367783.94521654 16249.27403025
0.07200000 1359741.64713140 20844.84042704
0.07300000 1351635.78904355 22504.73694205
0.07400000 1343465.06972117 16625.38101693
0.07500000 1335232.29989797 15221.64893231
0.07600000 1326937.43422658 16858.74089220
0.07700000 1318586.15673679 20055.69638435
0.07800000 1310176.38424352 15525.59088138
0.07900000 1301710.60840769 28116.95046040
0.08000000 1293192.75538689 17283.52198653
0.08100000 1284622.26849475 17380.94010822
0.08200000 1276000.69230458 19063.45123759
0.08300000 1267331.12857901 17565.21026648
0.08400000 1258613.87558651 17652.06043366
0.08500000 1249852.93374500 16123.10360221
0.08600000 1241047.86042197 19434.81040670
0.08700000 1232201.36841389 17891.56470952
0.08800000 1223313.00587440 17964.35233494
0.08900000 1214388.63976801 21312.52162897
0.09000000 1205426.73308850 16454.07567960
0.09100000 1196430.09261685 19812.88326457
0.09200000 1187399.75700333 18220.65012734
0.09300000 1178339.04078470 18276.03938140
0.09400000 1169246.44386707 19994.11512980
0.09500000 1160126.05204057 25058.72390190
0.09600000 1150979.07193516 16746.74628388
0.09700000 1141808.68630711 21819.96502115
0.09800000 1132615.31129917 18501.27197996
0.09900000 1123400.97607137 23591.42160683
0.10000000 1114165.41113785 25319.41015881
0.10100000 1104911.56242185 18595.66247015
0.10200000 1095641.62345371 16927.66387857
0.10300000 1086356.40417971 16947.16070241
0.10400000 1077058.56988897 20356.40792857
0.10500000 1067750.67889287 20372.68391180
0.10600001 1058429.50435269 16987.79434420
0.10700001 1049102.31683627 28892.27916527
0.10800001 1039766.69612636 18700.20490990
0.10900001 1030426.53608941 23802.85410396
0.11000001 1021082.35350229 17001.02198604
0.11100001 1011736.14849748 18696.88490436
0.11200001 1002389.88517248 18689.56028889
0.11300001 993042.96531340 16981.03550634
0.11400001 983699.76619635 18665.70394244
0.11500001 974360.38909271 20344.64588224
0.11600001 965025.98441602 20323.44818886
0.11700001 955699.64237060 18607.47291327
0.11800001 946379.26850105 21960.73195988
0.11900001 937069.62220318 20240.70479296
0.12000001 927770.56658735 28626.36218049
0.12100001 918485.70216406 23531.60479797
0.12200001 909213.10845661 23484.97569784
0.12300001 899956.68068471 18413.11455433
0.12400001 890716.03788427 26721.48239558
0.12500001 881493.41927284 18326.24905022
0.12600001 872291.65642840 18278.87252182
0.12700001 863110.06793052 19886.05690228
0.12800001 853949.18451607 18176.30924906
0.12900001 844812.19332831 21415.99011025
0.13000001 835699.72352669 24632.25051199
0.13100001 826611.82072781 18003.60630410
0.13200001 817551.78697783 17941.17481098
0.13300001 808520.74877824 21126.64816155
0.13400001 799517.52734636 21047.29989968
0.13500001 790545.61302288 17739.84439264
0.13600001 781604.32237417 19274.36349855
0.13700001 772696.77433372 15994.82398292
0.13800001 763821.27463403 15925.67432711
0.13900001 754983.09794534 17440.11038498
0.14000001 746179.49906218 20516.20629427
0.14100001 737413.40335780 26701.74059492
0.14200001 728683.90797175 20319.35173216
0.14300001 719996.61628083 18662.31317426
0.14400001 711344.76658181 15471.74940295
0.14500001 702737.72446442 18467.94827010
0.14600001 694170.26835894 18367.74616726
0.14700001 685648.43460999 28920.65233622
0.14800001 677168.07471906 15134.70718401
0.14900001 668731.83854759 16551.11378495
0.15000001 660342.13809849 16452.42514700
0.15100001 651998.56149407 16352.12469385
0.15200001 643703.08703336 20682.18116231
0.15300001 635455.45757897 17614.82611532
0.15400001 627254.41887539 16042.03251978
0.15500001 619105.04112275 15935.76451056
0.15600001 611003.98928449 18705.88801477
0.15700001 602957.19919504 17148.10355444
0.15800001 594957.52557495 19865.63271658
0.15900001 587013.19999116 18314.81270419
0.16000001 579119.48285755 16782.88340540
0.16100001 571282.95709520 22211.48242034
0.16200001 563497.75829812 20666.28126116
0.16300001 555768.98456746 16406.30119894
0.16400001 548094.84574357 14921.88287982
0.16500001 540477.49491248 21532.62441390
0.16600001 532915.62945784 18689.35200747
0.16700001 525410.98309574 15888.42887898
0.16800001 517962.47102781 14443.38418658
0.16900001 510574.27631802 18227.50252522
0.17000001 503243.54026873 16780.65664264
0.17100001 495971.50006006 17914.49142811
0.17200001 488758.90880657 15219.95313897
0.17300001 481606.04505716 15083.90204352
0.17400001 474514.09657778 18683.99343512
0.17500001 467481.87153057 13575.67419039
0.17600001 460508.54361174 18339.75361551
0.17700001 453598.74606241 13322.19580107
0.17800001 446749.43668225 13194.74523563
0.17900001 439961.45974349 11878.95997416
0.18000001 433236.26488277 15291.07469131
0.18100001 426574.22344415 12810.02453513
0.18200001 419971.57571074 17292.33044674
0.18300001 413434.32413147 17116.18182760
0.18400001 406958.25769345 12422.40140294
0.18500001 400546.31572241 16762.86410490
0.18600001 394197.08591591 19903.01180818
0.18700001 387910.77046120 15314.71794135
0.18800001 381687.51075529 15149.17801762
0.18900001 375529.82337033 11772.86051890
0.19000001 369431.72774416 10584.21949996
0.19100001 363402.04188903 11512.57723101
0.19200001 357432.94902422 11382.45279951
0.19300001 351529.69825324 11252.46617279
0.19400001 345689.30608106 12133.69521681
0.19500001 339913.24906622 14990.17499218
0.19600001 334199.95785735 10863.17014351
0.19700001 328551.19422218 14636.95639430
0.19800001 322966.44656369 9640.54888553
0.19900001 317446.28491056 11428.06679687
0.20000001 311987.59144860 11287.71159208
0.20100001 306594.62522716 13005.74461682
0.20200001 301263.80571679 14677.57330824
0.20300001 295997.36416369 9963.27174866
0.20400001 290794.14208005 10730.30434993
0.20500001 285653.39000171 14122.70426922
0.20600001 280576.35142494 11325.46496060
0.20700001 275562.04507713 11176.79707665
0.20800001 270610.18056740 10180.35547417
0.20900001 265723.36687672 12555.42967844
0.21000001 260896.41406697 10734.58346423
0.21100001 256131.99332303 9773.99732726
0.21200001 251429.54805354 10443.12677210
0.21300001 246788.70063007 8714.10943121
0.21400001 242210.55891933 9373.54907333
0.21500001 237694.08009594 8471.41741513
0.21600001 233237.00102351 9869.42416492
0.21700001 228841.68219043 8231.43569757
0.21800001 224507.00690298 8112.56107801
0.21900001 220231.32568780 7994.39750045
0.22000001 216015.54488520 7160.91565153
0.22100001 211861.82554621 10582.49868641
0.22200001 207766.12358739 9729.68802766
0.22300001 203729.50470467 7529.84284994
0.22400001 199749.88348877 8089.87066384
0.22500001 195831.74031454 7302.56594165
0.22600001 191969.78318057 6536.57142640
0.22700001 188166.63342462 7722.35900093
0.22800001 184420.00044722 6968.31004643
0.22900001 180729.98583856 8105.74024819
0.23000001 177096.96579210 9204.61523235
0.23100001 173521.65374403 6642.40921946
0.23200001 170000.06340630 8318.10349586
0.23300001 166535.36010466 6429.93055774
0.23400001 163125.48156110 8050.24289578
0.23500001 159769.06876125 6786.99036198
0.23600001 156468.07031226 6674.92819523
0.23700001 153220.43404586 5469.96975416
0.23800001 150026.49392089 5378.45006146
0.23900001 146885.48315001 5816.66540787
0.24000001 143796.93803723 9356.86720067
0.24100001 140761.57805811 6642.53918276
0.24200001 137777.29585487 7532.97400719
0.24300001 134844.45749585 5922.36885336
0.24400001 131961.91472097 5334.56065494
0.24500001 129130.23787027 4764.90600281
0.24600001 126348.47830471 6553.69587969
0.24700001 123616.96514769 6897.82698155
0.24800001 120933.52509541 5420.24085119
0.24900001 118298.57907681 6210.67569534
0.25000001 115712.33401033 4792.22653975
0.25100001 113173.11016126 4277.94376648
0.25200001 110682.24629833 4200.39144574
0.25300001 108238.17102851 4948.64941355
0.25400001 105839.57465678 4453.20031437
0.25500001 103486.93557927 4371.28836568
0.25600001 101180.05320342 5460.68772975
0.25700001 98917.80495296  5742.17884920
0.25800001 96699.83586132  3756.78880096
0.25900001 94526.18441442  4423.82563991
0.26000001 92396.26921397  3979.04552197
0.26100001 90307.42951635  5323.62322188
0.26200001 88263.59901948  3830.19906068
0.26300001 86260.34915844  4440.68298480
0.26400001 84298.37428682  3685.94659010
0.26500001 82378.42820727  3615.58938510
0.26600001 80498.16736662  4191.13728227
0.26700001 78659.04587930  3794.51255277
0.26800001 76859.35445770  4031.65762886
0.26900001 75098.09376672  3345.62023563
0.27000001 73376.10866192  4772.38233321
0.27100001 71692.49704923  3217.55941983
0.27200001 70046.75979092  3442.09793902
0.27300001 68437.64701344  3656.62365297
0.27400001 66864.27120442  3585.59671302
0.27500001 65329.53740499  3245.57157188
0.27600001 63828.55191129  4243.32233188
0.27700001 62364.55371544  2860.66221431
0.27800001 60934.19949691  2805.10600660
0.27900001 59538.94591357  4251.08093942
0.28000001 58177.37431862  3678.26466538
0.28100001 56849.01426554  2645.18475897
0.28200001 55554.26373436  2829.93432857
0.28300001 54291.88793146  2544.11798888
0.28400001 53061.77135827  3629.42533269
0.28500001 51863.51572787  2892.42840905
0.28600001 50695.56472135  2182.44416455
0.28700001 49558.84568288  2355.03645832
0.28800001 48451.97252640  2520.47173013
0.28900001 47376.29309900  2473.04261683
0.29000001 46328.53163837  2224.46455191
0.29100001 45310.91075631  2183.07978357
0.29200001 44321.23956992  2142.71042843
0.29300001 43359.64000050  2677.02430035
0.29400001 42425.36983129  2252.78724468
0.29500001 41519.39181805  2396.49940918
0.29600001 40639.29336712  2715.72090781
0.29700001 39785.20365199  2311.91829366
0.29800001 38957.51940439  1921.96931080
0.29900001 38155.38128747  2060.39068706
0.30000001 37378.01437683  1687.61742900
0.30100001 36626.38802519  1991.01054730
0.30200001 35897.62969773  1794.70208170
0.30300001 35193.18813102  1765.29040022
0.30400001 34513.04705291  2210.56076839
0.30500001 33854.45834539  1864.70365394
0.30600001 33219.01731351  1529.73581971
0.30700001 32606.20330144  1657.04733023
0.30800001 32015.04708524  2077.45650372
0.30900001 31445.18558398  1462.20119888
0.31000001 30897.09186445  1585.48434409
0.31100001 30368.17315160  1563.35362786
0.31200001 29860.64987271  1542.15333569
0.31300001 29372.42696118  1798.47378798
0.31400001 28905.24540763  1775.50478323
0.31500001 28455.97656965  1888.33869457
0.31600002 28025.85466614  1465.89239772
0.31700002 27613.65039244  1448.88830469
0.31800002 27219.98454679  1562.97158668
0.31900002 26844.24873250  1417.37640019
0.32000002 26485.63090649  1530.33982624
0.32100002 26144.39560320  2020.43898788
0.32200002 25819.94494627  1250.97639188
0.32300002 25511.04423611  1611.78785116
0.32400002 25218.64913453  1352.35012387
0.32500002 24941.27457264  1219.62838435
0.32600002 24679.98783100  1452.66415252
0.32700002 24433.23962805  1322.32699129
0.32800002 24202.16541264  1194.37691967
0.32900002 23984.04360679  1305.93123623
0.33000002 23781.76574595  1180.76472520
0.33100002 23590.51440130  1409.76920738
0.33200002 23415.39511766  1403.51884982
0.33300002 23252.10866323  1514.40990895
0.33400002 23102.28205437  1625.24561949
0.33500002 22964.30273304  1157.40091256
0.33600002 22838.80577875  1847.20269886
0.33700002 22724.25587612  1497.75577572
0.33800002 22622.86767009  1610.52202570
0.33900002 22531.63951872  1264.02503686
0.34000002 22451.98618022  1722.62872126
0.34100002 22383.02674836  1263.07425923
0.34200002 22325.55825249  1263.51502914
0.34300002 22276.70792714  1494.32163852
0.34400002 22238.92032366  1265.95059938
0.34500002 22210.25955496  1498.52628314
0.34600002 22192.32008701  1963.68753590
0.34700002 22181.38079481  1273.65494556
0.34800002 22180.96534666  1625.64302725
0.34900002 22188.82555834  1281.40473668
0.35000002 22205.27675371  1402.92945175
0.35100002 22229.80158765  1643.22701119
0.35200002 22261.63993415  1414.50466841
0.35300002 22301.56289400  1302.63435034
0.35400002 22349.35919858  1547.13446380
0.35500002 22404.01678702  1794.56182964
0.35600002 22465.34207889  1804.52868796
0.35700002 22533.57333534  1694.07412359
0.35800002 22608.97770588  1339.24285784
0.35900002 22690.15839793  1225.26861152
0.36000002 22778.20863546  1726.81607845
0.36100002 22871.25013966  1366.09983555
0.36200002 22971.23839859  1626.01918706
0.36300002 23074.96355738  1259.89306991
0.36400002 23184.88266002  1396.30962434
0.36500002 23299.24893767  1534.95459272
0.36600002 23419.20838319  1547.07297908
0.36700002 23543.40548514  1299.59604434
0.36800002 23673.41610364  1572.38837209
0.36900002 23806.67885635  1585.52488694
0.37000002 23943.33148917  1465.69110654
0.37100002 24084.35476763  1343.90705969
0.37200002 24229.76389548  1626.78642500
0.37300002 24377.88915106  1641.11957539
0.37400002 24530.62870462  1379.84793000
0.37500002 24685.34087735  1949.15460801
0.37600002 24844.36298078  1826.43343105
0.37700002 25004.85959145  1843.10828780
0.37800002 25169.22583460  1573.95761213
0.37900002 25335.90680977  1588.56143223
0.38000002 25505.13903670  1749.14251800
0.38100002 25676.02993150  1912.60756020
0.38200002 25849.44674151  1633.55586422
0.38300002 26024.56622054  1948.71961091
0.38400002 26202.18831749  1967.12938113
0.38500002 26380.41209432  1832.91111915
0.38600002 26561.34079028  1696.07449651
0.38700002 26742.46721769  2023.33516555
0.38800002 26925.08127212  2042.40213666
0.38900002 27109.02380007  2061.64135767
0.39000002 27294.51508053  1760.90572385
0.39100002 27479.96074993  1938.98612238
0.39200002 27666.82104144  1794.05509543
0.39300002 27853.75698279  1810.77282724
0.39400002 28042.15149961  1827.64731058
0.39500002 28229.88217858  1676.85508085
0.39600002 28418.05339221  2030.75419162
0.39700002 28605.98661433  1878.55522997
0.39800002 28795.18565638  1723.39194319
0.39900002 28983.14719854  2608.48337146
0.40000002 29170.89668245  2456.48132601
0.40100002 29358.50589227  2124.38158702
0.40200002 29546.60826758  2143.31106528
0.40300002 29733.22857356  2702.75060539
0.40400002 29919.23714276  1999.35311679
0.40500002 30104.84148786  2016.72342682
0.40600002 30289.69141089  2403.94147273
0.40700002 30473.62968711  2237.98347026
0.40800002 30656.63563029  2633.09855905
0.40900002 30838.06593343  2086.19525924
0.41000002 31019.06797552  2677.25588382
0.41100002 31198.60689414  2120.88139716
0.41200002 31376.07735356  2526.87250940
0.41300002 31552.74822596  2547.25348498
0.41400002 31727.89905491  2567.58035268
0.41500002 31901.85801097  1990.67603421
0.41600002 32073.02432698  2006.16776671
0.41700002 32243.36778550  2223.82518154
0.41800002 32412.69213491  2240.85157693
0.41900002 32578.29107242  2257.67567830
0.42000002 32742.88803256  2067.71347723
0.42100002 32905.90112019  2082.94363961
0.42200002 33066.75119237  2307.89400883
0.42300002 33225.10369337  2113.11669503
0.42400002 33381.28308982  2553.66827738
0.42500002 33535.74642156  2571.52115746
0.42600002 33686.51911555  2157.62165159
0.42700002 33836.40594840  2172.29736482
0.42800002 33983.39550691  2405.51476495
0.42900002 34128.46669273  2641.54344719
0.43000002 34271.03636770  2658.74712740
0.43100002 34409.86946531  2898.68754112
0.43200002 34546.89823641  2692.58537614
0.43300002 34681.05332779  2935.05768222
0.43400002 34812.98641803  2498.70221856
0.43500002 34941.63224744  2513.70114300
0.43600002 35068.67681581  2758.50224905
0.43700002 35191.96256813  2543.32325532
0.43800002 35311.59654751  2790.32249142
0.43900002 35429.72009374  3273.70629180
0.44000002 35544.12609881  2586.36845815
0.44100002 35656.31815831  2600.41540652
0.44200002 35765.32308253  3564.90874719
0.44300002 35871.59184765  3344.66738238
0.44400002 35974.12277283  2401.27280888
0.44500002 36073.20435182  3137.28673116
0.44600002 36169.96278497  3152.75495556
0.44700002 36263.90013059  3168.01446555
0.44800002 36353.56633183  2938.09537018
0.44900002 36441.56284307  3689.70841272
0.45000002 36526.02417975  3706.47847930
0.45100002 36606.27861849  3474.66813114
0.45200002 36684.14714047  3988.30066613
0.45300002 36758.29888700  3003.88832741
0.45400002 36829.81725320  2764.99866133
0.45500002 36897.98867863  2776.20479975
0.45600002 36962.65545227  3547.30621187
0.45700002 37024.08804206  3052.26596285
0.45800002 37081.61436708  2808.37619719
0.45900002 37136.34344657  2818.64860118
0.46000002 37188.39310436  3343.05075656
0.46100002 37235.83378843  2580.44340384
0.46200002 37280.99298314  3365.91461101
0.46300002 37322.45367294  3636.70005825
0.46400002 37360.10096413  3127.04059890
0.46500002 37395.37067536  3398.11749433
0.46600002 37426.41860196  2883.89282206
0.46700002 37454.28815268  3418.07849882
0.46800002 37479.48421229  3427.68639109
0.46900002 37500.61745420  2908.17302141
0.47000002 37518.05040921  3180.78046445
0.47100002 37532.80667129  2657.32283828
0.47200002 37543.88071766  3729.23384844
0.47300002 37552.47127324  3470.97508430
0.47400002 37556.02813183  3211.04055747
0.47500002 37557.66303732  3754.26417515
0.47600002 37556.14713686  2687.14245501
0.47700002 37550.14326920  3230.81448002
