# SAXS profile: number of points = 501, q_min = 0, q_max = 0.5, delta_q = 0.001
#    q    intensity    error
0.00000000 1646666.22097351 321.09991309
0.00100000 1646598.43601402 592.77545104
0.00200000 1646395.01711939 814.96555928
0.00300000 1646056.14762538 1185.16046851
0.00400000 1645581.67129211 1851.27945055
0.00500000 1644972.07325623 2220.71238679
0.00600000 1644227.07224816 2589.65774422
0.00700000 1643347.31837090 2366.42023680
0.00800000 1642332.23971151 2438.86347894
0.00900000 1641183.23220552 2707.95244890
0.01000000 1639899.40389592 2976.41754659
0.01100000 1638482.04312624 3244.19458664
0.01200000 1636930.56068603 3511.21620662
0.01300000 1635246.37570115 4464.22280256
0.01400000 1633428.68876687 4777.77912645
0.01500000 1631479.29137208 4307.10552101
0.01600000 1629397.09821043 6232.44417927
0.01700000 1627184.08259976 6150.75610814
0.01800000 1624839.97503653 5556.95296467
0.01900000 1622365.32150467 5353.80580254
0.02000000 1619760.87000635 6632.92106272
0.02100000 1617028.11095976 7470.67021134
0.02200000 1614165.38697616 7239.53208950
0.02300000 1611175.54674800 7540.30190200
0.02400000 1608058.47973043 6633.24153135
0.02500000 1604815.32504131 6258.78005350
0.02600000 1601446.55087884 7134.44471048
0.02700000 1597952.89198311 7382.54269909
0.02800000 1594334.38819440 9709.49686938
0.02900000 1590593.55826175 7873.43847490
0.03000000 1586730.76836699 11067.44761808
0.03100000 1582746.14848098 11395.77279342
0.03200000 1578640.66546898 9377.12598478
0.03300000 1574417.21473325 10438.38661490
0.03400000 1570073.67496578 8242.88717390
0.03500000 1565613.49379556 10990.60723397
0.03600000 1561036.36674424 9530.12745940
0.03700000 1556344.01685104 12419.62582885
0.03800000 1551537.84456150 9076.49681074
0.03900000 1546618.98466391 9279.71433773
0.04000000 1541586.38611245 9480.75671392
0.04100000 1536444.12157380 12583.47793914
0.04200000 1531192.30417801 10863.80990215
0.04300000 1525830.94750923 10070.48472101
0.04400000 1520364.00359903 13341.19475117
0.04500000 1514790.67918738 10452.05617205
0.04600000 1509111.58360036 13831.00830666
0.04700000 1503329.83147518 18400.75799304
0.04800000 1497445.59391193 14308.09331556
0.04900000 1491461.61502478 11185.96263336
0.05000000 1485377.18931972 13635.76323292
0.05100000 1479195.92049262 17306.59307597
0.05200000 1472915.76616938 14051.61706408
0.05300000 1466542.58321387 14254.79457337
0.05400000 1460074.28256200 16863.85875002
0.05500000 1453514.79776760 12209.52487081
0.05600000 1446862.79698399 16081.88073892
0.05700000 1440123.19690262 13781.97963768
0.05800000 1433294.47290583 12684.65667749
0.05900000 1426378.93635196 19256.11654012
0.06000000 1419378.93703555 15584.78145675
0.06100000 1412296.13894482 17074.66111776
0.06200000 1405130.97652757 22573.43019308
0.06300000 1397886.52723088 16103.65354663
0.06400000 1390560.97023588 13557.97009386
0.06500000 1383160.57666713 13693.29034955
0.06600000 1375683.09522439 15208.17732927
0.06700000 1368131.78547923 15350.43935146
0.06800000 1360508.92646710 16897.52165768
0.06900000 1352815.64392528 15625.02141888
0.07000000 1345051.72238105 18622.24196842
0.07100000 1337221.62253274 21662.99129968
0.07200000 1329324.32316216 17467.32242464
0.07300000 1321364.56194751 20534.00625480
0.07400000 1313341.78996907 16252.60541253
0.07500000 1305258.06283462 17855.93113653
0.07600000 1297113.81826619 19476.16489432
0.07700000 1288914.29094760 19604.38728453
0.07800000 1280657.76704229 15175.79525114
0.07900000 1272346.20617729 15268.15519026
0.08000000 1263983.84942184 18428.88538909
0.08100000 1255570.06988348 18532.21510098
0.08200000 1247106.92452801 15526.48193896
0.08300000 1238596.25328146 31212.62704756
0.08400000 1230039.48382889 20387.90540144
0.08500000 1221440.10738526 26786.18281244
0.08600000 1212797.44947887 20575.10969644
0.08700000 1204115.09709991 20662.61603650
0.08800000 1195391.38051335 20746.01838312
0.08900000 1186632.78150659 24029.31495416
0.09000000 1177837.83325692 19292.98461505
0.09100000 1169009.15694899 19358.79254857
0.09200000 1160147.51774268 21039.27622283
0.09300000 1151256.56094677 27595.62106267
0.09400000 1142334.44944925 19533.92000363
0.09500000 1133385.78186031 22849.05843627
0.09600000 1124411.34189576 24540.27869046
0.09700000 1115414.06967119 19675.90511402
0.09800000 1106394.61431378 24644.94119259
0.09900000 1097355.11918062 19752.39307406
0.10000000 1088295.30181909 21433.97697731
0.10100000 1079217.61247623 19814.43629697
0.10200000 1070124.61558910 19840.11130623
0.10300000 1061017.00399894 23172.61245739
0.10400000 1051897.60640472 21537.60450438
0.10500000 1042768.80324631 24870.03712754
0.10600001 1033627.03244258 19907.65758157
0.10700001 1024480.24708730 23235.21309733
0.10800001 1015325.24422862 19920.68222927
0.10900001 1006166.40716117 23242.44509934
0.11000001 997003.83831886 18260.12615831
0.11100001 987839.68247426 19914.84893614
0.11200001 978676.45073735 19906.27994513
0.11300001 969512.69431681 16578.66785335
0.11400001 960352.93187361 26505.74216772
0.11500001 951197.43439515 18205.91975160
0.11600001 942047.22347599 18186.22250562
0.11700001 932905.37732239 18163.66855188
0.11800001 923769.86644666 19787.15147123
0.11900001 914645.25717280 19756.33848549
0.12000001 905531.69140579 16435.40097320
0.12100001 896432.18273630 18045.18068856
0.12200001 887345.36746432 18008.67508110
0.12300001 878274.79414276 19603.09432885
0.12400001 869220.31471271 17927.66983566
0.12500001 860184.02462570 19508.97459778
0.12600001 851168.54766935 17836.23775692
0.12700001 842173.35374994 16169.72915402
0.12800001 833199.00664788 20959.12200002
0.12900001 824248.53499161 20894.70134685
0.13000001 815322.45142017 19225.30431067
0.13100001 806420.97560496 20757.27689052
0.13200001 797547.56480077 20684.39706818
0.13300001 788702.82900175 20608.80589338
0.13400001 779885.84223221 18951.22685971
0.13500001 771100.24749047 15730.44579047
0.13600001 762345.00350550 21932.66678499
0.13700001 753623.06820311 18719.99789687
0.13800001 744933.45617113 18638.23595230
0.13900001 736280.68018725 17008.08451440
0.14000001 727662.28501218 16929.06385919
0.14100001 719081.08108393 18379.71329935
0.14200001 710536.50449425 18289.21048830
0.14300001 702033.18711564 16680.30931264
0.14400001 693565.52343312 19610.56610010
0.14500001 685142.20767005 16505.07656135
0.14600001 676758.05333147 22383.77366988
0.14700001 668419.48488142 16322.80459086
0.14800001 660121.53781817 14753.71706630
0.14900001 651867.76521264 17600.43049114
0.15000001 643659.47691112 14578.88783991
0.15100001 635497.47359218 17387.21169790
0.15200001 627382.53596913 15838.27286790
0.15300001 619315.24104885 17167.41929199
0.15400001 611294.14281402 17055.10738936
0.15500001 603323.97820237 22588.45080991
0.15600001 595401.16977236 15423.86803088
0.15700001 587532.63756218 18101.88141764
0.15800001 579710.46714734 16591.31435285
0.15900001 571943.15576710 15099.30002495
0.16000001 564225.60799404 23164.28342961
0.16100001 556564.32068425 17581.86772035
0.16200001 548954.19454727 13421.93069028
0.16300001 541399.44220843 17313.95497918
0.16400001 533898.94169811 15856.79931703
0.16500001 526454.01403274 22284.79946610
0.16600001 519064.72519705 16903.34357410
0.16700001 511730.91171844 19343.42937625
0.16800001 504452.89540276 17903.03410316
0.16900001 497234.28141530 13947.42225227
0.17000001 490072.26889762 13827.38971987
0.17100001 482968.27402330 14952.69846985
0.17200001 475923.14414638 12350.20617381
0.17300001 468936.56965662 15911.01855984
0.17400001 462009.84894719 14553.31092913
0.17500001 455142.10899343 12015.75224490
0.17600001 448332.44426761 17854.84043623
0.17700001 441585.60495525 20043.57155559
0.17800001 434897.88497668 11677.00876315
0.17900001 428270.77135983 15032.30478476
0.18000001 421705.55305942 13739.16756765
0.18100001 415202.46092402 14735.53603425
0.18200001 408757.86615077 11220.40395587
0.18300001 402377.40346633 11105.61686029
0.18400001 396057.32990582 10990.59142409
0.18500001 389800.21724522 11962.96923241
0.18600001 383605.03859341 12912.14620907
0.18700001 377471.43248375 12773.63387874
0.18800001 371400.31424095 11582.11934681
0.18900001 365393.33086749 10413.71042174
0.19000001 359444.67715272 11327.89953570
0.19100001 353563.93675422 15273.96278948
0.19200001 347741.92530149 12080.55505580
0.19300001 341985.07395137 10946.94273445
0.19400001 336290.05142241 9836.48446892
0.19500001 330658.16644321 12637.75571866
0.19600001 325087.87521658 12488.25131659
0.19700001 319581.30532717 10440.72173844
0.19800001 314136.99837283 13127.78578240
0.19900001 308756.23190292 9262.68739484
0.20000001 303436.14857616 9148.60031194
0.20100001 298180.29559220 13552.29507518
0.20200001 292985.60751513 12489.97703869
0.20300001 287853.90097648 13212.49467930
0.20400001 282784.39878070 9565.18274086
0.20500001 277775.97984332 9441.60600115
0.20600001 272830.40033028 8471.38433068
0.20700001 267946.02752200 12539.87468078
0.20800001 263123.25925729 9073.80602441
0.20900001 258363.96325696 8952.31175004
0.21000001 253663.30424278 9634.13275057
0.21100001 249023.97970421 10294.65180764
0.21200001 244445.42961877 7810.03184553
0.21300001 239927.23778715 11552.49704560
0.21400001 235470.33180628 8353.31041574
0.21500001 231073.93858945 11978.87354281
0.21600001 226736.06015287 9594.33683898
0.21700001 222458.46756108 7274.39223318
0.21800001 218240.17155519 10036.86596437
0.21900001 214079.59096908 9184.01488681
0.22000001 209977.68011449 12529.36876485
0.22100001 205936.38432313 8914.98649888
0.22200001 201952.16621073 7430.83030709
0.22300001 198025.46979616 8649.75292970
0.22400001 194154.69895666 9173.80995950
0.22500001 190344.33768213 7743.20802306
0.22600001 186588.39617974 8894.66926650
0.22700001 182890.27259428 6880.33238036
0.22800001 179247.36331090 8620.00610926
0.22900001 175659.80083746 8484.36878168
0.23000001 172127.80508737 5964.22872834
0.23100001 168652.35730928 7042.92277431
0.23200001 165229.49442510 8084.67954457
0.23300001 161862.01288012 7953.89968910
0.23400001 158548.35161323 8383.24448804
0.23500001 155286.70396545 6596.57949645
0.23600001 152079.14725874 5947.05533483
0.23700001 148923.91376888 8506.53435682
0.23800001 145820.68455451 7318.74050396
0.23900001 142769.53639216 6681.61461919
0.24000001 139769.44966099 6568.46559751
0.24100001 136821.42927264 5959.94174103
0.24200001 133923.07787937 4881.49641961
0.24300001 131074.94217339 8155.48328781
0.24400001 128275.89417918 5656.96720090
0.24500001 125526.31660104 5558.30556203
0.24600001 122825.76369398 5915.90318817
0.24700001 120173.82551974 6258.65312914
0.24800001 117568.81137280 6147.67343751
0.24900001 115011.12339339 6038.08426380
0.25000001 112501.17039600 5082.80311895
0.25100001 110036.65593018 4159.38579094
0.25200001 107619.36223048 5309.40148683
0.25300001 105247.74753439 5212.92118200
0.25400001 102920.26973424 5117.71065466
0.25500001 100637.66544679 5796.72980399
0.25600001 98399.59889272  4172.63518846
0.25700001 96205.00632972  4095.44731323
0.25800001 94053.29973004  5480.95630109
0.25900001 91944.95494688  3944.43875385
0.26000001 89879.32460521  4222.53086974
0.26100001 87853.34472492  5178.95491658
0.26200001 85871.17717268  4403.90352968
0.26300001 83928.38317356  4985.34619640
0.26400001 82026.19072662  3260.54123567
0.26500001 80164.63312424  4158.13971691
0.26600001 78341.38100789  4078.84419518
0.26700001 76558.38343894  3693.17659186
0.26800001 74813.63078780  3320.60315965
0.26900001 73106.24992638  2960.80326213
0.27000001 71437.32251570  3775.10548699
0.27100001 69805.10867492  2848.04856871
0.27200001 68209.99808086  3351.83946431
0.27300001 66650.42405480  2739.33255829
0.27400001 65125.62028523  3492.36155307
0.27500001 63638.07984207  2634.61663015
0.27600001 62183.44167282  2583.72212378
0.27700001 60764.82512076  3547.45065844
0.27800001 59378.88084287  3230.50816515
0.27900001 58026.97680641  3899.41302594
0.28000001 56707.42150620  3824.34868738
0.28100001 55420.43240025  2578.71284163
0.28200001 54165.85497820  2529.27471792
0.28300001 52942.75674908  2255.36154426
0.28400001 51750.91017501  3539.76242351
0.28500001 50589.86970846  2170.30551322
0.28600001 49458.33443281  2767.93581754
0.28700001 48357.13760673  2715.73697654
0.28800001 47284.65273403  2254.76877235
0.28900001 46242.25092212  2212.69181136
0.29000001 45227.18762549  2171.58351663
0.29100001 44241.46531628  2131.55389983
0.29200001 43282.39517647  2092.48749385
0.29300001 42350.69747283  2241.19901635
0.29400001 41445.51076228  2017.36033185
0.29500001 40567.80669681  2161.45284312
0.29600001 39714.80626092  2300.08311348
0.29700001 38887.15909120  1738.25609366
0.29800001 38085.20248551  1708.12141234
0.29900001 37307.81080251  2014.62187871
0.30000001 36554.46664410  1815.47767182
0.30100001 35825.82539810  2758.94694452
0.30200001 35119.43686626  2713.50341793
0.30300001 34436.62554540  1727.34121913
0.30400001 33777.23930212  1854.37052548
0.30500001 33138.68374551  1977.38535271
0.30600001 32522.51917245  1647.42828667
0.30700001 31928.31145252  1622.59686484
0.30800001 31354.88582358  1453.29902673
0.30900001 30801.98799849  2148.43876461
0.31000001 30270.42319626  1694.53837075
0.31100001 29757.03798545  1810.41827675
0.31200001 29264.58212275  1511.36941529
0.31300001 28790.54298287  1491.63810257
0.31400001 28336.81495596  1740.58894108
0.31500001 27900.81520726  1586.99844413
0.31600002 27482.79864698  1568.16856505
0.31700002 27082.37360647  1679.37806685
0.31800002 26699.73313450  1277.58229098
0.31900002 26334.42384659  1516.86288539
0.32000002 25985.44890296  1376.31936631
0.32100002 25653.37345109  1362.96379599
0.32200002 25337.67639506  1473.13257536
0.32300002 25036.88599724  1338.47198879
0.32400002 24751.97909325  1206.65903793
0.32500002 24481.56618671  1316.86350754
0.32600002 24226.74754667  1425.98642812
0.32700002 23985.90266526  1416.12776041
0.32800002 23760.13963565  1641.58812516
0.32900002 23546.82647605  1282.12476233
0.33000002 23348.78037616  1275.19370063
0.33100002 23161.60334335  1384.13748134
0.33200002 22989.77255440  1148.33919347
0.33300002 22829.39227731  1830.00417161
0.33400002 22682.11064210  1253.75372511
0.33500002 22546.16410716  1249.95939729
0.33600002 22422.20488376  1586.81951477
0.33700002 22308.80692395  1583.47919045
0.33800002 22208.29619632  1355.15029808
0.33900002 22117.18415899  1804.76231284
0.34000002 22037.72467365  1239.95263748
0.34100002 21968.23896791  1352.36485491
0.34200002 21909.82772390  1127.26068978
0.34300002 21859.94780074  1240.77069593
0.34400002 21820.48920102  1467.97348052
0.34500002 21790.01869160  1243.99222602
0.34600002 21769.87419394  1699.68300819
0.34700002 21756.44781510  1249.25529271
0.34800002 21753.10270084  1138.77498032
0.34900002 21757.90107807  1599.20580498
0.35000002 21770.72527339  1833.96598389
0.35100002 21791.59585029  1265.65594693
0.35200002 21819.45848118  1386.40845756
0.35300002 21855.10530899  1392.60737625
0.35400002 21898.28528876  1515.90887091
0.35500002 21948.26881597  1172.03761029
0.35600002 22004.44494459  1885.34093215
0.35700002 22067.44655557  1777.53290424
0.35800002 22137.29508598  1549.72141590
0.35900002 22212.83606804  1319.44252494
0.36000002 22295.02413684  1569.45829845
0.36100002 22381.92877448  1458.40654802
0.36200002 22475.63024760  1713.31737493
0.36300002 22572.84897143  2095.21194077
0.36400002 22676.07587880  1365.66673449
0.36500002 22783.68764004  1375.90696176
0.36600002 22896.71442521  1512.55702658
0.36700002 23013.69212611  1651.46262520
0.36800002 23136.52392551  1536.72799193
0.36900002 23262.56294934  1420.17953533
0.37000002 23391.65356040  1431.92014053
0.37100002 23525.22537112  1443.97840168
0.37200002 23662.72589231  1323.92957639
0.37300002 23803.13443298  1869.49826693
0.37400002 23947.93246099  1481.77839122
0.37500002 24094.80908702  2174.31567501
0.37600002 24245.70836676  1508.20436040
0.37700002 24398.19088957  1521.71523787
0.37800002 24554.39817716  1535.50936275
0.37900002 24712.83916296  1690.35827882
0.38000002 24873.79455405  1563.69116872
0.38100002 25036.46617053  1578.04853749
0.38200002 25201.51455864  1592.60978798
0.38300002 25368.24971005  2045.69575353
0.38400002 25537.47821350  2212.18415504
0.38500002 25707.18109628  2232.66878398
0.38600002 25879.80452282  2103.25181321
0.38700002 26052.60628561  2880.89733955
0.38800002 26226.84556123  1683.37016210
0.38900002 26402.31870611  1698.98928923
0.39000002 26579.48257657  2338.33009045
0.39100002 26756.67320397  1730.62170482
0.39200002 26935.17140260  1905.39411529
0.39300002 27113.91827311  2243.40570420
0.39400002 27294.06605346  2264.04288640
0.39500002 27473.71854560  1958.32675071
0.39600002 27653.76870157  2140.81660546
0.39700002 27833.69414787  1661.67161935
0.39800002 28014.74393340  1844.35075424
0.39900002 28194.82880821  1691.68980864
0.40000002 28375.00139257  1706.75641463
0.40100002 28554.62209817  2238.39693233
0.40200002 28735.17851258  2952.97075976
0.40300002 28914.17609166  2453.07881584
0.40400002 29092.60651354  2297.58870827
0.40500002 29270.81190170  2852.14804684
0.40600002 29448.38026117  2876.51792020
0.40700002 29625.13241667  2719.58728471
0.40800002 29801.26207232  2011.13826624
0.40900002 29975.55369872  2212.19596778
0.41000002 30149.75207091  2230.47876389
0.41100002 30322.55550562  2248.72082285
0.41200002 30493.53893037  2266.88979149
0.41300002 30663.76756123  2475.48607251
0.41400002 30832.64670520  2495.13205285
0.41500002 31000.47144347  1934.42950973
0.41600002 31165.57807180  2924.11050114
0.41700002 31330.00695786  2160.83068227
0.41800002 31493.63983782  2573.18796488
0.41900002 31653.66693264  2193.59922237
0.42000002 31812.68599152  3817.04530956
0.42100002 31970.56691153  3642.72656651
0.42200002 32126.32407900  2242.25689534
0.42300002 32279.67589751  2874.18247811
0.42400002 32431.07548263  2480.97739198
0.42500002 32580.91998202  2706.49715116
0.42600002 32727.39462522  2515.42767009
0.42700002 32872.96524605  2954.62225632
0.42800002 33015.81534023  2549.48138138
0.42900002 33157.05156252  2780.21890526
0.43000002 33295.86294677  2798.35093397
0.43100002 33431.08642413  2816.23485382
0.43200002 33564.83493301  2398.03974543
0.43300002 33695.85937919  2412.96060449
0.43400002 33824.69393472  2427.76752221
0.43500002 33950.75153126  3108.53095751
0.43600002 34075.09321078  3127.07145214
0.43700002 34195.85076208  2696.00100184
0.43800002 34313.38867365  2485.49042636
0.43900002 34429.50303436  2499.58203875
0.44000002 34541.98500504  3198.93338291
0.44100002 34652.60971915  2297.46813326
0.44200002 34760.19990322  2309.81539303
0.44300002 34865.23071081  3018.63181800
0.44400002 34966.90263293  3034.25311977
0.44500002 35065.04070371  3049.60673453
0.44600002 35161.06857366  3772.07961535
0.44700002 35254.51788973  2842.92445736
0.44800002 35344.14649675  2618.47121731
0.44900002 35432.02191326  2869.99391099
0.45000002 35516.66111745  2642.97246231
0.45100002 35597.22999600  2896.19076973
0.45200002 35675.67595990  2666.57852600
0.45300002 35750.69680772  2678.08482479
0.45400002 35823.19900496  3178.41348235
0.45500002 35892.56976882  3191.56745510
0.45600002 35958.50425761  2464.95558368
0.45700002 36021.60719961  4206.96370423
0.45800002 36080.93254766  2732.58955600
0.45900002 36137.55011183  4737.63304420
0.46000002 36191.89811118  2502.66987300
0.46100002 36241.91198928  4269.65985382
0.46200002 36289.60888904  2520.31345679
0.46300002 36333.72111093  3034.59253101
0.46400002 36374.41151147  3298.24992012
0.46500002 36412.81696497  2799.78162913
0.46600002 36447.32104823  3574.38894461
0.46700002 36478.79191931  2560.81131411
0.46800002 36507.74624610  3081.98408417
0.46900002 36532.77571479  3863.34121495
0.47000002 36554.54625196  3357.35245964
0.47100002 36573.58078477  3107.29157075
0.47200002 36589.20962719  3115.20545531
0.47300002 36602.29365995  3122.90784308
0.47400002 36610.99440137  3912.80021210
0.47500002 36617.62379000  2614.49846253
0.47600002 36621.38848512  2882.28651734
0.47700002 36620.98810689  3938.58745758
