# SAXS profile: number of points = 501, q_min = 0, q_max = 0.5, delta_q = 0.001
#    q    intensity    error
0.00000000 1646666.22097351 271.69992646
0.00100000 1646598.49636038 543.37751670
0.00200000 1646395.26083432 740.87789084
0.00300000 1646056.70251134 1086.39746236
0.00400000 1645582.66273849 1357.60574835
0.00500000 1644973.60369567 2220.71445289
0.00600000 1644229.27372841 1899.08488847
0.00700000 1643350.29383953 1972.02043457
0.00800000 1642336.15401673 2882.30007199
0.00900000 1641188.14764773 2954.13879205
0.01000000 1639905.50131122 2976.42861340
0.01100000 1638489.39033072 2949.28103101
0.01200000 1636939.30637048 3511.23496611
0.01300000 1635256.61954034 3434.03905249
0.01400000 1633440.62351145 4042.76572241
0.01500000 1631492.94729999 4698.69989745
0.01600000 1629412.57405756 4986.00269951
0.01700000 1627201.57616532 5711.47778855
0.01800000 1624859.56350903 5557.01995725
0.01900000 1622387.19293338 5840.59415810
0.02000000 1619785.02595222 5102.32306256
0.02100000 1617054.72721341 8538.04934679
0.02200000 1614194.54740198 5568.97144155
0.02300000 1611207.38533742 11020.65901735
0.02400000 1608093.07807277 7236.41918129
0.02500000 1604852.80347650 6884.81884135
0.02600000 1601486.94071476 9080.43136918
0.02700000 1597996.41266355 7382.74376464
0.02800000 1594381.09601072 9016.22551142
0.02900000 1590643.66483321 7873.68650244
0.03000000 1586784.23963972 7378.54705348
0.03100000 1582803.13893498 7597.45541647
0.03200000 1578701.24380266 9377.48582010
0.03300000 1574481.58608625 9635.82775106
0.03400000 1570141.88285023 8243.24526531
0.03500000 1565685.66528982 9300.17328129
0.03600000 1561112.48787735 12996.26206218
0.03700000 1556424.24010825 9758.78043680
0.03800000 1551622.22200900 9984.68946072
0.03900000 1546707.73346224 13920.37024581
0.04000000 1541679.55545726 9481.32970542
0.04100000 1536541.67023649 10648.23426846
0.04200000 1531294.36887334 10864.53405119
0.04300000 1525937.79331861 11078.30889373
0.04400000 1520475.44747623 12315.85169653
0.04500000 1514906.98525123 14634.00215749
0.04600000 1509232.85553783 12768.11055140
0.04700000 1503456.02565806 12989.86066582
0.04800000 1497576.73907519 16510.78431652
0.04900000 1491597.94049597 12305.68358189
0.05000000 1485518.69815255 14773.48414107
0.05100000 1479342.72218631 11538.87377058
0.05200000 1473068.08327597 14053.07016934
0.05300000 1466700.22836060 19008.43584569
0.05400000 1460237.24560185 16865.74097322
0.05500000 1453683.41055436 12210.94121829
0.05600000 1447036.94804135 14846.59977971
0.05700000 1440303.10886801 13783.70139527
0.05800000 1433480.08908172 15223.55925687
0.05900000 1426570.19978661 16690.87211706
0.06000000 1419576.09334651 15586.94623315
0.06100000 1412499.09678045 19704.36332090
0.06200000 1405339.75665995 19920.69198182
0.06300000 1398101.36697916 13421.77375054
0.06400000 1390781.89895711 14916.13656389
0.06500000 1383387.63628860 20543.30735986
0.06600000 1375916.21965688 23507.52971272
0.06700000 1368370.81657291 16748.85957868
0.06800000 1360754.32758318 18308.95033466
0.06900000 1353067.33804695 17048.64925759
0.07000000 1345309.51333980 24356.82987961
0.07100000 1337485.79136836 14444.84722334
0.07200000 1329594.77580494 23294.50156338
0.07300000 1321641.42192276 17604.26456487
0.07400000 1313624.87249982 17733.93660983
0.07500000 1305547.51687727 14883.24239002
0.07600000 1297409.70570160 19480.60764437
0.07700000 1289216.35281606 15083.83203521
0.07800000 1280966.35803364 27323.01369820
0.07900000 1272661.35012628 15271.93691783
0.08000000 1264305.17294545 16897.43942909
0.08100000 1255898.23681202 18537.05884507
0.08200000 1247441.16506794 17083.70755726
0.08300000 1238936.98002993 17171.66734912
0.08400000 1230386.74706795 15687.43176146
0.08500000 1221794.00074962 17337.25768454
0.08600000 1213157.68971697 20581.22117237
0.08700000 1204481.78012080 20668.90831744
0.08800000 1195764.52093195 15963.45710415
0.08900000 1187012.23858727 16024.66597360
0.09000000 1178223.70171549 24124.13142587
0.09100000 1169401.29465676 19365.28634932
0.09200000 1160546.05624863 17808.58006990
0.09300000 1151661.43847778 17862.26975018
0.09400000 1142745.76196186 19540.95344792
0.09500000 1133803.21881591 19592.12054202
0.09600000 1124834.92845219 24549.52346749
0.09700000 1115844.18676354 19683.49237988
0.09800000 1106830.79780309 19723.72574421
0.09900000 1097797.58358290 27993.83969770
0.10000000 1088743.54046215 24741.69812053
0.10100000 1079672.31269908 26430.37945794
0.10200000 1070585.46966001 19848.65554110
0.10300000 1061483.72190356 19870.97620878
0.10400000 1052370.07969177 21547.27839538
0.10500000 1043247.40966305 23222.68843171
0.10600001 1034111.52803996 18257.23988661
0.10700001 1024970.59449579 19925.42929464
0.10800001 1015821.29510326 16608.67895657
0.10900001 1006668.10947300 18271.02704687
0.11000001 997511.13574041 23251.98566857
0.11100001 988352.56166718 21585.62096292
0.11200001 979194.82007180 23236.29417420
0.11300001 970036.44962030 26540.19851115
0.11400001 960882.05153624 19890.25940332
0.11500001 951731.95381663 19872.16413143
0.11600001 942586.94611461 19850.88201998
0.11700001 933450.06595892 23130.89372381
0.11800001 924319.94297571 21448.84528696
0.11900001 915200.28500092 19768.32708714
0.12000001 906091.57043272 16445.56277802
0.12100001 896996.80990401 21339.55511288
0.12200001 887914.92050158 18020.23416054
0.12300001 878849.10915955 22885.23188074
0.12400001 869799.21380481 17939.60962999
0.12500001 860767.36807404 26029.60643709
0.12600001 851756.24528292 17848.55296099
0.12700001 842765.60319205 24271.65051577
0.12800001 833795.49822359 24200.91547651
0.12900001 824849.20696658 22518.38441153
0.13000001 815926.83565340 16032.96307630
0.13100001 807029.63957386 22370.86266350
0.13200001 798159.79844522 17515.61760257
0.13300001 789319.17753850 20624.91108140
0.13400001 780505.77427099 18966.29120896
0.13500001 771723.54222284 20466.10930469
0.13600001 762971.70955604 21950.69711892
0.13700001 754253.25102643 20296.95594219
0.13800001 745566.71405395 18654.08006528
0.13900001 736917.14714585 17022.78690183
0.14000001 728301.80170444 21565.01736549
0.14100001 719723.52769380 24528.17898063
0.14200001 711181.65829020 16780.33201881
0.14300001 702681.08998468 15177.91225957
0.14400001 694216.05185007 18119.03980796
0.14500001 685795.27888844 16520.80904774
0.14600001 677413.41473075 17924.35979935
0.14700001 669077.09289252 16338.86337925
0.14800001 660781.19836564 16245.30652825
0.14900001 652529.45003099 20554.67864576
0.15000001 644323.05933504 16053.30978077
0.15100001 636162.70367926 14504.51032828
0.15200001 628049.33129128 15855.10611660
0.15300001 619983.51397177 17185.94381829
0.15400001 611963.79175773 19919.42236173
0.15500001 603994.96048578 18373.52756508
0.15600001 596073.31147310 21056.29072154
0.15700001 588205.84376725 15334.52707075
0.15800001 580384.47503375 20763.25557433
0.15900001 572617.92414839 21988.52932517
0.16000001 564901.10855759 15006.59865718
0.16100001 557240.04065837 18957.30707806
0.16200001 549630.30741789 14782.30781582
0.16300001 542075.92509202 13335.06838678
0.16400001 534575.58916432 15876.89574772
0.16500001 527130.61732806 21000.88478583
0.16600001 519741.13862229 13019.51613718
0.16700001 512406.92415167 12912.65509829
0.16800001 505128.74000510 19207.52124560
0.16900001 497909.58990502 21584.38174156
0.17000001 490746.73587219 13846.41980646
0.17100001 483642.21310708 12477.96968739
0.17200001 476595.90516081 14841.19718755
0.17300001 469608.24597248 12256.77579870
0.17400001 462680.46906187 13359.89917510
0.17500001 455811.50343184 13236.76668480
0.17600001 449000.31860580 16689.34263080
0.17700001 442251.94790369 17712.19135010
0.17800001 435562.48315298 15203.30919254
0.17900001 428933.68172796 12739.33094904
0.18000001 422366.37391246 14907.42187139
0.18100001 415861.16185172 11353.01025483
0.18200001 409414.30041033 14609.95000029
0.18300001 403031.63091270 13348.40824640
0.18400001 396709.16043935 12109.54769447
0.18500001 390449.39955475 17429.66201954
0.18600001 384251.52878978 12933.90707011
0.18700001 378115.15741414 12795.41753141
0.18800001 372040.88557555 11602.09556483
0.18900001 366030.94380392 13561.44710868
0.19000001 360079.19045645 16506.03087041
0.19100001 354195.13476216 10200.82036314
0.19200001 348369.42514021 16136.47253496
0.19300001 342609.26010655 13957.90191629
0.19400001 336910.42689243 9854.63045227
0.19500001 331274.84957706 11687.37724537
0.19600001 325700.52886475 14436.67662415
0.19700001 320189.82085833 9509.63812889
0.19800001 314741.52888534 11274.04209747
0.19900001 309356.51608208 10208.76551317
0.20000001 304032.05287180 10083.22351004
0.20100001 298771.76610497 9958.06343492
0.20200001 293572.42294360 9833.20877125
0.20300001 288436.07667762 8826.14436350
0.20400001 283361.60398966 11327.38065488
0.20500001 278348.48780316 8600.96867966
0.20600001 273397.86695109 10186.80500411
0.20700001 268508.34722376 9215.20691231
0.20800001 263680.33355447 9093.01673245
0.20900001 258915.71994552 10602.59923297
0.21000001 254209.54295664 8850.30565641
0.21100001 249564.69762475 12697.85241542
0.21200001 244980.42489547 13306.11240724
0.21300001 240456.72173911 9262.39335927
0.21400001 235993.79963382 10655.12055720
0.21500001 231591.62231203 9754.63959296
0.21600001 227247.79893423 8136.60782553
0.21700001 222963.97000616 9478.19881309
0.21800001 218739.46909298 10059.82865922
0.21900001 214572.77400032 9913.26262753
0.22000001 210464.47957202 6976.89782770
0.22100001 206416.75032987 9623.14935539
0.22200001 202425.99068709 7448.26467952
0.22300001 198492.70814650 7336.29083999
0.22400001 194615.34048758 9195.57527286
0.22500001 190798.06244228 7761.66554718
0.22600001 187035.30859471 7005.40781469
0.22700001 183330.27924554 7523.87501603
0.22800001 179680.41083444 6789.22464444
0.22900001 176085.93222849 10934.93690851
0.23000001 172546.80700085 8370.24600346
0.23100001 169064.14668105 6471.77584102
0.23200001 165634.00663838 6367.79968637
0.23300001 162259.19865649 6264.82795642
0.23400001 158938.17344935 6162.82796697
0.23500001 155669.12990767 5510.68745937
0.23600001 152454.11939420 5961.71862088
0.23700001 149291.38427020 5329.70267053
0.23800001 146180.60168513 6288.68978194
0.23900001 143121.78600199 7213.33835569
0.24000001 140113.92811606 7091.16623737
0.24100001 137158.30357891 4978.84665542
0.24200001 134252.16476842 8318.93578338
0.24300001 131396.23937605 6732.74362411
0.24400001 128589.19563496 6143.34911206
0.24500001 125831.83941427 4643.19509403
0.24600001 123123.22298559 5474.05875289
0.24700001 120463.45358165 4481.24068523
0.24800001 117850.45261014 5282.05753586
0.24900001 115284.74430756 6484.76717408
0.25000001 112766.57367483 5943.92637960
0.25100001 110294.02971475 5002.93742455
0.25200001 107868.78171452 5321.70659765
0.25300001 105488.98737455 4421.04367003
0.25400001 103153.29162880 4340.17495062
0.25500001 100862.66200748 4647.75168520
0.25600001 98616.26506203  4942.15435741
0.25700001 96413.40850723  4477.43890292
0.25800001 94253.67356560  4760.28200866
0.25900001 92137.02201373  4312.01283426
0.26000001 90063.21969475  5288.96282682
0.26100001 88029.02181351  4843.35700935
0.26200001 86038.55220328  3733.64314953
0.26300001 84087.57360195  3662.85487942
0.26400001 82177.05035891  3593.19169697
0.26500001 80307.28034609  3204.26063743
0.26600001 78475.77405178  3771.54587940
0.26700001 76684.62905477  3699.26668065
0.26800001 74931.64467416  3023.49200568
0.26900001 73216.03416251  3854.82438107
0.27000001 71538.85458149  3198.86003399
0.27100001 69898.48087468  3422.22978557
0.27200001 68295.17408588  3635.69376452
0.27300001 66727.44332575  3565.24746562
0.27400001 65194.55890455  2958.20325029
0.27500001 63698.98079899  3428.27930885
0.27600001 62236.14758408  3361.68567085
0.27700001 60809.46247786  3550.05658747
0.27800001 59415.42552241  4227.11064885
0.27900001 58055.52745450  2682.16549534
0.28000001 56728.09637707  2391.08937546
0.28100001 55433.13901603  2813.78626963
0.28200001 54170.64783609  2989.40734232
0.28300001 52939.67318276  2480.75320276
0.28400001 51740.02070117  2654.26318760
0.28500001 50571.18962904  3037.30579288
0.28600001 49431.90116729  2553.65213517
0.28700001 48322.98220605  2713.81880914
0.28800001 47242.71399253  2867.16044792
0.28900001 46192.74421419  2210.32291527
0.29000001 45170.12652180  2168.84372760
0.29100001 44176.88947764  2515.43220592
0.29200001 43210.36700501  2468.82443569
0.29300001 42271.17204037  2423.40640779
0.29400001 41358.66973749  2745.18183377
0.29500001 40473.67410363  1976.73433679
0.29600001 39613.33753432  2294.20655190
0.29700001 38778.61017197  2600.10593511
0.29800001 37969.45634657  2213.80925709
0.29900001 37184.98749003  1673.32451626
0.30000001 36424.66784519  2466.86074660
0.30100001 35689.00482330  1778.38319453
0.30200001 34975.77583362  1907.57890427
0.30300001 34286.16321111  2188.82876302
0.30400001 33619.93272011  1538.11199476
0.30500001 32974.88792293  1967.61165551
0.30600001 32352.09606651  1787.77691327
0.30700001 31751.27596740  2053.67262680
0.30800001 31171.35666842  1733.75093998
0.30900001 30612.17473848  2135.19928910
0.31000001 30074.32981109  1402.96755211
0.31100001 29554.64833077  1521.47336810
0.31200001 29056.08147378  1500.60139876
0.31300001 28575.90198438  1749.70256135
0.31400001 28116.24351420  1727.04033963
0.31500001 27674.37263492  1705.29492250
0.31600002 27250.50005012  1425.33747261
0.31700002 26844.31403165  1920.71075991
0.31800002 26455.98591268  2152.06227596
0.31900002 26085.05912253  1377.29118688
0.32000002 25730.66122190  1362.82453615
0.32100002 25393.16539024  1717.08592499
0.32200002 25072.15300414  1336.22045763
0.32300002 24766.12974846  1564.72415160
0.32400002 24476.11609161  1193.21071597
0.32500002 24200.75415613  1301.75862770
0.32600002 23940.85347656  1526.58859422
0.32700002 23695.29290315  1632.13185245
0.32800002 23464.70358234  1505.37812961
0.32900002 23246.79510721  1150.71641230
0.33000002 23044.06434548  2173.86191297
0.33100002 22852.47040283  1365.66369594
0.33200002 22676.20130461  1245.94393968
0.33300002 22511.51692681  1240.60975659
0.33400002 22360.03576407  1348.31022042
0.33500002 22220.01823488  1231.87786928
0.33600002 22092.06848106  1340.10493752
0.33700002 21974.77518470  1225.53327009
0.33800002 21870.40724734  1334.53231343
0.33900002 21775.62192644  1110.55677084
0.34000002 21692.51035695  1220.52915304
0.34100002 21619.59238158  1330.90217004
0.34200002 21557.76946314  1441.89147883
0.34300002 21504.53393013  1220.59740368
0.34400002 21461.92955121  1332.78588825
0.34500002 21428.31433615  1334.55548006
0.34600002 21405.15456925  1336.96601771
0.34700002 21388.75753995  1451.44115540
0.34800002 21382.73411343  1343.26342062
0.34900002 21384.73962472  1571.77843686
0.35000002 21394.97971739  1351.73488257
0.35100002 21413.36839884  1695.93885751
0.35200002 21438.81896180  1475.74117313
0.35300002 21472.11079744  1140.16913735
0.35400002 21513.15599183  1260.13317191
0.35500002 21561.07515799  1266.49761477
0.35600002 21615.20312368  1388.99301852
0.35700002 21676.33998454  1280.42146353
0.35800002 21744.38231385  1639.30906029
0.35900002 21818.17471409  1885.09038459
0.36000002 21898.85446671  1304.40532809
0.36100002 21984.21456253  1551.86577947
0.36200002 22076.53721841  1442.48101018
0.36300002 22172.44707673  1452.73880128
0.36400002 22274.44060459  1707.33595321
0.36500002 22380.95601231  1474.45745193
0.36600002 22493.00292600  1609.71183065
0.36700002 22609.06923063  1248.02068065
0.36800002 22731.13370570  1635.61880327
0.36900002 22856.47493435  1522.24130274
0.37000002 22984.99862419  1534.93828083
0.37100002 23117.96398220  1676.97718671
0.37200002 23255.07645475  1561.34590713
0.37300002 23395.14882860  1837.45507604
0.37400002 23539.71898155  1456.52018098
0.37500002 23686.51280828  1736.69520137
0.37600002 23837.37780337  1348.00377864
0.37700002 23989.90455495  2448.40977486
0.37800002 24146.26793188  1372.71539696
0.37900002 24304.91801672  1523.91843184
0.38000002 24466.14425883  1957.53629488
0.38100002 24629.35737969  1975.76714260
0.38200002 24794.86919054  1994.25142347
0.38300002 24962.22248148  1581.60649135
0.38400002 25132.18703630  1596.52225711
0.38500002 25302.65217107  1758.02835613
0.38600002 25476.16863192  1626.78082506
0.38700002 25649.97413908  1791.39427874
0.38800002 25825.27341921  2109.66668556
0.38900002 26001.86008581  2129.55244192
0.39000002 26180.24188284  2763.84826651
0.39100002 26358.71223289  1704.88158799
0.39200002 26538.52835175  2033.78021659
0.39300002 26718.81577534  2052.80671328
0.39400002 26900.50619443  1753.24057429
0.39500002 27081.86704455  2091.26187226
0.39600002 27263.60655592  1623.54784732
0.39700002 27445.36306907  2293.88355399
0.39800002 27628.21857844  2314.96854437
0.39900002 27810.30541263  1835.48024420
0.40000002 27992.50498625  1852.12418017
0.40100002 28174.20151301  2718.24709076
0.40200002 28356.95123722  2057.01334021
0.40300002 28538.24132706  2767.06801017
0.40400002 28719.02684343  2093.61715608
0.40500002 28899.54978116  1759.98266506
0.40600002 29079.67878555  2130.37736877
0.40700002 29258.88796083  2327.83723646
0.40800002 29437.66938119  2167.20132253
0.40900002 29614.67301975  2731.95371552
0.41000002 29791.64233750  2203.98580456
0.41100002 29967.21168654  2037.17114698
0.41200002 30141.09129781  2053.96476381
0.41300002 30314.31986623  2259.02322347
0.41400002 30486.09470287  1897.75948518
0.41500002 30656.97159803  2486.89365387
0.41600002 30825.27177417  2892.18126125
0.41700002 30992.87219507  2720.55445019
0.41800002 31159.75608655  2154.22983912
0.41900002 31323.10370211  2960.03344011
0.42000002 31485.43802492  3578.94990988
0.42100002 31646.73174881  2604.20967901
0.42200002 31806.02114872  2018.09213751
0.42300002 31962.87490868  3049.25841078
0.42400002 32117.84837703  2457.01551727
0.42500002 32271.31246074  2062.13696396
0.42600002 32421.48328701  2699.57493382
0.42700002 32570.81447124  2718.36030458
0.42800002 32717.40526199  2315.90164121
0.42900002 32862.50440920  2119.63163484
0.43000002 33005.16256256  3200.67579118
0.43100002 33144.25845909  2792.07246490
0.43200002 33282.02037653  2161.66732589
0.43300002 33417.02201111  2392.99305961
0.43400002 33549.90904112  2845.87116927
0.43500002 33679.96206582  2422.93658583
0.43600002 33808.48616622  2216.14637322
0.43700002 33933.40181325  2898.25198622
0.43800002 34055.17191804  2242.53317707
0.43900002 34175.50002380  2932.25804100
0.44000002 34292.28303186  2268.43463006
0.44100002 34407.13228266  3193.67016982
0.44200002 34519.03418739  2981.92690959
0.44300002 34628.43907521  2998.13039721
0.44400002 34734.56052103  2550.38522712
0.44500002 34837.06413346  3495.89955147
0.44600002 34937.57438573  2342.56447358
0.44700002 35035.51906756  2825.26439150
0.44800002 35129.60032261  2365.97869386
0.44900002 35222.05010860  2615.23734450
0.45000002 35311.24281487  3105.44739653
0.45100002 35396.36143054  2879.84810247
0.45200002 35479.37699246  2892.98853707
0.45300002 35559.00868447  2905.88232741
0.45400002 35636.13134513  3405.03251140
0.45500002 35710.17630184  2686.83379229
0.45600002 35780.76082313  2943.32552481
0.45700002 35848.53887196  3201.63315839
0.45800002 35912.62216794  2472.58415345
0.45900002 35973.94625272  3723.30361362
0.46000002 36032.98438101  2740.84908684
0.46100002 36087.73698932  2750.96832108
0.46200002 36140.16547904  3513.90845607
0.46300002 36189.07279999  3778.13937938
0.46400002 36234.49431699  4043.76975743
0.46500002 36277.65816986  3550.13179676
0.46600002 36316.92274283  2798.40061458
0.46700002 36353.15429580  4338.38563928
0.46800002 36386.87787712  3839.72546997
0.46900002 36416.75056217  3337.59534721
0.47000002 36443.29528990  2574.71893426
0.47100002 36467.11551682  3356.43347125
0.47200002 36487.57283485  2847.67275687
0.47300002 36505.43866971  3114.64417492
0.47400002 36518.87598519  2862.16704100
0.47500002 36530.28328204  3390.74105495
0.47600002 36538.81949471  2614.35265876
0.47700002 36543.18220730  3144.17554614
