# SAXS profile: number of points = 501, q_min = 0, q_max = 0.5, delta_q = 0.001
#    q    intensity    error
0.00000000 1664650.74656091 274.66737318
0.00100000 1664582.44874835 848.93706902
0.00200000 1664377.49852132 1048.55785727
0.00300000 1664036.07305368 1597.47468704
0.00400000 1663558.02796837 1746.73599574
0.00500000 1662943.83104144 1945.64435933
0.00600000 1662193.19755467 2792.48468558
0.00700000 1661306.78608246 2392.28187138
0.00800000 1660284.08340173 2241.38360722
0.00900000 1659126.37930023 3981.90348054
0.01000000 1657832.86544058 3829.59408453
0.01100000 1656404.79104891 3279.68162907
0.01200000 1654841.57233734 3226.94120754
0.01300000 1653144.62095641 3818.76424284
0.01400000 1651313.25955182 4458.54599844
0.01500000 1649349.09770570 5145.96941399
0.01600000 1647251.07827182 5040.58852484
0.01700000 1645021.33759941 5329.86937291
0.01800000 1642659.44215984 5149.73758290
0.01900000 1640166.02048312 5904.59794017
0.02000000 1637541.83426979 5158.25701129
0.02100000 1634788.27697638 8631.68249378
0.02200000 1631903.82845927 7882.09584956
0.02300000 1628891.24719748 6450.40963251
0.02400000 1625750.38709028 7315.87707549
0.02500000 1622482.55045869 6327.68223578
0.02600000 1619087.98132468 6557.30662428
0.02700000 1615567.67296003 7463.92299093
0.02800000 1611921.50203289 7713.04474094
0.02900000 1608152.11263879 8684.02180697
0.03000000 1604259.67695422 9697.75019295
0.03100000 1600244.51090972 13057.99580986
0.03200000 1596107.52678335 10270.95240791
0.03300000 1591851.61887864 9742.13235665
0.03400000 1587474.71527521 9167.66690371
0.03500000 1582980.16515264 10257.71194387
0.03600000 1578367.68322305 8759.94104672
0.03700000 1573639.07945386 9866.71748449
0.03800000 1568795.71453000 9177.45535473
0.03900000 1563838.82859852 10321.33674673
0.04000000 1558767.17134755 14379.62782202
0.04100000 1553584.97778212 11745.10297661
0.04200000 1548292.27141190 13981.07985947
0.04300000 1542889.25035108 14256.29733499
0.04400000 1537379.47473813 11415.04313007
0.04500000 1531762.59474730 11626.07863434
0.04600000 1526039.13302984 13986.14930439
0.04700000 1520212.00071238 13134.63229702
0.04800000 1514281.51220025 14468.96052229
0.04900000 1508250.42613928 11311.87872258
0.05000000 1502118.12940112 13789.44507002
0.05100000 1495888.01712113 12834.71978479
0.05200000 1489558.42054450 15394.58699373
0.05300000 1483134.60460623 14416.06902882
0.05400000 1476614.87467775 14618.48794103
0.05500000 1470003.27974057 19756.84500136
0.05600000 1463298.27800861 13762.32094688
0.05700000 1456504.81607497 17740.22948788
0.05800000 1449621.47769315 17960.81094725
0.05900000 1442650.25389806 16879.00875896
0.06000000 1435594.12593601 15762.82423920
0.06100000 1428454.20903979 21255.39962381
0.06200000 1421231.13727140 17459.82533751
0.06300000 1413928.16084387 16288.45317449
0.06400000 1406543.31283497 23313.45650053
0.06500000 1399082.78557958 16621.10427018
0.06600000 1391544.38865460 16782.02611238
0.06700000 1383931.22777979 14116.09918397
0.06800000 1376246.22809269 15668.56404027
0.06900000 1368489.94918166 15806.05965307
0.07000000 1360661.98167097 15940.15586173
0.07100000 1352767.47174990 17531.86725503
0.07200000 1344804.81138539 16198.17471197
0.07300000 1336779.22672372 16322.07512308
0.07400000 1328689.70785562 17937.31189667
0.07500000 1320538.61088779 30108.28173949
0.07600000 1312326.34423937 15157.36998655
0.07700000 1304058.01191848 22886.21918227
0.07800000 1295732.17061043 15354.42694180
0.07900000 1287350.68485044 21627.49251990
0.08000000 1278917.61784758 17092.73476437
0.08100000 1270433.03512640 18751.59247826
0.08200000 1261897.58811441 21994.87599295
0.08300000 1253314.74264442 20529.29644800
0.08400000 1244684.79946739 17456.70513192
0.08500000 1236011.92999433 20727.92103908
0.08600000 1227295.02272625 17617.82087842
0.08700000 1218537.64376465 19301.63718359
0.08800000 1209738.65007427 19380.01408435
0.08900000 1200904.08595766 19454.64710629
0.09000000 1192032.62570264 17898.37071571
0.09100000 1183126.76986927 17959.86521039
0.09200000 1174187.70309573 21293.89499617
0.09300000 1165218.58978879 23001.41604332
0.09400000 1156218.00209752 24714.16095634
0.09500000 1147190.12082355 23127.35392285
0.09600000 1138135.98663997 16559.87938405
0.09700000 1129058.90440956 24895.75001265
0.09800000 1119958.96486498 18294.53055124
0.09900000 1110838.51670256 21661.35209427
0.10000000 1101696.95132340 21697.92247671
0.10100000 1092537.66077301 20058.99239520
0.10200000 1083362.52318905 20085.54212467
0.10300000 1074172.12474235 25135.62890137
0.10400000 1064969.53172407 21805.25218788
0.10500000 1055757.33105029 18465.19658885
0.10600001 1046531.74005023 21835.88578360
0.10700001 1037300.57809763 18484.69717155
0.10800001 1028060.96745344 18489.67736981
0.10900001 1018816.92779183 25215.72014964
0.11000001 1009569.11739268 21852.12457453
0.11100001 1000319.28893109 26888.58375220
0.11200001 991069.92654499 20158.36325492
0.11300001 981819.74908621 25183.67774973
0.11400001 972573.35979730 18454.58037108
0.11500001 963331.00727664 18438.15634749
0.11600001 954093.66865312 21767.64807539
0.11700001 944864.19370281 20068.91641939
0.11800001 935641.05439546 26721.90977209
0.11900001 926428.44835564 23345.99799820
0.12000001 917226.41308336 19977.19221798
0.12100001 908038.47912346 18278.81544584
0.12200001 898863.08852664 18242.42724107
0.12300001 889703.75117470 19858.18866183
0.12400001 880559.99238965 18161.55069876
0.12500001 871434.25850309 18117.11908797
0.12600001 862329.34105791 16427.37472127
0.12700001 853244.54582914 22935.21447274
0.12800001 844180.39059369 24502.33699176
0.12900001 835139.91712061 19542.27498169
0.13000001 826123.49375337 16233.32741741
0.13100001 817131.98032673 19415.05676774
0.13200001 808168.05283317 17735.24875547
0.13300001 799233.02428980 19277.50145467
0.13400001 790325.42172286 20805.31770773
0.13500001 781448.92813286 17535.71477408
0.13600001 772602.94198301 23815.48680954
0.13700001 763790.37383911 17391.50763238
0.13800001 755009.74824871 15741.95399331
0.13900001 746266.13797521 17238.74860018
0.14000001 737556.79784465 21839.05781412
0.14100001 728884.63823312 18630.29223190
0.14200001 720249.03845168 20084.14538450
0.14300001 711654.89975104 16908.92121564
0.14400001 703096.22502015 16821.57797708
0.14500001 694582.03097361 16732.48191546
0.14600001 686106.92703354 16641.52430025
0.14700001 677677.25724903 22566.65373101
0.14800001 669288.58751235 14958.60063663
0.14900001 660943.90139304 14871.23848298
0.15000001 652645.02332612 20695.37466614
0.15100001 644392.17090159 17630.57062777
0.15200001 636186.77945281 17520.58473287
0.15300001 628028.86828094 14507.46754188
0.15400001 619917.26081282 21619.61549110
0.15500001 611856.84724978 14317.45090133
0.15600001 603844.12916023 17064.63589543
0.15700001 595885.51473736 21183.73104872
0.15800001 587973.36565981 16827.79851943
0.15900001 580116.23587942 15315.06935010
0.16000001 572309.28327198 17967.65079644
0.16100001 564558.43045746 15090.64755847
0.16200001 556859.12843835 20422.80949956
0.16300001 549215.43325440 13510.70029587
0.16400001 541626.12534318 14745.77195861
0.16500001 534092.59848319 17288.57822912
0.16600001 526614.66106395 14510.86767072
0.16700001 519192.71407417 14392.02271365
0.16800001 511826.87131784 12974.81180053
0.16900001 504520.51067684 15438.32835568
0.17000001 497271.05088161 16581.50397462
0.17100001 490080.05830932 13908.47271159
0.17200001 482947.59874063 17545.48709080
0.17300001 475874.32215076 18630.48059202
0.17400001 468861.41791862 13538.37408176
0.17500001 461907.69444335 14633.23645106
0.17600001 455012.18282942 18120.86103701
0.17700001 448179.74200287 14359.67961199
0.17800001 441406.96064393 13036.95519838
0.17900001 434695.17027644 12910.44716702
0.18000001 428045.38236876 18594.29228840
0.18100001 421457.97176631 14957.54412453
0.18200001 414929.53294076 14806.76108243
0.18300001 408465.77358690 14655.75264863
0.18400001 402062.61950184 15620.13350555
0.18500001 395722.81035760 12144.73362362
0.18600001 389445.30580621 10923.94134395
0.18700001 383229.93949349 12968.50176515
0.18800001 377076.89302568 11759.14346458
0.18900001 370988.82202972 11630.50012014
0.19000001 364959.63594816 12547.31287674
0.19100001 358998.35878649 12406.98386589
0.19200001 353096.49018603 13288.78703606
0.19300001 347260.30971792 14147.38568641
0.19400001 341486.11760830 12985.01023565
0.19500001 335775.68596319 10858.98619719
0.19600001 330127.28646562 12681.84030887
0.19700001 324542.74971235 10602.81213417
0.19800001 319021.39960263 12379.62599663
0.19900001 313564.01392789 10347.61294865
0.20000001 308167.53288656 10220.37671121
0.20100001 302835.97459201 10093.52351019
0.20200001 297565.77561537 9966.96612531
0.20300001 292359.34543200 13419.29458959
0.20400001 287215.42472762 10598.24967338
0.20500001 282133.49559700 10461.51051122
0.20600001 277114.42532089 11185.72430680
0.20700001 272157.36566605 9340.44123117
0.20800001 267262.05331733 8378.66576756
0.20900001 262431.08868074 11573.21155790
0.21000001 257659.20507919 13863.35418464
0.21100001 252949.22606019 10456.92149966
0.21200001 248300.48539290 10313.16114834
0.21300001 243712.70243992 9387.81374180
0.21400001 239186.71981460 12342.03532592
0.21500001 234721.90190500 7604.98998127
0.21600001 230315.99471510 12744.53617010
0.21700001 225970.93590647 8128.17494885
0.21800001 221685.76680582 10195.32889744
0.21900001 217458.96753727 8611.37552164
0.22000001 213291.40579667 8484.73252377
0.22100001 209184.95167820 7662.44514228
0.22200001 205136.20938432 6861.80652836
0.22300001 201145.63555035 8786.04177629
0.22400001 197211.56213738 7987.06864424
0.22500001 193338.14099511 9175.82860553
0.22600001 189520.22262904 7743.79666281
0.22700001 185760.46083712 8894.21128548
0.22800001 182056.50960642 7504.36968086
0.22900001 178408.66426261 6770.60912895
0.23000001 174816.98308761 6663.14962550
0.23100001 171282.22003059 7152.74584675
0.23200001 167800.75348341 6451.10027277
0.23300001 164375.33329402 6346.53191864
0.23400001 161004.37607541 5675.40452508
0.23500001 157686.02074535 6698.50247808
0.23600001 154422.37619386 7136.63045334
0.23700001 151211.61760500 8637.20800612
0.23800001 148053.67059107 5307.72434174
0.23900001 144948.24394490 5218.13702883
0.24000001 141894.57609008 6155.38700194
0.24100001 138893.63841020 5546.02324405
0.24200001 135942.96805697 5450.63356207
0.24300001 133043.06913230 6330.18952875
0.24400001 130192.84114029 6219.96327970
0.24500001 127392.91706098 5170.87874811
0.24600001 124642.29308477 5541.59661270
0.24700001 121941.44831328 5897.08871940
0.24800001 119287.90304640 4900.94372851
0.24900001 116682.29696764 5688.26224627
0.25000001 114124.89775911 5156.16312469
0.25100001 111613.84181016 4640.90376202
0.25200001 109150.71457604 5384.95075837
0.25300001 106733.63742382 5286.51731171
0.25400001 104361.46442258 4391.00882332
0.25500001 102034.77253622 5093.57608599
0.25600001 99753.17923008  4999.13081364
0.25700001 97515.74604034  4528.63146038
0.25800001 95322.02892000  4443.91319851
0.25900001 93172.05047124  4360.45216837
0.26000001 91065.55780430  5704.34681077
0.26100001 88999.30294672  4546.97460269
0.26200001 86977.48675247  5490.01922359
0.26300001 84995.74668361  4375.58124631
0.26400001 83055.02019716  5282.29953449
0.26500001 81155.70105877  3561.92388802
0.26600001 79295.39418350  3493.35875606
0.26700001 77475.92833703  4048.89220649
0.26800001 75695.32483564  3054.30650165
0.26900001 73952.68638291  3893.60912231
0.27000001 72249.05482009  3818.00148264
0.27100001 70582.93833248  3167.76242227
0.27200001 68954.39813893  3388.41928490
0.27300001 67362.05252254  3322.29658764
0.27400001 65805.08765339  3528.79799241
0.27500001 64286.18421706  4524.46185932
0.27600001 62800.48137192  3392.16816184
0.27700001 61351.45477542  3581.69809930
0.27800001 59935.80034266  3009.97603566
0.27900001 58554.74163689  3443.01897120
0.28000001 57206.81956192  3616.90133798
0.28100001 55891.83807538  3546.33729373
0.28200001 54609.92346219  3013.64876890
0.28300001 53360.11936596  2727.76943109
0.28400001 52142.09926616  3343.61227370
0.28500001 50955.53094724  3497.58780976
0.28600001 49799.00590913  2572.61676703
0.28700001 48673.42636397  2523.23054214
0.28800001 47577.04474323  2474.95798469
0.28900001 46511.46556240  3034.87327160
0.29000001 45473.69833974  2580.40513443
0.29100001 44465.86484058  2726.64696109
0.29200001 43485.28127184  2866.76730355
0.29300001 42532.53471308  2250.82184356
0.29400001 41606.91320363  2393.43779534
0.29500001 40709.30923197  1988.24275701
0.29600001 39836.95554486  1952.21009889
0.29700001 38990.52099503  2440.02691938
0.29800001 38170.30491766  2739.10121056
0.29900001 37375.11715623  2186.44445714
0.30000001 36604.60008649  2313.77688100
0.30100001 35859.21526989  1786.86478149
0.30200001 35136.72631221  1596.96428649
0.30300001 34438.30952321  1570.38698860
0.30400001 33763.70170591  1699.15836879
0.30500001 33110.65775566  1671.75718923
0.30600001 32480.28685830  1645.28900870
0.30700001 31872.40123948  1767.00600837
0.30800001 31285.83569091  2030.13797410
0.30900001 30720.38560721  1999.89719771
0.31000001 30176.62624493  1548.51364907
0.31100001 29651.56643104  1526.46271214
0.31200001 29147.83391045  1368.49086689
0.31300001 28663.04946996  1485.03266335
0.31400001 28199.18912945  1865.37644923
0.31500001 27753.22770063  1578.60366635
0.31600002 27325.91198205  1689.15132915
0.31700002 26916.50307498  1540.70070896
0.31800002 26525.39349170  1523.08816641
0.31900002 26151.97936881  2008.47211062
0.32000002 25795.54314705  2359.90537655
0.32100002 25456.29961937  1352.49326282
0.32200002 25133.78671277  1826.59803584
0.32300002 24826.63750367  1809.86195972
0.32400002 24535.78503487  1435.34349251
0.32500002 24259.94588721  1186.31141006
0.32600002 23999.85139966  1412.63132028
0.32700002 23754.43666586  1285.59017323
0.32800002 23524.28196545  1625.29271796
0.32900002 23307.07039151  1269.07004291
0.33000002 23105.42711009  1261.90296137
0.33100002 22914.97421970  1369.39892422
0.33200002 22740.30611678  1135.87834432
0.33300002 22577.39780038  1244.24045170
0.33400002 22427.99599188  1465.10890755
0.33500002 22290.26844235  1460.45845750
0.33600002 22164.85136671  1792.69326344
0.33700002 22050.39112959  1676.93232482
0.33800002 21949.02293093  1227.71865578
0.33900002 21857.53600544  1337.68126688
0.34000002 21777.85346900  1225.33098346
0.34100002 21708.60912639  1225.01687102
0.34200002 21650.74149737  1559.50298391
0.34300002 21601.59762061  1226.10673901
0.34400002 21563.30713020  1339.08143620
0.34500002 21534.18766537  1117.62439276
0.34600002 21515.71270143  1343.87147898
0.34700002 21504.17167147  1571.52494018
0.34800002 21503.19424822  1350.83072665
0.34900002 21510.33862962  1242.22211469
0.35000002 21525.94875489  1813.34600900
0.35100002 21549.80840640  1365.39592530
0.35200002 21580.89690771  1485.52110900
0.35300002 21620.06786231  1607.23592101
0.35400002 21666.98259868  1269.14356583
0.35500002 21720.95742881  1507.86893613
0.35600002 21781.29618110  1632.94385204
0.35700002 21848.73258633  1290.60469500
0.35800002 21923.24979633  1298.62376320
0.35900002 22003.56439178  1425.83104012
0.36000002 22090.82266108  1315.83991413
0.36100002 22182.94224291  1445.44058501
0.36200002 22282.07131279  1698.56237663
0.36300002 22384.94629850  1711.10537611
0.36400002 22493.96822309  1354.69930040
0.36500002 22607.53072391  1613.49954419
0.36600002 22726.71098452  1376.21604886
0.36700002 22850.00167175  2018.11224324
0.36800002 22979.33206545  1271.90609007
0.36900002 23111.89420960  1924.06528409
0.37000002 23247.84485016  1811.23967807
0.37100002 23388.18261683  1435.56671702
0.37200002 23532.77785604  1711.65667844
0.37300002 23680.35792549  1859.85539957
0.37400002 23832.43370225  1742.74679703
0.37500002 23986.71528826  1488.13588698
0.37600002 24145.18129371  1365.41006684
0.37700002 24305.24285356  2618.40393665
0.37800002 24469.18198496  1808.39498027
0.37900002 24635.46809237  2527.59914602
0.38000002 24804.29845567  1701.07886867
0.38100002 24975.05600319  2146.60616517
0.38200002 25148.18152031  2456.09726453
0.38300002 25323.11157575  1750.33355504
0.38400002 25500.60559842  1619.92604738
0.38500002 25678.70423324  1635.47675009
0.38600002 25859.65212412  1651.26816461
0.38700002 26040.90273257  1515.58061084
0.38800002 26223.69720934  1836.18336559
0.38900002 26407.68841185  2008.30479887
0.39000002 26593.44652838  1559.70571278
0.39100002 26779.21344800  1574.61782534
0.39200002 26966.37563111  2066.56829440
0.39300002 27153.79469109  1925.74721073
0.39400002 27342.69155500  1944.06546166
0.39500002 27531.10111004  1962.41698010
0.39600002 27719.92152746  1815.79354568
0.39700002 27908.59247521  2332.60026959
0.39800002 28098.44637611  1681.69209529
0.39900002 28287.40188393  1866.96861279
0.40000002 28476.23135468  2569.26809571
0.40100002 28664.67781147  2074.17618471
0.40200002 28853.99217860  2790.75825574
0.40300002 29041.77710722  1935.92495369
0.40400002 29229.00170929  2485.92671316
0.40500002 29415.89076490  2328.85618220
0.40600002 29602.24084406  2891.54702265
0.40700002 29787.57908891  2552.19989726
0.40800002 29972.31132871  2206.56166457
0.40900002 30155.26571178  2225.45871498
0.41000002 30338.09274205  2992.54960987
0.41100002 30519.38840198  2074.70812187
0.41200002 30698.82347542  3423.22596795
0.41300002 30877.51711153  1917.49390348
0.41400002 31054.65511754  1933.15237267
0.41500002 31230.77477867  1948.80043853
0.41600002 31404.22263834  2160.76764102
0.41700002 31576.82357148  1979.86693175
0.41800002 31748.61207887  2194.94040008
0.41900002 31916.68282061  2815.05155817
0.42000002 32083.73755059  2836.52337125
0.42100002 32249.48373263  3674.50635061
0.42200002 32413.12816919  2467.93569575
0.42300002 32574.21453964  2486.06417147
0.42400002 32733.32835436  2295.42475962
0.42500002 32890.72694831  3572.91983770
0.42600002 33044.68496062  2539.81460643
0.42700002 33197.68554967  2557.54981594
0.42800002 33347.86000855  2575.12187189
0.42900002 33496.32496022  2592.61567478
0.43000002 33642.26046643  2174.97224222
0.43100002 33784.51383569  3064.93124041
0.43200002 33925.18464599  2644.12901661
0.43300002 34062.98523401  2661.00053258
0.43400002 34198.57810228  3570.33172307
0.43500002 34331.07386495  2694.30280460
0.43600002 34462.03071593  2484.88484253
0.43700002 34589.16585393  2499.75913472
0.43800002 34712.96633777  2743.01873000
0.43900002 34835.18042414  3678.59522712
0.44000002 34953.75364562  4161.94364382
0.44100002 35070.19873714  2325.15428646
0.44200002 35183.55115546  3039.33121060
0.44300002 35294.25228144  3525.89597001
0.44400002 35401.45258512  3071.96119366
0.44500002 35504.95003457  2375.28126988
0.44600002 35606.36900700  2864.88858607
0.44700002 35705.02041656  3119.19073141
0.44800002 35799.54318189  3375.53908659
0.44900002 35892.38410657  3634.10406302
0.45000002 35981.84369545  3407.84057790
0.45100002 36067.00766889  2689.87755943
0.45200002 36149.93289486  3438.94327927
0.45300002 36229.24356272  3454.09624497
0.45400002 36305.98358036  2477.88349679
0.45500002 36379.47332263  3234.86292116
0.45600002 36449.39742566  2998.32757434
0.45700002 36516.28599033  3261.26965636
0.45800002 36579.31278711  3022.18296570
0.45900002 36639.50925523  3033.75151011
0.46000002 36697.20368934  2791.37293092
0.46100002 36750.43271972  2546.80510818
0.46200002 36801.23280148  3833.76860880
0.46300002 36848.40558502  2564.64915027
0.46400002 36891.91663007  3087.85356829
0.46500002 36933.01571347  2839.77971280
0.46600002 36970.05871273  2848.72800913
0.46700002 37003.94096172  3117.21213436
0.46800002 37035.16592939  2865.96645128
0.46900002 37062.39845171  3396.76897909
0.47000002 37086.03700397  2882.14150237
0.47100002 37106.94214094  2889.88879091
0.47200002 37124.33668740  4477.75208178
0.47300002 37139.06407558  3168.70509712
0.47400002 37149.07316311  3440.93306482
0.47500002 37157.02485267  3714.21638032
0.47600002 37161.94726291  2924.83119796
0.47700002 37162.49187963  3730.37111169
