# SAXS profile: number of points = 501, q_min = 0, q_max = 0.5, delta_q = 0.001
#    q    intensity    error
0.00000000 1664650.74656091 324.60689558
0.00100000 1664582.41601936 749.06210500
0.00200000 1664377.36468861 1048.55777296
0.00300000 1664035.77009208 1098.26364738
0.00400000 1663557.47755361 1497.20178669
0.00500000 1662942.98665584 1496.64874723
0.00600000 1662191.99339346 2094.36199694
0.00700000 1661305.14660499 2591.63613641
0.00800000 1660281.93121459 2241.38070177
0.00900000 1659123.65881089 3484.15983244
0.01000000 1657829.51325660 3556.04445948
0.01100000 1656400.72772744 4770.43430356
0.01200000 1654836.74416156 5485.78404741
0.01300000 1653138.98225207 4513.06962060
0.01400000 1651306.69139545 5201.61630849
0.01500000 1649341.59347379 5541.78800084
0.01600000 1647242.56397578 5880.65621628
0.01700000 1645011.73109945 5773.99143517
0.01800000 1642648.69303037 5617.85878295
0.01900000 1640154.10650374 6396.60130400
0.02000000 1637528.57130271 5674.03675623
0.02100000 1634773.74243168 6473.70431354
0.02200000 1631887.90994595 7319.01760863
0.02300000 1628873.85730636 7036.73538386
0.02400000 1625731.53657646 6096.49354015
0.02500000 1622462.16620752 6960.36301091
0.02600000 1619065.97517153 7868.66099923
0.02700000 1615544.05820996 7463.81389078
0.02800000 1611896.16217917 9816.44807785
0.02900000 1608125.00095000 11578.50053846
0.03000000 1604230.79376499 9697.57559406
0.03100000 1600213.78152509 11521.53975712
0.03200000 1596074.84599836 9480.68502189
0.03300000 1591817.01781693 11365.57403117
0.03400000 1587438.06256281 10000.86025559
0.03500000 1582941.54747957 10257.46170134
0.03600000 1578326.95647294 10511.65801589
0.03700000 1573596.24727968 12557.29863404
0.03800000 1568750.74294316 11012.63072512
0.03900000 1563791.62541680 9382.75018702
0.04000000 1558717.78793589 12461.94929202
0.04100000 1553533.31012144 11744.71236908
0.04200000 1548238.35985443 9986.13788435
0.04300000 1542833.02768881 13237.50799203
0.04400000 1537320.94215006 10376.91684144
0.04500000 1531701.64023882 12682.49017047
0.04600000 1525975.74494378 16137.19425295
0.04700000 1520146.17888437 13134.06359640
0.04800000 1514213.26541332 13355.36162235
0.04900000 1508179.77651994 16967.02327562
0.05000000 1502044.95352042 17235.96664426
0.05100000 1495812.40959843 16334.27227373
0.05200000 1489480.16530364 14209.64143918
0.05300000 1483053.77865130 15616.55701721
0.05400000 1476531.54264847 13399.52437441
0.05500000 1469917.35974012 12347.30639781
0.05600000 1463209.71556290 13761.48801704
0.05700000 1456413.80413893 19006.20103119
0.05800000 1449527.85734973 16676.81877749
0.05900000 1442554.16610434 12982.98810132
0.06000000 1435495.35288700 15761.73971107
0.06100000 1428352.93259815 15940.41947271
0.06200000 1421127.33620611 14772.61935039
0.06300000 1413821.67718416 16287.22648268
0.06400000 1406434.19292727 17826.55422904
0.06500000 1398971.17360701 15234.79679323
0.06600000 1391430.23366878 13983.87450266
0.06700000 1383814.62289292 16937.89177688
0.06800000 1376127.03255708 18515.79008976
0.06900000 1368368.10460053 15804.65234809
0.07000000 1360537.81640445 15938.70126556
0.07100000 1352640.65427144 16069.37172540
0.07200000 1344675.76004956 22086.30039349
0.07300000 1336647.64733469 16320.46853866
0.07400000 1328555.76962822 17935.50373051
0.07500000 1320402.32767894 19568.36341342
0.07600000 1312187.76715508 21218.07718961
0.07700000 1303917.09084339 19832.57988165
0.07800000 1295589.02668127 27634.91523508
0.07900000 1287205.37689925 15446.46524729
0.08000000 1278770.18245098 18644.47013477
0.08100000 1270283.29122245 18749.38225813
0.08200000 1261745.91027180 18850.48478402
0.08300000 1253160.89285543 20526.77638833
0.08400000 1244528.91215367 17454.51881225
0.08500000 1235853.93648606 17536.76818200
0.08600000 1227135.17182317 25622.58359069
0.08700000 1218375.86132410 17690.81833715
0.08800000 1209575.01075304 17762.60986711
0.08900000 1200738.75114699 19451.96868223
0.09000000 1191865.62744137 21149.65655246
0.09100000 1182958.16987624 21222.27056463
0.09200000 1174017.42922045 18015.29829787
0.09300000 1165046.85117029 16427.16137345
0.09400000 1156044.80727061 26357.82284452
0.09500000 1147015.58543204 29730.64537182
0.09600000 1137960.03514043 18213.05121858
0.09700000 1128881.51921627 23232.38275769
0.09800000 1119780.43094871 24943.11027215
0.09900000 1110658.74520495 24989.82294219
0.10000000 1101516.08354731 20025.56334064
0.10100000 1092355.75766080 18384.34826608
0.10200000 1083179.80790526 18408.64170122
0.10300000 1073988.58064561 20105.06717544
0.10400000 1064785.12301287 16770.36647642
0.10500000 1055572.18815274 20140.31829754
0.10600001 1046346.01588437 25190.78151773
0.10700001 1037114.24416527 26882.00247377
0.10800001 1027874.12689092 16805.74276557
0.10900001 1018629.81096748 20168.87120642
0.11000001 1009381.79358076 16806.20765418
0.11100001 1000131.73554507 18482.43534290
0.11200001 990882.25900115 20154.54609690
0.11300001 981631.95165932 16785.90716367
0.11400001 972385.74388571 25160.48230771
0.11500001 963143.31331221 18434.56388484
0.11600001 953906.18572025 21763.37065208
0.11700001 944676.94959699 18392.86107486
0.11800001 935454.40941708 18367.64819399
0.11900001 926242.06910000 20006.82963491
0.12000001 917040.74222765 18308.71928101
0.12100001 907853.50750592 19936.46396400
0.12200001 898678.75071701 16580.62373186
0.12300001 889520.27930489 26472.12475933
0.12400001 880377.59339486 18157.78871932
0.12500001 871252.96697297 19760.01822205
0.12600001 862149.21520672 19708.73198837
0.12700001 853065.47312369 26206.17256936
0.12800001 844002.83686720 17964.60122938
0.12900001 834963.61500371 16281.79125997
0.13000001 825948.94479876 21098.86678938
0.13100001 816958.84466751 25881.25741905
0.13200001 807996.66786828 17731.48771224
0.13300001 799063.36119558 16061.17431720
0.13400001 790157.76368328 19200.83456274
0.13500001 781283.32804734 19125.81677235
0.13600001 772439.47840871 23810.44804463
0.13700001 763629.07339297 15807.12256459
0.13800001 754850.77314400 17312.50329844
0.13900001 746109.54456805 23502.45176223
0.14000001 737402.47833902 23394.09472858
0.14100001 728732.90204533 20178.61500932
0.14200001 720099.97064845 18535.37411872
0.14300001 711508.65577149 19979.16399643
0.14400001 702952.86387797 16818.14806159
0.14500001 694441.36358449 16729.09323790
0.14600001 685969.47256975 18150.75310045
0.14700001 677542.98095631 19553.89135288
0.14800001 669157.43192824 22433.50396378
0.14900001 660816.07129490 20815.70722789
0.15000001 652520.55171031 17735.50943230
0.15100001 644271.32387093 16158.32556511
0.15200001 636069.37946089 17517.35153694
0.15300001 627915.16455374 14504.84098566
0.15400001 619807.30907341 23056.83298561
0.15500001 611750.75905394 22903.94949988
0.15600001 603741.91896356 17061.74743514
0.15700001 595787.13907695 19768.21820757
0.15800001 587879.26985460 21031.38187170
0.15900001 580026.35850685 19488.88656572
0.16000001 572223.47093793 17964.95671809
0.16100001 564477.08154189 15088.47310185
0.16200001 556782.01748685 20419.98145528
0.16300001 549142.84623806 21614.26344829
0.16400001 541557.98913078 21445.69738202
0.16500001 534029.09063268 15956.78998145
0.16600001 526555.89815344 18466.31622009
0.16700001 519138.62309631 15698.75270364
0.16800001 511777.67276122 14270.92107877
0.16900001 504476.10990879 16723.38383312
0.17000001 497231.64273760 15304.79068615
0.17100001 490045.60617372 16436.13040720
0.17200001 482918.28525234 16291.24912231
0.17300001 475850.09037372 16145.59432885
0.17400001 468842.48738693 14768.53905015
0.17500001 461893.82774653 14632.79715408
0.17600001 455003.81799690 14496.42232603
0.17700001 448176.70608940 14359.58234132
0.17800001 441409.32944719 14222.20926653
0.17900001 434702.82304431 12910.67445423
0.18000001 428058.58172397 15108.32835559
0.18100001 421476.80494720 16108.84424601
0.18200001 414953.94087062 14807.63207945
0.18300001 408495.70401361 14656.82655239
0.18400001 402098.22758408 14505.69424535
0.18500001 395764.23290954 12146.00488180
0.18600001 389492.54803806 13110.31978634
0.18700001 383282.70133701 12970.28722602
0.18800001 377135.64119316 13899.33471286
0.18900001 371053.29298421 15862.52902454
0.19000001 365029.91389577 12549.72903270
0.19100001 359074.61129499 12409.61915271
0.19200001 353178.54981407 11246.97145026
0.19300001 347348.27845429 12129.40245677
0.19400001 341580.09660555 13987.70561697
0.19500001 335875.62966465 11849.69277453
0.19600001 330233.09558418 11710.06612279
0.19700001 324654.57285427 10606.46539638
0.19800001 319139.11868624 10478.93345728
0.19900001 313687.84689480 15057.01736254
0.20000001 308297.36676222 11154.19925662
0.20100001 302971.77894477 9180.04533590
0.20200001 297707.54828914 9971.71480124
0.20300001 292507.03291268 11635.93031923
0.20400001 287369.04459588 12371.23795459
0.20500001 282292.99712981 11339.71023070
0.20600001 277280.03822245 9470.50015314
0.20700001 272328.80147914 11045.65671011
0.20800001 267439.41030911 13414.76145522
0.20900001 262614.26806199 10754.05478550
0.21000001 257848.34396867 10609.17061411
0.21100001 253144.26445325 10464.98438721
0.21200001 248501.43400317 9527.54543009
0.21300001 243919.36059006 10178.75539863
0.21400001 239399.21126454 7720.62492829
0.21500001 234940.01882472 11418.08545470
0.21600001 230539.89804685 12006.51845793
0.21700001 226200.50325047 8136.43248661
0.21800001 221921.04297680 7290.10660647
0.21900001 217699.76969085 9339.32056132
0.22000001 213537.72072411 8494.53093205
0.22100001 209436.86479169 9066.52230553
0.22200001 205393.47833594 8244.49461024
0.22300001 201408.23680003 10827.70732236
0.22400001 197479.55176163 7997.92222454
0.22500001 193611.48777852 7876.11569527
0.22600001 189798.85589399 7755.18161856
0.22700001 186044.26611299 7635.25704234
0.22800001 182345.41645590 10021.70456234
0.22900001 178702.52137616 8631.33219065
0.23000001 175115.81936934 6067.76342810
0.23100001 171586.01740857 9553.90990114
0.23200001 168109.44079102 6462.96775687
0.23300001 164688.78738998 5780.57671078
0.23400001 161322.53219252 7392.60538736
0.23500001 158008.79720734 6152.86285426
0.23600001 154749.71688937 6051.48796518
0.23700001 151543.39667377 6492.11942057
0.23800001 148389.84782490 6915.70918498
0.23900001 145288.70738383 6276.47245586
0.24000001 142239.16262656 7198.72436103
0.24100001 139242.25983888 7076.29197973
0.24200001 136295.71724824 5464.77704156
0.24300001 133399.77263949 6835.40467338
0.24400001 130553.44791818 5757.40732554
0.24500001 127757.24985929 7542.78838850
0.24600001 125010.29680801 6484.28440217
0.24700001 122312.97956994 7735.07319392
0.24800001 119662.88910639 5363.29094347
0.24900001 117060.69228323 4828.75378512
0.25000001 114506.50396522 4742.28708607
0.25100001 111998.65811212 5503.61432000
0.25200001 109538.49625916 6235.47919455
0.25300001 107124.37110958 4489.58260561
0.25400001 104755.08736962 6010.32342219
0.25500001 102431.07077740 5506.69462553
0.25600001 100152.16519485 4633.03938112
0.25700001 97917.07798665  5305.14753632
0.25800001 95725.82739333  5578.42285528
0.25900001 93578.08246961  4014.49992789
0.26000001 91473.75875299  3939.31760709
0.26100001 89409.52036163  4216.55317977
0.26200001 87389.67336148  3447.52277724
0.26300001 85409.72387360  4058.67027052
0.26400001 83470.74971037  4645.14744118
0.26500001 81572.98989900  3580.23869608
0.26600001 79714.13121058  4469.57154848
0.26700001 77895.94263377  3757.70045047
0.26800001 76116.61318999  3071.30548755
0.26900001 74375.02289267  4217.06399757
0.27000001 72672.38056080  4431.19861439
0.27100001 71006.99019097  4925.04507271
0.27200001 69379.22213475  3977.51099321
0.27300001 67787.42569117  3900.48865886
0.27400001 66230.95263564  2732.02692551
0.27500001 64712.34295373  2679.09112507
0.27600001 63226.91287228  3152.49402501
0.27700001 61777.93283076  3091.36790516
0.27800001 60362.28564287  3031.39412845
0.27900001 58981.00235990  2477.20221636
0.28000001 57632.76966972  3400.90989917
0.28100001 56317.46959898  2858.67489214
0.28200001 55034.92829746  3037.10266184
0.28300001 53784.45484985  2749.46146206
0.28400001 52565.59483823  2471.89721426
0.28500001 51378.15489922  2204.12294950
0.28600001 50220.51472238  2810.59123947
0.28700001 49093.77318126  2757.10643236
0.28800001 47996.06264484  2496.75529696
0.28900001 46929.10449125  2041.41614200
0.29000001 45889.76219027  2203.39703586
0.29100001 44880.17005532  2358.90184977
0.29200001 43897.78365218  2315.16921941
0.29300001 42943.13635361  2840.68860426
0.29400001 42015.48455380  2045.10380746
0.29500001 41115.67471396  2008.08964809
0.29600001 40241.00177381  2151.28405666
0.29700001 39392.11171740  2289.07572026
0.29800001 38569.38373178  2248.78802494
0.29900001 37771.54661472  2549.57951719
0.30000001 36998.27041085  2338.66078338
0.30100001 36250.04011176  1806.33958428
0.30200001 35524.51500832  1937.50714028
0.30300001 34822.88555125  1746.71602194
0.30400001 34145.06786809  2343.20539338
0.30500001 33488.62065811  1998.26608927
0.30600001 32854.87118944  1966.85695687
0.30700001 32243.42718154  1489.64640631
0.30800001 31653.09535727  1760.54524712
0.30900001 31083.87164862  1734.48012011
0.31000001 30536.27905148  1851.87273075
0.31100001 30007.15455570  1825.63536960
0.31200001 29499.33800585  2631.48857140
0.31300001 29010.32006418  1776.30198163
0.31400001 28542.06865691  1753.19665026
0.31500001 28091.74980780  1331.54900393
0.31600002 27659.89913386  2235.88805235
0.31700002 27245.91370190  1949.44521767
0.31800002 26850.07925420  1541.73162377
0.31900002 26471.86809290  1397.71470149
0.32000002 26110.50169765  1760.10900278
0.32100002 25766.33365947  1368.96537215
0.32200002 25438.69491529  1479.00579241
0.32300002 25126.37411187  1709.59857552
0.32400002 24830.27926458  1210.47617147
0.32500002 24549.07933357  1440.54004351
0.32600002 24283.63123148  1429.33460197
0.32700002 24032.67616079  1655.37081234
0.32800002 23796.94283718  1291.81710309
0.32900002 23574.08951841  1283.60923506
0.33000002 23366.73785517  1276.17444839
0.33100002 23170.50427303  1153.89116744
0.33200002 22990.01199997  1492.85649991
0.33300002 22821.07565040  1257.66953865
0.33400002 22665.73680294  1252.84866111
0.33500002 22522.01520578  1475.64250616
0.33600002 22390.43312573  1245.02009292
0.33700002 22269.83368647  1241.98868351
0.33800002 22162.20602345  1465.03269856
0.33900002 22064.47161943  1575.40334824
0.34000002 21978.45021400  1236.61755985
0.34100002 21902.81139301  1123.61427767
0.34200002 21838.51167980  1348.30977497
0.34300002 21782.88933592  1236.39685726
0.34400002 21738.09845204  1349.93597780
0.34500002 21702.34933107  1351.62238035
0.34600002 21677.25789368  1466.79172484
0.34700002 21659.08878177  1243.66493675
0.34800002 21651.43572120  1133.45271369
0.34900002 21651.89308466  1250.39688486
0.35000002 21660.76229028  1254.48310746
0.35100002 21677.91995277  1487.97249603
0.35200002 21702.15783584  1149.12931183
0.35300002 21734.47314101  1500.33075198
0.35400002 21774.64225805  1275.44973068
0.35500002 21821.74496646  1281.80936004
0.35600002 21875.20257105  1288.55886848
0.35700002 21935.78757322  1649.13258787
0.35800002 22003.35986782  1540.34528051
0.35900002 22076.80836644  1311.36247908
0.36000002 22157.12306394  1439.76992489
0.36100002 22242.39765318  1328.53847475
0.36200002 22334.60817148  1459.34336705
0.36300002 22430.59518249  1592.12372147
0.36400002 22532.67412323  1233.66396668
0.36500002 22639.37442386  1367.19188622
0.36600002 22751.63358961  1628.22073497
0.36700002 22868.05359935  1893.47492772
0.36800002 22990.50496217  1272.52450993
0.36900002 23116.32537292  1539.54734276
0.37000002 23245.37600706  2069.76837771
0.37100002 23378.87956595  1565.44984989
0.37200002 23516.69919292  1710.48719682
0.37300002 23657.53621491  1459.90662898
0.37400002 23802.87237120  1740.58512460
0.37500002 23950.42611033  1891.12573526
0.37600002 24102.22383790  1635.57698712
0.37700002 24255.66895700  2062.94474252
0.37800002 24412.95027243  1387.87628873
0.37900002 24572.66233630  1540.70600147
0.38000002 24734.98930093  1979.04658772
0.38100002 24899.24747041  1426.72694764
0.38200002 25065.92968407  1440.03772857
0.38300002 25234.45675858  1598.85525597
0.38400002 25405.52081020  2054.03645481
0.38500002 25577.39185788  1629.02416460
0.38600002 25752.03559022  1644.39631052
0.38700002 25927.17684522  2565.23499859
0.38800002 26103.71592409  1675.46708596
0.38900002 26281.65718642  1844.97242189
0.39000002 26461.40929058  2017.55024694
0.39100002 26641.22567827  1723.15455851
0.39200002 26822.44114251  1897.41957631
0.39300002 27004.07200764  1755.53480439
0.39400002 27187.19398216  1933.00958371
0.39500002 27369.91649383  1950.92774011
0.39600002 27553.04778465  2133.01929531
0.39700002 27736.14836695  1821.43294955
0.39800002 27920.52392007  2506.56515368
0.39900002 28104.08320184  2360.74310080
0.40000002 28287.60660246  2041.79954130
0.40100002 28470.77690381  2060.14551437
0.40200002 28654.96149728  1732.19250458
0.40300002 28837.60697311  2446.58269152
0.40400002 29019.89361956  2291.84620719
0.40500002 29201.78700017  2311.90558634
0.40600002 29383.29833462  2152.62053799
0.40700002 29563.85084816  1990.23853340
0.40800002 29743.95615062  2007.27097593
0.40900002 29922.33000059  2208.26805868
0.41000002 30100.64796245  2783.55755222
0.41100002 30277.54957970  1871.15265268
0.41200002 30452.68607859  2075.19839115
0.41300002 30627.23823258  1901.95158436
0.41400002 30800.23003170  1917.31441032
0.41500002 30972.39160634  2899.01599172
0.41600002 31141.86555245  3311.47043043
0.41700002 31310.67255431  2552.13304083
0.41800002 31478.78862020  2176.28615438
0.41900002 31643.23190188  2591.58081556
0.42000002 31806.75801976  2410.31623695
0.42100002 31969.13712604  2428.37577116
0.42200002 32129.43752817  2446.33548931
0.42300002 32287.33942364  2258.82237311
0.42400002 32443.36984009  2895.57089544
0.42500002 32597.76050378  2499.59639388
0.42600002 32748.79980140  3146.34109001
0.42700002 32899.04461493  2323.33064080
0.42800002 33046.53757351  3189.81719044
0.42900002 33192.40360828  2783.18317444
0.43000002 33335.91644081  2370.68381003
0.43100002 33475.76676214  3036.92170457
0.43200002 33614.20700846  3493.18855785
0.43300002 33749.90540219  3295.67841870
0.43400002 33883.49194520  2653.07754503
0.43500002 34014.06829995  3336.78025835
0.43600002 34143.17630640  2685.70237553
0.43700002 34268.61361066  2476.59282301
0.43800002 34390.85748131  2717.56568696
0.43900002 34511.58495752  2277.76471514
0.44000002 34628.77802214  2290.69377472
0.44100002 34743.97980933  2533.87856758
0.44200002 34856.18247611  3474.29015295
0.44300002 34965.83294229  2328.72458432
0.44400002 35072.14613167  2575.17245176
0.44500002 35174.82305696  3294.47408364
0.44600002 35275.46215856  3311.30778975
0.44700002 35373.52227399  4041.07137609
0.44800002 35467.54950852  3821.98331617
0.44900002 35560.01230228  2880.36113299
0.45000002 35649.18377754  2652.83413653
0.45100002 35734.15914249  3149.60893609
0.45200002 35817.07404023  2920.52435565
0.45300002 35896.39436735  4155.72577286
0.45400002 35973.29569797  2700.69530252
0.45500002 36047.04595263  3205.30347802
0.45600002 36117.33280239  3218.59626523
0.45700002 36184.63292476  3728.82659962
0.45800002 36248.25657963  3244.40035893
0.45900002 36309.09935533  3507.45916396
0.46000002 36367.59101997  3520.74665351
0.46100002 36421.65558591  2776.42293690
0.46200002 36473.48940558  3546.31754298
0.46300002 36521.69037748  3558.67367905
0.46400002 36566.35984688  2550.50372020
0.46500002 36608.79686475  3070.74602655
0.46600002 36647.16015855  3593.98716709
0.46700002 36682.51492702  4377.69153888
0.46800002 36715.32782593  3616.09280896
0.46900002 36744.20004992  3367.60609419
0.47000002 36769.63538171  2857.55234913
0.47100002 36792.35291852  2865.38858110
0.47200002 36811.67424344  3395.32493477
0.47300002 36828.41928845  4975.15139749
0.47400002 36840.50558722  3412.35199175
0.47500002 36850.67426156  2894.25209368
0.47600002 36857.93605515  2637.18544974
0.47700002 36860.83008541  2642.92164239
