# SAXS profile: number of points = 501, q_min = 0, q_max = 0.5, delta_q = 0.001
#    q    intensity    error
0.00000000 1682732.95097189 328.13292544
0.00100000 1682664.04946554 706.71891756
0.00200000 1682457.28649175 1135.65870434
0.00300000 1682112.83864675 1917.60870437
0.00400000 1681630.55763846 1387.34526277
0.00500000 1681010.93210467 1815.49187853
0.00600000 1680253.66064832 1940.69305706
0.00700000 1679359.41234950 2015.23137857
0.00800000 1678327.64888156 2718.89090598
0.00900000 1677159.69515989 2767.31361531
0.01000000 1675854.72399444 2765.16041399
0.01100000 1674414.00044680 3918.12893164
0.01200000 1672836.94902485 5871.65794851
0.01300000 1671124.98506266 3509.36262341
0.01400000 1669277.34875086 5258.22388167
0.01500000 1667295.81097042 5201.96316187
0.01600000 1665179.19518814 4246.20713755
0.01700000 1662929.70842981 6285.87457984
0.01800000 1660546.82886388 6152.32627778
0.01900000 1658031.27877904 6466.32227902
0.02000000 1655383.74562158 6778.79674496
0.02100000 1652605.79994664 6544.31926450
0.02200000 1649695.73313518 6829.74064547
0.02300000 1646656.33117152 7113.55567446
0.02400000 1643487.55666274 7395.69434221
0.02500000 1640190.67387145 9595.11588036
0.02600000 1636765.86052355 6628.90203831
0.02700000 1633214.28339224 9603.30042619
0.02800000 1629535.64531644 12050.41664974
0.02900000 1625732.61138598 10973.69563070
0.03000000 1621805.47410126 7541.39580121
0.03100000 1617754.51209830 10094.78861999
0.03200000 1613580.56541869 11182.11383338
0.03300000 1609286.69081892 9028.09875169
0.03400000 1604870.61193989 10110.68532173
0.03500000 1600335.94378320 10370.17739459
0.03600000 1595682.15498824 9741.64000640
0.03700000 1590911.23540512 10881.83335343
0.03800000 1586024.44665328 11133.89213078
0.03900000 1581023.16669887 10434.75338345
0.04000000 1575906.07571867 11630.18737773
0.04100000 1570677.27853367 10884.79404493
0.04200000 1565337.05556207 11106.06692446
0.04300000 1559885.52197509 12354.29390750
0.04400000 1554326.12794577 11540.87203598
0.04500000 1548658.66486169 12822.89434087
0.04600000 1542883.59063666 11965.06280161
0.04700000 1537003.93642826 13279.71462835
0.04800000 1531019.95229110 12378.29689021
0.04900000 1524934.45103571 11437.00891513
0.05000000 1518746.68224346 13942.09519222
0.05100000 1512460.28042464 11797.19073687
0.05200000 1506073.25176988 13170.61120049
0.05300000 1499591.10690207 19434.70165146
0.05400000 1493012.28726388 16012.55752763
0.05500000 1486340.66614655 12485.26217806
0.05600000 1479574.61580662 12650.36355547
0.05700000 1472719.41061456 14093.92541746
0.05800000 1465773.39056595 14269.30462343
0.05900000 1458738.55850469 15754.37716767
0.06000000 1451618.02770904 18595.22780370
0.06100000 1444412.96252511 16119.64941507
0.06200000 1437123.83033043 16296.98499773
0.06300000 1429753.89333004 20588.45702657
0.06400000 1422301.26229551 13867.43795592
0.06500000 1414772.28828819 23810.61872570
0.06600000 1407164.66682967 18384.60723232
0.06700000 1399481.48282489 17129.65415143
0.06800000 1391725.69276638 17285.23391326
0.06900000 1383897.76747091 17437.11268652
0.07000000 1375997.66918794 20516.12620833
0.07100000 1368029.97811190 20684.61423787
0.07200000 1359993.79987768 16381.12608693
0.07300000 1351893.80726062 21008.43074919
0.07400000 1343729.27838271 16628.65059927
0.07500000 1335502.46628725 18269.67459515
0.07600000 1327213.87520009 19928.11727037
0.07700000 1318868.44280409 16973.83765477
0.07800000 1310464.88951474 21740.61353660
0.07900000 1302005.28165053 20311.28334642
0.08000000 1293493.31912793 17287.53902112
0.08100000 1284929.17911703 17385.09260913
0.08200000 1276313.85012155 22246.15145152
0.08300000 1267650.45364425 22361.35505175
0.08400000 1258939.21376088 22472.06602044
0.08500000 1250184.66270055 20965.59777772
0.08600000 1241385.63638792 24300.12497322
0.08700000 1232545.34401793 17896.55923552
0.08800000 1223663.14104725 17969.49407019
0.08900000 1214744.96426483 19678.86934540
0.09000000 1205789.33919316 16459.02525316
0.09100000 1196798.83849873 24773.73712082
0.09200000 1187774.61849222 19883.34804781
0.09300000 1178720.09838623 21605.94041873
0.09400000 1169633.63553981 16667.28008976
0.09500000 1160519.37746636 23396.07174940
0.09600000 1151378.44784444 21778.32436473
0.09700000 1142214.16674826 16790.54904057
0.09800000 1133026.87864652 21873.08492069
0.09900000 1123818.53634254 23600.19037293
0.10000000 1114588.85041429 21951.82844124
0.10100000 1105341.03260171 20294.06231303
0.10200000 1096077.24953475 20321.27316221
0.10300000 1086797.81902256 16954.04677428
0.10400000 1077505.81300200 18667.78908849
0.10500000 1068203.93808431 16984.44341465
0.10600001 1058888.64636199 18694.67993117
0.10700001 1049567.04942944 18703.28570097
0.10800001 1040237.22172770 27212.60700107
0.10900001 1030902.69425375 20411.87430692
0.11000001 1021564.29521457 23812.66484230
0.11100001 1012223.48413359 28909.10406770
0.11200001 1002882.87659312 18698.75211436
0.11300001 993541.36609643 27183.29305621
0.11400001 984203.58403869 20373.01514885
0.11500001 974869.64877280 22051.55249360
0.11600001 965540.61364149 18639.76242412
0.11700001 956219.30918737 27080.13211152
0.11800001 946904.50714574 18592.47087348
0.11900001 937599.81716333 23627.51650541
0.12000001 928305.81205178 18533.62641064
0.12100001 919025.92880452 18499.99281833
0.12200001 909758.06527917 18463.54080468
0.12300001 900506.72084384 20099.31095620
0.12400001 891270.89142221 18382.46300172
0.12500001 882053.00597689 26673.28415760
0.12600001 872855.99664058 16627.90751957
0.12700001 863678.87521110 16582.63518553
0.12800001 854522.64246638 18188.51530211
0.12900001 845389.87212248 21430.63426838
0.13000001 836281.78497554 27935.99434387
0.13100001 827197.98132547 19654.22496275
0.13200001 818142.20312211 24482.90658256
0.13300001 809115.36859485 22768.50754563
0.13400001 800116.11968789 27543.99871883
0.13500001 791148.06509922 20981.24767566
0.13600001 782210.60515776 16074.42869391
0.13700001 773306.78450944 24011.17679122
0.13800001 764434.91047887 22313.85608910
0.13900001 755600.40227500 22214.65287449
0.14000001 746799.96445672 28430.67598767
0.14100001 738037.22269545 17292.21294331
0.14200001 729311.13534633 26594.33180473
0.14300001 720626.91736898 17122.09636430
0.14400001 711978.06808074 18582.62845345
0.14500001 703373.77255873 16944.27498024
0.14600001 694809.30507386 19916.70966950
0.14700001 686290.25074283 16759.20871378
0.14800001 677812.50907187 19693.84338021
0.14900001 669378.93050321 16567.12931160
0.15000001 660991.46074470 19462.89447994
0.15100001 652650.30093129 14880.42756337
0.15200001 644356.88419419 17745.58942807
0.15300001 636111.31422870 26449.50969376
0.15400001 627912.31632072 21898.44306509
0.15500001 619764.78794707 15952.74639462
0.15600001 611665.41074298 23047.55376452
0.15700001 603620.20659516 15736.37952864
0.15800001 595622.07056548 19887.82187486
0.15900001 587679.29869041 16925.16460116
0.16000001 579786.94866333 18202.41211248
0.16100001 571951.31988282 19457.78482090
0.16200001 564167.23796929 16552.66754341
0.16300001 556439.39163916 16426.09161663
0.16400001 548766.12021829 20372.94317490
0.16500001 541149.41102262 22906.85565005
0.16600001 533588.27091642 18712.94154453
0.16700001 526083.87107233 13257.31417696
0.16800001 518635.89356784 19721.13078408
0.16900001 511247.71482698 15644.18081239
0.17000001 503916.92113762 16803.11052877
0.17100001 496645.20030401 16657.48080478
0.17200001 489432.26157518 16510.99812394
0.17300001 482279.04743497 12587.48373249
0.17400001 475186.84177915 14968.38622294
0.17500001 468153.94293283 16067.04408026
0.17600001 461180.10574796 17142.06534026
0.17700001 454269.56854857 13341.89785842
0.17800001 447419.25277463 19221.13200705
0.17900001 440630.30829297 14276.42266302
0.18000001 433903.98240530 12958.54304663
0.18100001 427240.64376851 18661.87220133
0.18200001 420636.54726723 18474.35802867
0.18300001 414097.78671218 13714.91934379
0.18400001 407620.22665118 15836.04655350
0.18500001 401206.58359410 17909.86273774
0.18600001 394855.56220893 18828.68837347
0.18700001 388567.05912264 10957.59158495
0.18800001 382341.64192192 14091.20187879
0.18900001 376181.76955387 18226.00759602
0.19000001 370081.22781497 11663.11044566
0.19100001 364049.26312513 13630.00505542
0.19200001 358077.24853735 13476.23788547
0.19300001 352171.45827021 16397.10387187
0.19400001 346328.13973168 13169.12813559
0.19500001 340549.20469897 13015.79121866
0.19600001 334832.83654905 11873.17294511
0.19700001 329180.89409826 11732.00762009
0.19800001 323592.73113174 10625.16782884
0.19900001 318069.18764910 9542.07608043
0.20000001 312606.94918973 11310.11995621
0.20100001 307210.31297630 11170.16750775
0.20200001 301875.65790173 9192.11421756
0.20300001 296605.23547568 12706.56888835
0.20400001 291397.92178533 9856.53517027
0.20500001 286253.36816407 10614.27539323
0.20600001 281172.06845384 12222.55039342
0.20700001 276153.48253586 10339.18687487
0.20800001 271197.09490093 13603.24692326
0.20900001 266305.59172702 9227.48918954
0.21000001 261474.06071473 8275.65441283
0.21100001 256704.94626434 9795.86121253
0.21200001 251997.58656083 8856.45559836
0.21300001 247351.69583390 8733.98879280
0.21400001 242768.44142708 10178.06738801
0.21500001 238246.70531816 10034.95170243
0.21600001 233784.48906694 12175.49676625
0.21700001 229383.81926440 10501.19174242
0.21800001 225043.59833040 9610.48732109
0.21900001 220762.29130016 9470.70274457
0.22000001 216540.82567933 7896.16158175
0.22100001 212381.32296088 8486.75806680
0.22200001 208279.80351582 6966.95975703
0.22300001 204237.11464092 9607.31432699
0.22400001 200251.47147434 8786.03372640
0.22500001 196327.20988811 7986.59127591
0.22600001 192459.13626007 10485.17423927
0.22700001 188649.69062016 6451.81972431
0.22800001 184896.57726818 7621.43727541
0.22900001 181200.13133150 6876.54530923
0.23000001 177560.47353456 8613.45897851
0.23100001 173978.45148209 6659.89543770
0.23200001 170450.12333001 7744.40171976
0.23300001 166978.53170477 7033.13608803
0.23400001 163561.98410583 8648.34031862
0.23500001 160198.63861566 7372.34169778
0.23600001 156890.46811070 6135.20204565
0.23700001 153635.77316403 5484.79736138
0.23800001 150434.63164206 6471.69815934
0.23900001 147286.43236464 5832.54299752
0.24000001 144190.51076726 5212.48721079
0.24100001 141147.83956774 6148.40018240
0.24200001 138156.17233916 5539.37199196
0.24300001 135215.75524655 5443.78656373
0.24400001 132325.68595545 5349.26610779
0.24500001 129486.32730864 5733.65484445
0.24600001 126696.79035679 5163.52793525
0.24700001 123957.75213025 4611.22859738
0.24800001 121266.47460661 4529.30304082
0.24900001 118623.67483289 8451.93723168
0.25000001 116029.57745754 4368.51379794
0.25100001 113482.52430572 6005.49547037
0.25200001 110983.65155267 5054.19573082
0.25300001 108531.53599939 6202.57757581
0.25400001 106124.80196178 4059.27386709
0.25500001 103764.15180863 4781.45234156
0.25600001 101449.13405603 6648.46931492
0.25700001 99178.64174553  4222.03497887
0.25800001 96952.51763781  6026.56878151
0.25900001 94770.48625001  6283.28353567
0.26000001 92632.48143980  4351.87418395
0.26100001 90535.23778869  3913.83851479
0.26200001 88483.04331636  4537.85309120
0.26300001 86471.43120338  4451.54948899
0.26400001 84501.20587605  3358.92309251
0.26500001 82572.88697744  4283.05585019
0.26600001 80684.11494952  3554.53885230
0.26700001 78836.55558219  3486.15265281
0.26800001 77028.42931093  3729.71672373
0.26900001 75258.72797255  3352.77648984
0.27000001 73528.42412694  4184.50281508
0.27100001 71836.12789363  3517.09698811
0.27200001 70181.97125275  3736.13741645
0.27300001 68564.33805350  3945.19219830
0.27400001 66982.52340020  3039.33214312
0.27500001 65439.28812470  3792.86131921
0.27600001 63929.77055238  2921.91030138
0.27700001 62457.16270181  3906.69571189
0.27800001 61018.55850550  4085.80287090
0.27900001 59614.68176474  2754.19842788
0.28000001 58244.60189472  3191.51311187
0.28100001 56907.85725589  3851.52396137
0.28200001 55604.51961728  2596.45316642
0.28300001 54333.75911180  2546.08007249
0.28400001 53095.14153585  2269.81740809
0.28500001 51888.44772268  2671.21741520
0.28600001 50712.10629152  3493.05004669
0.28700001 49567.13235432  2355.43024097
0.28800001 48451.76428486  2520.46089740
0.28900001 47367.71555410  2060.49572413
0.29000001 46311.59686763  2021.50129896
0.29100001 45285.83396971  2380.22354612
0.29200001 44287.76913675  2141.09230027
0.29300001 43317.97260124  2865.48402321
0.29400001 42375.54088300  2250.14132740
0.29500001 41461.47707820  2577.24553718
0.29600001 40573.02824604  2169.03419271
0.29700001 39710.86615747  1775.07580127
0.29800001 38875.25030164  2266.62157614
0.29900001 38065.01816411  1712.92589847
0.30000001 37279.78414709  2019.81880071
0.30100001 36520.12168780  2316.10622709
0.30200001 35783.56876045  1951.63593259
0.30300001 35071.29314970  1759.17614767
0.30400001 34383.29175115  1573.03567209
0.30500001 33717.02754283  2011.89512873
0.30600001 33073.88264780  1675.35760484
0.30700001 32453.47907195  2249.02620616
0.30800001 31854.67696376  2067.05008604
0.30900001 31277.32517765  1599.83525858
0.31000001 30721.93593447  1576.49621712
0.31100001 30185.46709240  1695.21591217
0.31200001 29670.61225593  1671.64237364
0.31300001 29175.09895222  1511.56194828
0.31400001 28700.62801873  1356.10473809
0.31500001 28244.38665560  1740.41918812
0.31600002 27807.09177198  1586.67273163
0.31700002 27387.94116603  1306.40485548
0.31800002 26987.28704951  1291.34174646
0.31900002 26604.61789210  1404.72389122
0.32000002 26239.22307760  1516.10238121
0.32100002 25891.23138947  1375.60118886
0.32200002 25560.15390354  1609.90636984
0.32300002 25244.64324977  1226.88972003
0.32400002 24945.75023527  1580.93699602
0.32500002 24662.03538128  1929.55773960
0.32600002 24394.31580180  1316.19537141
0.32700002 24141.45890495  1544.08778468
0.32800002 23904.08910237  1415.60022368
0.32900002 23679.94260962  1523.80437909
0.33000002 23471.52422701  1398.43347967
0.33100002 23274.47233528  1390.88253262
0.33200002 23093.47252581  1960.98231239
0.33300002 22924.25751904  1722.75803414
0.33400002 22768.88063397  1258.54993664
0.33500002 22625.42959289  1140.32170548
0.33600002 22494.28700109  1137.08626175
0.33700002 22374.41829787  1134.38306142
0.33800002 22267.72522517  1698.47082198
0.33900002 22171.21872059  1583.02509162
0.34000002 22086.53095862  1468.64394565
0.34100002 22012.54272454  1355.09219430
0.34200002 21950.10918488  1693.99975657
0.34300002 21896.45491123  1807.77140309
0.34400002 21853.95730195  1244.03657833
0.34500002 21820.56171092  1698.73080965
0.34600002 21798.07166452  1588.42555742
0.34700002 21782.66333777  1478.17160411
0.34800002 21778.04682179  1254.08888563
0.34900002 21781.60413621  1372.24112557
0.35000002 21793.79579870  1721.16510472
0.35100002 21814.43260585  1266.98230576
0.35200002 21842.20026084  1619.16238202
0.35300002 21878.32605523  1277.91308541
0.35400002 21922.40514747  1400.84175527
0.35500002 21973.46533246  1408.05972520
0.35600002 22031.16983854  1297.74612081
0.35700002 22096.02255343  1661.17905425
0.35800002 22168.08219877  1790.62692442
0.35900002 22246.07806548  1201.28827244
0.36000002 22331.00123232  1571.99090621
0.36100002 22421.04697356  1826.19436250
0.36200002 22518.10520704  1348.72197526
0.36300002 22619.07578120  1605.50207500
0.36400002 22726.18840627  1368.68476160
0.36500002 22838.07690199  1504.57257757
0.36600002 22955.54503616  1263.70281410
0.36700002 23077.27355730  1656.02522892
0.36800002 23205.14887354  1541.28606119
0.36900002 23336.32971868  1554.19963288
0.37000002 23470.91263779  1436.77198518
0.37100002 23609.97369668  1844.41123255
0.37200002 23753.44721187  1993.50815169
0.37300002 23899.90272740  1608.94152782
0.37400002 24050.98666911  1352.86806422
0.37500002 24204.28162484  1501.63370314
0.37600002 24361.90761566  1515.43253502
0.37700002 24521.14600045  1946.48866172
0.37800002 24684.25716934  1543.63009521
0.37900002 24849.86331905  1558.08650391
0.38000002 25018.08481260  1429.78361477
0.38100002 25188.23331177  1876.27158828
0.38200002 25360.88946181  2185.47475291
0.38300002 25535.33429756  1470.83532522
0.38400002 25712.29945773  1781.86243683
0.38500002 25890.16576318  1499.04066870
0.38600002 26070.71490047  1816.08608600
0.38700002 26251.79947423  1680.64028196
0.38800002 26434.22831893  1696.68102503
0.38900002 26618.05482149  1712.87190891
0.39000002 26803.69962205  2515.25929170
0.39100002 26989.29281673  1745.66754209
0.39200002 27176.44952903  1762.25695320
0.39300002 27363.83320999  1940.64314319
0.39400002 27552.73122612  1632.49940249
0.39500002 27741.14412549  1647.82403912
0.39600002 27929.99605559  2494.84701587
0.39700002 28118.71614819  2182.29366365
0.39800002 28308.74740157  1694.27861226
0.39900002 28497.86503569  1880.85918147
0.40000002 28686.78160006  2415.71399299
0.40100002 28875.49778451  2089.43111868
0.40200002 29065.03252570  2811.17007908
0.40300002 29253.01476910  2304.55261270
0.40400002 29440.62255707  1967.36969559
0.40500002 29627.73546024  2165.19501002
0.40600002 29814.36680148  3458.31764099
0.40700002 29999.96748549  2203.19771652
0.40800002 30185.01671640  2037.03594962
0.40900002 30368.31365333  2614.71192944
0.41000002 30551.53760006  2448.55309697
0.41100002 30733.13502637  2279.16940155
0.41200002 30912.86908008  2298.06279630
0.41300002 31092.09616873  2896.22889535
0.41400002 31269.55339858  2141.18277042
0.41500002 31446.10883447  2550.90846952
0.41600002 31619.96786749  2571.17780898
0.41700002 31792.93068065  2790.78358739
0.41800002 31965.18053089  2611.71519903
0.41900002 32133.66391432  2429.30510703
0.42000002 32301.12941010  2039.81641890
0.42100002 32467.35228465  2671.73854610
0.42200002 32631.38624888  3105.69233340
0.42300002 32792.92538147  2294.19316840
0.42400002 32952.48543449  2520.86525519
0.42500002 33110.27594621  2327.32140654
0.42600002 33264.58073563  2556.71579649
0.42700002 33418.00753838  2145.43618563
0.42800002 33568.65398050  2808.18588181
0.42900002 33717.43493935  2609.72958797
0.43000002 33863.80515140  2408.22461746
0.43100002 34006.42892592  3085.06337835
0.43200002 34147.44696704  2439.66446417
0.43300002 34285.64197922  3124.79355806
0.43400002 34421.70075759  3144.42251321
0.43500002 34554.46517734  3841.76562047
0.43600002 34685.76417628  2273.65194950
0.43700002 34813.27950466  3202.12560058
0.43800002 34937.38274198  2300.62676258
0.43900002 35059.93956163  2545.35173280
0.44000002 35178.80723191  2327.07820867
0.44100002 35295.53488858  2574.10348141
0.44200002 35409.16973081  2588.23338413
0.44300002 35520.06846351  3311.89134049
0.44400002 35627.59822682  2853.77075321
0.44500002 35731.30294161  2868.50913609
0.44600002 35832.89761937  2402.59589924
0.44700002 35931.77853266  3621.92344774
0.44800002 36026.39746528  2911.65358113
0.44900002 36119.44667261  3169.48159573
0.45000002 36209.09516089  2939.45448447
0.45100002 36294.33533623  2706.83165766
0.45200002 36377.41877489  2719.03029519
0.45300002 36456.74152123  2979.24505831
0.45400002 36533.59485371  3740.12695040
0.45500002 36607.14063674  3755.89280733
0.45600002 36677.17958999  2765.64285806
0.45700002 36743.94383435  3786.46359158
0.45800002 36807.03197159  3294.41355275
0.45900002 36867.17487426  3052.60222426
0.46000002 36924.76879738  2808.68267169
0.46100002 36977.88180363  3331.33752958
0.46200002 37028.67470859  3343.13405451
0.46300002 37075.71772823  3612.65810666
0.46400002 37119.04405079  3365.76947883
0.46500002 37160.11646006  2597.49226367
0.46600002 37196.87807611  2605.64143273
0.46700002 37230.55473121  2874.94357260
0.46800002 37261.59469768  3145.62397347
0.46900002 37288.55313979  3943.26468143
0.47000002 37311.91924325  6326.60932675
0.47100002 37332.45393313  2643.13786374
0.47200002 37349.50731393  2914.94243647
0.47300002 37363.98182909  2656.57923396
0.47400002 37373.49608056  3461.72023854
0.47500002 37381.08908306  2669.00988704
0.47600002 37385.66678209  3477.42796056
0.47700002 37385.67161927  3216.66333859
