# SAXS profile: number of points = 501, q_min = 0, q_max = 0.5, delta_q = 0.001
#    q    intensity    error
0.00000000 1664650.74656091 249.69761198
0.00100000 1664582.44106894 549.31221860
0.00200000 1664377.46263873 823.86687009
0.00300000 1664035.99847363 1397.79028851
0.00400000 1663557.88756621 1247.66846308
0.00500000 1662943.61055496 1945.64410136
0.00600000 1662192.89112035 2268.89338875
0.00700000 1661306.37959514 2990.35160755
0.00800000 1660283.52541594 3137.93599552
0.00900000 1659125.68056830 3733.03294086
0.01000000 1657831.98695611 3829.59205523
0.01100000 1656403.73851963 4174.13760281
0.01200000 1654840.35543549 3549.63271804
0.01300000 1653143.19920751 5554.56139432
0.01400000 1651311.55695643 4458.54140143
0.01500000 1649347.15455715 6333.49335552
0.01600000 1647248.91602606 7560.87286256
0.01700000 1645018.91143064 6662.32689016
0.01800000 1642656.68693062 5617.88612209
0.01900000 1640162.96493237 6888.68476355
0.02000000 1637538.41113031 5674.07085124
0.02100000 1634784.55413683 7552.70498254
0.02200000 1631899.76253771 6193.05988020
0.02300000 1628886.72693781 7036.79098067
0.02400000 1625745.51949398 6706.20057370
0.02500000 1622477.27917960 8858.72634890
0.02600000 1619082.31736466 7868.74042229
0.02700000 1615561.60128183 7463.89493978
0.02800000 1611915.00210935 7011.83058074
0.02900000 1608145.10549880 11578.64529122
0.03000000 1604252.22367860 10443.68245619
0.03100000 1600236.59118507 7681.13599112
0.03200000 1596099.06385899 8690.75980299
0.03300000 1591842.64825821 10553.91724449
0.03400000 1587465.19366801 9167.61191643
0.03500000 1582970.18041643 10257.64724278
0.03600000 1578357.15467726 10511.85913594
0.03700000 1573628.02076264 10763.61615981
0.03800000 1568784.05548705 11930.60329412
0.03900000 1563826.56495774 10321.25580670
0.04000000 1558754.40217105 12462.24202285
0.04100000 1553571.52544615 14681.25159619
0.04200000 1548278.22711124 11983.67403380
0.04300000 1542874.63258625 12219.56765729
0.04400000 1537364.19788078 14528.09234469
0.04500000 1531746.71801236 12682.86341445
0.04600000 1526022.58646104 15061.84362855
0.04700000 1520194.82272190 14229.02420244
0.04800000 1514263.75246350 12242.82300830
0.04900000 1508231.98956034 12442.91449306
0.05000000 1502099.00944289 14938.37534453
0.05100000 1495868.26768009 14001.32763772
0.05200000 1489537.85889757 15394.37448910
0.05300000 1483113.42220128 13214.54120785
0.05400000 1476592.98089623 15836.46045863
0.05500000 1469980.70068722 13582.62230797
0.05600000 1463274.94849933 13762.10153283
0.05700000 1456480.85000433 17739.93758113
0.05800000 1449596.79113379 17960.50508077
0.05900000 1442624.89518795 18177.07452834
0.06000000 1435568.08087836 17076.08311982
0.06100000 1428427.53944298 13284.37673762
0.06200000 1421203.72612780 14773.41342366
0.06300000 1413900.01354097 13573.44076462
0.06400000 1406514.32077753 27427.03053783
0.06500000 1399053.14976266 22161.00292888
0.06600000 1391514.11086792 20977.07620282
0.06700000 1383900.20425999 15527.36101846
0.06800000 1376214.42317190 21365.72991985
0.06900000 1368457.28633539 24426.96370473
0.07000000 1360628.71155526 20286.97503930
0.07100000 1352733.35235343 17531.42506763
0.07200000 1344770.12132526 16197.75687018
0.07300000 1336743.78022739 26708.14198037
0.07400000 1328653.61595930 14947.35388004
0.07500000 1320501.88984092 18064.46669975
0.07600000 1312288.96674767 21219.71358710
0.07700000 1304019.97990577 22885.55172042
0.07800000 1295693.38774992 16889.36410137
0.07900000 1287311.30000444 18537.28358953
0.08000000 1278877.59701934 24861.38165233
0.08100000 1270392.12229922 18750.98860490
0.08200000 1261856.29851036 17281.12281902
0.08300000 1253272.81371949 17370.36201338
0.08400000 1244642.10288111 19043.02506793
0.08500000 1235968.52667104 28699.19053659
0.08600000 1227251.10892078 17617.19049571
0.08700000 1218493.11942408 17692.52092484
0.08800000 1209693.43926241 17764.34898985
0.08900000 1200858.25078497 25938.53943528
0.09000000 1191986.31756294 16270.61399905
0.09100000 1183079.94518724 27755.05681806
0.09200000 1174140.29363743 19655.10943902
0.09300000 1165170.71423271 18071.79862698
0.09400000 1156169.55986392 19770.50040284
0.09500000 1147141.14991592 19822.60000226
0.09600000 1138086.53875392 19870.99190073
0.09700000 1129008.83011066 18256.07364116
0.09800000 1119908.46813525 16630.64153374
0.09900000 1110787.48122463 24992.71950277
0.10000000 1101645.61443985 18358.92502801
0.10100000 1092485.81655570 21729.54391327
0.10200000 1083310.24983118 23432.00180600
0.10300000 1074119.46542437 20107.51733862
0.10400000 1064916.52560507 18449.67967407
0.10500000 1055703.91353856 18464.26231652
0.10600001 1046477.87578979 18475.56776641
0.10700001 1037246.29082417 23524.74698291
0.10800001 1028006.49857760 25211.86056413
0.10900001 1018762.26609113 18490.53599982
0.11000001 1009514.21842316 18489.25378070
0.11100001 1000264.03446581 20165.32388408
0.11200001 991014.45241469 23516.77406290
0.11300001 981764.00923844 20145.79841805
0.11400001 972517.42311384 18453.51897246
0.11500001 963274.80172863 18437.08057325
0.11600001 954037.24845580 18417.68994876
0.11700001 944807.69882298 23412.33587944
0.11800001 935584.45123882 28390.31150998
0.11900001 926371.61617921 16674.68987663
0.12000001 917169.69259657 18311.29377524
0.12100001 907981.67020232 18277.67188220
0.12200001 898805.92085472 24874.45503152
0.12300001 889646.69325261 19856.91512894
0.12400001 880502.96624197 24764.14709238
0.12500001 871377.31731693 18115.93528065
0.12600001 862272.41864377 24639.43552384
0.12700001 853187.69643616 21295.56590663
0.12800001 844123.52283177 16333.79093659
0.12900001 835083.11090358 19540.94571615
0.13000001 826067.05202875 19478.66200496
0.13100001 817075.44039326 17795.90393062
0.13200001 808111.60348632 16121.82724954
0.13300001 799176.82185145 17669.80036414
0.13400001 790269.56395454 16002.95942455
0.13500001 781393.38496313 17534.46838529
0.13600001 772547.65461238 17463.44055593
0.13700001 763735.26447391 18971.18486409
0.13800001 754954.97413345 22037.13673413
0.13900001 746211.72029291 23505.67029771
0.14000001 737502.73836387 20277.63874762
0.14100001 728830.86358232 18628.91775176
0.14200001 720195.62256422 18537.83619915
0.14300001 711602.00063801 16907.66433265
0.14400001 703043.72283914 18349.44203164
0.14500001 694529.78195787 24336.32470780
0.14600001 686055.20273239 18153.02152066
0.14700001 677626.22744410 16547.63325484
0.14800001 669237.97228266 16453.21632481
0.14900001 660893.83403845 17844.13436094
0.15000001 652595.41623687 23650.05900030
0.15100001 644343.25359078 16160.12956257
0.15200001 636138.45096890 16059.31595250
0.15300001 627981.21967464 18858.27691673
0.15400001 619870.36852772 15853.18542322
0.15500001 611810.55862880 21474.55162132
0.15600001 603798.39572411 15641.39817943
0.15700001 595840.48746613 22594.27235109
0.15800001 587929.24625779 18228.74714060
0.15900001 580072.85663918 20882.62382468
0.16000001 572266.60772258 20730.35884327
0.16100001 564516.65287033 19204.85743720
0.16200001 556818.10450554 17698.46428718
0.16300001 549175.17387899 14860.68090671
0.16400001 541586.61115467 16085.12311067
0.16500001 534054.07999894 13297.94721979
0.16600001 526577.01970969 14509.83046315
0.16700001 519156.01056551 14391.00529234
0.16800001 511791.13075966 14271.29635507
0.16900001 504485.61362185 16723.69888122
0.17000001 497237.24250610 12754.13587253
0.17100001 490047.21587093 15171.86251980
0.17200001 482915.74704768 13784.83065044
0.17300001 475843.54091879 18629.27550673
0.17400001 468831.69541442 14768.19910300
0.17500001 461878.94400417 13412.96516734
0.17600001 454984.56013803 13287.82470640
0.17700001 448153.20731858 14358.82944066
0.17800001 441381.42834182 15406.41948395
0.17900001 434670.72020087 12909.72099974
0.18000001 428022.07008632 12782.87972693
0.18100001 421435.94057642 18408.32275392
0.18200001 414908.62963422 13667.09090576
0.18300001 408445.96882472 14655.04205373
0.18400001 402044.00277611 15619.41024572
0.18500001 395705.56005097 15456.25990578
0.18600001 389429.05010950 14200.53098312
0.18700001 383214.83042348 11887.32460135
0.18800001 377063.22581796 13896.66584408
0.18900001 370976.33931381 11630.10878698
0.19000001 364948.33975877 13592.50155654
0.19100001 358988.30284775 16542.18177684
0.19200001 353087.70975549 11244.07864846
0.19300001 347252.84305177 15157.58731545
0.19400001 341479.99538511 16980.09357290
0.19500001 335770.90501367 9871.66507389
0.19600001 330123.70897523 10730.67166733
0.19700001 324540.57039607 12530.51201515
0.19800001 319020.54285192 10475.04001958
0.19900001 313564.37312666 9406.93163837
0.20000001 308169.28416524 10220.43479237
0.20100001 302838.99503270 10093.62418149
0.20200001 297570.31160747 15403.72790839
0.20300001 292365.12211684 11630.28510751
0.20400001 287222.59186758 10598.51414086
0.20500001 282141.88309199 9590.00305959
0.20600001 277124.19123208 10325.64785338
0.20700001 272168.44932205 9340.82162226
0.20800001 267274.56394997 11730.68116628
0.20900001 262444.89046322 9093.71588442
0.21000001 257674.44137394 8155.39645501
0.21100001 252965.86632539 10457.60940826
0.21200001 248318.44943771 8727.15231806
0.21300001 243732.00813450 7823.79783099
0.21400001 239207.43847534 8485.88428110
0.21500001 234743.81666437 8366.27002145
0.21600001 230339.35484506 8247.30099015
0.21700001 225995.64220101 10346.08098912
0.21800001 221711.87661185 10196.52968748
0.21900001 217486.38431011 7177.05102158
0.22000001 213320.10434765 8485.87415218
0.22100001 209215.14254241 7663.55103369
0.22200001 205167.61607517 8235.42849866
0.22300001 201178.32848426 8787.46980371
0.22400001 197245.45095546 7988.44114144
0.22500001 193373.55342329 9177.50927945
0.22600001 189556.80998957 7745.29162243
0.22700001 185798.44367743 6989.73778168
0.22800001 182095.77469859 8131.48720370
0.22900001 178449.13794773 9850.39288055
0.23000001 174858.68639820 7876.50990130
0.23100001 171325.32924470 8943.18260952
0.23200001 167844.98572455 7039.41903421
0.23300001 164420.89640394 8656.76060508
0.23400001 161051.08779632 10218.69200397
0.23500001 157733.96277279 6142.16080087
0.23600001 154471.50934576 7688.04738376
0.23700001 151261.90151636 7560.07019536
0.23800001 148105.17054219 6902.44179960
0.23900001 145000.91182822 6264.03968727
0.24000001 141948.30544244 6670.86092980
0.24100001 138948.42393100 5548.21083000
0.24200001 135998.81505057 6444.30415600
0.24300001 133100.06058630 4871.46244789
0.24400001 130251.00230972 7658.75929810
0.24500001 127452.06722093 7524.77040468
0.24600001 124702.64066438 5544.27966621
0.24700001 122002.65393971 4538.49894126
0.24800001 119350.14009925 6686.59191538
0.24900001 116745.49185370 5253.54738195
0.25000001 114189.14438383 4729.14363838
0.25100001 111679.02150857 5487.90737656
0.25200001 109216.66924209 4144.77279383
0.25300001 106800.53361889 4476.01057573
0.25400001 104429.21730566 4793.30130111
0.25500001 102103.46725942 4312.85066109
0.25600001 99822.79202993  5002.61945927
0.25700001 97586.07550305  4531.89756078
0.25800001 95393.20154928  5559.03908331
0.25900001 93243.95197281  4000.16572890
0.26000001 91138.09719285  3924.86234132
0.26100001 89072.55894663  4200.66207868
0.26200001 87051.55312334  4464.43911317
0.26300001 85070.50624869  3368.79220685
0.26400001 83130.44575881  4295.76598785
0.26500001 81231.74743109  3241.14687587
0.26600001 79372.05225221  3496.73592744
0.26700001 77553.11961858  3429.39911181
0.26800001 75773.07953540  3363.18829433
0.26900001 74030.94458156  3597.90407692
0.27000001 72327.86280588  4116.17886707
0.27100001 70662.20835729  3459.62188489
0.27200001 69034.11790985  3675.03144085
0.27300001 67442.26494370  3326.25266444
0.27400001 65885.63903633  3804.89583441
0.27500001 64366.99240722  3197.75233413
0.27600001 62881.76614332  2612.73750691
0.27700001 61433.02589170  2817.93303102
0.27800001 60017.71133974  3014.08960613
0.27900001 58636.86306743  3447.84771154
0.28000001 57289.08406984  3139.15551018
0.28100001 55974.37628211  2841.25947455
0.28200001 54692.65494668  2553.87364361
0.28300001 53442.90033704  3187.33472696
0.28400001 52225.06527577  2232.62164621
0.28500001 51038.52010055  2408.50787754
0.28600001 49882.12505254  2362.16814367
0.28700001 48756.55434654  2738.16822171
0.28800001 47660.19818762  2479.28362707
0.28900001 46594.66057169  2837.61496313
0.29000001 45556.77114262  2585.11910085
0.29100001 44548.79225414  2146.36091240
0.29200001 43568.14623425  2489.26615292
0.29300001 42615.22557433  3006.93045886
0.29400001 41689.49166955  2398.18812181
0.29500001 40791.59949079  2354.49123406
0.29600001 39919.07737024  1778.39498103
0.29700001 39072.34170480  2270.49388395
0.29800001 38251.80603077  2230.27165620
0.29900001 37456.29049348  2191.19309760
0.30000001 36685.49397173  2153.25517061
0.30100001 35939.85312183  1953.69050819
0.30200001 35216.90358695  2560.97335008
0.30300001 34517.97400608  2046.22559595
0.30400001 33842.97766418  2167.64282201
0.30500001 33189.36669548  1675.73120379
0.30600001 32558.45866408  1649.24880171
0.30700001 31950.04893087  1771.31079659
0.30800001 31362.92668753  2035.14040910
0.30900001 30796.87050810  1432.05454643
0.31000001 30252.44113544  2258.04231326
0.31100001 29726.76811799  2086.81922068
0.31200001 29222.34300561  1646.38688289
0.31300001 28736.90772253  1759.56094316
0.31400001 28272.22210552  1736.62132506
0.31500001 27825.53597801  1582.71656137
0.31600002 27397.40485604  1433.02132885
0.31700002 26987.20002916  1287.28950234
0.31800002 26595.26793944  1654.35872050
0.31900002 26221.06291221  1887.91661907
0.32000002 25863.64746984  1369.86815310
0.32100002 25523.52379710  1972.45801244
0.32200002 25200.04106428  1709.31886633
0.32300002 24891.90983884  1330.72156300
0.32400002 24600.06581347  1439.10391823
0.32500002 24323.11496701  1903.04060513
0.32600002 24062.14384332  1416.29785368
0.32700002 23815.48781346  1171.72205591
0.32800002 23584.25528702  1745.82458029
0.32900002 23365.90380173  1387.93475155
0.33000002 23163.18198964  1150.05204025
0.33100002 22971.62054489  1372.78410877
0.33200002 22795.80482286  1366.38060579
0.33300002 22631.63714336  1360.61408949
0.33400002 22481.06457893  1468.57561316
0.33500002 22342.06203562  1351.24797590
0.33600002 22215.42115478  1459.88647032
0.33700002 22099.66434186  1568.63424927
0.33800002 21997.01553193  1454.11278060
0.33900002 21904.24582333  1675.67488484
0.34000002 21823.20532016  1227.88270549
0.34100002 21752.56516485  1227.49731038
0.34200002 21693.34035484  1116.12241411
0.34300002 21642.79978989  1563.47593087
0.34400002 21603.07937882  1565.14317512
0.34500002 21572.58599223  1343.54071923
0.34600002 21552.63487068  1346.17763778
0.34700002 21539.69225197  1349.24638656
0.34800002 21537.12820101  1465.70932914
0.34900002 21542.85651567  1583.40002889
0.35000002 21556.97259508  1475.46705915
0.35100002 21579.36407678  1253.32952494
0.35200002 21608.87811598  1487.44719556
0.35300002 21646.50853870  1264.37262363
0.35400002 21691.88886641  1155.09313685
0.35500002 21744.26260625  1277.25804599
0.35600002 21803.03481320  1284.30782650
0.35700002 21868.90983650  1878.97682215
0.35800002 21941.79317240  1299.72218013
0.35900002 22020.57075149  1545.84413997
0.36000002 22106.10816727  1556.15955814
0.36100002 22196.65840984  1446.33433049
0.36200002 22294.16688600  1213.91744444
0.36300002 22395.41126031  1834.18426910
0.36400002 22502.78315296  1355.23017958
0.36500002 22614.72127204  1614.01273364
0.36600002 22732.18545746  1251.40686871
0.36700002 22853.87542295  1639.99417803
0.36800002 22981.47777138  1526.42982588
0.36900002 23112.42153422  1795.83523828
0.37000002 23246.64890693  1552.41128754
0.37100002 23385.32314413  1565.88131191
0.37200002 23528.25594323  1448.04658062
0.37300002 23674.14631457  1726.55557251
0.37400002 23824.51268428  1474.14179217
0.37500002 23977.08113762  1893.23041631
0.37600002 24133.89273727  1501.24886884
0.37700002 24292.28255496  1515.10973473
0.37800002 24454.52606836  2085.35980927
0.37900002 24619.17045089  1824.28061683
0.38000002 24786.32668213  1841.50022809
0.38100002 24955.31633563  2287.90351004
0.38200002 25126.86579955  1587.89235943
0.38300002 25300.03893321  2040.19523623
0.38400002 25475.84003916  1765.47579835
0.38500002 25652.29991922  1485.26823569
0.38600002 25831.57743870  2099.33239790
0.38700002 26011.18760378  2119.39166636
0.38800002 26192.24502194  1681.14932638
0.38900002 26374.66240541  1697.20960619
0.39000002 26558.73272897  1557.66974835
0.39100002 26742.87052817  1886.97703387
0.39200002 26928.42413458  2222.40294912
0.39300002 27114.31004264  1922.94695933
0.39400002 27301.54014350  1779.37796315
0.39500002 27488.35607393  1959.37011378
0.39600002 27675.53103002  1977.69354110
0.39700002 27862.62473615  1829.73865311
0.39800002 28050.90857078  2014.61634900
0.39900002 28238.23018927  2710.87022661
0.40000002 28425.52640671  1880.77504381
0.40100002 28612.48439824  2760.53262553
0.40200002 28800.25971581  2785.56125169
0.40300002 28986.51009188  2459.21563271
0.40400002 29172.24699529  2303.87831561
0.40500002 29357.69368672  2860.61380837
0.40600002 29542.45657674  2164.28047136
0.40700002 29726.44021841  2728.88734135
0.40800002 29909.71923276  2752.44204281
0.40900002 30091.20649396  2035.67021577
0.41000002 30272.58184691  2426.19618708
0.41100002 30452.48990774  2446.55315511
0.41200002 30630.52933491  2087.31752043
0.41300002 30807.83866999  1913.16687206
0.41400002 30983.73905441  2121.61163228
0.41500002 31158.51587833  2333.14977952
0.41600002 31330.62036255  2155.70343619
0.41700002 31501.90508767  2172.68649685
0.41800002 31672.42855472  3184.97956638
0.41900002 31839.21796262  2206.45790936
0.42000002 32005.04733700  2425.34260212
0.42100002 32169.60063416  2850.87014329
0.42200002 32331.99807422  2461.75845002
0.42300002 32491.93647378  2479.78470918
0.42400002 32649.92081814  2081.43255079
0.42500002 32806.18387878  2515.57829903
0.42600002 32958.98415934  2111.02303544
0.42700002 33110.89553612  2976.00743181
0.42800002 33259.97983150  3210.41970537
0.42900002 33407.40914370  2154.77799188
0.43000002 33552.33881547  2386.07468793
0.43100002 33693.57686617  2620.01266127
0.43200002 33833.24154952  2417.21605705
0.43300002 33970.06671264  2432.59659257
0.43400002 34104.74123570  2447.86791819
0.43500002 34236.36224047  3134.68147529
0.43600002 34366.38140812  2252.71640806
0.43700002 34492.68822455  2946.02064087
0.43800002 34615.59449709  2507.38070622
0.43900002 34737.02901506  2292.64402364
0.44000002 34854.78616193  3689.03074220
0.44100002 34970.49863473  2318.54416936
0.44200002 35083.11728398  3263.78255560
0.44300002 35193.08420408  3281.40332670
0.44400002 35299.55060978  3063.11864933
0.44500002 35402.44407184  3789.47779304
0.44600002 35503.14322044  2618.53445232
0.44700002 35601.17951382  2870.87925205
0.44800002 35695.14618461  2404.06820947
0.44900002 35787.37058571  2657.21239192
0.45000002 35876.26807418  3397.84151034
0.45100002 35960.89065080  3657.22275251
0.45200002 36043.39571328  2449.14885479
0.45300002 36122.26502705  2951.91163791
0.45400002 36198.55350197  2964.66167232
0.45500002 36271.60732211  2729.07586426
0.45600002 36341.15321822  2740.30478829
0.45700002 36407.63565141  3001.44562535
0.45800002 36470.34515975  3264.27839823
0.45900002 36530.19539644  3024.70032218
0.46000002 36587.64537659  2783.03937747
0.46100002 36640.56560432  4062.70610676
0.46200002 36691.21685659  2803.02564461
0.46300002 36738.09930881  3579.76056631
0.46400002 36781.41157968  2822.05393720
0.46500002 36822.37383894  3088.66086400
0.46600002 36859.30485749  3614.79219870
0.46700002 36893.07749900  3107.87299582
0.46800002 36924.24184234  2857.38259040
0.46900002 36951.34958235  4168.11243044
0.47000002 36975.01117864  2873.51312994
0.47100002 36995.89074950  4976.68745950
0.47200002 37013.25740460  3151.30888479
0.47300002 37028.02652151  2895.96209151
0.47400002 37038.14038152  3430.65791544
0.47500002 37046.19803720  3174.11839827
0.47600002 37051.19649333  2916.11455822
0.47700002 37051.92003432  3453.60963009
