# SAXS profile: number of points = 501, q_min = 0, q_max = 0.5, delta_q = 0.001
#    q    intensity    error
0.00000000 1628779.37420969 268.74859674
0.00100000 1628712.31205938 537.47507574
0.00200000 1628511.06680901 806.11300360
0.00300000 1628175.82482980 1269.97718861
0.00400000 1627706.42485437 1464.93583803
0.00500000 1627103.31725336 1903.71095654
0.00600000 1626366.28394337 1707.68466766
0.00700000 1625495.91572245 1950.59517993
0.00800000 1624491.69548768 2631.67665780
0.00900000 1623354.93919770 4139.55527191
0.01000000 1622084.85261761 3747.01617134
0.01100000 1620682.61939435 3500.67461031
0.01200000 1619147.70258579 4104.53960601
0.01300000 1617481.52019839 4755.39587912
0.01400000 1615683.32185388 3998.81639886
0.01500000 1613754.69208974 4260.31257682
0.01600000 1611694.71553178 4109.82170833
0.01700000 1609505.39774393 4780.23124573
0.01800000 1607186.33421498 5496.57751035
0.01900000 1604738.18984769 5295.63626545
0.02000000 1602161.57939620 7570.21380509
0.02100000 1599458.06738638 9500.78135103
0.02200000 1596625.90494819 6059.19558456
0.02300000 1593668.07686415 8032.08747300
0.02400000 1590584.33718716 8350.56815100
0.02500000 1587375.79773979 9286.14884088
0.02600000 1584043.01152389 7698.44938812
0.02700000 1580586.72767445 7302.31101631
0.02800000 1577006.93131889 8917.97460558
0.02900000 1573306.15920581 8495.85364979
0.03000000 1569484.68482921 7298.10411992
0.03100000 1565542.67701398 10520.44727361
0.03200000 1561481.16659364 12366.93140902
0.03300000 1557303.02964983 8736.47039909
0.03400000 1553005.92013508 9783.93774829
0.03500000 1548593.53951905 9198.64604952
0.03600000 1544065.35412318 10283.47573370
0.03700000 1539423.29062331 8774.71316236
0.03800000 1534668.60576445 9875.59293513
0.03900000 1529802.48748933 11014.57842001
0.04000000 1524823.83434890 11253.20041896
0.04100000 1519736.53723649 11489.20875422
0.04200000 1514540.96099433 10745.66861678
0.04300000 1509237.23259088 13945.35267645
0.04400000 1503828.83766123 13196.09866333
0.04500000 1498315.32227413 13439.88906528
0.04600000 1492697.15519305 16837.62469331
0.04700000 1486977.48077379 14988.73370329
0.04800000 1481156.21233268 11975.14853389
0.04900000 1475236.61520584 14383.55766778
0.05000000 1469217.38877191 13487.41625698
0.05100000 1463102.48695632 14835.85990885
0.05200000 1456889.91621873 16215.18552316
0.05300000 1450585.14300022 12924.71422665
0.05400000 1444186.14049522 15488.89707912
0.05500000 1437697.21458431 14491.98859905
0.05600000 1431116.72163018 13459.65339502
0.05700000 1424449.58972043 14871.25441085
0.05800000 1417694.31898853 17565.23343243
0.05900000 1410853.01117137 16506.98100168
0.06000000 1403928.36033876 21838.10666532
0.06100000 1396921.67337860 16888.78382038
0.06200000 1389833.54145634 14447.32033876
0.06300000 1382667.07919483 15928.32549706
0.06400000 1375420.51550999 13410.35065338
0.06500000 1368099.91292895 13544.18977156
0.06600000 1360702.86766603 17777.58379784
0.06700000 1353232.67777786 22084.75833488
0.06800000 1345692.07845388 16713.49639674
0.06900000 1338081.82576766 14049.85982836
0.07000000 1330401.40758074 14168.77565424
0.07100000 1322655.76960222 17141.61957692
0.07200000 1314843.68491563 18716.80073160
0.07300000 1306969.94507023 20310.31389804
0.07400000 1299033.45113358 17536.95241216
0.07500000 1291037.11467869 19133.17093636
0.07600000 1282980.68651824 17782.11314878
0.07700000 1274869.43149302 16407.57035264
0.07800000 1266702.22747772 19513.54872941
0.07900000 1258480.62669413 15101.76822866
0.08000000 1250208.23518834 21266.04307817
0.08100000 1241885.71212614 22912.79246375
0.08200000 1233513.73444636 16892.97138595
0.08300000 1225094.95211081 18523.43654526
0.08400000 1216630.90018787 18614.45364661
0.08500000 1208124.67603264 15584.80905245
0.08600000 1199575.41064059 17219.90582825
0.08700000 1190987.02888545 18865.23542341
0.08800000 1182357.58693589 18941.36943227
0.08900000 1173693.88846961 15844.86823857
0.09000000 1164994.07181233 17492.38680998
0.09100000 1156261.00707245 17552.04291198
0.09200000 1147495.37849272 16007.56128212
0.09300000 1138700.67123522 17661.24824080
0.09400000 1129875.35919019 24151.08693773
0.09500000 1121023.41654660 19371.28554843
0.09600000 1112146.41369989 24272.59662000
0.09700000 1103246.77810524 19461.27408071
0.09800000 1094324.98562484 21125.94484078
0.09900000 1085383.86640794 17908.83463785
0.10000000 1076422.05381078 19569.35385857
0.10100000 1067443.03125236 26131.00663405
0.10200000 1058448.74782144 17988.33731533
0.10300000 1049439.94845655 21282.64315585
0.10400000 1040419.36813918 16386.60581910
0.10500000 1031389.93981522 19678.92097756
0.10600001 1022347.43821984 22972.14801772
0.10700001 1013300.18409136 27906.28838308
0.10800001 1004244.63956798 18061.34069263
0.10900001 995185.30862887 22988.78171131
0.11000001 986122.21628781 18060.82924143
0.11100001 977057.71796358 22980.39860827
0.11200001 967993.89145885 19688.99667917
0.11300001 958930.05551703 21317.01613777
0.11400001 949869.78782230 27854.93283942
0.11500001 940814.05912128 22918.23155937
0.11600001 931763.30994340 19622.93623148
0.11700001 922720.80860372 17965.37498959
0.11800001 913684.75925467 24463.91058125
0.11900001 904659.39942253 21169.03094358
0.12000001 895645.01592681 17881.55358529
0.12100001 886644.39430979 17848.15249825
0.12200001 877656.81432143 19431.32278451
0.12300001 868684.80129566 17773.29187189
0.12400001 859728.86764214 17731.90873060
0.12500001 850790.98718973 24119.92562337
0.12600001 841873.65580103 19245.23267851
0.12700001 832976.61995092 17592.46704243
0.12800001 824099.96403062 19135.60206664
0.12900001 815247.11522378 20666.51534498
0.13000001 806417.67190660 17430.71879986
0.13100001 797613.59087551 17372.02482814
0.13200001 788836.53823110 22032.20555140
0.13300001 780088.43185164 17247.75604135
0.13400001 771367.41479094 20306.24815172
0.13500001 762677.48950455 17114.48367140
0.13600001 754017.36204059 18594.06902465
0.13700001 745390.57334378 16972.54415535
0.13800001 736795.41614996 23043.27772671
0.13900001 728237.01483523 22939.46704909
0.14000001 719712.56986891 16744.11372766
0.14100001 711224.78252360 18178.90629867
0.14200001 702773.20290661 21104.28027868
0.14300001 694362.33555720 17997.87258656
0.14400001 685986.97943502 20888.30450910
0.14500001 677655.52707695 16324.72241736
0.14600001 669362.38203744 19187.27358625
0.14700001 661114.71359709 16144.42206768
0.14800001 652907.00591145 20429.46117880
0.14900001 644743.08741725 17408.06418159
0.15000001 636623.92516781 17303.43910249
0.15100001 628550.66002020 15764.05129713
0.15200001 620523.87604853 17089.22835277
0.15300001 612544.33454595 18394.70723444
0.15400001 604610.39495879 23897.22698848
0.15500001 596726.79585351 19548.77075473
0.15600001 588889.97269117 22189.37521823
0.15700001 581107.22831668 20658.36294167
0.15800001 573369.80504525 19144.81869407
0.15900001 565686.69988127 13576.48143797
0.16000001 558052.99641321 24258.56489915
0.16100001 550474.47455665 21402.44858105
0.16200001 542946.78169239 13275.04943904
0.16300001 535474.03322501 14489.92802311
0.16400001 528054.84057257 15683.22950540
0.16500001 520690.39016705 16854.74872544
0.16600001 513381.14408650 14146.21809319
0.16700001 506126.64342767 17856.14882320
0.16800001 498927.38497090 12647.80980620
0.16900001 491786.75003015 13794.61898970
0.17000001 484701.88842968 14919.12483034
0.17100001 477674.72051924 18486.01255703
0.17200001 470705.39210168 15879.24715241
0.17300001 463794.27641495 14526.03742330
0.17400001 456942.14660907 14393.67829794
0.17500001 450148.50669499 14260.70536560
0.17600001 443411.79507245 14127.10045822
0.17700001 436737.68046410 19823.52425254
0.17800001 430121.66902695 13858.52083062
0.17900001 423565.84862785 19441.67337032
0.18000001 417070.91787439 12455.82355067
0.18100001 410637.56562417 13452.48728530
0.18200001 404261.98129464 19974.58543933
0.18300001 397949.86874916 15376.78365486
0.18400001 391697.57266880 13043.52978606
0.18500001 385506.98345066 10755.64534639
0.18600001 379377.99993314 12769.86408104
0.18700001 373309.85806826 10527.33849489
0.18800001 367303.44879396 13536.96924487
0.18900001 361360.40350904 13388.40358258
0.19000001 355475.09006060 10184.36181143
0.19100001 349656.88376483 14098.16621954
0.19200001 343896.26569296 14933.69604335
0.19300001 338200.65732798 12794.13147127
0.19400001 332565.86459715 12645.81759887
0.19500001 326993.67290834 10574.97588158
0.19600001 321481.95920653 14249.68851522
0.19700001 316033.46093188 10324.81365657
0.19800001 310646.65638057 10200.08344430
0.19900001 305322.48407648 11907.57744173
0.20000001 300058.23975576 9951.43199182
0.20100001 294857.61149587 8934.18605058
0.20200001 289717.45590337 13232.84542382
0.20300001 284639.41100601 13935.94622153
0.20400001 279622.74716063 11177.91984608
0.20500001 274666.75349902 11882.08431800
0.20600001 269772.54050586 9214.08155651
0.20700001 264938.94148978 10745.92397478
0.20800001 260166.32485745 9787.45760379
0.20900001 255456.38588078 10460.93949632
0.21000001 250804.29176544 8731.75183058
0.21100001 246212.86605778 8612.52646184
0.21200001 241681.30485577 10038.23347174
0.21300001 237209.79601252 12944.53918036
0.21400001 232798.59695645 8258.53061746
0.21500001 228447.40657680 8141.86595532
0.21600001 224154.00013827 9485.07696429
0.21700001 219919.85257221 10787.06927868
0.21800001 215744.60932897 7087.21075154
0.21900001 211626.50410565 9078.77745539
0.22000001 207566.15389449 8945.06382503
0.22100001 203565.69710879 7456.61183767
0.22200001 199621.75510400 7345.08282636
0.22300001 195734.53308767 6576.68062273
0.22400001 191902.75641666 10362.74933652
0.22500001 188130.67567418 7653.15624832
0.22600001 184412.17983123 8790.92902826
0.22700001 180750.87537157 9272.52034505
0.22800001 177144.35254089 7301.89055704
0.22900001 173592.55420516 7186.73208396
0.23000001 170095.50116230 6483.19033340
0.23100001 166654.36450787 7539.44380690
0.23200001 163265.30300281 6276.73487079
0.23300001 159930.76812014 8420.35533976
0.23400001 156649.48943370 6626.27371644
0.23500001 153419.86366304 9232.80783192
0.23600001 150243.51699511 6409.38873816
0.23700001 147118.94083509 6302.57572347
0.23800001 144045.69251337 7229.65364920
0.23900001 141023.90318428 6599.91898120
0.24000001 138052.57676480 5489.66097472
0.24100001 135133.03652558 5395.86240370
0.24200001 132262.33767163 7231.44365426
0.24300001 129441.26581164 6632.57077393
0.24400001 126668.59743208 5120.57829341
0.24500001 123945.15605258 5488.29176963
0.24600001 121270.13724460 5391.67055695
0.24700001 118643.01192713 5296.22430297
0.24800001 116062.40311787 4334.93096152
0.24900001 113528.49683917 5534.51448273
0.25000001 111041.77093662 5016.86744826
0.25100001 108599.92333598 6157.61594446
0.25200001 106204.97703560 4030.47906918
0.25300001 103855.16168614 5539.63458642
0.25400001 101548.72073430 5826.35812778
0.25500001 99287.08288701  4575.14899589
0.25600001 97069.06819342  5238.81785826
0.25700001 94894.21214743  4406.88742063
0.25800001 92761.85603436  4324.55793293
0.25900001 90672.30742663  3889.84217265
0.26000001 88625.07834442  3469.67198135
0.26100001 86617.03259577  3404.04954208
0.26200001 84652.15148271  5009.29130101
0.26300001 82726.37883911  3931.15770845
0.26400001 80840.69877681  4820.12689265
0.26500001 78995.26733127  3467.10244723
0.26600001 77187.67031372  4637.04951352
0.26700001 75420.11415563  3941.45535228
0.26800001 73690.11979679  3568.07576941
0.26900001 71997.13573648  3790.64937591
0.27000001 70342.27134065  2859.41346531
0.27100001 68723.75317286  3084.32218836
0.27200001 67141.96350688  3849.24895001
0.27300001 65595.16512238  2695.96141411
0.27400001 64082.96913660  3172.10712238
0.27500001 62607.55568231  3887.92939187
0.27600001 61164.70905984  2795.53315988
0.27700001 59757.61589997  3239.46051125
0.27800001 58382.58640246  3420.63589921
0.27900001 57041.45744792  2635.31545882
0.28000001 55732.43843036  3288.77134743
0.28100001 54455.37455280  2303.46245260
0.28200001 53210.69640022  2258.79416910
0.28300001 51997.08606829  3322.61395702
0.28400001 50814.40569230  2172.31594616
0.28500001 49662.22942985  2343.56071772
0.28600001 48539.14796520  3552.33771197
0.28700001 47446.25544406  2869.54966508
0.28800001 46381.70442921  3418.09986970
0.28900001 45346.88853868  2958.88461720
0.29000001 44339.33305215  2516.03557314
0.29100001 43360.74217870  2279.04071679
0.29200001 42408.51757744  1863.85443575
0.29300001 41483.43514163  2195.30349161
0.29400001 40584.74693749  2514.22519179
0.29500001 39713.22356301  2115.92065160
0.29600001 38866.01851636  2077.77744824
0.29700001 38044.18837009  2210.74789084
0.29800001 37247.57298586  1670.55372750
0.29900001 36475.52042027  2462.09774492
0.30000001 35727.11532130  1935.69519974
0.30100001 35003.09830874  2061.33255699
0.30200001 34301.37429079  2182.59654945
0.30300001 33623.07535918  2146.49723255
0.30400001 32967.76040064  2111.58515363
0.30500001 32333.32930440  2374.55981653
0.30600001 31721.07120387  1460.75539809
0.30700001 31130.43152027  1869.69380562
0.30800001 30560.54383913  1558.12940141
0.30900001 30010.90341255  1674.60848970
0.31000001 29482.57008181  1512.89815538
0.31100001 28972.12078947  1627.07438057
0.31200001 28482.60777851  2005.88774777
0.31300001 28011.10580554  1978.98471886
0.31400001 27559.99012021  1692.87247329
0.31500001 27126.49420411  1414.37547477
0.31600002 26710.61853398  1397.09896857
0.31700002 26312.37311049  1506.12030816
0.31800002 25931.75514828  1737.16835964
0.31900002 25568.33389498  1595.46411059
0.32000002 25221.11496962  1214.39674329
0.32100002 24890.62184334  1202.21709196
0.32200002 24576.61897152  1547.95841922
0.32300002 24277.26750931  1415.85030818
0.32400002 23993.82014459  1871.51805990
0.32500002 23724.72584881  1276.15306384
0.32600002 23470.94165597  1266.37471701
0.32700002 23231.29565127  1257.27778018
0.32800002 23006.47123672  1589.51717301
0.32900002 22794.22777431  2143.79722369
0.33000002 22596.86545000  1121.93442272
0.33100002 22410.60960240  1674.07261657
0.33200002 22239.32664785  1221.93986053
0.33300002 22079.80016023  1216.81784445
0.33400002 21933.01196695  1322.56068424
0.33500002 21797.59771016  1098.59897662
0.33600002 21674.15674644  1095.62867542
0.33700002 21561.17385192  1858.35766230
0.33800002 21461.03429702  1855.19919766
0.33900002 21370.23248031  1089.88190811
0.34000002 21291.10929170  1415.75237940
0.34100002 21221.92901551  1197.55351106
0.34200002 21163.72718888  1633.31072315
0.34300002 21114.00312180  1525.27565775
0.34400002 21074.74171829  1744.98869692
0.34500002 21044.32774171  1092.20066152
0.34600002 21024.32365636  1313.17931777
0.34700002 21011.00931780  1206.45221217
0.34800002 21007.73656908  1319.70607377
0.34900002 21012.64887950  1434.11335395
0.35000002 21025.58834373  1439.09646235
0.35100002 21046.44457909  1222.37755905
0.35200002 21074.39988593  1115.88952681
0.35300002 21109.96216267  1233.03294832
0.35400002 21153.24650862  1802.25668790
0.35500002 21203.28199563  1471.93190585
0.35600002 21259.49453713  1252.29058502
0.35700002 21322.44597902  1488.52002430
0.35800002 21392.38622033  1382.37606303
0.35900002 21467.94697599  1159.26919161
0.36000002 21550.34907442  1283.64660342
0.36100002 21637.21021332  1527.37074130
0.36200002 21731.06322866  1419.90773862
0.36300002 21828.27953490  1787.73617859
0.36400002 21931.65168588  1681.06118135
0.36500002 22039.43668774  1209.96513147
0.36600002 22152.66822664  1341.45488801
0.36700002 22269.77933947  1966.86700443
0.36800002 22392.82259585  1363.38706833
0.36900002 22519.10180013  1499.77225093
0.37000002 22648.53701698  1512.46937364
0.37100002 22782.41558667  1779.76238994
0.37200002 22920.26943283  1538.86696262
0.37300002 23060.97431047  1681.83693613
0.37400002 23206.20563863  1958.02369351
0.37500002 23353.56885246  1712.28374937
0.37600002 23504.89818292  1860.88287729
0.37700002 23657.90753921  2146.24547363
0.37800002 23814.77894704  1489.25727200
0.37900002 23973.73895694  1776.45414086
0.38000002 24135.28987861  1379.33188191
0.38100002 24298.74079131  1531.54970463
0.38200002 24464.43843776  1827.12667128
0.38300002 24631.98754364  1844.44331465
0.38400002 24802.16299400  1718.78997691
0.38500002 24972.58578972  2024.27790001
0.38600002 25146.25291624  1459.74005094
0.38700002 25320.02986539  2210.43871197
0.38800002 25495.33984007  1785.18378018
0.38900002 25671.85394461  1952.34458498
0.39000002 25850.21881333  1970.95002680
0.39100002 26028.61000306  1836.57880883
0.39200002 26208.32564906  2626.46747935
0.39300002 26388.45292771  2027.42493449
0.39400002 26569.92974450  1731.69525314
0.39500002 26751.10498427  1589.01571135
0.39600002 26932.61855796  2726.52376889
0.39700002 27114.19297101  2104.33261618
0.39800002 27296.71857333  1960.45042082
0.39900002 27478.44985093  1648.70706917
0.40000002 27660.46474030  2329.28784614
0.40100002 27841.86896054  1846.75125565
0.40200002 28024.24378219  2202.28530197
0.40300002 28205.22554735  1709.23674915
0.40400002 28385.58517794  2759.07901002
0.40500002 28565.86834998  1739.66146494
0.40600002 28745.55473938  2105.89943999
0.40700002 28924.50390828  2301.23363998
0.40800002 29102.91822167  2499.64976450
0.40900002 29279.62029167  2160.83607991
0.41000002 29456.13952642  1815.97108785
0.41100002 29631.37372158  2563.70657587
0.41200002 29804.89631623  2031.05475571
0.41300002 29977.71811777  2233.93965999
0.41400002 30149.25817197  2815.18711520
0.41500002 30319.76772108  2081.14895499
0.41600002 30487.69937806  3051.20909833
0.41700002 30654.98490717  2690.89470266
0.41800002 30821.49487533  2518.27035811
0.41900002 30984.62692846  1952.03158899
0.42000002 31146.58308534  2163.59749654
0.42100002 31307.57127113  2774.47709752
0.42200002 31466.65491404  2196.21528379
0.42300002 31623.26506266  2614.61167928
0.42400002 31777.97067849  3241.35316280
0.42500002 31931.23695740  2448.48736592
0.42600002 32081.28048925  2465.76733525
0.42700002 32230.42205021  3103.78979051
0.42800002 32376.85567415  2291.79583750
0.42900002 32521.79905356  2517.18736603
0.43000002 32664.37803443  2956.45299599
0.43100002 32803.39029966  2338.22577136
0.43200002 32941.08833996  2995.33330469
0.43300002 33076.11509897  3875.85935097
0.43400002 33208.95774619  2166.88459562
0.43500002 33339.13885697  2616.45574149
0.43600002 33467.62865323  3071.32442705
0.43700002 33592.73669282  2427.74719584
0.43800002 33714.55877556  4440.20760116
0.43900002 33835.11143049  2903.05269831
0.44000002 33952.03888164  3144.29846984
0.44100002 34067.16459835  2258.65311991
0.44200002 34179.34561758  2498.33938631
0.44300002 34289.06464130  2283.65181333
0.44400002 34395.50103929  2984.66974413
0.44500002 34498.46967880  3231.12682324
0.44600002 34599.35115449  3015.85258631
0.44700002 34697.70578341  3031.19172089
0.44800002 34792.37890629  2343.26683039
0.44900002 34885.32162872  3061.18711800
0.45000002 34975.02076295  3312.48437344
0.45100002 35060.84025777  3565.68762320
0.45200002 35144.45735135  2626.87258922
0.45300002 35224.95325717  2878.58331660
0.45400002 35302.78554707  2409.41522778
0.45500002 35377.62537934  2903.79562876
0.45600002 35448.95936278  2430.02627949
0.45700002 35517.68907168  2440.06535487
0.45800002 35582.73891861  3674.80753598
0.45900002 35645.04914447  2705.45935829
0.46000002 35705.14410990  3703.51624833
0.46100002 35761.05694420  3469.53790916
0.46200002 35814.60865998  3482.25456505
0.46300002 35864.63469729  3993.88590918
0.46400002 35911.28410127  3506.73705869
0.46500002 35955.75123314  3267.29926941
0.46600002 35996.33940259  3782.31554199
0.46700002 36033.98005811  3541.41972796
0.46800002 36069.05516900  4059.93304225
0.46900002 36100.41970019  4326.63550613
0.47000002 36128.59104043  2807.73358578
0.47100002 36154.00058102  2815.67369870
0.47200002 36176.08957805  2823.36304494
0.47300002 36195.56709015  3345.55642471
0.47400002 36210.82926240  2838.02387796
0.47500002 36224.04362141  3620.95557202
0.47600002 36234.38066949  3629.59808370
0.47700002 36240.67920699  3637.83955122
