# SAXS profile: number of points = 501, q_min = 0, q_max = 0.5, delta_q = 0.001
#    q    intensity    error
0.00000000 1646666.22097351 246.99993315
0.00100000 1646598.52940760 592.77548466
0.00200000 1646395.39513828 1407.66810742
0.00300000 1646056.99746053 1283.92450376
0.00400000 1645583.17554281 1481.02491426
0.00500000 1644974.43188159 2072.66786621
0.00600000 1644230.47002126 1899.08627019
0.00700000 1643351.91313011 2563.62909103
0.00800000 1642338.26938452 2438.87243301
0.00900000 1641190.83708431 2461.78636086
0.01000000 1639908.78364748 2705.84960986
0.01100000 1638493.38462272 4423.93233110
0.01200000 1636944.02565762 3511.24508898
0.01300000 1635262.16684586 3434.05070183
0.01400000 1633447.02644486 4410.30716691
0.01500000 1631500.28704498 6656.52146755
0.01600000 1629420.95175606 5401.53069654
0.01700000 1627211.00893639 4832.81691333
0.01800000 1624870.09749478 5557.05598349
0.01900000 1622398.85111468 4867.19677296
0.02000000 1619797.92321933 7653.54553342
0.02100000 1617068.93671883 6937.22605305
0.02200000 1614210.10427366 5569.02511276
0.02300000 1611224.32324345 5800.40782770
0.02400000 1608111.47225214 9648.66927347
0.02500000 1604872.71081374 6884.90424383
0.02600000 1601508.43415065 6486.10945497
0.02700000 1598019.50852060 9396.35514046
0.02800000 1594405.86617234 7629.23241951
0.02900000 1590670.03259427 10021.22166546
0.03000000 1586812.43187388 8854.41377685
0.03100000 1582833.07255901 12156.15855660
0.03200000 1578733.05095825 9377.67475461
0.03300000 1574515.26336955 9636.03385605
0.03400000 1570177.41211998 11540.80451158
0.03500000 1565723.09064476 10145.88609590
0.03600000 1561151.94085688 9530.83303939
0.03700000 1556465.74698626 9759.04068494
0.03800000 1551665.86887454 14523.59320481
0.03900000 1546753.33113571 11136.62449991
0.04000000 1541727.29190856 14222.43492691
0.04100000 1536591.56188408 12584.68547534
0.04200000 1531346.48890156 9877.18531165
0.04300000 1525992.02324614 18128.78607767
0.04400000 1520532.02627142 12316.30998479
0.04500000 1514965.74065705 12543.91691549
0.04600000 1509293.77799009 11704.57379242
0.04700000 1503519.28636855 14072.94117491
0.04800000 1497642.34885680 17612.27484202
0.04900000 1491665.83355310 13424.99312688
0.05000000 1485588.91871197 11364.75575736
0.05100000 1479415.28939167 15001.27173325
0.05200000 1473142.83543419 17567.22913121
0.05300000 1466777.38479348 16633.25631896
0.05400000 1460316.80859770 12047.61423276
0.05500000 1453765.29308360 15875.11774104
0.05600000 1447121.19393847 16084.75282121
0.05700000 1440389.58485208 15037.66796779
0.05800000 1433568.90009873 12687.08535826
0.05900000 1426661.42217999 14123.94873925
0.06000000 1419669.56974401 22082.96118906
0.06100000 1412594.93459287 15764.56020676
0.06200000 1405438.12049771 13281.39085952
0.06300000 1398201.82174967 16107.28573966
0.06400000 1390884.63888803 14917.23844970
0.06500000 1383492.61042072 13696.57748386
0.06600000 1376023.39733715 15211.93936931
0.06700000 1368480.30164624 22333.59956806
0.06800000 1360865.92564659 19718.94818564
0.06900000 1353181.03701815 15629.24170930
0.07000000 1345425.47467734 18627.41656920
0.07100000 1337603.68452928 20224.56865736
0.07200000 1329714.77184385 20384.52840732
0.07300000 1321763.43723887 16138.73232488
0.07400000 1313748.87998903 20691.54582952
0.07500000 1305673.51131755 17861.61447204
0.07600000 1297537.50563632 16485.21478195
0.07700000 1289346.24147840 15085.35173263
0.07800000 1281098.00594618 15181.01208239
0.07900000 1272794.73295623 18328.24501423
0.08000000 1264440.47015401 19971.83816298
0.08100000 1256034.91033604 18539.07614638
0.08200000 1247579.83171574 20192.08052384
0.08300000 1239077.19859696 23418.56015256
0.08400000 1230528.33697719 17258.16073618
0.08500000 1221936.92983149 17339.28584830
0.08600000 1213302.11464283 22167.03067530
0.08700000 1204627.39205830 17491.19055403
0.08800000 1195911.43367766 19158.50206727
0.08900000 1187160.60018778 20834.66951189
0.09000000 1178373.06297848 19301.75167830
0.09100000 1169551.95434592 24209.72659236
0.09200000 1160697.68571629 19430.08017185
0.09300000 1151814.01862062 16240.57842573
0.09400000 1142899.21757336 22800.84046217
0.09500000 1133957.57498649 19594.78781677
0.09600000 1124990.11324355 19642.32830057
0.09700000 1115999.74489343 18045.71672331
0.09800000 1106987.11545216 19726.51132485
0.09900000 1097954.38288153 18116.24816942
0.10000000 1088900.99144034 19796.22095535
0.10100000 1079829.76712870 19825.67545692
0.10200000 1070743.05645626 16542.98100037
0.10300000 1061641.79266134 19873.93529350
0.10400000 1052528.36740374 18235.05482314
0.10500000 1043405.53486333 24885.22317732
0.10600001 1034269.57214132 21580.03563815
0.10700001 1025128.50828524 18267.79087728
0.10800001 1015979.02943453 21594.63528691
0.10900001 1006825.69294064 23257.67460157
0.11000001 997668.24078554 21594.53008825
0.11100001 988509.21653042 21589.04230529
0.11200001 979350.81748940 18259.99685172
0.11300001 970191.87762160 26544.45102146
0.11400001 961036.73561766 19893.46136396
0.11500001 951885.81529432 24844.22094905
0.11600001 942740.00105955 23163.12291682
0.11700001 933602.00730432 16524.75630752
0.11800001 924470.62313585 19802.16168022
0.11900001 915349.79933495 24714.44574613
0.12000001 906239.81524713 18093.07876368
0.12100001 897143.76349953 18059.50480999
0.12200001 888060.36438191 18023.18594423
0.12300001 878992.80201963 22888.97364299
0.12400001 869941.28292211 19573.67978801
0.12500001 860907.86153125 21152.50715454
0.12600001 851894.93517502 19474.31913580
0.12700001 842902.05327805 22657.20825987
0.12800001 833930.03662116 20977.51105986
0.12900001 824981.59358706 24130.71274975
0.13000001 816057.18394045 17639.07686229
0.13100001 807157.47818120 20776.23446773
0.13200001 798285.57883064 22296.11726779
0.13300001 789442.07552299 17454.56511267
0.13400001 780626.20698927 18969.21772415
0.13500001 771841.56906686 22043.79625187
0.13600001 763086.99032678 17249.58222967
0.13700001 754365.58941000 18738.44212452
0.13800001 745676.15052647 20211.55301311
0.13900001 737023.70940639 17025.24849017
0.14000001 728405.17115833 16946.34710620
0.14100001 719823.67188407 19931.91841452
0.14200001 711278.75942586 27462.47419671
0.14300001 702774.76771048 19733.91640811
0.14400001 694306.37858690 22651.74666988
0.14500001 685881.99985536 16522.89815594
0.14600001 677496.54252255 17926.55936082
0.14700001 669156.58258765 16340.80451769
0.14800001 660857.09968095 16247.17256218
0.14900001 652601.51075909 17620.24162183
0.15000001 644391.16237586 21893.19077470
0.15100001 636226.92988464 14505.97468583
0.15200001 628109.76635681 14415.11981810
0.15300001 620039.89994890 18619.79907412
0.15400001 612016.03478511 19921.12287235
0.15500001 604042.80570977 21201.90348099
0.15600001 596116.98105942 14038.55556650
0.15700001 588245.19534291 18123.83532390
0.15800001 580419.53488640 13843.00656041
0.15900001 572648.53629592 16492.27862377
0.16000001 564927.12881760 23193.08436838
0.16100001 557261.77135414 14895.60785143
0.16200001 549647.46073468 13438.88104936
0.16300001 542088.29910998 18669.52190270
0.16400001 534583.23931807 14554.02937752
0.16500001 527133.52405862 14438.18790561
0.16600001 519739.26138144 15623.36293475
0.16700001 512400.40415845 16786.23803279
0.16800001 505117.19296611 15365.66573554
0.16900001 497893.12705270 19044.41300901
0.17000001 490725.53441959 17621.95477311
0.17100001 483615.82730394 17468.20450709
0.17200001 476564.78506414 13603.54243205
0.17300001 469572.17189229 15932.58454471
0.17400001 462639.20569088 14573.13566749
0.17500001 455765.13292246 12032.20007740
0.17600001 448948.88886112 13111.55291844
0.17700001 442195.33044489 16529.26223272
0.17800001 435500.82650126 14031.83729262
0.17900001 428866.84447115 15053.22695196
0.18000001 422294.34950429 14904.87976979
0.18100001 415783.97101248 19296.53500619
0.18200001 409332.10990610 15730.63372677
0.18300001 402944.14779496 16681.88850675
0.18400001 396616.59040422 14307.94417475
0.18500001 390351.59699388 11979.89107770
0.18600001 384148.59621303 19395.66353911
0.18700001 378007.00066104 13857.73729894
0.18800001 371927.60580025 14761.80737165
0.18900001 365912.35324149 11471.35281611
0.19000001 359955.52837669 14437.81692536
0.19100001 354066.22254252 10197.10769104
0.19200001 348235.62983482 16130.27513613
0.19300001 342470.16187268 12955.64683583
0.19400001 336766.32100518 11820.49842585
0.19500001 331125.64199510 10708.60376816
0.19600001 325546.41537644 13467.85584057
0.19700001 320030.68397136 15207.85882101
0.19800001 314577.34215393 13146.18774989
0.19900001 309187.39131611 10203.18439563
0.20000001 303858.07502043 13741.98209226
0.20100001 298592.82989140 9952.09949064
0.20200001 293388.72390800 9827.05577176
0.20300001 288247.54216077 11466.48776911
0.20400001 283168.40942023 8707.42900124
0.20500001 278150.42512379 8594.84854258
0.20600001 273195.05762694 8482.70694028
0.20700001 268300.95817479 9208.08931982
0.20800001 263468.41889464 9085.70885506
0.20900001 258699.26208552 11408.63799727
0.21000001 253988.80124354 9646.49512724
0.21100001 249339.49333940 9514.79551563
0.21200001 244751.02750312 7819.79569840
0.21300001 240222.88322436 9253.38589926
0.21400001 235756.03952604 9884.07242441
0.21500001 231349.64563223 8994.87464744
0.21600001 227001.62348564 8127.79351317
0.21700001 222713.89795375 10195.84273038
0.21800001 218485.48049383 9330.42288564
0.21900001 214314.84126856 10608.58514438
0.22000001 210202.86385422 8361.87031949
0.22100001 206151.48113611 7551.32911107
0.22200001 202157.11211631 8114.58686404
0.22300001 198220.18016996 8658.25787923
0.22400001 194339.39163581 8526.64121121
0.22500001 190518.82385865 8396.16496448
0.22600001 186752.90967465 6994.83056264
0.22700001 183044.77492458 9390.19739769
0.22800001 179391.79000742 7394.52993379
0.22900001 175794.19433543 7884.36998880
0.23000001 172252.18643477 6565.39239645
0.23100001 168766.68690059 5873.08098189
0.23200001 165333.93248337 7511.94757765
0.23300001 161956.51193284 5684.67383770
0.23400001 158632.96908406 6150.99366715
0.23500001 155361.57038888 5499.79985189
0.23600001 152144.13804900 6490.46923615
0.23700001 148979.23420738 6382.27069531
0.23800001 145866.38123020 7321.03402022
0.23900001 142805.56787037 6169.20082380
0.24000001 139795.76301517 8085.78731526
0.24100001 136838.27684336 6457.39858968
0.24200001 133930.49887317 6834.47368078
0.24300001 131073.00029822 5276.99924162
0.24400001 128264.50207740 5656.46480918
0.24500001 125505.76337021 5557.39546492
0.24600001 122796.06845808 4549.59455159
0.24700001 120135.01490844 5362.82731921
0.24800001 117520.99482178 5706.23217351
0.24900001 114954.49259651 6897.26988208
0.25000001 112435.41844799 6349.79055725
0.25100001 109962.29363280 4572.23238556
0.25200001 107536.29779482 5713.40377214
0.25300001 105156.09992333 4807.73711595
0.25400001 102820.19013193 5112.73419620
0.25500001 100529.20932920 5018.41836714
0.25600001 98282.70779294  4546.55827761
0.25700001 96079.88650787  3718.29178378
0.25800001 93920.16863595  3648.79872415
0.25900001 91803.77182703  4296.41672479
0.26000001 89730.24228976  4918.11481260
0.26100001 87696.51805304  4135.76798707
0.26200001 85706.71244936  4395.46895595
0.26300001 83756.38442009  4643.45417197
0.26400001 81846.64102847  5205.44661572
0.26500001 79977.77716429  3829.33615183
0.26600001 78147.32525064  4381.72073414
0.26700001 76357.26446659  3990.43082985
0.26800001 74605.51080846  3913.43225464
0.26900001 72891.29260995  4132.93648656
0.27000001 71215.58885085  3184.40520616
0.27100001 69576.71235951  4258.09499791
0.27200001 67975.15732788  3897.01595403
0.27300001 66409.15506313  3548.24132294
0.27400001 64878.16386499  4014.33657912
0.27500001 63384.51307011  3148.94275835
0.27600001 61923.80994472  2830.22786747
0.27700001 60499.38643375  2775.10698705
0.27800001 59107.65654282  3957.84886942
0.27900001 57750.23610570  2910.61203748
0.28000001 56425.28832564  2853.99121859
0.28100001 55132.89520735  3031.75805094
0.28200001 53873.10182715  2515.60460888
0.28300001 52644.95334676  2242.67511872
0.28400001 51448.15923182  2419.34980239
0.28500001 50282.36595415  2804.24768199
0.28600001 49146.22892943  2327.31978111
0.28700001 48040.48206103  2282.88381559
0.28800001 46963.54697740  2239.45684362
0.28900001 45916.96715776  2596.60461568
0.29000001 44897.84238715  2547.72818685
0.29100001 43908.03190934  2500.12345526
0.29200001 42945.22437998  2076.18697093
0.29300001 42009.77261731  2593.68348417
0.29400001 41101.08451433  2000.59538344
0.29500001 40219.94709772  2500.07202994
0.29600001 39363.66497299  2279.74676483
0.29700001 38532.86245665  1722.41903335
0.29800001 37727.90150346  2030.51575504
0.29900001 36947.63117606  1995.17217796
0.30000001 36191.55153172  2451.07294352
0.30100001 35460.26696908  1606.35016974
0.30200001 34751.37106165  2053.28485638
0.30300001 34066.29828441  1864.10793037
0.30400001 33404.61520485  1833.91346157
0.30500001 32764.04175394  1503.86958770
0.30600001 32145.93197707  1776.38428515
0.30700001 31549.85028878  2040.64441329
0.30800001 30974.75280645  1866.38381871
0.30900001 30420.36405100  2121.82049301
0.31000001 29887.33111961  1394.24406274
0.31100001 29372.67609620  1787.03369830
0.31200001 28879.06542477  1762.63384165
0.31300001 28403.92917700  1337.82512758
0.31400001 27949.34149681  1980.90967238
0.31500001 27512.51411581  1695.32120008
0.31600002 27093.85510563  1545.97544553
0.31700002 26692.82079656  1400.57237351
0.31800002 26309.76155661  1258.92215009
0.31900002 25944.13409569  1369.85034511
0.32000002 25594.98554358  1478.87833473
0.32100002 25262.87301270  1586.25587158
0.32200002 24947.17943024  1329.55999069
0.32300002 24646.53172209  1796.73224762
0.32400002 24361.92734681  1900.23042303
0.32500002 24091.96498942  1295.90685814
0.32600002 23837.55579943  1403.07860079
0.32700002 23597.34740622  1277.08850210
0.32800002 23372.23509454  1384.10382784
0.32900002 23159.79621192  1261.05096345
0.33000002 22962.60779055  1710.14029618
0.33100002 22776.54709567  1587.98093871
0.33200002 22605.76027986  1693.73666918
0.33300002 22446.61350813  1349.49046801
0.33400002 22300.56633764  1344.72421384
0.33500002 22166.06917401  1452.32092106
0.33600002 22043.62418770  1560.02735764
0.33700002 21931.95863668  1334.34042665
0.33800002 21833.02935508  1554.29343340
0.33900002 21743.75523293  1219.82472634
0.34000002 21666.12399077  1662.33344192
0.34100002 21598.58984123  1108.00771133
0.34200002 21542.22540759  1662.52132457
0.34300002 21494.48049919  1220.02677091
0.34400002 21457.21243903  1443.53403520
0.34500002 21428.97408469  1779.46209227
0.34600002 21411.19360422  1448.78848384
0.34700002 21400.19255481  1340.50812512
0.34800002 21399.40352440  1120.25882756
0.34900002 21406.74564891  1461.01045973
0.35000002 21422.30225529  1240.67269388
0.35100002 21445.84691555  1358.80892493
0.35200002 21476.43250161  1137.17715482
0.35300002 21514.95868223  1713.66654020
0.35400002 21561.08112343  1377.75314904
0.35500002 21614.07489146  1500.44915003
0.35600002 21673.27451716  1276.66429590
0.35700002 21739.34022331  1400.88315034
0.35800002 21812.35560905  1292.05494570
0.35900002 21891.13316829  1536.75762120
0.36000002 21976.58958351  1428.03885878
0.36100002 22066.76629450  1437.87055986
0.36200002 22163.83954602  1327.50323249
0.36300002 22264.42173465  1337.20123272
0.36400002 22371.14337229  1347.30217341
0.36500002 22482.24158118  1357.70263340
0.36600002 22598.77446383  1368.46885248
0.36700002 22719.33854724  1379.51830193
0.36800002 22845.77199812  1643.86760199
0.36900002 22975.44049533  1657.67811026
0.37000002 23108.27135289  2314.75565107
0.37100002 23245.52953743  1297.10060963
0.37200002 23386.82992936  1439.34251618
0.37300002 23530.98660457  1584.10609326
0.37400002 23679.61112445  1731.57164550
0.37500002 23830.27888667  1344.02779288
0.37600002 23985.03966550  1491.98946307
0.37700002 24141.41311322  1779.46364487
0.37800002 24301.54278903  1934.15988220
0.37900002 24463.89152383  1673.33025950
0.38000002 24628.77767237  1970.54859492
0.38100002 24795.44000732  1847.01241364
0.38200002 24964.43571635  1577.62758983
0.38300002 25135.19806550  1592.56622488
0.38400002 25308.44452843  2046.18783706
0.38500002 25482.18368970  1918.04405719
0.38600002 25658.81638809  2085.29210665
0.38700002 25835.66397052  1804.36285718
0.38800002 26013.98923026  1517.91634350
0.38900002 26193.49235147  2298.47906273
0.39000002 26374.74757800  2320.31852810
0.39100002 26556.00709349  1873.79194929
0.39200002 26738.51410048  1733.85902899
0.39300002 26921.38866787  1591.05414565
0.39400002 27105.59146479  1606.00637038
0.39500002 27289.34946447  1783.08617849
0.39600002 27473.45328260  1636.04422049
0.39700002 27657.45692117  2146.49533335
0.39800002 27842.53364350  2166.28843277
0.39900002 28026.73668020  2017.92513658
0.40000002 28210.94859186  2036.26636584
0.40100002 28394.59290484  1883.41343661
0.40200002 28579.17673060  2073.13357826
0.40300002 28762.24048455  2265.88941273
0.40400002 28944.74489854  2461.75067026
0.40500002 29126.90721298  2838.12597330
0.40600002 29308.47013109  1968.21040491
0.40700002 29489.23595691  2346.16372390
0.40800002 29669.28781532  2184.25307246
0.40900002 29847.63621322  2019.19268550
0.41000002 30025.74087726  3517.06532430
0.41100002 30202.46767884  3173.07140469
0.41200002 30377.40511381  2070.06836957
0.41300002 30551.50658322  2086.97351359
0.41400002 30724.19003666  3251.38756469
0.41500002 30895.86331609  3084.64313964
0.41600002 31064.81938032  2331.72545317
0.41700002 31233.08860990  2349.97769836
0.41800002 31400.53812581  2368.22869767
0.41900002 31564.37360399  1988.55563128
0.42000002 31727.16004133  2003.57025155
0.42100002 31888.71018012  2422.26654006
0.42200002 32048.25939551  2236.80837050
0.42300002 32205.28094660  3072.38394789
0.42400002 32360.34398205  2062.97202661
0.42500002 32513.85748847  3116.45338795
0.42600002 32663.97149197  2301.34022052
0.42700002 32813.12714234  2317.26314860
0.42800002 32959.52808375  2545.13487923
0.42900002 33104.27113520  2348.74814834
0.43000002 33246.65834039  2149.39656356
0.43100002 33385.35957418  2812.38282380
0.43200002 33522.62675151  2177.29471069
0.43300002 33657.07854551  2848.39869229
0.43400002 33789.31031095  2204.75260227
0.43500002 33918.77629721  2440.11688246
0.43600002 34046.46483097  2901.26963806
0.43700002 34170.58233719  2245.00736594
0.43800002 34291.47322343  2483.90298065
0.43900002 34410.75456153  3860.88684477
0.44000002 34526.56414855  2283.93232666
0.44100002 34640.38458129  2755.98912789
0.44200002 34751.16047622  2309.21472308
0.44300002 34859.43589577  2553.80239475
0.44400002 34964.23525014  2333.86281355
0.44500002 35065.48206173  3284.23320554
0.44600002 35164.63070788  3300.90404098
0.44700002 35261.10304170  3791.27397872
0.44800002 35353.75275295  2619.18289683
0.44900002 35444.66041682  3349.52056813
0.45000002 35532.23416392  2403.75575511
0.45100002 35615.79238120  3139.17608925
0.45200002 35697.17665456  2425.62326863
0.45300002 35775.07124877  4141.68019476
0.45400002 35850.43790831  2691.47175352
0.45500002 35922.66716381  2948.53266055
0.45600002 35991.38391851  2960.65138145
0.45700002 36057.28754272  3963.41723454
0.45800002 36119.37395114  2984.18281728
0.45900002 36178.73815371  2496.33305092
0.46000002 36235.80395351  3507.98834700
0.46100002 36288.47032122  3269.22844618
0.46200002 36338.79380726  3785.59402429
0.46300002 36385.56870519  2785.67927210
0.46400002 36428.80953775  4065.45533710
0.46500002 36469.79089270  3059.08620507
0.46600002 36506.87224358  3324.49847843
0.46700002 36540.81199725  3591.23117330
0.46800002 36572.25178649  3859.28705269
0.46900002 36599.74237374  2838.31015561
0.47000002 36623.94529638  3104.97822939
0.47100002 36645.41685854  5448.44083677
0.47200002 36663.46067225  3901.90898698
0.47300002 36678.88646419  3129.44274145
0.47400002 36689.92613417  3398.40456925
0.47500002 36698.85092629  2882.32788837
0.47600002 36704.89326051  3151.48228472
0.47700002 36706.73104974  3421.43456332
