# SAXS profile: number of points = 501, q_min = 0, q_max = 0.5, delta_q = 0.001
#    q    intensity    error
0.00000000 1664650.74656090 324.60689558
0.00100000 1664582.48036524 599.24970716
0.00200000 1664377.62432089 823.86695013
0.00300000 1664036.35529747 1297.94840337
0.00400000 1663558.52631689 1372.43583636
0.00500000 1662944.62095671 1945.64528353
0.00600000 1662194.32888758 2617.95617458
0.00700000 1661308.33183396 2591.64110537
0.00800000 1660286.08884488 3810.35673477
0.00900000 1659128.92649984 2737.56284575
0.01000000 1657835.98508956 3008.97244286
0.01100000 1656408.56810478 3875.99621812
0.01200000 1654846.06683807 4195.03496336
0.01300000 1653149.89522496 4165.93791970
0.01400000 1651319.33466135 3715.46866770
0.01500000 1649356.05071669 6729.37298658
0.01600000 1647259.02539735 4620.56177279
0.01700000 1645030.29786326 4885.74020382
0.01800000 1642669.40936019 5617.92963281
0.01900000 1640177.12031381 4920.53158297
0.02000000 1637554.07050111 6189.95466650
0.02100000 1634801.80249294 5394.84619282
0.02200000 1631918.62153263 7882.16730011
0.02300000 1628907.32840714 6450.47331411
0.02400000 1625767.84000646 7315.95561362
0.02500000 1622501.45559659 8226.08275557
0.02600000 1619108.34269576 6557.38908784
0.02700000 1615589.58753195 8142.57189410
0.02800000 1611945.04157136 9115.54962812
0.02900000 1608177.15268946 9407.83677519
0.03000000 1604286.43156235 8951.91869960
0.03100000 1600272.87549829 10753.83421817
0.03200000 1596137.67274854 7900.88184401
0.03300000 1591883.57771682 8930.46728269
0.03400000 1587508.48831004 8334.41994818
0.03500000 1583015.72648633 11967.59944488
0.03600000 1578405.17306938 9636.16402691
0.03700000 1573678.48323687 9866.96454622
0.03800000 1568837.10425332 11931.00673001
0.03900000 1563882.12427452 11259.95181623
0.04000000 1558812.50588396 11504.03682651
0.04100000 1553632.29544507 11745.46069816
0.04200000 1548341.70264045 12982.84577895
0.04300000 1542940.65897944 10183.40882196
0.04400000 1537433.13116560 11415.44152906
0.04500000 1531818.35229564 16911.27539512
0.04600000 1526096.94933403 10758.98399296
0.04700000 1520272.03763380 15324.34285205
0.04800000 1514343.75025644 15582.59791517
0.04900000 1508314.91901425 12443.59866109
0.05000000 1502184.77743315 14939.22830723
0.05100000 1495956.89699304 16335.85007615
0.05200000 1489629.49303744 15395.32152798
0.05300000 1483207.90497427 16819.57842650
0.05400000 1476690.33564048 12182.69583716
0.05500000 1470081.03643332 20992.75817956
0.05600000 1463378.22487519 13763.07284719
0.05700000 1456586.95702754 19008.46067650
0.05800000 1449705.85168236 14112.88712509
0.05900000 1442736.88369735 12984.63255973
0.06000000 1435682.85327019 13136.49872114
0.06100000 1428545.29298049 17271.11339924
0.06200000 1421324.54215627 18804.12457170
0.06300000 1414023.57874790 13574.62699067
0.06400000 1406640.96618550 26058.02511723
0.06500000 1399182.58321966 13851.90822184
0.06600000 1391646.31391476 15384.65072015
0.06700000 1384035.23309285 16940.59204586
0.06800000 1376352.28785443 17094.29621532
0.06900000 1368598.02848505 18681.36396346
0.07000000 1360772.15438291 17390.66894739
0.07100000 1352879.54813417 26299.97964756
0.07200000 1344918.86176974 17672.23467154
0.07300000 1336895.32802228 17807.44660364
0.07400000 1328807.57334150 19433.81167087
0.07500000 1320658.45395042 19572.15920494
0.07600000 1312447.94892355 16674.65197279
0.07700000 1304181.53941314 15258.92472660
0.07800000 1295857.37881217 23033.86598859
0.07900000 1287477.70664166 18539.67984522
0.08000000 1279046.36752242 20202.53832274
0.08100000 1270563.15983460 15627.92759920
0.08200000 1262029.46077716 25139.62803836
0.08300000 1253448.10504249 18952.13623770
0.08400000 1244819.67079439 23807.17732142
0.08500000 1236147.96691400 22324.83333051
0.08600000 1227432.69376242 16017.99740567
0.08700000 1218676.41089243 19303.83525500
0.08800000 1209878.73992347 17767.07013018
0.08900000 1201045.51312196 24321.17278308
0.09000000 1192175.03766025 16273.19002850
0.09100000 1183270.45034038 19594.95957823
0.09200000 1174332.38728528 22934.71260131
0.09300000 1165364.15952393 19717.96250573
0.09400000 1156364.60631819 18126.01605591
0.09500000 1147337.46511362 26434.65643872
0.09600000 1138284.12075608 16562.03473555
0.09700000 1129207.55641437 23239.09260354
0.09800000 1120108.27409099 18296.96951756
0.09900000 1110988.40787194 23330.75766238
0.10000000 1101847.39898630 21700.88554357
0.10100000 1092688.41055414 20061.76016131
0.10200000 1083513.43020242 18414.31161243
0.10300000 1074323.50747221 20111.33700593
0.10400000 1065121.04565485 23485.92016159
0.10500000 1055908.82425558 20146.74131469
0.10600001 1046683.24519735 25198.90031382
0.10700001 1037451.98251895 20168.06748923
0.10800001 1028212.37866086 31941.41904632
0.10900001 1018968.34323475 18494.27630016
0.11000001 1009720.09668890 25217.76060179
0.11100001 1000469.98751300 16807.89658142
0.11200001 991219.98835984 28562.00530921
0.11300001 981969.47795482 18470.84674995
0.11400001 972722.38192767 20135.35425396
0.11500001 963479.38653144 20117.45053807
0.11600001 954241.32619763 20096.32327609
0.11700001 945010.95291555 18399.36411978
0.11800001 935786.77054308 20044.55356910
0.11900001 926573.21089043 18346.15043976
0.12000001 917370.09304839 23310.37516239
0.12100001 908181.11937018 18281.68679414
0.12200001 899004.36848162 18245.29451789
0.12300001 889843.44723226 18206.19778815
0.12400001 880698.32543290 16513.09437992
0.12500001 871571.29449396 18119.96806635
0.12600001 862464.68976801 18072.94842575
0.12700001 853378.06946838 19661.83164714
0.12800001 844312.07075410 17971.18327297
0.12900001 835269.81853862 19545.31467502
0.13000001 826251.54361743 19483.01231683
0.13100001 817258.02228983 25890.73536657
0.13200001 808292.11055328 22575.59971197
0.13300001 799354.70639353 19280.43642715
0.13400001 790444.94380236 20808.46412663
0.13500001 781566.29536241 25510.32508339
0.13600001 772717.85300657 26994.89946761
0.13700001 763902.70282177 15812.78669404
0.13800001 755119.44203238 17318.66521969
0.13900001 746373.39708387 15673.84207791
0.14000001 737661.29158531 23402.30557921
0.14100001 728986.37050800 18632.89250897
0.14200001 720348.08104516 21632.05389407
0.14300001 711750.94923678 18448.58547439
0.14400001 703189.33928759 18353.24262113
0.14500001 694672.00178037 19777.31282363
0.14600001 686193.72099758 18156.68671413
0.14700001 677760.98227696 22569.44177457
0.14800001 669369.16894306 20944.56228437
0.14900001 661021.14458407 16360.27410035
0.15000001 652718.67032672 20697.71001264
0.15100001 644462.46249702 17632.49380591
0.15200001 636253.71979385 17522.42826995
0.15300001 628092.35178040 17410.72081295
0.15400001 619977.21979824 21621.70656081
0.15500001 611912.93601997 21478.14506792
0.15600001 603896.61590669 24177.00215886
0.15700001 595934.29929347 15536.00791583
0.15800001 588018.28925130 16829.08423268
0.15900001 580157.31768682 16708.53153803
0.16000001 572346.45360448 15204.38425769
0.16100001 564591.87464171 20579.37480212
0.16200001 556888.50310074 16339.10945228
0.16300001 549240.71537931 14862.45445979
0.16400001 541647.35500805 16086.92720320
0.16500001 534109.72144276 15959.19923016
0.16600001 526627.58964223 17149.62826639
0.16700001 519201.75219975 17009.05020514
0.16800001 511831.46669641 16867.40678140
0.16900001 504521.03421425 21870.98786589
0.17000001 497267.46495403 16581.38440186
0.17100001 490071.98905349 17701.40108050
0.17200001 482935.55066526 13785.39594473
0.17300001 475858.10741942 16145.86634722
0.17400001 468840.75084880 17229.89840739
0.17500001 461882.67385000 18290.55474828
0.17600001 454982.79892673 16911.71143483
0.17700001 448145.97294040 13162.04784691
0.17800001 441368.99851119 16591.06143767
0.17900001 434652.73751947 15256.31180754
0.18000001 427998.55897529 12782.17756756
0.18100001 421406.84745422 14955.72972261
0.18200001 414874.16655967 12527.12605102
0.18300001 408406.08643535 12399.20936991
0.18400001 401998.60656360 14502.10041687
0.18500001 395654.30454052 14350.38230363
0.18600001 389372.49582095 13106.27882852
0.18700001 383152.84867680 10804.91084316
0.18800001 376995.55345483 11756.60688994
0.18900001 370903.14251954 14799.03608575
0.19000001 364869.72415386 14634.92532729
0.19100001 358904.14462708 15504.65978049
0.19200001 352998.38067126 12263.16432397
0.19300001 347157.79391732 12122.75073642
0.19400001 341379.50513569 11982.42119648
0.19500001 335664.98862990 10855.40624526
0.19600001 330012.51203005 10727.05721046
0.19700001 324423.90757373 12526.00766337
0.19800001 318898.60327515 13326.77326068
0.19900001 313437.11418586 10343.42525696
0.20000001 308036.76517220 11144.77069064
0.20100001 302701.20079489 10089.03149932
0.20200001 297427.43740446 10867.99907642
0.20300001 292217.11169743 9836.02844463
0.20400001 287069.50379670 9710.12642488
0.20500001 281983.67184213 10455.95504613
0.20600001 276960.93524311 12899.45616868
0.20700001 272000.31497725 10183.69227412
0.20800001 267101.60581390 10048.36288571
0.20900001 262267.19013227 9087.55856766
0.21000001 257492.00249857 8149.62226433
0.21100001 252778.54041924 17684.38752373
0.21200001 248126.61483427 10305.93943435
0.21300001 243535.65774568 13289.74147146
0.21400001 239006.69455728 8478.76289027
0.21500001 234538.83831834 9878.77633701
0.21600001 230129.78885844 8239.79747964
0.21700001 225781.90254287 10336.29598711
0.21800001 221493.84840328 8003.68059047
0.21900001 217264.34045834 9320.64064636
0.22000001 213094.11924018 7770.47742550
0.22100001 208985.21048150 6959.20783809
0.22200001 204933.98130995 7540.54619885
0.22300001 200940.94746281 7426.77776940
0.22400001 197004.49543666 7978.68244247
0.22500001 193128.95103705 6547.07174975
0.22600001 189309.00562933 7090.56914115
0.22700001 185547.13832370 6980.28367383
0.22800001 181841.34488659 6246.25049224
0.22900001 178191.55943144 9221.41363667
0.23000001 174598.03412597 9679.71546972
0.23100001 171061.66936349 6548.24101292
0.23200001 167578.75527455 7028.25332861
0.23300001 164151.84023194 5761.72986464
0.23400001 160779.42980076 6234.22268537
0.23500001 157459.94204322 7803.71509675
0.23600001 154195.05499713 6577.96135730
0.23700001 150983.33186153 7007.13676312
0.23800001 147824.49650663 7419.31183059
0.23900001 144718.20867698 6772.81248643
0.24000001 141663.76282729 6145.37432213
0.24100001 138662.04261534 6040.11886203
0.24200001 135710.92108907 5935.99596922
0.24300001 132810.73704323 5346.96052629
0.24400001 129960.14004814 4776.03537269
0.24500001 127160.02700612 5161.42574034
0.24600001 124409.39308779 5070.30505514
0.24700001 121708.49944553 4980.31203291
0.24800001 119055.07294867 4446.70718499
0.24900001 116449.84279990 6113.61703621
0.25000001 113892.72813776 5145.67370070
0.25100001 111382.19822210 5473.32147957
0.25200001 108919.49357471 4960.19397206
0.25300001 106503.18382980 4463.54864548
0.25400001 104131.88707641 4381.34935603
0.25500001 101806.06391121 6254.96486264
0.25600001 99525.56677060  3836.71078053
0.25700001 97289.29092577  4141.60531066
0.25800001 95096.69667994  4433.40820898
0.25900001 92948.16599344  4712.47223884
0.26000001 90843.03472741  4623.45647121
0.26100001 88778.28165670  4535.68262445
0.26200001 86758.29418812  5476.18378827
0.26300001 84778.38515528  3692.94663210
0.26400001 82839.56844142  4610.02220190
0.26500001 80942.24555280  3552.55532542
0.26600001 79084.06968178  4117.51228282
0.26700001 77266.83886130  3416.73977613
0.26800001 75488.55198496  4873.54114677
0.26900001 73748.39179059  3882.85301152
0.27000001 72047.29837867  3221.59509945
0.27100001 70383.79542859  3158.82488832
0.27200001 68758.02109790  3378.76931665
0.27300001 67168.51205794  3864.87636672
0.27400001 65614.55815992  2706.60065219
0.27500001 64098.51946955  3184.41459795
0.27600001 62616.09810414  2861.86889929
0.27700001 61170.32472795  2550.80266188
0.27800001 59758.00290031  2500.87253974
0.27900001 58380.38702923  3432.76691978
0.28000001 57035.95604208  3606.09849143
0.28100001 55724.60618111  2592.86604832
0.28200001 54446.40164458  2542.37484512
0.28300001 53200.40806774  3399.50623643
0.28400001 51986.20661022  3333.61565666
0.28500001 50803.74145139  2397.42867256
0.28600001 49651.16014048  2351.23079974
0.28700001 48529.75491943  3144.72826763
0.28800001 47437.62977421  2467.70561766
0.28900001 46376.43195103  2219.11237390
0.29000001 45343.00018893  2177.14425713
0.29100001 44339.50344219  2913.10551404
0.29200001 43363.56853075  1905.82892714
0.29300001 42415.44099614  1870.52103647
0.29400001 41494.52032770  1836.13261142
0.29500001 40601.58749285  1982.98162702
0.29600001 39734.09156916  2124.18463584
0.29700001 38892.52614871  1912.34560126
0.29800001 38077.22370251  1707.76356390
0.29900001 37287.13847398  2684.67409722
0.30000001 36521.62713390  2803.21762337
0.30100001 35781.47229475  2107.17100319
0.30200001 35064.04612679  1593.66097191
0.30300001 34370.84301382  1724.04156719
0.30400001 33701.60154692  1696.03317814
0.30500001 33053.81300584  2579.18915095
0.30600001 32428.88179871  2090.69010854
0.30700001 31826.44876379  2058.53480350
0.30800001 31245.31960783  2317.15301182
0.30900001 30685.40638401  2140.30719662
0.31000001 30147.12391044  1968.90875581
0.31100001 29627.69236942  1525.23367539
0.31200001 29129.59614571  1914.68844531
0.31300001 28650.50379720  1484.38267201
0.31400001 28192.22696670  1465.29106597
0.31500001 27752.03947511  1446.99140674
0.31600002 27330.46730341  1559.47653817
0.31700002 26926.88162478  1669.73600861
0.31800002 26541.54810944  1651.01707832
0.31900002 26173.94654509  1381.98444302
0.32000002 25823.22119405  1367.72697530
0.32100002 25489.88413781  1723.62604701
0.32200002 25173.18953169  1341.60519962
0.32300002 24871.94106520  1329.65403231
0.32400002 24586.93918351  1678.05867873
0.32500002 24316.92612386  1664.73684127
0.32600002 24062.72231372  1652.38721953
0.32700002 23823.08677095  1289.30551710
0.32800002 23598.82445963  1746.90306335
0.32900002 23387.49598438  1273.44921665
0.33000002 23191.68685995  1151.46730712
0.33100002 23007.13337719  1604.05741502
0.33200002 22838.26754414  1483.00297321
0.33300002 22681.19766846  1477.22647410
0.33400002 22537.51728125  1359.01235642
0.33500002 22405.63133951  1693.86580948
0.33600002 22285.91286130  1239.20824334
0.33700002 22177.36214712  1799.02770257
0.33800002 22081.62043694  1459.70558811
0.33900002 21995.88729767  2243.58061061
0.34000002 21921.81820378  1457.69137049
0.34100002 21858.23254727  1233.46012106
0.34200002 21805.92753788  1234.10652745
0.34300002 21762.37105105  1122.93839942
0.34400002 21729.65079883  1236.96043031
0.34500002 21705.88675112  1351.84269088
0.34600002 21692.88769884  1242.02634402
0.34700002 21686.80583229  1245.25644987
0.34800002 21691.11668338  1135.53001216
0.34900002 21703.63602919  1367.32913460
0.35000002 21724.54381086  1486.93647156
0.35100002 21753.65231068  1608.03005497
0.35200002 21789.82633671  1384.52563101
0.35300002 21834.11895106  1391.27012546
0.35400002 21886.12722819  1281.97996311
0.35500002 21944.99522534  1640.60792075
0.35600002 22010.29520516  1532.24677328
0.35700002 22082.60604244  1185.83600065
0.35800002 22161.90987828  1312.76079382
0.35900002 22246.97717017  1321.47050650
0.36000002 22338.85833683  1451.57908348
0.36100002 22435.68300488  1461.90917384
0.36200002 22539.28617534  1595.44344749
0.36300002 22646.62980034  1607.45785937
0.36400002 22760.06719575  1246.11373799
0.36500002 22877.97856449  1256.00108268
0.36600002 23001.32897514  1392.84554207
0.36700002 23128.85000362  1787.39761295
0.36800002 23262.24030768  1545.07807442
0.36900002 23398.87469723  1688.22888937
0.37000002 23538.67939089  1833.89859821
0.37100002 23682.93499236  1453.65861869
0.37200002 23831.26287288  1733.36698717
0.37300002 23982.50848269  1749.04442650
0.37400002 24138.22993878  1493.55304821
0.37500002 24296.01628070  2192.47261303
0.37600002 24457.83489450  2212.94500608
0.37700002 24621.33353319  1814.83858070
0.37800002 24788.45484079  1550.14609690
0.37900002 24957.85479382  1707.11734877
0.38000002 25129.83630960  1436.17021313
0.38100002 25303.50729588  1449.89103674
0.38200002 25479.53270363  1902.93899012
0.38300002 25657.27373893  2069.00265232
0.38400002 25837.43232209  1939.74532347
0.38500002 26018.15664588  1958.38674351
0.38600002 26201.53721108  1673.09923788
0.38700002 26385.26215456  1689.18456316
0.38800002 26570.31773612  2015.49154736
0.38900002 26756.50999238  2191.35827219
0.39000002 26944.41424380  1896.34796432
0.39100002 27132.24009365  2073.98853102
0.39200002 27321.32534284  1932.71064632
0.39300002 27510.56851105  2113.63707884
0.39400002 27701.21590256  1969.55654398
0.39500002 27891.20576471  2153.75901119
0.39600002 28081.56389424  2006.70865096
0.39700002 28271.67211161  2025.38268603
0.39800002 28462.88180704  2384.90497960
0.39900002 28653.08770501  2063.02241250
0.40000002 28843.03082925  2081.89006389
0.40100002 29032.51224488  2100.79268557
0.40200002 29222.79721269  2649.77726281
0.40300002 29411.33978448  1960.56000292
0.40400002 29599.43003956  1798.16546010
0.40500002 29786.90751625  2902.43640590
0.40600002 29973.81247277  2561.86187343
0.40700002 30159.65590085  2030.34813145
0.40800002 30344.68640846  2420.14057918
0.40900002 30527.94349426  2440.70919801
0.41000002 30710.85788934  1893.32447859
0.41100002 30892.25650082  2100.05569643
0.41200002 31071.66979600  1924.89003507
0.41300002 31250.24936756  1940.64057768
0.41400002 31427.11599228  2738.87328850
0.41500002 31602.95876698  2169.22719255
0.41600002 31775.96108215  2186.34510585
0.41700002 31948.10219502  2203.46071280
0.41800002 32119.28772014  2422.43679464
0.41900002 32286.73091866  2847.68980196
0.42000002 32452.93859387  2664.22412011
0.42100002 32617.82236346  2684.12072948
0.42200002 32780.52493115  3327.87904870
0.42300002 32940.53955016  3142.52762200
0.42400002 33098.54603562  2954.04537366
0.42500002 33254.76301786  2549.97534904
0.42600002 33407.40013695  2353.71848818
0.42700002 33558.97401571  2369.93485729
0.42800002 33707.68142490  2602.90728297
0.42900002 33854.52162218  3057.06344735
0.43000002 33998.89356942  3736.64857482
0.43100002 34139.41798737  2433.45782946
0.43200002 34278.24995835  3339.55866045
0.43300002 34414.26619991  2912.47948652
0.43400002 34547.84263492  2705.09620650
0.43500002 34678.39190458  2948.35701945
0.43600002 34807.11971704  2737.92816669
0.43700002 34932.12822977  3213.05730684
0.43800002 35053.66465726  2539.11231978
0.43900002 35173.54704870  2785.74505827
0.44000002 35289.69295224  3034.73728924
0.44100002 35403.74262151  3286.17554586
0.44200002 35514.55621487  2595.93660955
0.44300002 35622.69875018  3321.46058887
0.44400002 35727.22661378  3338.70948528
0.44500002 35827.99189005  2636.58204814
0.44600002 35926.58670675  3854.20440456
0.44700002 36022.35914125  3631.05397352
0.44800002 36113.95100488  2675.50218699
0.44900002 36203.83492444  2688.13487054
0.45000002 36290.21474045  2946.03977225
0.45100002 36372.35084163  3945.67280630
0.45200002 36452.15033186  3467.69322541
0.45300002 36528.23652345  3233.84493268
0.45400002 36601.77049179  3247.49224079
0.45500002 36671.92769675  2759.19597067
0.45600002 36738.53711453  2770.26952241
0.45700002 36802.00996312  3033.95784515
0.45800002 36861.58794562  4568.25681061
0.45900002 36918.28460374  2547.36175839
0.46000002 36972.43248125  3579.30135815
0.46100002 37022.10501577  3335.32159895
0.46200002 37069.27030490  3089.35313363
0.46300002 37112.83380224  3874.58003259
0.46400002 37152.59694327  2591.39375961
0.46500002 37190.06390923  3119.50270856
0.46600002 37223.30611449  2868.24198859
0.46700002 37253.36507166  3138.22362238
0.46800002 37280.78843006  2884.97394940
0.46900002 37304.13275380  2892.93563217
0.47000002 37323.92413302  2900.62890148
0.47100002 37340.92493777  2643.73761090
0.47200002 37354.35564109  2915.32082419
0.47300002 37365.14370802  2656.66184356
0.47400002 37371.16407674  2662.69556667
0.47500002 37375.10565726  2935.44093745
0.47600002 37376.01907300  2941.67972057
0.47700002 37372.50782873  3751.45251366
