# SAXS profile: number of points = 501, q_min = 0, q_max = 0.5, delta_q = 0.001
#    q    intensity    error
0.00000000 1664650.74656090 299.63713438
0.00100000 1664582.50547163 599.24971620
0.00200000 1664377.72749378 823.86700120
0.00300000 1664036.58544997 1098.26418552
0.00400000 1663558.93329339 1621.97002159
0.00500000 1662945.25287603 1945.64602288
0.00600000 1662195.24238862 2443.42710579
0.00700000 1661309.58823016 1993.57158873
0.00800000 1660287.72953728 3137.94394131
0.00900000 1659130.99299493 2986.43591505
0.01000000 1657838.54875747 2735.43372356
0.01100000 1656411.66378885 3577.84934956
0.01200000 1654849.74411199 5163.13142800
0.01300000 1653154.21819961 3471.62401133
0.01400000 1651324.34005479 4830.12390878
0.01500000 1649361.78788187 5146.00900734
0.01600000 1647265.54695358 5040.63279901
0.01700000 1645037.65496663 6662.40280148
0.01800000 1642677.64349839 5149.79464410
0.01900000 1640186.31654250 7380.83875748
0.02000000 1637564.23535829 5158.32757472
0.02100000 1634813.00154683 5394.88314970
0.02200000 1631930.88864937 6756.19418596
0.02300000 1628920.73918575 5864.11492799
0.02400000 1625782.42676486 6096.68437836
0.02500000 1622517.25496771 6960.59934171
0.02600000 1619125.38423761 7213.20391670
0.02700000 1615607.97580835 9499.77533285
0.02800000 1611964.76796533 10518.07059333
0.02900000 1608198.32363763 7960.58206751
0.03000000 1604309.04002768 9698.04859274
0.03100000 1600297.01377213 9985.85382542
0.03200000 1596163.36375098 9481.21081737
0.03300000 1591910.89692607 8930.62054346
0.03400000 1587537.37813911 10001.48594375
0.03500000 1583046.35199528 9403.29576508
0.03600000 1578437.46798469 10512.39402260
0.03700000 1573712.57749959 8970.16210660
0.03800000 1568873.04583478 11013.48929146
0.03900000 1563919.92663649 11260.22399324
0.04000000 1558852.15386051 10545.63530954
0.04100000 1553673.87089252 9788.14584047
0.04200000 1548385.32322388 12983.21153756
0.04300000 1542986.35606446 13238.82354955
0.04400000 1537480.82136975 11415.79562884
0.04500000 1531868.09169677 13740.85742099
0.04600000 1526148.83952949 17214.95971016
0.04700000 1520326.16185701 10946.34887446
0.04800000 1514400.08595920 12243.92526467
0.04900000 1508373.57275341 12444.08255446
0.05000000 1502245.67196788 16089.05189598
0.05100000 1496020.11289044 19837.22762103
0.05200000 1489695.10762134 14211.69198899
0.05300000 1483275.91390244 14417.44255524
0.05400000 1476760.77651188 18274.91546156
0.05500000 1470153.89629674 14819.15196597
0.05600000 1463453.66010638 18768.79406669
0.05700000 1456664.95893987 16474.88145463
0.05800000 1449786.41412932 12830.61036414
0.05900000 1442820.06106998 12985.38115612
0.06000000 1435768.62760799 18392.19697892
0.06100000 1428633.72505906 18600.81196951
0.06200000 1421415.58204376 18805.32902947
0.06300000 1414117.43493798 17648.18641317
0.06400000 1406737.53816376 15087.26080239
0.06500000 1399281.97596864 20779.33831515
0.06600000 1391748.52682872 22379.31735850
0.06700000 1384140.30150879 16941.87808333
0.06800000 1376460.14903924 14246.36320942
0.06900000 1368708.84944530 21557.16538805
0.07000000 1360885.85971282 15942.77859311
0.07100000 1352996.12551727 27763.48179599
0.07200000 1345038.51188062 16200.98963457
0.07300000 1337017.97148253 22261.35026825
0.07400000 1328933.14294143 14950.49855873
0.07500000 1320787.06877032 16562.67061871
0.07600000 1312579.55456815 15160.29456599
0.07700000 1304316.13607087 18312.59940909
0.07800000 1295995.04655832 18429.05042631
0.07900000 1287618.56421109 18541.70819432
0.08000000 1279190.38442337 17096.38028983
0.08100000 1270710.32746064 18755.68531330
0.08200000 1262179.69641303 18856.96554928
0.08300000 1253601.54180740 20533.99421851
0.08400000 1244976.22030320 17460.79230934
0.08500000 1236307.73325482 19138.04460922
0.08600000 1227595.70490821 17622.13717134
0.08700000 1218842.60355139 22524.21237132
0.08800000 1210048.00716709 17769.55581977
0.08900000 1201218.07710761 30811.24512501
0.09000000 1192350.90355121 17903.14965783
0.09100000 1183449.48895691 27763.72631530
0.09200000 1174514.68964328 18022.92875941
0.09300000 1165549.72907703 16434.25195227
0.09400000 1156553.38029663 16480.88644379
0.09500000 1147529.51157599 23134.19604074
0.09600000 1138479.47657287 24847.31574422
0.09700000 1129406.08586310 21582.95131552
0.09800000 1120310.12163446 28282.23035043
0.09900000 1111193.59211698 25001.85699828
0.10000000 1102055.77817175 18365.76040692
0.10100000 1092900.07654414 18393.50915332
0.10200000 1083728.43074693 18417.96554686
0.10300000 1074541.64180170 20115.42048077
0.10400000 1065342.53044493 20134.97477266
0.10500000 1056133.50994624 23509.53303751
0.10600001 1046911.17910327 18483.21773677
0.10700001 1037683.14621892 21853.60808775
0.10800001 1028446.80030851 18496.61657403
0.10900001 1019205.85769355 16816.89744344
0.11000001 1009960.96821932 26905.36145979
0.11100001 1000714.07418635 21855.59640905
0.11200001 991467.15854728 18485.90604138
0.11300001 982219.77835223 23514.34260083
0.11400001 972975.89253401 16783.83493647
0.11500001 963735.96549984 21799.70856611
0.11600001 954501.02761183 16751.49382344
0.11700001 945273.84234070 25097.02169609
0.11800001 936052.68045069 18379.39524629
0.11900001 926842.06270268 25024.73687168
0.12000001 917642.11356235 19986.24617484
0.12100001 908456.12019893 19949.69733936
0.12200001 899282.45076238 18250.93819805
0.12300001 890124.65782200 23178.84718174
0.12400001 880982.49272584 16518.42251692
0.12500001 871858.29377454 28012.80829895
0.12600001 862754.68680068 21366.12082546
0.12700001 853671.01333129 21307.62949690
0.12800001 844607.91806680 21246.11318028
0.12900001 835568.43965506 22811.01947771
0.13000001 826552.99762024 21114.29731943
0.13100001 817562.32009695 21044.05511126
0.13200001 808598.87398667 20971.01278542
0.13300001 799664.29537657 17680.57840429
0.13400001 790757.35752196 20816.68841818
0.13500001 781881.29268991 17545.41703520
0.13600001 773035.43914745 17474.46692586
0.13700001 764222.99933909 15819.41683226
0.13800001 755442.21588362 23626.45641588
0.13900001 746698.70488895 20384.87560478
0.14000001 737989.19285828 18730.16659807
0.14100001 729316.65329428 20194.77908216
0.14200001 720680.61085749 18550.31979840
0.14300001 712086.03678058 23071.58867992
0.14400001 703526.74578624 15301.70744263
0.14500001 695011.64182390 27397.36021309
0.14600001 686535.67801751 16651.92365586
0.14700001 678105.16004663 21075.50936852
0.14800001 669715.38914659 17961.76758432
0.14900001 661369.35432238 16368.89229178
0.15000001 653069.11794901 19229.62108532
0.15100001 644814.93123600 19112.31546365
0.15200001 636608.13807801 21915.23618745
0.15300001 628448.66952663 24679.18041690
0.15400001 620335.33916261 24518.75543747
0.15500001 612273.02042986 20058.06509588
0.15600001 604258.42486229 18499.37255024
0.15700001 596297.81968687 15545.48489293
0.15800001 588383.69408323 25259.31317920
0.15900001 580524.19879712 18112.35585738
0.16000001 572714.80352851 13831.06315807
0.16100001 564961.91924466 13728.57528569
0.16200001 557259.85575501 14987.50452803
0.16300001 549613.57416703 16224.59347534
0.16400001 542021.43578257 18781.04363651
0.16500001 534485.29613771 19963.02675322
0.16600001 527004.24144620 15841.74824581
0.16700001 519579.64305772 18330.77067256
0.16800001 512210.67887197 16879.90371923
0.16900001 504901.09860583 14162.47648462
0.17000001 497648.64857450 19147.03265802
0.17100001 490454.17710685 18980.57755032
0.17200001 483318.37027703 12542.11230096
0.17300001 476241.71047008 17401.87292237
0.17400001 469225.31983562 14780.59827285
0.17500001 462268.02695313 13424.26413671
0.17600001 455368.73915267 13299.04465506
0.17700001 448532.47050583 11975.81752813
0.17800001 441755.91207436 13047.26147937
0.17900001 435040.10653833 15269.90846075
0.18000001 428386.36252207 13956.82835022
0.18100001 421795.09670059 13818.00802063
0.18200001 415262.57532610 13678.74987740
0.18300001 408794.62105282 13539.27848886
0.18400001 402387.35502454 11166.24962943
0.18500001 396043.16409016 11049.60480012
0.18600001 389761.28834136 12026.08511993
0.18700001 383541.53565273 12979.04617968
0.18800001 377384.21522590 17118.14881141
0.18900001 371291.57998427 10581.81052952
0.19000001 365257.86922075 11511.10229238
0.19100001 359291.91060787 12417.12901732
0.19200001 353385.62057347 13299.66845871
0.19300001 347544.65762694 15170.32502225
0.19400001 341765.87007133 11995.98260636
0.19500001 336050.76721434 12843.86092987
0.19600001 330397.46484793 9763.24554763
0.19700001 324808.08524496 13505.52082272
0.19800001 319282.02192500 11436.68256584
0.19900001 313819.77535354 12238.97181720
0.20000001 308418.42931602 10228.69769169
0.20100001 303081.90396287 11938.39676133
0.20200001 297806.86731056 15415.97321494
0.20300001 292595.47467345 10744.10633782
0.20400001 287446.58355318 11490.67772065
0.20500001 282359.47104596 9597.39887449
0.20600001 277335.36202956 10333.51607767
0.20700001 272373.23777155 9347.84996218
0.20800001 267472.94015485 10062.33248427
0.20900001 262636.94658885 9100.37062949
0.21000001 257860.16903194 8161.27473566
0.21100001 253145.01802011 10465.01553967
0.21200001 248491.24106574 8733.22508011
0.21300001 243898.38464646 7829.13851728
0.21400001 239367.53415879 9263.52400989
0.21500001 234897.63843718 9132.82061421
0.21600001 230486.58509790 7502.33869964
0.21700001 226136.43642293 10352.52654890
0.21800001 221846.33952639 7287.65259801
0.21900001 217614.52934533 9335.66375032
0.22000001 213441.89813834 8490.71910941
0.22100001 209330.60132241 10456.06403045
0.22200001 205276.84283512 6866.51071751
0.22300001 201281.21183466 10144.57355616
0.22400001 197342.15877737 10656.47707788
0.22500001 193463.97142503 7870.11472973
0.22600001 189641.17635128 8394.46706815
0.22700001 185876.51316742 10806.86098660
0.22800001 182167.84099253 7508.95876081
0.22900001 178515.14881252 9238.15938793
0.23000001 174918.63472732 6667.02407793
0.23100001 171379.28099564 7156.79911284
0.23200001 167893.11069198 7041.43739544
0.23300001 164463.03764510 8658.97934154
0.23400001 161087.27872529 6813.99221235
0.23500001 157764.49621376 6701.83611613
0.23600001 154496.34192059 7689.28330107
0.23700001 151281.02084494 7561.02577945
0.23800001 148118.73635891 7434.07972948
0.23900001 145008.82309813 6264.38145414
0.24000001 141950.73046011 6157.82297863
0.24100001 138945.35902782 6052.46012554
0.24200001 135990.44219837 5452.53703786
0.24300001 133086.36936924 5845.15361919
0.24400001 130231.97438862 5264.62781370
0.24500001 127427.98130714 5172.30200593
0.24600001 124673.46163496 5542.98236650
0.24700001 121968.42491617 5898.39330798
0.24800001 119310.96814145 5793.14433216
0.24900001 116701.51500654 4376.30701978
0.25000001 114140.21710929 5586.59319071
0.25100001 111625.44883215 5485.27481511
0.25200001 109158.42068358 5799.58716530
0.25300001 106737.79880811 5693.39445778
0.25400001 104362.05176281 4790.21840254
0.25500001 102031.85679488 6660.63992670
0.25600001 99746.79639689  5767.85877454
0.25700001 97505.93056869  4150.82766070
0.25800001 95308.90318209  4813.57638296
0.25900001 93155.66271968  4359.68522156
0.26000001 91045.81541889  3564.44384230
0.26100001 88976.41207870  4196.12779218
0.26200001 86951.63323767  3773.26630289
0.26300001 84966.98249479  3701.16193260
0.26400001 83023.23645631  3630.19118583
0.26500001 81121.01178874  4531.41993294
0.26600001 79257.99321508  3809.13933416
0.26700001 77435.79758700  4358.08689442
0.26800001 75652.50124157  4273.60999737
0.26900001 73907.22092629  3891.21536591
0.27000001 72201.03343311  3228.46936274
0.27100001 70532.52955120  2877.72734187
0.27200001 68901.65171999  3103.67504860
0.27300001 67306.91834721  3042.94592248
0.27400001 65747.66532608  4610.55524918
0.27500001 64226.56114605  2924.87773301
0.27600001 62738.89164328  3910.20160672
0.27700001 61287.86334662  4344.69683826
0.27800001 59870.07613634  3006.67536586
0.27900001 58487.12764406  2702.10542504
0.28000001 57137.39710835  2649.17554231
0.28100001 55820.60907677  2833.45425084
0.28200001 54537.10603331  3704.16041710
0.28300001 53285.64159874  3631.94950327
0.28400001 52066.09106669  3783.90334737
0.28500001 50878.05194839  2619.20223827
0.28600001 49720.08420514  2568.53967161
0.28700001 48593.10269919  2728.98877676
0.28800001 47495.54134905  2882.50454091
0.28900001 46428.81429576  2221.61886921
0.29000001 45389.86811023  2575.64818783
0.29100001 44380.77388865  2138.26578717
0.29200001 43399.26844469  1907.39793843
0.29300001 42445.61513342  2246.22205919
0.29400001 41519.13799897  2939.55510948
0.29500001 40620.63327845  3607.11240588
0.29600001 39747.61036083  1770.75612540
0.29700001 38900.45565780  2434.39063030
0.29800001 38079.49150939  1878.65180255
0.29900001 37283.85021222  2181.10534067
0.30000001 36512.75288587  1813.40595792
0.30100001 35767.02037480  1782.27070965
0.30200001 35044.01923026  3185.50149883
0.30300001 34345.23575381  2192.59995432
0.30400001 33670.43462126  2002.54919390
0.30500001 33017.05463895  1515.48287967
0.30600001 32386.56430958  2237.10203559
0.30700001 31778.50548554  2202.25053441
0.30800001 31191.94265461  2024.04525468
0.30900001 30626.44535081  1566.54275386
0.31000001 30082.60776565  1824.35983432
0.31100001 29557.74670994  1521.63287267
0.31200001 29054.16002713  1364.09287786
0.31300001 28569.53422211  1883.87517580
0.31400001 28105.84847409  1460.80154360
0.31500001 27660.15475450  1966.63709616
0.31600002 27233.13843954  1812.91011176
0.31700002 26824.09659705  1663.36230874
0.31800002 26433.42111575  1897.25889042
0.31900002 26060.48406035  1751.26461178
0.32000002 25704.45188035  1608.97024163
0.32100002 25365.77197061  1225.16684419
0.32200002 25043.81001343  1577.38444839
0.32300002 24737.23613809  1322.45270656
0.32400002 24447.05742032  1430.15292681
0.32500002 24171.79207259  1182.00068832
0.32600002 23912.46005821  1407.48746567
0.32700002 23667.61021907  1746.66971688
0.32800002 23438.23014923  1735.01506896
0.32900002 23221.85436705  1149.48184560
0.33000002 23021.06476689  1142.99591980
0.33100002 22831.42152102  1364.40581471
0.33200002 22657.60288905  1244.92204969
0.33300002 22495.68366464  1352.44056596
0.33400002 22347.14285787  1572.12157450
0.33500002 22210.30201033  1791.03883893
0.33600002 22085.89704201  1563.01900768
0.33700002 21972.45494156  1114.00351829
0.33800002 21872.02187231  1779.50778380
0.33900002 21781.63445628  1221.94975087
0.34000002 21702.91632290  1554.14591148
0.34100002 21634.71877813  1220.84723847
0.34200002 21577.94143223  1221.20365319
0.34300002 21529.82540185  1222.03294768
0.34400002 21492.63995731  1445.91742161
0.34500002 21464.55924448  1448.21388081
0.34600002 21447.20480343  1674.49059433
0.34700002 21436.84859504  1678.50532449
0.34800002 21436.83605634  1346.66210484
0.34900002 21445.21911272  1463.63627376
0.35000002 21462.07565618  1581.96967154
0.35100002 21487.03934213  1474.87045030
0.35200002 21519.25280608  1139.44449005
0.35300002 21559.51063018  1831.69610990
0.35400002 21607.63929456  1150.60684693
0.35500002 21662.68476524  1272.46616338
0.35600002 21724.22076808  1163.33207723
0.35700002 21792.76222876  1287.29852583
0.35800002 21868.42931284  1648.66096398
0.35900002 21949.92205983  1540.88460158
0.36000002 22038.27190445  1312.70972817
0.36100002 22131.53755996  1201.74254643
0.36200002 22231.82965326  1694.73245474
0.36300002 22335.76391053  1707.34587419
0.36400002 22445.97927854  1597.59265082
0.36500002 22560.62933587  1238.57860921
0.36600002 22680.86729330  1373.43998400
0.36700002 22805.31072707  1510.62385412
0.36800002 22935.60935886  1650.33184959
0.36900002 23069.26698735  1664.44769198
0.37000002 23206.23453480  1807.99781825
0.37100002 23347.63181608  1823.91708387
0.37200002 23493.34008292  1445.89768390
0.37300002 23641.85089296  1326.30789792
0.37400002 23794.96146023  1338.46664554
0.37500002 23950.17434697  1891.10585602
0.37600002 24109.59344227  1636.07708850
0.37700002 24270.61842099  2614.67384635
0.37800002 24435.49247802  1666.98937582
0.37900002 24602.69020733  1542.58874908
0.38000002 24772.45394675  2123.61871519
0.38100002 24944.01414891  1572.22128629
0.38200002 25118.00619332  1875.93838142
0.38300002 25293.76443966  1748.30508089
0.38400002 25472.14466995  2206.52463657
0.38500002 25651.00174926  1782.23168597
0.38600002 25832.70223775  1949.46496673
0.38700002 26014.73183047  1816.86895711
0.38800002 26198.21312042  1681.53238880
0.38900002 26382.95792704  1697.74342304
0.39000002 26569.43350459  1869.95681864
0.39100002 26755.88906400  1887.89562180
0.39200002 26943.69214546  1747.16379995
0.39300002 27131.76417657  1924.18480656
0.39400002 27321.24590952  2266.29745557
0.39500002 27510.21837598  2287.74986853
0.39600002 27699.53746722  1979.40904119
0.39700002 27888.79831509  1831.45747212
0.39800002 28079.16723534  2184.69971025
0.39900002 28268.51757713  1865.72224849
0.40000002 28457.79350791  2054.08363272
0.40100002 28646.78627461  2072.88155304
0.40200002 28836.45822778  1743.16398246
0.40300002 29024.63640672  1934.78235454
0.40400002 29212.26218670  1774.64501192
0.40500002 29399.53251843  2685.64742281
0.40600002 29586.10026537  1806.23150678
0.40700002 29771.85047047  2550.85226917
0.40800002 29956.81293687  2021.63561683
0.40900002 30140.14993852  2965.79089447
0.41000002 30323.06705000  2430.24232387
0.41100002 30504.62620579  1885.18598884
0.41200002 30684.22540617  2090.97663938
0.41300002 30863.03493408  2299.91347226
0.41400002 31040.43187756  2318.72037112
0.41500002 31216.64484284  2532.29434964
0.41600002 31390.14235609  2748.83489637
0.41700002 31562.86235168  2572.68903219
0.41800002 31734.67365445  2393.42920043
0.41900002 31902.85131919  2813.83161968
0.42000002 32069.93189013  2227.73792431
0.42100002 32235.61078620  2244.56568540
0.42200002 32399.24077933  2672.45150232
0.42300002 32560.33522405  2692.08864389
0.42400002 32719.38616467  3754.54974031
0.42500002 32876.71675052  2310.90452990
0.42600002 33030.56186080  2750.28986367
0.42700002 33183.47603603  2343.41718871
0.42800002 33333.51234586  3432.01859376
0.42900002 33481.77627884  3455.31947571
0.43000002 33627.63238549  2826.23449777
0.43100002 33769.71191400  2407.10517930
0.43200002 33910.15343516  2642.95748398
0.43300002 34047.78407564  2881.46410287
0.43400002 34183.15554508  2899.58630652
0.43500002 34315.44965354  2917.49966780
0.43600002 34446.06308971  3386.90931380
0.43700002 34573.07357275  2725.74124965
0.43800002 34696.49631717  2741.71726891
0.43900002 34818.46231401  2757.62234595
0.44000002 34936.74276927  3004.38533682
0.44100002 35052.92603602  2324.00910632
0.44200002 35165.96381797  2570.45624709
0.44300002 35276.36061737  2584.34630130
0.44400002 35383.13310427  3070.37152063
0.44500002 35486.40256662  3323.65662190
0.44600002 35587.42481355  2863.36433620
0.44700002 35685.71850449  3836.92863544
0.44800002 35779.89531799  2650.75367026
0.44900002 35872.37009976  3147.80062543
0.45000002 35961.35568511  3162.62157561
0.45100002 36046.22587792  2688.32765338
0.45200002 36128.78407283  2945.94119291
0.45300002 36207.75027149  3945.19665656
0.45400002 36284.08637005  2724.02791333
0.45500002 36357.16883114  2735.51351250
0.45600002 36426.67772163  3495.86842663
0.45700002 36493.15538401  2757.78788307
0.45800002 36555.81289543  3020.24140456
0.45900002 36615.63521353  2779.12684442
0.46000002 36672.91020124  3296.71141879
0.46100002 36725.69843808  3308.61832910
0.46200002 36776.17227140  3831.15792795
0.46300002 36822.93283867  2819.16387174
0.46400002 36866.00102014  3599.96517024
0.46500002 36906.77029769  2837.76170269
0.46600002 36943.41372368  3105.46350480
0.46700002 36976.90328227  2855.35660679
0.46800002 37007.71146175  3384.54041215
0.46900002 37034.54285288  3916.40309232
0.47000002 37057.86837697  3927.20778739
0.47100002 37078.44374579  3150.18472995
0.47200002 37095.44022446  2895.11376954
0.47300002 37109.84327744  3166.21197850
0.47400002 37119.50555671  2644.76489627
0.47500002 37127.14299562  5036.66845751
0.47600002 37131.71132658  2656.77407134
0.47700002 37131.93697523  3194.83200878
