# SAXS profile: number of points = 501, q_min = 0, q_max = 0.5, delta_q = 0.001
#    q    intensity    error
0.00000000 1646666.22097350 321.09991309
0.00100000 1646598.55629710 543.37753648
0.00200000 1646395.50358425 889.05360009
0.00300000 1646057.24275826 1086.39781892
0.00400000 1645583.60777639 1234.18775273
0.00500000 1644975.10342457 1924.62094719
0.00600000 1644231.43631447 2589.66461763
0.00700000 1643353.24374927 2563.63116679
0.00800000 1642340.00691138 3547.45456470
0.00900000 1641193.02640949 2707.96860934
0.01000000 1639911.49504834 3247.02490040
0.01100000 1638496.65998955 2949.29411639
0.01200000 1636947.91831280 3830.45829679
0.01300000 1635266.74147002 4807.68443196
0.01400000 1633452.32240569 4042.79467718
0.01500000 1631506.36262005 5481.86162250
0.01600000 1629427.85349761 4986.04945460
0.01700000 1627218.79033361 4393.49093099
0.01800000 1624878.81542713 6020.17628205
0.01900000 1622408.58453970 6327.39376521
0.02000000 1619808.68317521 9184.31564906
0.02100000 1617080.79184934 6937.27691156
0.02200000 1614223.09827723 6125.97693628
0.02300000 1611238.51323542 8120.64247635
0.02400000 1608126.91058386 6633.52380863
0.02500000 1604889.45351151 8762.69681637
0.02600000 1601526.47533149 10377.89203482
0.02700000 1598038.98695715 7382.94045789
0.02800000 1594426.76536507 11790.78647060
0.02900000 1590692.45786666 7158.11638906
0.03000000 1586836.38098482 10330.30531505
0.03100000 1582858.63981360 8357.49400277
0.03200000 1578760.26007000 10159.32274147
0.03300000 1574544.18405477 10439.22842154
0.03400000 1570208.01779286 9892.31096853
0.03500000 1565755.53075461 10991.60433347
0.03600000 1561186.16341304 13863.33377178
0.03700000 1556501.85389590 8872.06097752
0.03800000 1551703.94433555 9985.21534391
0.03900000 1546793.38780715 10208.83683230
0.04000000 1541769.31312122 11378.25805809
0.04100000 1536635.64583196 12585.04652289
0.04200000 1531392.72006935 12840.72855350
0.04300000 1526040.41494123 12086.24064735
0.04400000 1520582.56985070 17448.68579939
0.04500000 1515018.48909473 12544.35367258
0.04600000 1509348.79277428 15961.36422558
0.04700000 1503576.67812343 14073.47836176
0.04800000 1497702.08133700 14310.54405302
0.04900000 1491728.02235316 13425.55282610
0.05000000 1485653.47942168 12501.77461149
0.05100000 1479482.32773806 12693.95896333
0.05200000 1473212.45686691 14054.44749347
0.05300000 1466849.49723687 13069.62962966
0.05400000 1460391.53106423 15662.69990108
0.05500000 1453842.58528509 15875.96177192
0.05600000 1447201.20594402 13610.92797705
0.05700000 1440472.33157446 15038.53184361
0.05800000 1433654.39691903 15225.41040619
0.05900000 1426749.68937803 16692.97214538
0.06000000 1419760.59622861 15588.97207489
0.06100000 1412688.78720441 17079.40823545
0.06200000 1405534.77856389 13282.30427829
0.06300000 1398301.42811970 16108.43320509
0.06400000 1390987.15135728 13562.12535999
0.06500000 1383598.15736556 20546.43359800
0.06600000 1376131.95670068 19362.17753671
0.06700000 1368591.84849912 15355.60125879
0.06800000 1360980.48940292 14086.14872468
0.06900000 1353298.75426321 19893.49261906
0.07000000 1345546.25720976 17196.08197241
0.07100000 1337727.55445817 18781.69574429
0.07200000 1329841.87868903 16017.94617920
0.07300000 1321893.73981841 19074.92755935
0.07400000 1313882.34494617 14781.17707335
0.07500000 1305810.19304559 22329.35534771
0.07600000 1297677.43840096 17985.81013942
0.07700000 1289489.36302219 18104.43150572
0.07800000 1281244.37478118 16701.02120849
0.07900000 1272944.52073996 15275.33496535
0.08000000 1264593.60870140 26120.18221305
0.08100000 1256191.46014088 18541.38682161
0.08200000 1247739.67790095 21748.10360635
0.08300000 1239240.44915765 18737.31647064
0.08400000 1230694.96362875 20398.76997964
0.08500000 1222106.94070010 20494.73435767
0.08600000 1213475.62660635 19003.02920488
0.08700000 1204804.28017608 20674.44241865
0.08800000 1196091.70475669 17564.60750925
0.08900000 1187344.36783239 20837.89463421
0.09000000 1178560.38538364 22522.29002268
0.09100000 1169742.72242264 19370.94039339
0.09200000 1160891.91861752 19433.33163077
0.09300000 1152011.76516419 16243.36665213
0.09400000 1143100.41282926 21175.93614288
0.09500000 1134162.31062260 17965.13184467
0.09600000 1125198.36321954 22920.29173621
0.09700000 1116211.44895852 16408.30907109
0.09800000 1107202.39512116 19730.34760873
0.09900000 1098173.23488800 21414.37908727
0.10000000 1089123.23651668 21450.28315194
0.10100000 1080055.56975056 18177.33609381
0.10200000 1070972.49792162 16546.52587118
0.10300000 1061874.62931238 16565.24499651
0.10400000 1052764.82168763 18239.15139380
0.10500000 1043645.43307508 21572.15211662
0.10600001 1034513.02579102 19924.72181426
0.10700001 1025375.42244309 18272.19088778
0.10800001 1016229.50537982 18276.88851440
0.10900001 1007079.52668262 21601.85686405
0.11000001 997925.69238649 19938.55627238
0.11100001 988770.11818211 26578.14202786
0.11200001 979615.13151068 24906.71589120
0.11300001 970459.63217297 19913.83258975
0.11400001 961307.97180346 19899.07595327
0.11500001 952160.40112786 18224.35093574
0.11600001 943017.97569938 19859.95950346
0.11700001 933883.45927196 21488.65940985
0.11800001 924755.41941730 26411.01602247
0.11900001 915637.81676385 23074.07406928
0.12000001 906531.22965826 19744.25111201
0.12100001 897438.51313378 18065.43812041
0.12200001 888358.47403450 21307.27900353
0.12300001 879294.30204185 22896.82470394
0.12400001 870246.06748367 21212.24889438
0.12500001 861215.74159508 17904.67611144
0.12600001 852206.14624483 22728.33899139
0.12700001 843216.47088660 17808.73270439
0.12800001 834247.63221648 25828.30791069
0.12900001 825302.27453158 16093.39511188
0.13000001 816380.99871908 19250.26485715
0.13100001 807484.41312411 20784.64977355
0.13200001 798615.35023830 17525.61468714
0.13300001 789774.96726331 15874.47759036
0.13400001 780962.20854325 22140.27965602
0.13500001 772180.45842978 20478.22672307
0.13600001 763428.75454398 20395.00013928
0.13700001 754710.37128831 20309.25704902
0.13800001 746023.74467965 18665.51497207
0.13900001 737374.12928725 15484.85744527
0.14000001 728758.42779972 16954.56562235
0.14100001 720179.71005804 16873.81140248
0.14200001 711637.40652701 22896.93463495
0.14300001 703136.21909233 21262.84026827
0.14400001 694670.47540241 16619.99190797
0.14500001 686248.57306595 16531.72890500
0.14600001 677865.79645545 17936.32982035
0.14700001 669528.38855956 16349.88401995
0.14800001 661231.31380956 14778.52056087
0.14900001 652978.00682529 23507.20935480
0.15000001 644770.17400034 14604.04513017
0.15100001 636608.28025927 15966.13642226
0.15200001 628493.42877552 15866.31735812
0.15300001 620425.74176348 15765.01884215
0.15400001 612404.03703353 17086.07343954
0.15500001 604433.02621323 18386.85352514
0.15600001 596509.31412385 21071.69251590
0.15700001 588639.53743042 15345.83346509
0.15800001 580816.00106375 18008.20096295
0.15900001 573046.84430879 19254.37487759
0.16000001 565327.31393583 19113.71738638
0.16100001 557663.83970405 13551.23194448
0.16200001 550051.25540691 14793.62921252
0.16300001 542493.88318684 17348.95520332
0.16400001 534990.44828412 15889.21706416
0.16500001 527542.42317364 19703.71043577
0.16600001 520149.65287739 19544.62412963
0.16700001 512812.34460392 14215.15886359
0.16800001 505530.67434459 15378.24383967
0.16900001 498307.86254248 21601.64686120
0.17000001 491141.66335821 16377.11953800
0.17100001 484033.33586605 16234.47885156
0.17200001 476983.29663498 14853.26055863
0.17300001 469991.78246692 13493.46471185
0.17400001 463060.07959580 13370.86042978
0.17500001 456187.07598582 16860.67512472
0.17600001 449371.74681787 17896.23066224
0.17700001 442619.08349242 14181.51610490
0.17800001 435925.36016232 16386.43506247
0.17900001 429292.15269540 15068.15527133
0.18000001 422720.39129802 13772.23099902
0.18100001 416210.74605623 19316.34163691
0.18200001 409759.36442284 13497.47410168
0.18300001 403371.92285972 11133.06559685
0.18400001 397044.87160087 11017.99570742
0.18500001 390780.22909470 13083.32268817
0.18600001 384577.58081243 16181.10247713
0.18700001 378436.20249002 11739.09155585
0.18800001 372357.05681481 15834.48458917
0.18900001 366341.89591811 12528.89343236
0.19000001 360385.06544621 12390.03913545
0.19100001 354495.72317610 14293.26823382
0.19200001 348665.00175268 11103.23750546
0.19300001 342899.38307834 12971.88427481
0.19400001 337195.42337101 12821.85657957
0.19500001 331554.49100753 10722.47274588
0.19600001 325974.73149729 11559.06452513
0.19700001 320458.54344485 11421.14302811
0.19800001 315004.71282104 12223.75845870
0.19900001 309614.30542594 12074.95848227
0.20000001 304284.32403134 11009.00736375
0.20100001 299018.39330241 9966.28351980
0.20200001 293813.37746000 9841.27954316
0.20300001 288671.38014656 10600.01357999
0.20400001 283591.27196413 10464.51843009
0.20500001 278572.36117161 12051.04091390
0.20600001 273615.90548198 10194.92912015
0.20700001 268720.65575226 10899.31031251
0.20800001 263886.80221237 9100.13680446
0.20900001 259116.40006315 11427.03378296
0.21000001 254404.62833272 9662.28824084
0.21100001 249753.95730219 7942.17621766
0.21200001 245163.92416124 11749.48162088
0.21300001 240634.16254049 9269.22837927
0.21400001 236165.70286279 9139.61313288
0.21500001 231757.56762286 7508.94554599
0.21600001 227407.80716245 9622.76181503
0.21700001 223118.24239626 7295.96687131
0.21800001 218887.93785986 12223.79746773
0.21900001 214715.32448337 7085.60604297
0.22000001 210601.25376968 8377.71827108
0.22100001 206547.72699966 8253.64756117
0.22200001 202551.18075811 6775.33731673
0.22300001 198611.93745923 7340.69755560
0.22400001 194728.85168397 10515.35848817
0.22500001 190905.88255151 11001.90653169
0.22600001 187137.47745027 7646.43769020
0.22700001 183426.79219165 7527.83590753
0.22800001 179771.22048556 8027.68423041
0.22900001 176170.97163734 6685.68868981
0.23000001 172626.25708727 7775.95011824
0.23100001 169137.95507596 5886.00111501
0.23200001 165702.27369729 6949.55368753
0.23300001 162321.94133945 7976.50057467
0.23400001 158995.38992806 7846.42286405
0.23500001 155720.96409878 6615.02686778
0.23600001 152500.45573265 6505.66974925
0.23700001 149332.25220791 5331.16165598
0.23800001 146216.22434097 7338.59264678
0.23900001 143152.06646282 6184.16956370
0.24000001 140138.92077170 5572.62444807
0.24100001 137177.97588917 9959.12152063
0.24200001 134266.73521748 6851.63182224
0.24300001 131405.63796884 5290.39123488
0.24400001 128593.54700029 4725.81307581
0.24500001 125831.14520226 4643.16947761
0.24600001 123117.70104079 5473.81324721
0.24700001 120452.85924299 4928.93123339
0.24800001 117835.01569407 4841.25184881
0.24900001 115264.60473450 6051.39203484
0.25000001 112741.58554398 5518.13716550
0.25100001 110264.46145143 4584.79652405
0.25200001 107834.41207350 6138.47419769
0.25300001 105450.09609316 4017.64885123
0.25400001 103110.00498938 4338.35366518
0.25500001 100814.83885482 6581.19299181
0.25600001 98564.06548005  4559.57388483
0.25700001 96356.88258936  4847.71499243
0.25800001 94192.87735335  4391.27214998
0.25900001 92072.03627856  4308.97150171
0.26000001 89994.06702605  3523.26789078
0.26100001 87955.84487678  4839.33081410
0.26200001 85961.47958006  3730.29858288
0.26300001 84006.57650100  3659.32664553
0.26400001 82092.21799883  4242.11556582
0.26500001 80218.65050670  3520.79673734
0.26600001 78383.48594585  3767.11051282
0.26700001 76588.72385040  3694.64021337
0.26800001 74832.16949054  4227.26945456
0.26900001 73113.07900359  3849.40379170
0.27000001 71432.51256034  2903.73177299
0.27100001 69788.74604598  3416.85716811
0.27200001 68182.29438762  3071.27159603
0.27300001 66611.28344224  3011.49626694
0.27400001 65075.28031938  4026.53316032
0.27500001 63576.64056713  3158.48765285
0.27600001 62110.85131780  3871.05899158
0.27700001 60681.33323616  2783.45288727
0.27800001 59284.47467940  2729.16092103
0.27900001 57921.87638422  2675.99081560
0.28000001 56591.79128545  3100.94735025
0.28100001 55294.21236450  2572.83982309
0.28200001 54029.19720612  2981.60138894
0.28300001 52795.78012401  2923.83044165
0.28400001 51593.72517912  2426.19504138
0.28500001 50422.64732369  2379.44483983
0.28600001 49281.19622579  2758.02227732
0.28700001 48170.14085337  2705.23523837
0.28800001 47087.86096533  2653.63653031
0.28900001 46035.88342091  2603.32933068
0.29000001 45011.41042328  1964.74815798
0.29100001 44016.18097990  1927.90881818
0.29200001 43047.98773524  2837.93872578
0.29300001 42107.12533492  2042.61674669
0.29400001 41193.02559807  1822.79146900
0.29500001 40306.45191638  2147.52785976
0.29600001 39444.71369670  2987.34553323
0.29700001 38608.48323436  1898.37921050
0.29800001 37798.05103784  2203.81547009
0.29900001 37012.33157212  1832.11049955
0.30000001 36250.78753316  1800.39544806
0.30100001 35514.04694846  1930.54368351
0.30200001 34799.69847190  2056.14028155
0.30300001 34109.15929853  2177.52883271
0.30400001 33442.03767058  1835.96795503
0.30500001 32796.01643898  1655.87094840
0.30600001 32172.42687924  2074.15645910
0.30700001 31570.91417506  1604.43393434
0.30800001 30990.38859319  1580.04503723
0.30900001 30430.56966484  1556.52371205
0.31000001 29892.13461832  1533.91496056
0.31100001 29372.06837740  1786.99672469
0.31200001 28873.08136436  1897.82772793
0.31300001 28392.52328501  1471.01670104
0.31400001 27932.56551515  1451.79516139
0.31500001 27490.39055210  1433.34903125
0.31600002 27066.37003507  1930.50893416
0.31700002 26660.02141161  1907.52462232
0.31800002 26271.68174837  1634.23004054
0.31900002 25900.72590260  1740.52886307
0.32000002 25546.33128994  1476.06709182
0.32100002 25208.99049722  1948.15087787
0.32200002 24888.07919387  1326.41024344
0.32300002 24582.21621341  1194.69576454
0.32400002 24292.46383963  1539.53496874
0.32500002 24017.36487322  2701.23315520
0.32600002 23757.83865716  1281.85424545
0.32700002 23512.52760665  1619.54297824
0.32800002 23282.32829500  1148.98295577
0.32900002 23064.92308104  1598.39924521
0.33000002 22862.74400949  1816.21647012
0.33100002 22671.68342485  1580.66984323
0.33200002 22495.99957271  1236.04275506
0.33300002 22331.93311965  1230.71289250
0.33400002 22181.09093716  1226.05985961
0.33500002 22041.75467160  1555.26628328
0.33600002 21914.55313573  1329.33685617
0.33700002 21798.14651440  1436.71590480
0.33800002 21694.49323392  1213.48153651
0.33900002 21600.58491051  1321.95585913
0.34000002 21518.33494965  1210.72917328
0.34100002 21446.23971153  1540.26900903
0.34200002 21385.35588008  1430.35959578
0.34300002 21333.10968476  1871.34047017
0.34400002 21291.44402242  1652.74842051
0.34500002 21258.79629189  1323.99789576
0.34600002 21236.70702363  1326.44478352
0.34700002 21221.41675686  1329.30960861
0.34800002 21216.37572807  1221.74505416
0.34900002 21219.53010650  1448.23299836
0.35000002 21230.96020992  1453.15314039
0.35100002 21250.42930743  1570.83180880
0.35200002 21277.02421446  1464.60403117
0.35300002 21311.53465612  1244.80679822
0.35400002 21353.77109125  1478.21487381
0.35500002 21402.90078474  1371.49794725
0.35600002 21458.24361007  1493.81569967
0.35700002 21520.58346642  1271.22092557
0.35800002 21589.89053109  1395.13879220
0.35900002 21665.02733615  1520.88499104
0.36000002 21746.93390544  1295.35617943
0.36100002 21833.59614980  1185.56432709
0.36200002 21927.22991194  1313.33149778
0.36300002 22024.42762256  1322.78718567
0.36400002 22127.83711872  1453.79896756
0.36500002 22235.63341452  1220.73633228
0.36600002 22348.98853054  1353.34306457
0.36700002 22466.41510193  1736.20464132
0.36800002 22589.74602911  1250.34250194
0.36900002 22716.43509908  1386.83842849
0.37000002 22846.32519563  1271.39805736
0.37100002 22980.67038205  1795.25005529
0.37200002 23119.18717680  1810.92601734
0.37300002 23260.60683679  1957.38015804
0.37400002 23406.52339556  1843.26380472
0.37500002 23554.62400860  1727.02511412
0.37600002 23706.83463221  1742.80803055
0.37700002 23860.73183647  1623.48427106
0.37800002 24018.46636207  1775.08484058
0.37900002 24178.50040645  1653.80950615
0.38000002 24341.12690802  1391.09546869
0.38100002 24505.58437652  2106.25507694
0.38200002 24672.48231548  1700.92101141
0.38300002 24841.15771465  2003.19105301
0.38400002 25012.43725698  2455.59614404
0.38500002 25184.28039741  1458.16990409
0.38600002 25359.05298248  2208.13964306
0.38700002 25534.18991728  1931.91690067
0.38800002 25710.80935483  1500.22579693
0.38900002 25888.70638753  1665.93833496
0.39000002 26068.41758790  1987.58659315
0.39100002 26248.20153253  1697.73375556
0.39200002 26429.30622781  2025.40997873
0.39300002 26610.87184136  1729.97286037
0.39400002 26793.82345697  2063.79434955
0.39500002 26976.39633394  1762.63781997
0.39600002 27159.37161092  2587.74504969
0.39700002 27342.34355233  1958.80558489
0.39800002 27526.44862098  2471.18704203
0.39900002 27709.76859902  1995.10343365
0.40000002 27893.18373488  2013.33009737
0.40100002 28076.08257753  2200.88421753
0.40200002 28259.99847375  1879.14868755
0.40300002 28442.44306568  1895.97334459
0.40400002 28624.44099847  2260.61533496
0.40500002 28806.17971405  2456.01499879
0.40600002 28987.35164929  2654.51685306
0.40700002 29167.79462426  2320.58985026
0.40800002 29347.62105779  2160.57196465
0.40900002 29525.82167061  2723.75717817
0.41000002 29703.80906838  2014.36390742
0.41100002 29880.53402251  2769.92563513
0.41200002 30055.50420826  2979.10171828
0.41300002 30229.73533332  2064.99331846
0.41400002 30402.65302295  2460.33481246
0.41500002 30574.56702372  2289.42368722
0.41600002 30743.85360409  2115.33094746
0.41700002 30912.54020138  2132.03799871
0.41800002 31080.45373684  2734.76925389
0.41900002 31244.86311459  2558.95441034
0.42000002 31408.24056167  2578.45963109
0.42100002 31570.45267093  1998.40974876
0.42200002 31730.73678784  2818.64148243
0.42300002 31888.60935664  2433.73878142
0.42400002 32044.57312769  2247.12579706
0.42500002 32198.99301988  2674.77047691
0.42600002 32350.12329878  3315.24079276
0.42700002 32500.39454907  2295.17797182
0.42800002 32647.90453174  2731.16058302
0.42900002 32793.86952536  2538.24562154
0.43000002 32937.54998029  2981.17778999
0.43100002 33077.57370033  3000.79762829
0.43200002 33216.25719324  2373.13560763
0.43300002 33352.12573163  2605.46818562
0.43400002 33485.90761401  2403.45113289
0.43500002 33616.93212939  3297.82119817
0.43600002 33746.28448423  2433.27595805
0.43700002 33872.12738552  2893.01853709
0.43800002 33994.75980233  2910.12155079
0.43900002 34115.88670260  2476.81349198
0.44000002 34233.56644347  2491.00558031
0.44100002 34349.29687050  3643.77358470
0.44200002 34462.08784630  2290.00584591
0.44300002 34572.40221399  2302.52209657
0.44400002 34679.29633579  3240.78039616
0.44500002 34782.71432064  2792.35643799
0.44600002 34884.04478654  2572.87284516
0.44700002 34982.81108016  2585.92951760
0.44800002 35077.76829770  2598.73658749
0.44900002 35171.06313171  3798.47499824
0.45000002 35261.04719721  2862.49194713
0.45100002 35347.04160918  2636.18248815
0.45200002 35430.93837452  3129.79208964
0.45300002 35511.40324690  2660.15934330
0.45400002 35589.37931743  2428.97525353
0.45500002 35664.27143617  3171.26716640
0.45600002 35735.67949393  3184.58522903
0.45700002 35804.30792615  3443.65849955
0.45800002 35869.19207874  3210.47218916
0.45900002 35931.38907399  2479.26596361
0.46000002 35991.34487692  5724.24371725
0.46100002 36046.89307332  2747.85478921
0.46200002 36100.21544201  3008.59209753
0.46300002 36149.95241701  3270.84784971
0.46400002 36196.21014012  3029.62293232
0.46500002 36240.26511645  3039.83358204
0.46600002 36280.46321934  3812.16985345
0.46700002 36317.55837699  3059.39126268
0.46800002 36352.14137855  2813.11059391
0.46900002 36382.84677647  3590.98714704
0.47000002 36410.29054014  3086.86457830
0.47100002 36435.03572080  3353.48084669
0.47200002 36456.39169171  3103.89733575
0.47300002 36475.13773663  3112.05889919
0.47400002 36489.50694389  2599.87749298
0.47500002 36501.82668750  4169.96887843
0.47600002 36511.29162506  3396.09795147
0.47700002 36516.58567524  3665.53504382
