# SAXS profile: number of points = 501, q_min = 0, q_max = 0.5, delta_q = 0.001
#    q    intensity    error
0.00000000 1646666.22097351 321.09991309
0.00100000 1646598.55076021 790.36732314
0.00200000 1646395.47887511 740.87798895
0.00300000 1646057.19263541 1283.92465599
0.00400000 1645583.52532878 1604.44399816
0.00500000 1644974.95471771 2220.71627677
0.00600000 1644231.21776366 2071.73141873
0.00700000 1643352.96470432 3155.23782336
0.00800000 1642339.62430804 2217.15858642
0.00900000 1641192.54579065 2707.96781631
0.01000000 1639910.91796069 3517.60907091
0.01100000 1638495.94830411 3244.22211889
0.01200000 1636947.09072265 3192.04696686
0.01300000 1635265.75822404 3777.46406810
0.01400000 1633451.18228112 5512.89798459
0.01500000 1631505.03765021 4307.17349119
0.01600000 1629426.34945536 4155.03737686
0.01700000 1627217.10750978 6150.88094231
0.01800000 1624876.90662874 4630.89939227
0.01900000 1622406.49017128 7787.55150422
0.02000000 1619806.38471326 6122.86841119
0.02100000 1617078.26392417 6403.63021547
0.02200000 1614220.30895355 8910.49651025
0.02300000 1611235.46990582 6960.53754683
0.02400000 1608123.58643129 8442.64921373
0.02500000 1604885.84183213 8136.77158970
0.02600000 1601522.56310354 9729.25001585
0.02700000 1598034.76797329 9396.44486605
0.02800000 1594422.27462156 7629.31093394
0.02900000 1590687.62139753 11452.95139992
0.03000000 1586831.20528026 8854.51853246
0.03100000 1582853.09060884 10636.77325832
0.03200000 1578754.38870119 11722.25187601
0.03300000 1574537.96579658 12045.21599363
0.03400000 1570201.47174349 13189.69297122
0.03500000 1565748.60552760 10146.05143234
0.03600000 1561178.82311372 10397.45144244
0.03700000 1556494.13177613 10646.42035372
0.03800000 1551695.74008384 10892.90459951
0.03900000 1546784.82842068 10208.78034035
0.04000000 1541760.30818328 11378.19160165
0.04100000 1536626.15997951 9680.74525673
0.04200000 1531382.76233932 12840.64505793
0.04300000 1526030.07664762 12086.15876806
0.04400000 1520571.72101508 13343.01747158
0.04500000 1515007.16536047 11498.90491938
0.04600000 1509337.04243921 14897.15730140
0.04700000 1503564.42031663 15155.93006166
0.04800000 1497689.29345829 13209.62018292
0.04900000 1491714.78553919 12306.64755354
0.05000000 1485639.70777443 13638.17315245
0.05100000 1479468.02625651 12693.83625661
0.05200000 1473197.75384552 11711.92268886
0.05300000 1466834.20035826 15445.76484982
0.05400000 1460375.63303761 14457.71944129
0.05500000 1453826.18234281 12212.14050137
0.05600000 1447184.23152574 17322.79605972
0.05700000 1440454.82370431 15038.34906144
0.05800000 1433636.35119653 15225.21876061
0.05900000 1426730.98865017 14124.63744734
0.06000000 1419741.37326224 14289.69758948
0.06100000 1412669.05849863 13137.82285799
0.06200000 1405514.33722763 15938.53332918
0.06300000 1398280.44843760 14765.84222588
0.06400000 1390965.65506901 14918.10734829
0.06500000 1383576.00873909 16436.88375270
0.06600000 1376109.21238479 20744.84734732
0.06700000 1368568.44386189 13959.39878068
0.06800000 1360956.51768527 19720.26086435
0.06900000 1353274.17021271 22735.00712400
0.07000000 1345520.98147599 20061.71877327
0.07100000 1337701.69000562 17336.61471448
0.07200000 1329815.37922190 18929.92281003
0.07300000 1321866.70010660 17607.26527042
0.07400000 1313854.55162694 23649.38303759
0.07500000 1305781.87980455 17863.09695301
0.07600000 1297648.46430434 17985.40855842
0.07700000 1289459.65458332 19612.68226582
0.07800000 1281214.04704810 19737.10332037
0.07900000 1272913.66956592 16802.46122637
0.08000000 1264561.90789895 19973.75627225
0.08100000 1256159.19523937 15450.75882637
0.08200000 1247706.57937397 17087.34240635
0.08300000 1239206.72279716 17175.40598404
0.08400000 1230660.77503461 20398.20330366
0.08500000 1222072.05330832 17341.20325053
0.08600000 1213440.10848840 22169.55182298
0.08700000 1204768.18010030 22264.11701373
0.08800000 1196054.89031866 19160.80024277
0.08900000 1187306.86133677 17631.50771900
0.09000000 1178522.19819602 20912.87738938
0.09100000 1169703.80923435 22598.67865612
0.09200000 1160852.43977240 17813.28152530
0.09300000 1151971.54416802 17867.07948966
0.09400000 1143059.72831542 16288.60189402
0.09500000 1134120.73628533 17964.47330714
0.09600000 1125156.26653144 19645.22933712
0.09700000 1116168.72845913 18048.44918769
0.09800000 1107158.92487084 24661.96621105
0.09900000 1098129.18562973 18119.13241490
0.10000000 1089078.53752426 18149.49468136
0.10100000 1080010.40594731 28091.07197986
0.10200000 1070926.62769609 19854.98061139
0.10300000 1061828.05691126 18220.97031373
0.10400000 1052717.48727370 18238.33132504
0.10500000 1043597.57761873 18252.52249132
0.10600001 1034464.57400903 21584.10435231
0.10700001 1025326.32583622 23254.40216426
0.10800001 1016179.85795135 16614.54145941
0.10900001 1007029.27904062 19939.18066345
0.11000001 997874.80270920 26583.38599544
0.11100001 988718.70489014 16610.47502407
0.11200001 979562.97085924 18263.95245148
0.11300001 970407.00432774 18253.35661079
0.11400001 961254.67442193 24872.46587177
0.11500001 952106.55974954 18223.32041171
0.11600001 942963.51882239 19858.81264158
0.11700001 933828.47459813 16528.76477881
0.11800001 924699.86776061 16505.89341693
0.11900001 915581.75225456 16480.47231684
0.12000001 906474.62921875 18097.76682485
0.12100001 897381.33349298 16422.07917653
0.12200001 888300.79278517 24583.72559850
0.12300001 879236.07164060 17989.17087332
0.12400001 870187.27143039 19579.21452971
0.12500001 861156.50015678 16275.85861989
0.12600001 852146.26744452 24350.08073969
0.12700001 843156.27876042 30758.34249871
0.12800001 834186.81492635 19369.81875548
0.12900001 825241.05024790 20919.86160978
0.13000001 816319.15107038 19248.80648953
0.13100001 807422.31484606 17585.65884629
0.13200001 798552.64480860 19117.35121792
0.13300001 789711.96179512 19047.85341647
0.13400001 780898.73097918 20557.16006221
0.13500001 772116.46247462 22051.64720797
0.13600001 763364.30008762 25099.41937034
0.13700001 754645.51292847 17183.27913963
0.13800001 745958.44253094 18663.88111223
0.13900001 737308.41616967 17031.82521671
0.14000001 728692.43951048 18494.21498697
0.14100001 720113.36621419 26075.30622040
0.14200001 711570.63488837 15263.19083825
0.14300001 703069.11413860 15186.29358169
0.14400001 694603.00299058 16618.37763044
0.14500001 686180.91408698 16530.09900012
0.14600001 677797.76507749 16439.98556750
0.14700001 669460.04334524 20806.81912876
0.14800001 661162.70194665 20687.78191993
0.14900001 652909.16631649 16159.50262875
0.15000001 644700.95852772 17522.97287957
0.15100001 636538.76168741 18867.00978665
0.15200001 628423.64744550 15864.55572836
0.15300001 620355.76745902 15763.24079499
0.15400001 612333.81707127 22778.81907001
0.15500001 604362.62091617 25455.75479432
0.15600001 596438.74449776 16855.35971499
0.15700001 588568.80637759 18133.80578035
0.15800001 580744.98470084 16620.92224662
0.15900001 572975.62397758 16501.69874944
0.16000001 565256.05762876 15016.02787970
0.16100001 557592.36733039 13549.49516572
0.16200001 549979.55799247 14791.70091047
0.16300001 542422.08898531 18681.01762654
0.16400001 534918.59551978 19858.85379620
0.16500001 527470.46155768 15760.81813543
0.16600001 520077.58296288 16936.32728880
0.16700001 512740.22845482 16797.37067726
0.16800001 505458.48025056 14094.71038729
0.16900001 498235.69821553 16516.51417572
0.17000001 491069.47436693 13855.52587352
0.17100001 483961.04439696 16232.05419557
0.17200001 476910.92643416 18563.75868808
0.17300001 469919.53972124 25756.29118845
0.17400001 462987.83372675 19445.48993486
0.17500001 456114.88320955 13245.57683396
0.17600001 449299.50971252 11928.90254626
0.17700001 442546.91406734 11816.00316368
0.17800001 435853.27430322 15213.45925812
0.17900001 429220.13369557 11588.94415717
0.18000001 422648.53250542 11474.90819954
0.18100001 416138.95211501 14768.77210819
0.18200001 409687.65180550 11245.92657329
0.18300001 403300.40096129 11131.09159236
0.18400001 396973.41127505 13219.21521994
0.18500001 390708.90497682 13080.93475659
0.18600001 384506.30228631 10785.40228867
0.18700001 378365.24045889 13870.87037055
0.18800001 372286.30999479 11609.74912570
0.18900001 366271.39424503 11482.60875211
0.19000001 360314.78447116 14452.22668799
0.19100001 354425.67773725 13269.69800148
0.19200001 348595.13959769 14128.56167549
0.19300001 342829.88306696 10973.98507552
0.19400001 337126.13507368 13805.31588362
0.19500001 331485.47375888 10720.24072795
0.19600001 325905.92832069 9630.52063698
0.19700001 320390.08301417 10467.14450672
0.19800001 314936.67104719 13161.20410504
0.19900001 309546.53983645 11143.67596076
0.20000001 304216.83491867 10089.35180691
0.20100001 298951.25765728 9964.04588864
0.20200001 293746.75864194 11627.96599042
0.20300001 288605.09904754 10597.57973792
0.20400001 283525.41011883 11333.92880521
0.20500001 278506.91859792 10327.03702974
0.20600001 273550.82799200 9343.12897170
0.20700001 268656.04561280 10896.68972513
0.20800001 263822.66296410 8270.84087489
0.20900001 259052.71270485 10608.20908673
0.21000001 254341.40648317 8049.90589573
0.21100001 249691.13762473 14292.32139329
0.21200001 245101.52250403 8614.09341563
0.21300001 240572.36510391 7722.37328491
0.21400001 236104.41764765 8375.80461203
0.21500001 231696.87232715 8257.67692014
0.21600001 227347.65580930 8880.19985575
0.21700001 223058.51247143 8023.41507294
0.21800001 218828.79290909 10063.93666172
0.21900001 214656.84172394 9917.14655654
0.22000001 210543.27836847 8375.41200951
0.22100001 206490.35926682 6876.12928871
0.22200001 202494.40312694 8128.12572585
0.22300001 198555.83632389 7338.62405754
0.22400001 194673.27319384 8541.29026527
0.22500001 190851.01175250 7763.81952522
0.22600001 187083.17256672 12103.34642155
0.22700001 183373.03198806 8152.76538773
0.22800001 179718.16752265 7407.98321561
0.22900001 176118.71286900 10936.97258638
0.23000001 172574.62049864 5979.71088307
0.23100001 169087.05742409 5884.22987664
0.23200001 165652.09484276 5789.54098856
0.23300001 162272.39641936 6265.33752207
0.23400001 158946.50065255 7283.72373689
0.23500001 155672.85419375 6061.90122901
0.23600001 152453.11462923 7587.59187397
0.23700001 149285.63763602 6395.39701882
0.23800001 146170.33116703 6812.26860625
0.23900001 143106.87592803 5667.03255480
0.24000001 140094.50824343 5570.85838380
0.24100001 137134.37925692 8960.36076448
0.24200001 134223.87836747 7827.93695667
0.24300001 131363.56563398 5288.69740259
0.24400001 128552.23189228 6141.58316917
0.24500001 125790.67390997 6034.17891290
0.24600001 123078.06656520 6840.06387293
0.24700001 120414.02302852 5375.28224228
0.24800001 117797.04129974 4399.71970068
0.24900001 115227.31221956 6913.63906024
0.25000001 112705.21789166 5092.02198524
0.25100001 110228.81504713 8749.96375239
0.25200001 107799.64954110 5727.39565108
0.25300001 105416.22774973 4016.35846728
0.25400001 103076.82992771 3942.68893127
0.25500001 100782.63893726 4644.06422195
0.25600001 98532.70230512  4178.27943893
0.25700001 96326.43556849  5218.96652603
0.25800001 94163.27282888  4389.89198699
0.25900001 92043.33543138  3589.69025167
0.26000001 89966.20003737  4578.82996755
0.26100001 87928.85539096  4837.84585252
0.26200001 85935.34881323  4068.17960531
0.26300001 83981.37655661  3990.79520280
0.26400001 82067.81777764  4567.07427543
0.26500001 80195.16043033  3199.78705258
0.26600001 78360.90558755  4079.86074247
0.26700001 76567.09251327  3385.79699115
0.26800001 74811.30071483  3924.22696469
0.26900001 73093.10208965  4440.40616207
0.27000001 71413.45258930  2902.95698513
0.27100001 69770.71217523  3131.30971061
0.27200001 68165.08431446  3349.63240173
0.27300001 66595.03241558  2737.05596181
0.27400001 65059.87820820  2952.09211340
0.27500001 63562.12390700  2894.61925971
0.27600001 62097.36765917  2580.14574835
0.27700001 60668.71955118  3541.84001502
0.27800001 59272.70728100  2976.67550053
0.27900001 57910.93183401  2432.25925214
0.28000001 56581.82192082  2861.90868820
0.28100001 55285.04688089  3040.12487187
0.28200001 54021.03745759  2522.51246347
0.28300001 52788.57411679  2923.43137295
0.28400001 51587.41636661  2646.43458487
0.28500001 50417.23458735  2595.47935940
0.28600001 49276.59374113  2121.35746096
0.28700001 48166.44561407  2288.86960392
0.28800001 47085.11204699  2245.25367424
0.28900001 46034.03516766  2603.22481195
0.29000001 45010.43785726  2161.17627601
0.29100001 44016.10565214  2120.69607070
0.29200001 43048.74126825  2459.58994879
0.29300001 42108.77182940  2414.09600325
0.29400001 41195.59551649  2005.19570668
0.29500001 40309.87334732  2147.71015361
0.29600001 39448.97329329  1757.45184341
0.29700001 38613.64837879  2243.83921351
0.29800001 37804.05398747  1865.06309176
0.29900001 37019.25270759  1832.45309577
0.30000001 36258.50183543  1637.07143537
0.30100001 35522.60635643  1770.09155854
0.30200001 34809.12835238  1740.28245436
0.30300001 34119.43898142  1867.01578945
0.30400001 33453.11300198  1836.57599076
0.30500001 32807.97507436  1807.06335265
0.30600001 32185.20132212  1630.34145016
0.30700001 31584.48766880  1896.96441920
0.30800001 31004.82898936  1724.48867003
0.30900001 30445.73385481  1557.29936040
0.31000001 29908.13189630  1953.30018663
0.31100001 29388.84375615  1512.93774820
0.31200001 28890.62322745  1492.05630722
0.31300001 28410.83984179  1338.15061990
0.31400001 27951.66969526  2245.21797458
0.31500001 27510.25131404  1434.38457143
0.31600002 27086.95571274  1674.38024666
0.31700002 26681.42220661  1399.97428947
0.31800002 26293.78011867  1509.78892590
0.31900002 25923.62617713  1244.33411542
0.32000002 25569.91686830  1600.54902216
0.32100002 25233.25126415  2193.77896878
0.32200002 24913.09566789  1327.74349649
0.32300002 24607.94849030  1315.54098858
0.32400002 24318.89565599  1422.65546324
0.32500002 24044.39316665  1528.50214598
0.32600002 23785.53238160  1750.02062784
0.32700002 23540.93107381  1505.67802278
0.32800002 23311.39157923  1840.66756626
0.32900002 23094.64432141  1371.82193765
0.33000002 22893.09198387  1591.29889915
0.33100002 22702.64202220  1356.70995149
0.33200002 22527.50928254  1237.77405614
0.33300002 22364.17843029  1456.57901014
0.33400002 22213.92344230  1116.24970584
0.33500002 22075.14600642  1223.84615255
0.33600002 21948.49487915  1775.19434989
0.33700002 21832.55327022  1217.60155354
0.33800002 21729.52913253  1546.92525220
0.33900002 21636.15046574  1213.78809861
0.34000002 21554.42643311  1212.75986069
0.34100002 21482.86861383  1212.27833329
0.34200002 21422.53376925  1653.28412194
0.34300002 21370.71150812  1213.00164265
0.34400002 21329.57618609  1434.94730588
0.34500002 21297.43424493  1547.47164553
0.34600002 21275.76065538  1550.36475238
0.34700002 21260.96743142  1775.71608397
0.34800002 21256.31679792  2002.98282673
0.34900002 21259.95673068  1674.22167183
0.35000002 21271.78711248  1343.95157342
0.35100002 21291.64214682  1236.61863446
0.35200002 21318.67885130  1693.23614796
0.35300002 21353.51952923  1247.25913478
0.35400002 21396.10862127  1253.27712185
0.35500002 21445.55862245  1603.27003855
0.35600002 21501.29679697  1266.53394781
0.35700002 21563.92685678  1736.97439058
0.35800002 21633.58409263  1630.95598199
0.35900002 21708.97743690  1758.42725568
0.36000002 21791.18887477  1887.98869354
0.36100002 21878.12747049  1781.97356688
0.36200002 21972.06388021  1435.65472194
0.36300002 22069.48882436  1566.49239095
0.36400002 22173.14833825  1942.36788644
0.36500002 22281.15523540  1712.52967251
0.36600002 22394.73587021  1479.39632166
0.36700002 22512.36768334  1242.68275498
0.36800002 22635.87105181  1754.05373089
0.36900002 22762.68424992  1768.66065000
0.37000002 22892.77611853  2038.37288215
0.37100002 23027.28339394  1670.39921652
0.37200002 23165.92916716  1684.97393779
0.37300002 23307.42923687  1307.54684213
0.37400002 23453.47390734  1451.18376676
0.37500002 23601.68267480  1464.24846251
0.37600002 23753.95283413  1477.61470604
0.37700002 23907.91137720  1626.69436716
0.37800002 24065.68906604  1641.76138586
0.37900002 24225.75855596  1657.04196373
0.38000002 24388.37091554  1533.17501024
0.38100002 24552.87542925  1828.94377737
0.38200002 24719.73258426  1704.17844509
0.38300002 24888.42969242  2007.00306548
0.38400002 25059.73843296  1881.35995198
0.38500002 25231.50200297  1753.08484222
0.38600002 25406.24300499  1622.31572394
0.38700002 25581.27641061  1637.71339339
0.38800002 25757.77265007  1953.85593694
0.38900002 25935.60829637  2275.84973583
0.39000002 26115.18634777  1991.15247742
0.39100002 26294.86208643  1700.75176033
0.39200002 26475.87601062  1872.90355772
0.39300002 26657.26431807  1890.53327500
0.39400002 26840.06103437  1749.30106079
0.39500002 27022.47154471  2247.18884012
0.39600002 27205.24641492  1944.08700092
0.39700002 27388.05059238  1798.57336761
0.39800002 27571.93899679  1980.21675257
0.39900002 27754.95818992  2331.41659841
0.40000002 27938.12880872  2016.57423296
0.40100002 28120.86850021  2034.82614108
0.40200002 28304.46405795  2224.30641338
0.40300002 28486.65824182  2589.43735687
0.40400002 28668.31608201  2438.24039830
0.40500002 28849.79516963  2635.42891361
0.40600002 29030.63977027  2126.78477034
0.40700002 29210.77117253  1787.69928046
0.40800002 29390.26481429  2344.02068133
0.40900002 29568.16307948  2545.81896177
0.41000002 29745.77878196  2383.97555344
0.41100002 29922.09609815  2034.10418913
0.41200002 30096.68181371  2050.93847937
0.41300002 30270.47853376  2255.75616722
0.41400002 30443.06979838  2084.58930322
0.41500002 30614.50427743  2483.44870466
0.41600002 30783.42235438  2118.05347545
0.41700002 30951.62418458  3687.26716383
0.41800002 31119.06053979  1955.83304760
0.41900002 31283.02159860  2562.07959033
0.42000002 31445.89230137  2581.55065081
0.42100002 31607.61574933  2000.76217174
0.42200002 31767.41409736  2620.33527599
0.42300002 31924.79614074  2233.45884384
0.42400002 32080.20193641  2658.64686146
0.42500002 32234.12802902  2265.73696652
0.42600002 32384.70168654  3318.78438610
0.42700002 32534.44562854  2088.71150833
0.42800002 32681.39571446  2523.65749666
0.42900002 32826.79493243  2540.79404817
0.43000002 32969.88844251  2984.10474434
0.43100002 33109.31989953  2360.03243427
0.43200002 33247.33676199  2375.35608752
0.43300002 33382.63839047  2607.85183464
0.43400002 33515.82315127  2405.59832068
0.43500002 33646.18683071  4400.92144601
0.43600002 33774.90498551  2435.33963939
0.43700002 33900.18140365  3118.13883327
0.43800002 34022.05902747  2240.35269313
0.43900002 34142.61954013  2929.43689537
0.44000002 34259.59538006  2492.89957597
0.44100002 34374.68132806  2734.84977607
0.44200002 34486.77539199  2291.64633340
0.44300002 34596.35670604  2304.11746582
0.44400002 34702.52842160  3011.31204649
0.44500002 34805.27491888  2794.16760291
0.44600002 34905.91871720  2340.44196090
0.44700002 35003.97126396  2822.72037650
0.44800002 35098.19476964  2836.63623572
0.44900002 35190.75108655  2850.45097310
0.45000002 35279.97801739  3818.70500158
0.45100002 35365.23523885  2637.53936911
0.45200002 35448.33355608  2408.71437929
0.45300002 35528.11314898  2661.41108212
0.45400002 35605.29063700  3645.09180172
0.45500002 35679.40329504  3416.65982146
0.45600002 35750.03237205  3430.93076935
0.45700002 35817.85293892  2706.75527488
0.45800002 35882.01521701  3458.66761069
0.45900002 35943.42057830  3720.14420617
0.46000002 36002.53655577  2987.49062499
0.46100002 36057.30781774  3498.28017028
0.46200002 36109.83277091  2507.82800480
0.46300002 36158.73563019  3774.97217871
0.46400002 36204.20251121  3030.29189381
0.46500002 36247.46053744  3293.80689515
0.46600002 36286.78849759  3558.64551662
0.46700002 36323.06694351  3569.83118840
0.46800002 36356.81291543  4092.32305572
0.46900002 36386.68850114  3078.31399310
0.47000002 36413.33939989  3087.12306064
0.47100002 36437.24493744  3095.70847661
0.47200002 36457.74494448  3362.68026434
0.47300002 36475.68818222  2852.76370794
0.47400002 36489.20884577  2859.84187884
0.47500002 36500.72184515  2606.15166327
0.47600002 36509.27830254  4179.58237818
0.47700002 36513.73555294  2618.03496324
