# SAXS profile: number of points = 501, q_min = 0, q_max = 0.5, delta_q = 0.001
#    q    intensity    error
0.00000000 1664650.74656090 399.51617917
0.00100000 1664582.51363308 599.24971914
0.00200000 1664377.75890015 823.86701674
0.00300000 1664036.65951823 1098.26423441
0.00400000 1663559.06455005 1746.73708415
0.00500000 1662945.45342493 1496.65096732
0.00600000 1662195.54691885 2967.01917204
0.00700000 1661309.99262651 2990.35811101
0.00800000 1660288.26273552 2465.52817426
0.00900000 1659131.64838040 3484.17661054
0.01000000 1657839.36282967 3008.97857346
0.01100000 1656412.65223349 4472.31435575
0.01200000 1654850.91963131 3226.95943476
0.01300000 1653155.61749085 3471.62694985
0.01400000 1651325.95330263 4830.12862753
0.01500000 1649363.63031229 5541.86204462
0.01600000 1647267.64396893 5460.69248387
0.01700000 1645040.03636742 6218.25161641
0.01800000 1642680.33845480 5149.80309278
0.01900000 1640189.27586320 5412.62485458
0.02000000 1637567.50251117 6705.83922613
0.02100000 1634816.61644920 5934.38458677
0.02200000 1631934.82934658 9571.29820896
0.02300000 1628925.04506015 5864.13042914
0.02400000 1625787.13231697 7925.71263144
0.02500000 1622522.34381202 8226.18865882
0.02600000 1619130.89649122 7868.97651686
0.02700000 1615613.92331327 8142.69454644
0.02800000 1611971.14734663 11219.31970005
0.02900000 1608205.16647992 10131.69301401
0.03000000 1604316.35924179 8206.07855472
0.03100000 1600304.84448823 10754.04904979
0.03200000 1596171.65602099 7901.05006121
0.03300000 1591919.72738731 9742.54918075
0.03400000 1587546.68618744 10835.00663316
0.03500000 1583056.26431134 10258.20506644
0.03600000 1578447.90793141 9636.42492326
0.03700000 1573723.60733291 13455.33746497
0.03800000 1568884.66877324 12849.16603191
0.03900000 1563932.20418149 10321.95302561
0.04000000 1558865.09966178 11504.42496861
0.04100000 1553687.42096681 10767.05432653
0.04200000 1548399.51138713 11984.61277414
0.04300000 1543001.21787306 11202.18936174
0.04400000 1537496.37155756 11415.91108899
0.04500000 1531884.37329949 15855.00400035
0.04600000 1526165.81243113 15063.25726894
0.04700000 1520343.87984854 15325.06702161
0.04800000 1514418.52791469 13357.17203769
0.04900000 1508392.75238571 14706.83002033
0.05000000 1502265.58924406 12641.56552216
0.05100000 1496040.90626735 16336.76745747
0.05200000 1489716.60362061 15396.22181590
0.05300000 1483298.16952158 14417.65887987
0.05400000 1476783.98271748 26803.63053628
0.05500000 1470177.93249295 25933.93993898
0.05600000 1463478.49474703 20020.38674237
0.05700000 1456690.68225644 21544.45619624
0.05800000 1449812.98059868 17963.18366836
0.05900000 1442847.50813167 16881.31663360
0.06000000 1435797.07544002 15765.05262486
0.06100000 1428663.03238978 17272.53686876
0.06200000 1421445.79771697 16119.19609958
0.06300000 1414148.55951616 16290.99216732
0.06400000 1406769.56596552 16459.20469154
0.06500000 1399314.99426222 16623.86290946
0.06600000 1391782.46922349 15386.15591716
0.06700000 1384175.21442059 16942.30541739
0.06800000 1376496.09214206 15671.40874260
0.06900000 1368745.72108570 17246.19689313
0.07000000 1360923.85199488 18841.99161321
0.07100000 1353035.07628472 14612.77950830
0.07200000 1345078.50864573 22092.91553949
0.07300000 1337058.91005652 16325.49005673
0.07400000 1328975.27467588 19436.26430300
0.07500000 1320830.21615901 16563.21168699
0.07600000 1312623.86471668 16676.88698305
0.07700000 1304361.46357827 18313.23580732
0.07800000 1296041.47674331 16893.90144161
0.07900000 1287666.11933099 16997.19357240
0.08000000 1279238.85553834 17097.02810631
0.08100000 1270759.98569665 23445.52283613
0.08200000 1262230.66389714 17286.24975323
0.08300000 1253653.50290372 17375.63836572
0.08400000 1245029.32309484 22223.77446040
0.08500000 1236362.09962990 17543.97901735
0.08600000 1227651.10232054 22429.18669248
0.08700000 1218899.25038447 17698.41794666
0.08800000 1210105.86147664 21001.38821223
0.08900000 1201277.08098726 19460.68962606
0.09000000 1192411.08496059 21159.33569660
0.09100000 1183510.89506233 16332.45111918
0.09200000 1174577.13076309 18023.88691844
0.09300000 1165613.46415221 18078.66567856
0.09400000 1156618.32461168 24722.71785048
0.09500000 1147595.67349086 18177.91632251
0.09600000 1138546.87049011 21535.61506766
0.09700000 1129474.67765807 19923.93425057
0.09800000 1120379.96323514 23292.70053083
0.09900000 1111264.64154985 18335.86744777
0.10000000 1102128.10883904 23376.13828779
0.10100000 1092973.59550955 21739.24583712
0.10200000 1083803.19771549 18419.23621155
0.10300000 1074617.66012330 20116.84354382
0.10400000 1065419.81500146 18458.39916328
0.10500000 1056212.02926872 18473.14926106
0.10600001 1046991.06847812 25206.31115966
0.10700001 1037764.21697061 20174.13732726
0.10800001 1028529.11866936 21861.38744615
0.10900001 1019289.54319586 25227.41738144
0.11000001 1010045.83214355 20180.71667613
0.11100001 1000800.08289185 21857.47483926
0.11200001 991554.59764186 18487.53634337
0.11300001 982308.37604020 21836.71622746
0.11400001 973065.73124730 20142.46158522
0.11500001 963827.25696881 20124.71407314
0.11600001 954593.49721226 18428.42833150
0.11700001 945367.48882457 25099.50801035
0.11800001 936147.80279893 16710.23906698
0.11900001 926938.41160871 20021.87063381
0.12000001 917739.65020940 18322.67297952
0.12100001 908554.88716815 24939.83282763
0.12200001 899382.35332768 23231.04728090
0.12300001 890225.91042364 21525.66352821
0.12400001 881085.14061801 23128.48603098
0.12500001 871962.12928525 16480.08502004
0.12600001 862859.80452126 19724.97606087
0.12700001 853777.33701629 19671.03077188
0.12800001 844715.53852912 19614.29572905
0.12900001 835677.17149445 24443.55841829
0.13000001 826663.12032032 19492.71729594
0.13100001 817673.45952830 30760.87699745
0.13200001 808711.43148402 16133.79381866
0.13300001 799778.05088313 24113.30937090
0.13400001 790872.29044427 22421.23049116
0.13500001 781997.44224723 17548.02343139
0.13600001 773152.79659725 17477.11979114
0.13700001 764341.49196844 17404.05659278
0.13800001 755561.95324289 20479.50770837
0.13900001 746819.69874573 18819.85729590
0.14000001 738111.15438580 20294.36714693
0.14100001 729439.87624050 18644.48411604
0.14200001 720805.08991827 17007.39689878
0.14300001 712211.53907155 19998.90096043
0.14400001 703653.33634803 21426.24510247
0.14500001 695139.29884099 19790.61677157
0.14600001 686664.54944218 25739.62185009
0.14700001 678235.13180714 16562.50270009
0.14800001 669846.50638345 19462.39116118
0.14900001 661501.62810119 17860.54480141
0.15000001 653202.35442110 20713.04763599
0.15100001 644949.20595065 22057.26388428
0.15200001 636743.42958948 20458.56735809
0.15300001 628585.04032789 15972.34662845
0.15400001 620472.78069488 15868.59211513
0.15500001 612411.42650649 20062.59927917
0.15600001 604397.79701691 19926.99630810
0.15700001 596438.16856665 14135.58526218
0.15800001 588524.92470420 18247.21615170
0.15900001 580666.50138234 16723.19602916
0.16000001 572858.15754513 17984.88270506
0.16100001 565106.03485319 16478.49275417
0.16200001 557405.00741939 14991.40838223
0.16300001 549759.53000789 14876.49358430
0.16400001 542168.28269652 18786.13188232
0.16500001 534632.99080294 19968.54314923
0.16600001 527152.92928938 14525.69965237
0.16700001 519729.01953205 14406.88910165
0.16800001 512360.89073992 18183.68887093
0.16900001 505052.10898587 14166.71232598
0.17000001 497800.28295273 14045.43564673
0.17100001 490606.71757064 13923.41930214
0.17200001 483471.68957916 20073.74549927
0.17300001 476395.71779377 14920.71458592
0.17400001 469379.97059160 13553.34729090
0.17500001 462423.31208267 17091.16642175
0.17600001 455524.73917006 15722.43711501
0.17700001 448689.17464669 17970.00229333
0.17800001 441913.21875095 11865.37048389
0.17900001 435198.03997177 11750.34763425
0.18000001 428544.88260819 17452.49116859
0.18100001 421954.11481920 19582.89139379
0.18200001 415422.08926679 14824.33795576
0.18300001 408954.71185133 16930.72587044
0.18400001 402548.01071702 12287.77860762
0.18500001 396204.31815393 12159.51109858
0.18600001 389922.85986093 10937.33673582
0.18700001 383703.47339334 11902.48230699
0.18800001 377546.44371307 14984.81905895
0.18900001 371454.31182855 13762.38290349
0.19000001 365420.90574063 13610.10227737
0.19100001 359455.42049813 13458.01157934
0.19200001 353549.29281766 11258.77776177
0.19300001 347708.70064329 17201.15023362
0.19400001 341930.09580914 16002.32924004
0.19500001 336215.26999990 10873.20234561
0.19600001 330562.20652802 10744.92503096
0.19700001 324973.10583268 10616.87186928
0.19800001 319447.09253326 9535.49616275
0.19900001 313984.92112988 14129.32211860
0.20000001 308583.74165774 10234.18027576
0.20100001 303247.22270325 11026.06953861
0.20200001 297972.29083655 10887.90802177
0.20300001 292760.86519702 17021.11750705
0.20400001 287611.97093831 9728.47537681
0.20500001 282524.91909054 11349.02653630
0.20600001 277500.76656627 8616.39920916
0.20700001 272538.61561142 8503.20520901
0.20800001 267638.24056891 9229.50516230
0.20900001 262802.00620013 11589.56902128
0.21000001 258025.08768248 9799.79329344
0.21100001 253309.75286276 10471.82567839
0.21200001 248655.76781783 9533.46258882
0.21300001 244062.67861735 8617.85358939
0.21400001 239531.51879309 11587.33776942
0.21500001 235061.30474287 8377.58529711
0.21600001 230649.92416747 9759.95200258
0.21700001 226299.54222983 11839.99260925
0.21800001 222008.91711831 8022.29259937
0.21900001 217776.70317971 8623.95785367
0.22000001 213603.66189059 10621.44258972
0.22100001 209491.87396703 7673.68770625
0.22200001 205437.62916652 9620.64462877
0.22300001 201441.49710445 11506.33885869
0.22400001 197501.82355014 7332.25554601
0.22500001 193623.07749329 7876.58716489
0.22600001 189799.69872918 7755.21605680
0.22700001 186034.45320991 8271.09218085
0.22800001 182325.04417118 8141.72523249
0.22900001 178671.67885793 6164.17321211
0.23000001 175074.38078428 6672.96033917
0.23100001 171534.18662755 5969.38997695
0.23200001 168047.26748553 6460.57750403
0.23300001 164616.35984787 5778.03450393
0.23400001 161239.89239451 7957.18906601
0.23500001 157916.22014343 6149.25790322
0.23600001 154646.98844399 9346.09118866
0.23700001 151430.80647698 5406.08004692
0.23800001 148267.55721604 9567.70591969
0.23900001 145156.66719314 5748.20429274
0.24000001 142097.53380613 6164.19130808
0.24100001 139091.15295850 5049.00909122
0.24200001 136135.14395350 4962.12623182
0.24300001 133229.95395548 5363.83819997
0.24400001 130374.45341182 6707.76594534
0.24500001 127569.21751315 6590.22608848
0.24600001 124813.44024060 7398.94108747
0.24700001 122107.26204166 4996.62939911
0.24800001 119448.53729824 5353.68369497
0.24900001 116837.74879550 4819.55736582
0.25000001 114275.19894889 4732.70758836
0.25100001 111759.15404536 5069.39546733
0.25200001 109290.73961572 6636.13402342
0.25300001 106868.69921903 4478.86739617
0.25400001 104491.51471558 5195.84081505
0.25500001 102159.89672783 4315.23424195
0.25600001 99873.36428856  4235.13021303
0.25700001 97631.07765119  4156.15517225
0.25800001 95432.42660740  5561.32492368
0.25900001 93277.58075435  4365.39098585
0.26000001 91166.23255186  3569.15817328
0.26100001 89095.23518370  4551.87578091
0.26200001 87068.77265534  3434.86324378
0.26300001 85082.45036269  3706.19171317
0.26400001 83137.09197762  4296.10943123
0.26500001 81233.21212724  3565.32584897
0.26600001 79368.34713274  4450.18343431
0.26700001 77544.46360420  3740.74510128
0.26800001 75759.32377753  3362.57774499
0.26900001 74012.33212719  3297.24955230
0.27000001 72304.37630288  3233.09033938
0.27100001 70633.91821996  3458.23679970
0.27200001 69001.17626854  2825.59830191
0.27300001 67404.55707052  3047.36016937
0.27400001 65843.45758015  2716.04275372
0.27500001 64320.35626609  4260.58060070
0.27600001 62830.67733607  3393.79919692
0.27700001 61377.67848733  3071.33917686
0.27800001 59958.07339675  3512.94368657
0.27900001 58573.05942500  2706.07547351
0.28000001 57221.29225629  4100.19189068
0.28100001 55902.44908717  3074.07582080
0.28200001 54616.78003028  2782.17890642
0.28300001 53363.26011167  2727.92998602
0.28400001 52141.55415345  4012.29278201
0.28500001 50951.39489985  2404.39643913
0.28600001 49791.34628783  2143.51755915
0.28700001 48662.22590963  2732.87073644
0.28800001 47562.43484999  2268.01481317
0.28900001 46493.47854389  2224.71305363
0.29000001 45452.31958644  2975.99076579
0.29100001 44441.07007874  1946.51896159
0.29200001 43457.28036842  1909.94756260
0.29300001 42501.37587092  2436.60399402
0.29400001 41572.60785927  2575.42317879
0.29500001 40671.85703820  2708.74580697
0.29600001 39796.42881425  2659.39648140
0.29700001 38946.96152716  1915.02218894
0.29800001 38123.80305308  2222.80844223
0.29900001 37325.73455917  1847.62394814
0.30000001 36552.35069316  2310.47419669
0.30100001 35804.24106217  2108.51185597
0.30200001 35078.88912120  2550.93693766
0.30300001 34377.76885999  1881.15160107
0.30400001 33700.55175868  1695.98034755
0.30500001 33044.80899950  1668.43248537
0.30600001 32411.83855593  2238.84785424
0.30700001 31801.41693932  1763.07063859
0.30800001 31212.45375711  1880.70649017
0.30900001 30644.51476198  1567.46700429
0.31000001 30098.30940632  1825.31206037
0.31100001 29570.95021613  1799.09669633
0.31200001 29064.92889277  1637.51817135
0.31300001 28577.89625275  1615.22277268
0.31400001 28111.74083887  1726.76376278
0.31500001 27663.64436501  1573.50816598
0.31600002 27234.20282375  1294.98640558
0.31700002 26822.72564082  1663.27729574
0.31800002 26429.53808801  1644.04949461
0.31900002 26054.12692336  1375.65796669
0.32000002 25695.67924174  1360.97171548
0.32100002 25354.51508312  1469.54776380
0.32200002 25030.16022054  1697.79584815
0.32300002 24721.10911512  1201.44595988
0.32400002 24428.50067433  1309.97841069
0.32500002 24150.84250690  1417.17150541
0.32600002 23889.01285189  1406.10736304
0.32700002 23641.80095390  1512.12966061
0.32800002 23409.91258396  1155.27924072
0.32900002 23191.17051077  1836.74079143
0.33000002 22987.88826481  1255.48357703
0.33100002 22795.90714148  1816.37796705
0.33200002 22619.69102528  1242.83898224
0.33300002 22455.29615409  1687.51558589
0.33400002 22304.37141215  1793.27154646
0.33500002 22165.23901710  1563.97933911
0.33600002 22038.36553177  1559.65520254
0.33700002 21922.59378366  1556.06578045
0.33800002 21819.86286962  1442.40210330
0.33900002 21727.06882353  1329.69667497
0.34000002 21646.09194076  1328.63718625
0.34100002 21575.55024365  1106.82577992
0.34200002 21516.43090635  1107.02042256
0.34300002 21466.07243550  1107.64939013
0.34400002 21426.61361613  1441.47549929
0.34500002 21396.25636004  1554.65206075
0.34600002 21376.65478168  1335.18592090
0.34700002 21364.03079166  1115.20246014
0.34800002 21361.90950637  1453.78482031
0.34900002 21368.04368017  1458.36905024
0.35000002 21382.66774060  1576.11651381
0.35100002 21405.52745351  1130.21190308
0.35200002 21435.54480296  1589.01701150
0.35300002 21473.77226394  1482.33456959
0.35400002 21519.74737100  1375.11192214
0.35500002 21572.71640951  1382.37973300
0.35600002 21632.16241725  1390.08282277
0.35700002 21698.66869610  1281.74042059
0.35800002 21772.30605633  1524.17035767
0.35900002 21851.84817504  1651.99980028
0.36000002 21938.22935203  1781.93276352
0.36100002 22029.53129401  1315.82396652
0.36200002 22127.86887200  1807.29377573
0.36300002 22229.91854174  1577.87969283
0.36400002 22338.23649135  1467.62220700
0.36500002 22451.02688216  1479.07372106
0.36600002 22569.45091793  1242.44833188
0.36700002 22692.02074700  1628.37948594
0.36800002 22820.65098670  1389.43540114
0.36900002 22952.52974941  1273.86546143
0.37000002 23087.82587369  1413.32132781
0.37100002 23227.55056061  1296.09738268
0.37200002 23371.52000108  1699.92758780
0.37300002 23518.43181758  1583.26090496
0.37400002 23669.91819672  1597.71955396
0.37500002 23823.62589486  1881.11358977
0.37600002 23981.46553283  2034.22791019
0.37700002 24141.00103098  1642.55378796
0.37800002 24304.34435063  1796.21265432
0.37900002 24470.10326839  1813.23473808
0.38000002 24638.45752791  1689.70549731
0.38100002 24808.63974585  1705.84214974
0.38200002 24981.32741585  1865.73052644
0.38300002 25155.74990086  1883.66264181
0.38400002 25332.76020779  1901.85706270
0.38500002 25510.39390331  1920.16744007
0.38600002 25690.90960733  1640.49311069
0.38700002 25871.78723769  1957.45951514
0.38800002 26054.11293773  2128.36058672
0.38900002 26237.70024396  1688.39609069
0.39000002 26423.12104789  2014.63095974
0.39100002 26608.51173462  2033.95473336
0.39200002 26795.32571853  2369.37678891
0.39300002 26982.44353969  2391.99373312
0.39400002 27171.00376282  2092.84666398
0.39500002 27359.06347279  1950.15413673
0.39600002 27547.57661900  2788.77905115
0.39700002 27735.96688260  1821.42103148
0.39800002 27925.55583985  2172.74797506
0.39900002 28114.23462600  1686.85415748
0.40000002 28302.82401479  2042.89793418
0.40100002 28491.09062069  2061.61541499
0.40200002 28680.17052586  1907.08802947
0.40300002 28867.72046302  2099.26073153
0.40400002 29054.86141765  1765.08291475
0.40500002 29241.56685993  2493.13610860
0.40600002 29427.69146769  2335.52884399
0.40700002 29612.96807242  1993.54510509
0.40800002 29797.55645722  1828.08017527
0.40900002 29980.50778438  2028.18144771
0.41000002 30163.17491383  1859.55982155
0.41100002 30344.40303111  2062.81261580
0.41200002 30523.77037265  2458.23196344
0.41300002 30702.49195676  2097.28732494
0.41400002 30879.65928751  2306.71065808
0.41500002 31055.76643252  2325.45590065
0.41600002 31229.24494317  2734.74510926
0.41700002 31401.86587928  2165.78679232
0.41800002 31573.74505556  2381.29196493
0.41900002 31741.97037273  3599.53961083
0.42000002 31909.07569473  2418.06987073
0.42100002 32074.96257535  2233.37974995
0.42200002 32238.78292879  2863.77122327
0.42300002 32400.09293515  2060.64600832
0.42400002 32559.35630830  2905.92268822
0.42500002 32716.99505144  2299.67769114
0.42600002 32871.19977791  2737.02057920
0.42700002 33024.45027017  2332.18678859
0.42800002 33174.93252981  2775.24911229
0.42900002 33323.61821659  2579.24817219
0.43000002 33469.96737093  2596.60019168
0.43100002 33612.55450388  3702.75917961
0.43200002 33753.60854124  2630.75637437
0.43300002 33891.84621734  2206.35929330
0.43400002 34027.85805244  2664.38141177
0.43500002 34160.87867329  3127.77019955
0.43600002 34292.22145918  2697.42626781
0.43700002 34419.95949642  3392.08716912
0.43800002 34544.26874916  2502.21422542
0.43900002 34667.04977048  3203.23555059
0.44000002 34786.21514584  2531.21906504
0.44100002 34903.28081934  2776.90515358
0.44200002 35017.30863626  2792.28032298
0.44300002 35128.70353438  2807.48611952
0.44400002 35236.62663551  3057.65842120
0.44500002 35340.88600640  2364.30538587
0.44600002 35443.03217567  2614.10096200
0.44700002 35542.43894814  2627.29721156
0.44800002 35637.78755266  2640.22561596
0.44900002 35731.51308305  2653.06497215
0.45000002 35821.77883169  3635.01517922
0.45100002 35907.87144663  2678.00917941
0.45200002 35991.77467554  3423.89768715
0.45300002 36072.05654694  3193.45931745
0.45400002 36149.82743657  2713.94842342
0.45500002 36224.34951802  2477.74562446
0.45600002 36295.33690909  3732.06819455
0.45700002 36363.28817859  2747.97381789
0.45800002 36427.46525581  2758.83421190
0.45900002 36488.80282022  3524.81851949
0.46000002 36547.68204094  2779.99956620
0.46100002 36602.12893802  2790.18042118
0.46200002 36654.23892807  3054.76441705
0.46300002 36702.66931832  3320.85767731
0.46400002 36747.46769841  2819.44959279
0.46500002 36789.99703340  2828.78300597
0.46600002 36828.43244488  3353.78135955
0.46700002 36863.71263348  3105.39929943
0.46800002 36896.37012451  3114.79171354
0.46900002 36925.03466087  3384.17958707
0.47000002 36950.27588874  3132.64453832
0.47100002 36972.68666947  3402.96624235
0.47200002 36991.63835331  2624.55686556
0.47300002 37007.98518416  3157.52144557
0.47400002 37019.67980215  2637.65231092
0.47500002 37029.27309126  2643.89022403
0.47600002 37035.92626478  3709.88890978
0.47700002 37038.22423255  3452.33304435
