# SAXS profile: number of points = 501, q_min = 0, q_max = 0.5, delta_q = 0.001
#    q    intensity    error
0.00000000 1646666.22097350 271.69992646
0.00100000 1646598.57306404 543.37754202
0.00200000 1646395.57304491 1037.22924386
0.00300000 1646057.39634950 1086.39792029
0.00400000 1645583.89556585 1851.28195286
0.00500000 1644975.54339536 1776.57365719
0.00600000 1644232.05668848 1726.44372981
0.00700000 1643354.09769806 2760.83499887
0.00800000 1642341.10603123 3325.74088013
0.00900000 1641194.42505965 2707.97091711
0.01000000 1639913.21764413 3247.02831114
0.01100000 1638498.73701853 3244.22764055
0.01200000 1636950.41385366 4788.08017045
0.01300000 1635269.64936416 5151.09962269
0.01400000 1633455.69078332 4410.33056063
0.01500000 1631510.19865515 5090.31204647
0.01600000 1629432.22910171 4570.55760695
0.01700000 1627223.72332805 4393.50425007
0.01800000 1624884.29770846 5094.01250253
0.01900000 1622414.67660446 7787.59079910
0.02000000 1619815.46326252 8163.87030414
0.02100000 1617088.20819469 5870.03046188
0.02200000 1614231.24265194 7239.82745222
0.02300000 1611247.34543884 7540.63791989
0.02400000 1608136.50506423 7839.66581966
0.02500000 1604899.81783124 7510.93149048
0.02600000 1601537.63885092 7134.85050742
0.02700000 1598050.98729038 8054.17734483
0.02800000 1594439.64646231 9016.55661424
0.02900000 1590706.16705718 8589.81369650
0.03000000 1586850.98958528 8854.62892889
0.03100000 1582874.17102304 8357.57600756
0.03200000 1578776.73872106 11722.41782492
0.03300000 1574561.55836862 10439.34361324
0.03400000 1570226.46097154 9068.05823051
0.03500000 1565774.93235943 10146.22203022
0.03600000 1561206.59662327 13863.51521870
0.03700000 1556523.26553038 12421.05623338
0.03800000 1551726.35694936 12708.63945157
0.03900000 1546816.88525918 11137.08208962
0.04000000 1541793.85440563 12326.64243718
0.04100000 1536661.32548181 9680.96679941
0.04200000 1531419.42117074 12840.95244225
0.04300000 1526068.16750040 17122.48563415
0.04400000 1520611.42710643 12316.95313159
0.04500000 1515048.46714529 11499.21839994
0.04600000 1509379.88998772 11705.24159099
0.04700000 1503608.85723212 12991.18113068
0.04800000 1497735.41825856 16512.53375460
0.04900000 1491762.45134712 12307.04079648
0.05000000 1485689.04268843 12502.07387640
0.05100000 1479518.96834876 11540.24849071
0.05200000 1473250.25213224 14054.80806031
0.05300000 1466888.45304517 17822.69553535
0.05400000 1460431.52469507 14458.27276873
0.05500000 1453883.72039123 17097.67334940
0.05600000 1447243.43274839 17323.50469839
0.05700000 1440515.59483175 16292.23213804
0.05800000 1433698.76313615 13957.05811082
0.05900000 1426795.07156421 15409.38749260
0.06000000 1419807.08562876 14290.35898448
0.06100000 1412736.39838013 15766.13894270
0.06200000 1405583.32322719 14611.03932792
0.06300000 1398351.00892795 13424.17031336
0.06400000 1391037.73624990 16275.14227526
0.06500000 1383649.74811642 13698.13314712
0.06600000 1376184.49769238 15213.72033382
0.06700000 1368645.29363382 13960.18264839
0.06800000 1361034.90637824 15495.38313444
0.06900000 1353353.97112845 21315.32604323
0.07000000 1345602.27094749 30094.39619902
0.07100000 1337784.56180591 17337.68873306
0.07200000 1329899.56745615 21843.60141877
0.07300000 1321952.32732598 17608.40582503
0.07400000 1313941.58127716 16260.02783032
0.07500000 1305870.21434796 14886.92114135
0.07600000 1297738.15820895 17986.65171600
0.07700000 1289550.73731579 18105.29320084
0.07800000 1281306.33116846 19738.52495731
0.07900000 1273007.03590559 16803.69366211
0.08000000 1264656.68239844 21511.81117674
0.08100000 1256255.01774386 27813.48739781
0.08200000 1247803.58280367 17088.67086839
0.08300000 1239304.93442830 20299.81577865
0.08400000 1230759.86704357 17261.40794551
0.08500000 1222171.99131204 20495.82525648
0.08600000 1213541.18549499 19004.05585712
0.08700000 1204869.98024693 19085.14138331
0.08800000 1196157.68876692 19162.44707399
0.08900000 1187410.39792740 24045.06168742
0.09000000 1178626.54448816 17697.07839682
0.09100000 1169808.92758782 16143.36395915
0.09200000 1160958.30120103 22673.51668781
0.09300000 1152077.95189854 21117.58985066
0.09400000 1143166.59167815 19548.14963641
0.09500000 1134228.23536504 19599.46482834
0.09600000 1125264.15686728 18009.85367726
0.09700000 1116276.99574582 24613.90891336
0.09800000 1107267.51698428 26308.67744052
0.09900000 1098238.02086378 26357.71374014
0.10000000 1089187.67396970 26401.91045863
0.10100000 1080119.48053595 18178.41171238
0.10200000 1071035.87199922 24821.25750108
0.10300000 1061937.37317610 21536.09094109
0.10400000 1052826.92759636 18240.22737872
0.10500000 1043706.84150282 24892.40934101
0.10600001 1034573.57522813 21586.37866285
0.10700001 1025435.12181480 19934.45970615
0.10800001 1016288.37734954 19939.57890199
0.10900001 1007137.39699295 24926.65174876
0.11000001 997982.48909089 18278.05014804
0.11100001 988825.83524057 18273.50229544
0.11200001 979669.62124174 19926.48103414
0.11300001 970513.06453673 16595.77418492
0.11400001 961359.91976729 18241.80533649
0.11500001 952211.07432761 19882.16816817
0.11600001 943067.27873974 19860.99782554
0.11700001 933931.45491596 18183.64628357
0.11800001 924801.68518167 23110.79520117
0.11900001 915682.61285685 16482.28780777
0.12000001 906574.34482961 18099.75764711
0.12100001 897479.88003748 21351.04735190
0.12200001 888397.92307902 21308.22518891
0.12300001 879331.85959661 16355.57335908
0.12400001 870281.52773593 21213.11323807
0.12500001 861249.24779268 22788.65617041
0.12600001 852237.46837772 19482.14944518
0.12700001 843245.75547252 22666.44697529
0.12800001 834274.49199206 25829.13948938
0.12900001 825327.00073446 16093.87727286
0.13000001 816403.30667243 30480.41889131
0.13100001 807504.41330316 19186.30576448
0.13200001 798632.86227282 19119.27162410
0.13300001 789790.03420332 19049.73652305
0.13400001 780974.59357087 17396.20989195
0.13500001 772190.21095916 22053.75346479
0.13600001 763435.79821225 17257.46703229
0.13700001 754714.44469761 15622.58974190
0.13800001 746025.05682676 17110.08548516
0.13900001 737372.51492017 17033.30589792
0.14000001 728753.89292398 16954.46011846
0.14100001 720172.08659054 15339.66616784
0.14200001 711626.76861192 18317.27388801
0.14300001 703122.36767226 22781.16578711
0.14400001 694653.43629516 16619.58424731
0.14500001 686228.33061265 16531.24126427
0.14600001 677842.06057045 19430.34358287
0.14700001 669501.34529515 16349.22362341
0.14800001 661200.89633662 20688.97702245
0.14900001 652944.09525847 16160.36712011
0.15000001 644732.62387607 23365.11139170
0.15100001 636567.23021300 14513.73353369
0.15200001 628448.66975027 18749.76694674
0.15300001 620377.36472484 21496.07670209
0.15400001 612351.94727232 14237.18344595
0.15500001 604377.14712226 14142.42591008
0.15600001 596449.54650842 18260.30372815
0.15700001 588575.97700756 15344.17644478
0.15800001 580748.41504557 15235.93538784
0.15900001 572975.31083012 13751.40810900
0.16000001 565251.82802040 16380.99874925
0.16100001 557584.31004289 18969.01912308
0.16200001 549967.66722870 14791.38110836
0.16300001 542406.13474535 14677.51069910
0.16400001 534898.60547563 14562.61522157
0.16500001 527446.36799278 18386.78125629
0.16600001 520049.41797515 20843.58165653
0.16700001 512707.90835298 18088.33586073
0.16800001 505421.76318557 12812.44230171
0.16900001 498194.75810570 17785.55370417
0.17000001 491024.39845095 16373.20933948
0.17100001 483911.59005323 12484.91961293
0.17200001 476857.22962192 13611.89026235
0.17300001 469861.39197316 12263.38290963
0.17400001 462925.21465717 12151.78745863
0.17500001 456047.85441901 15651.56310285
0.17600001 449228.01944621 14312.40537552
0.17700001 442470.89880723 15358.16562297
0.17800001 435772.77963537 15210.64959160
0.17900001 429135.09108883 13903.97760801
0.18000001 422558.89068153 13766.96930869
0.18100001 416044.70136938 13629.62506068
0.18200001 409588.85260286 19113.46470959
0.18300001 403197.03314294 14466.71023257
0.18400001 396865.21933364 12114.31139245
0.18500001 390596.18156167 14166.92417452
0.18600001 384388.94104880 14016.74339754
0.18700001 378243.25804986 18132.98264760
0.18800001 372159.61498698 11605.79814170
0.18900001 366140.00226608 14608.98678065
0.19000001 360178.73207565 11351.03327769
0.19100001 354284.87980170 11223.74552244
0.19200001 348449.87760285 11096.38687658
0.19300001 342679.80816742 11966.37946665
0.19400001 336971.40820523 13798.97981806
0.19500001 331326.18983897 11689.18852989
0.19600001 325742.16859134 15401.09045880
0.19700001 320221.53930167 10461.63818338
0.19800001 314763.49499826 9395.69076973
0.19900001 309368.80188527 11137.27739422
0.20000001 304034.51198890 12833.29735757
0.20100001 298764.39855583 9957.81787450
0.20200001 293555.39449910 12514.26705896
0.20300001 288409.20197186 9707.85419721
0.20400001 283325.05269042 8712.24578202
0.20500001 278302.01435920 8599.53265017
0.20600001 273341.58751012 11882.15937071
0.20700001 268442.40730429 11725.56490531
0.20800001 263604.63241258 9916.80674013
0.20900001 258830.49043168 8153.16083401
0.21000001 254114.86625466 12868.37743545
0.21100001 249460.38336552 9519.40867924
0.21200001 244866.66108299 9388.18822974
0.21300001 240333.33761888 10029.11065297
0.21400001 235861.28889389 9888.48500437
0.21500001 231449.64904911 9748.65967884
0.21600001 227096.33573768 9609.58190107
0.21700001 222803.45830446 8014.24077412
0.21800001 218569.80226557 7898.02017829
0.21900001 214393.86363249 8489.99740127
0.22000001 210276.65164825 9061.87273125
0.22100001 206219.95998905 8927.26249004
0.22200001 202220.44067515 10146.41109064
0.22300001 198278.34030302 6662.15254920
0.22400001 194392.29709612 8528.96243840
0.22500001 190566.56423670 7752.24819973
0.22600001 186795.41212698 7632.46090043
0.22700001 183081.97937598 8765.96558706
0.22800001 179423.87614926 7395.85252462
0.22900001 175821.18160555 7278.99726270
0.23000001 172273.99214791 7163.15293227
0.23100001 168783.47326665 6461.03166221
0.23200001 165345.55269419 8668.24100995
0.23300001 161963.10843449 6253.39591241
0.23400001 158634.44266293 8387.79655251
0.23500001 155358.08198121 7699.54690715
0.23600001 152135.72810019 8112.63808465
0.23700001 148965.88570123 5849.89060817
0.23800001 145848.17373630 6274.38873091
0.23900001 142782.53343758 5654.18859157
0.24000001 139767.93948840 5557.87237665
0.24100001 136805.62264051 5959.25320410
0.24200001 133893.08773429 4880.40327877
0.24300001 131030.96121196 4795.73340721
0.24400001 128217.81355395 5183.20535810
0.24500001 125454.47805296 4629.27045914
0.24600001 122740.14962602 5911.77958639
0.24700001 120074.68656843 4466.77855165
0.24800001 117456.13980280 5703.08313792
0.24900001 114885.22815516 4308.19625963
0.25000001 112362.01021824 4230.42988485
0.25100001 109884.48235149 5815.08708115
0.25200001 107454.29478200 4485.67974789
0.25300001 105069.96858855 5204.11579040
0.25400001 102729.93119693 6287.07208670
0.25500001 100434.86121976 4628.03862397
0.25600001 98184.54479071  4163.51581884
0.25700001 95977.75673879  4457.20723383
0.25800001 93814.22045670  4373.61916463
0.25900001 91694.11890607  6079.32037111
0.26000001 89616.84895912  4911.89972386
0.26100001 87579.45226007  3786.05990034
0.26200001 85586.15261026  3376.37388023
0.26300001 83632.36769171  4967.76287595
0.26400001 81719.23755825  3248.33984665
0.26500001 79847.05983773  4141.66718976
0.26600001 78013.34460337  4374.20843890
0.26700001 76220.16828838  5515.29163833
0.26800001 74465.32393403  3605.61115551
0.26900001 72748.06049805  3535.55590751
0.27000001 71069.49363440  3755.66756884
0.27100001 69427.85791374  3682.45375801
0.27200001 67823.46576821  3055.10816011
0.27300001 66254.87895618  4356.92104635
0.27400001 64721.32415536  4271.60759641
0.27500001 63225.18725625  3664.53202680
0.27600001 61762.08498589  2822.83622787
0.27700001 60335.32038232  2767.58127692
0.27800001 58941.33357070  3453.37289735
0.27900001 57581.79322482  3143.96605887
0.28000001 56254.72996145  3319.59177214
0.28100001 54960.48713573  2557.31158746
0.28200001 53698.87994325  2507.46931763
0.28300001 52468.89454869  2682.21001628
0.28400001 51270.43729462  2630.17355770
0.28500001 50103.08027334  3009.19114365
0.28600001 48965.35882850  2529.55055681
0.28700001 47858.28775140  2480.97375446
0.28800001 46780.09020969  3041.87550987
0.28900001 45732.24304468  2387.22319993
0.29000001 44711.97706383  2537.18125858
0.29100001 43721.18570606  2106.48682703
0.29200001 42757.39264840  2818.78124377
0.29300001 41821.12322155  2397.60510778
0.29400001 40911.70577475  2172.41167947
0.29500001 40029.93318068  2310.52785256
0.29600001 39173.03191823  2617.73798185
0.29700001 38341.79856325  2056.65417229
0.29800001 37536.40925366  1683.50803472
0.29900001 36755.93866543  1819.41905007
0.30000001 35999.70423695  2113.00274022
0.30100001 35268.32684083  2236.71739413
0.30200001 34559.36662470  1727.79561620
0.30300001 33874.37556271  2008.07307842
0.30400001 33212.99335950  1975.34287357
0.30500001 32572.71580590  1495.08772627
0.30600001 31954.93631428  1912.98235302
0.30700001 31359.40865990  2752.72902249
0.30800001 30784.78425452  1569.56229953
0.30900001 30231.06617117  1968.04250092
0.31000001 29698.74745739  1385.44663448
0.31100001 29184.95937425  1502.44177972
0.31200001 28692.24344577  1751.23116163
0.31300001 28218.15527004  1329.07517615
0.31400001 27764.60034043  1443.06517102
0.31500001 27329.01929415  1295.39557588
0.31600002 26911.54088917  1279.64382987
0.31700002 26511.88469849  1517.54035199
0.31800002 26130.35189717  1250.33739748
0.31900002 25766.22189545  1360.45658050
0.32000002 25418.61083240  1346.29678648
0.32100002 25088.23120929  1332.93778726
0.32200002 24774.28413143  1440.37694760
0.32300002 24475.50057260  1308.46032257
0.32400002 24192.74162775  1415.27545224
0.32500002 23924.76962351  1520.89767698
0.32600002 23672.51171380  1277.25043000
0.32700002 23434.41283325  1844.75706559
0.32800002 23211.55249182  1374.58820366
0.32900002 23001.43447796  1252.42816663
0.33000002 22806.62862163  1358.81899762
0.33100002 22622.91838690  1802.59422243
0.33200002 22454.71504653  1233.77437666
0.33300002 22298.10270481  1452.27549794
0.33400002 22154.73230362  1224.60288607
0.33500002 22022.95366357  1331.94830065
0.33600002 21903.26131653  1771.53585918
0.33700002 21794.40448100  1546.96690332
0.33800002 21698.38598818  1213.69927773
0.33900002 21612.08583407  1212.43807271
0.34000002 21537.40935521  1101.63854069
0.34100002 21473.00811405  1211.72190526
0.34200002 21419.76012200  1542.86539466
0.34300002 21375.20347253  1323.55266170
0.34400002 21341.18673920  1435.72840588
0.34500002 21316.24177317  1216.94430046
0.34600002 21301.79584418  1441.38608406
0.34700002 21294.20220192  1222.71314834
0.34800002 21296.81540151  1449.35484079
0.34900002 21307.62961512  1230.51566855
0.35000002 21326.66938180  1459.70395497
0.35100002 21353.88268658  1578.47908295
0.35200002 21388.09248519  1358.99946087
0.35300002 21430.20739411  1251.73847318
0.35400002 21480.01181182  1715.71602473
0.35500002 21536.69381408  1265.06545456
0.35600002 21599.59677505  1387.99015451
0.35700002 21669.52474125  1280.01888709
0.35800002 21746.29076456  1405.24537577
0.35900002 21828.85631583  1296.63412658
0.36000002 21918.16116999  1305.55533193
0.36100002 22012.28043649  1434.32026118
0.36200002 22113.23417785  1565.28535542
0.36300002 22217.78658165  1455.70944578
0.36400002 22328.46498640  1344.73186750
0.36500002 22443.54538542  2094.65619004
0.36600002 22564.02328812  1490.57944902
0.36700002 22688.62832959  1628.13604605
0.36800002 22819.04962174  1641.94479331
0.36900002 22952.79774647  2038.20853643
0.37000002 23089.62663355  1413.43156133
0.37100002 23230.93236145  1555.54330461
0.37200002 23376.22528516  2092.63978666
0.37300002 23524.49352108  1319.72414905
0.37400002 23677.13326592  1465.02269023
0.37500002 23831.92995062  1478.53300418
0.37600002 23990.70677143  1899.34434507
0.37700002 24151.20755261  1917.12294634
0.37800002 24315.34840217  1658.79314658
0.37900002 24481.73581095  1953.64261026
0.38000002 24650.70251668  1690.54525868
0.38100002 24821.36649811  1564.49080449
0.38200002 24994.45286604  2010.30393925
0.38300002 25169.21736445  1739.69638665
0.38400002 25346.42460445  1902.88291733
0.38500002 25524.13025948  2512.34026046
0.38600002 25704.69682364  2089.02080982
0.38700002 25885.56313403  1958.50179950
0.38800002 26067.81066356  1673.16250671
0.38900002 26251.21230280  1689.26559172
0.39000002 26436.33890154  1705.54048503
0.39100002 26621.44777467  2191.47768463
0.39200002 26807.75479791  1738.34894223
0.39300002 26994.44966028  1914.44646061
0.39400002 27182.44566106  2093.72797624
0.39500002 27369.95780374  1788.35312762
0.39600002 27557.80206313  1641.06719061
0.39700002 27745.43100331  1987.68277125
0.39800002 27934.16574080  2674.97583807
0.39900002 28122.01063890  2530.98107742
0.40000002 28309.75281272  1702.83171236
0.40100002 28496.96319611  2062.04035457
0.40200002 28685.07741981  2080.81561462
0.40300002 28871.51680671  1924.57540152
0.40400002 29057.48393691  2824.38757249
0.40500002 29242.99831533  2493.25815450
0.40600002 29427.91686816  2155.88929191
0.40700002 29611.95364107  1812.25164870
0.40800002 29795.27086710  2193.52794517
0.40900002 29976.70946483  2027.92449138
0.41000002 30157.96690642  2045.16262266
0.41100002 30337.80366067  2812.31453260
0.41200002 30515.74180649  2646.63041228
0.41300002 30692.82062820  1906.02425132
0.41400002 30868.46816004  2498.03090422
0.41500002 31042.99948133  2324.49991130
0.41600002 31214.73504735  2733.47447762
0.41700002 31385.78991787  2361.46694532
0.41800002 31555.92897004  2974.93534461
0.41900002 31722.35541627  2198.35933452
0.42000002 31887.69980746  2013.70833826
0.42100002 32051.79014829  2231.76625378
0.42200002 32213.79766171  2861.55178189
0.42300002 32373.13680670  2058.93159847
0.42400002 32530.66088505  2073.82972969
0.42500002 32686.37089380  2506.39103890
0.42600002 32838.68491821  2313.64965555
0.42700002 32989.97749894  2965.13931811
0.42800002 33138.42594355  2985.44093472
0.42900002 33285.24561443  2576.27813264
0.43000002 33429.56499461  2809.58792311
0.43100002 33570.12219144  3698.08483585
0.43200002 33709.15888109  2408.35097039
0.43300002 33845.38242583  3084.66830047
0.43400002 33979.28742766  2438.86347069
0.43500002 34110.32611943  2676.97852071
0.43600002 34239.53802889  2468.84200657
0.43700002 34365.12440449  2483.56765841
0.43800002 34487.38366579  2270.99432201
0.43900002 34608.04876450  3197.78385738
0.44000002 34725.04229441  3215.88631929
0.44100002 34840.06972079  3464.84509793
0.44200002 34951.95291241  2787.06885732
0.44300002 35061.20864499  2568.58426706
0.44400002 35166.98130107  2816.87533571
0.44500002 35269.10901025  4247.10630829
0.44600002 35369.09670220  2371.49804627
0.44700002 35466.33532239  2860.00541594
0.44800002 35559.63286976  4071.40035837
0.44900002 35651.16107468  2887.74418390
0.45000002 35739.29848969  3868.42185186
0.45100002 35823.26258812  2671.69905044
0.45200002 35905.03417664  2927.69662551
0.45300002 35983.22722506  4655.86999131
0.45400002 36058.87583226  2953.22207062
0.45500002 36131.27411497  3459.93097323
0.45600002 36200.12278942  3474.12594875
0.45700002 36266.03178433  2740.62415183
0.45800002 36328.08850734  3001.42681473
0.45900002 36387.33439822  2761.79881172
0.46000002 36444.20566962  3780.17541224
0.46100002 36496.63904913  3287.98236777
0.46200002 36546.64340440  2791.98095520
0.46300002 36593.02280198  3056.24940927
0.46400002 36635.78074254  4599.62249023
0.46500002 36676.27620487  2820.03901105
0.46600002 36712.74715663  2828.90086623
0.46700002 36746.02436681  2579.57103281
0.46800002 36776.76054103  4139.59236270
0.46900002 36803.45865590  3632.50154150
0.47000002 36826.77624328  2861.99305140
0.47100002 36847.34544670  3130.55061753
0.47200002 36864.41253613  3400.18925143
0.47300002 36878.77774082  2622.08122165
0.47400002 36888.65672191  2891.14860761
0.47500002 36896.42140942  2897.84507485
0.47600002 36901.21505884  2904.31026886
0.47700002 36901.80358482  3175.03133093
