# SAXS profile: number of points = 501, q_min = 0, q_max = 0.5, delta_q = 0.001
#    q    intensity    error
0.00000000 1628779.37420969 268.74859674
0.00100000 1628712.30083485 537.47507204
0.00200000 1628511.02192754 879.39597969
0.00300000 1628175.71779726 1269.97710512
0.00400000 1627706.22666857 1587.01363131
0.00500000 1627103.03555320 1903.71062695
0.00600000 1626365.87887411 1878.45266658
0.00700000 1625495.35933013 2535.77286594
0.00800000 1624490.96605554 3070.28805547
0.00900000 1623354.01980093 3165.54047393
0.01000000 1622083.69650430 3211.72585776
0.01100000 1620681.23815668 3500.67162684
0.01200000 1619146.06031553 3788.80194725
0.01300000 1617479.60588617 3736.37805439
0.01400000 1615681.06489520 5452.92383575
0.01500000 1613752.12649234 5422.20738646
0.01600000 1611691.84285125 4109.81438299
0.01700000 1609502.12707151 5649.35271944
0.01800000 1607182.67176798 4580.47082065
0.01900000 1604734.09384225 5295.62274863
0.02000000 1602157.00735425 5046.79480146
0.02100000 1599453.04116457 7389.47338521
0.02200000 1596620.42589009 6059.17479154
0.02300000 1593662.03357957 6884.62029844
0.02400000 1590577.82986071 9543.46741432
0.02500000 1587368.77788630 6809.81236814
0.02600000 1584035.43069665 7056.87816652
0.02700000 1580578.61485588 9293.80268102
0.02800000 1576998.19024905 10289.91366327
0.02900000 1573296.76768619 9203.78651355
0.03000000 1569474.69611859 8757.66920689
0.03100000 1565532.07452004 7514.55430346
0.03200000 1561469.82714482 9275.13120044
0.03300000 1557290.96254106 11913.27641265
0.03400000 1552993.10726549 8968.53560827
0.03500000 1548580.00645850 10034.79890524
0.03600000 1544051.09351094 12854.22594752
0.03700000 1539408.24845910 9652.09016422
0.03800000 1534652.84845219 9875.49153682
0.03900000 1529785.82043671 11014.45841722
0.04000000 1524806.37021660 10315.31557252
0.04100000 1519718.32798392 13403.91627431
0.04200000 1514521.94897701 10745.53372651
0.04300000 1509217.25970384 12949.08468933
0.04400000 1503808.06743152 10150.70492658
0.04500000 1498293.61157655 14473.51696034
0.04600000 1492674.47037347 11575.69105586
0.04700000 1486953.85908070 13917.88876829
0.04800000 1481131.76157747 14152.21464035
0.04900000 1475211.11754646 13276.90067592
0.05000000 1469190.95145803 12363.24243223
0.05100000 1463075.12967787 13694.38385172
0.05200000 1456861.37366396 16214.86784451
0.05300000 1450555.68882931 14099.40195270
0.05400000 1444155.73061772 14297.14239985
0.05500000 1437665.71728046 14491.67110621
0.05600000 1431084.15066316 14682.92407097
0.05700000 1424415.99491855 14870.90368110
0.05800000 1417659.59793255 12546.28802752
0.05900000 1410817.38182088 17776.29984120
0.06000000 1403891.57301588 14130.16934255
0.06100000 1396883.79316865 12991.01988356
0.06200000 1389794.67859118 14446.91635926
0.06300000 1382627.00461213 22564.47377028
0.06400000 1375379.18865660 13409.94771654
0.06500000 1368057.56652493 13543.77054214
0.06600000 1360659.34031465 19144.47781397
0.06700000 1353188.13899153 13802.51966366
0.06800000 1345646.31549633 15320.18401905
0.06900000 1338034.75856618 15454.30218499
0.07000000 1330353.34184793 14168.26375416
0.07100000 1322606.46195901 22854.64073311
0.07200000 1314793.23047862 23035.17847711
0.07300000 1306918.22762667 17408.15160766
0.07400000 1298980.65292553 16074.88633329
0.07500000 1290983.02749510 25019.25224557
0.07600000 1282925.50327024 17781.34830893
0.07700000 1274813.18054098 20881.44087636
0.07800000 1266644.70190574 24015.58467437
0.07900000 1258421.82298830 15101.06258416
0.08000000 1250148.54257861 22783.95825731
0.08100000 1241824.52817171 15274.44241316
0.08200000 1233451.69577092 15356.47433295
0.08300000 1225031.75345191 16978.94089970
0.08400000 1216566.28038486 21715.70912418
0.08500000 1208058.67124595 21817.54062693
0.08600000 1199508.35544174 21915.01868286
0.08700000 1190918.69710796 22008.17855601
0.08800000 1182288.10537467 20518.61103241
0.08900000 1173623.21020518 15843.91408195
0.09000000 1164922.30934943 15901.19026959
0.09100000 1156188.17235342 19146.47703370
0.09200000 1147421.33525448 17607.18121678
0.09300000 1138625.51606827 16054.62053100
0.09400000 1129798.89289413 19319.56197646
0.09500000 1120946.06808903 22598.27379485
0.09600000 1112067.80661748 17798.64608159
0.09700000 1103166.88358336 17838.20934617
0.09800000 1094244.00624247 19499.42910806
0.09900000 1085301.62943966 17907.47772781
0.10000000 1076338.86742277 26090.45537329
0.10100000 1067358.44861266 17963.64353501
0.10200000 1058363.11372010 22892.39522654
0.10300000 1049353.30409865 27828.85093379
0.10400000 1040331.81007074 21300.79481330
0.10500000 1031301.14636959 16397.68899878
0.10600001 1022257.49460152 18047.95691641
0.10700001 1013209.17189434 19696.78722851
0.10800001 1004152.60171115 21343.26455382
0.10900001 995092.27212538 18060.92558912
0.11000001 986028.18210240 19700.84400572
0.11100001 976962.59265082 21336.86402789
0.11200001 967897.94754955 19687.04517997
0.11300001 958832.98883504 18035.64936912
0.11400001 949771.79224689 18021.92060644
0.11500001 940714.95242766 24552.66141450
0.11600001 931663.37293110 21255.90085440
0.11700001 922619.95129763 22862.52346986
0.11800001 913582.94511059 22830.43887359
0.11900001 904556.58701402 17910.22126648
0.12000001 895541.40218175 22755.70810134
0.12100001 886539.90968966 25957.88977854
0.12200001 877551.30195033 17809.90451213
0.12300001 868578.51213601 19386.67330427
0.12400001 859621.75901965 19341.49048926
0.12500001 850683.08494095 17685.70216928
0.12600001 841765.02152753 24053.43662363
0.12700001 832866.98499456 20788.36092514
0.12800001 823989.66663855 19133.04096107
0.12900001 815135.97188664 20663.69786125
0.13000001 806306.06636620 17428.30644599
0.13100001 797500.97557482 25264.83209713
0.13200001 788723.45691803 22029.04719018
0.13300001 779974.46565368 15677.48749872
0.13400001 771252.86403908 20303.23260304
0.13500001 762562.50169195 18667.53092156
0.13600001 753901.84361645 18591.22034017
0.13700001 745274.27693182 24683.48521589
0.13800001 736678.67423590 16895.72619033
0.13900001 728119.66638788 16819.56508674
0.14000001 719594.60839503 18263.31202237
0.14100001 711106.22739634 22719.84503685
0.14200001 702654.25454157 18086.32136495
0.14300001 694242.93422390 19494.34251251
0.14400001 685867.16164027 16409.37261627
0.14500001 677534.98283104 19289.42187112
0.14600001 669241.47308713 19183.80773103
0.14700001 660993.53979635 17608.86873090
0.14800001 652785.42228046 21884.63231444
0.14900001 644621.01175872 21755.96017332
0.15000001 636501.57082997 15858.43738548
0.15100001 628428.12521241 14328.16193092
0.15200001 620401.08380797 18509.66720883
0.15300001 612421.25481648 15561.62481922
0.15400001 604487.07874866 16865.19029297
0.15500001 596603.22929902 16752.61946932
0.15600001 588766.16502821 13865.44384079
0.15700001 580983.06350981 19277.01895707
0.15800001 573245.74096311 20507.86735090
0.15900001 565562.59100755 17645.55367232
0.16000001 557928.53581843 21558.35964163
0.16100001 550350.14007041 14710.85993850
0.16200001 542822.49097006 19908.01579611
0.16300001 535349.54243455 14486.55930216
0.16400001 527930.29441534 18292.78556509
0.16500001 520565.88287073 18146.92753361
0.16600001 513256.76281894 12857.08251564
0.16700001 506002.25220272 14026.38309331
0.16800001 498803.00631890 18966.98521083
0.16900001 491662.34808404 13791.12951495
0.17000001 484577.87345753 12429.42304110
0.17100001 477550.77803749 14784.97278621
0.17200001 470581.75316022 14653.91648541
0.17300001 463670.78263932 16942.53119774
0.17400001 456818.87728559 14389.79531407
0.17500001 450025.39933179 13068.73821380
0.17600001 443289.12150137 14123.19207806
0.17700001 436615.24709794 15154.91594255
0.17800001 429999.51539589 16163.68254718
0.17900001 423444.00290661 11432.98861850
0.18000001 416949.43455382 14716.23098770
0.18100001 410516.51530520 15689.94195610
0.18200001 404141.40015859 11093.68195840
0.18300001 397829.62050892 12078.10784921
0.18400001 391577.70247710 13039.53810848
0.18500001 385387.85002011 13978.01798058
0.18600001 379259.34286853 13829.69259106
0.18700001 373191.61851608 11576.40455329
0.18800001 367185.83327213 11450.69075159
0.18900001 361243.27717515 11324.97727452
0.19000001 355358.49723183 15271.53214010
0.19100001 349540.87466013 12080.13319904
0.19200001 343781.00990495 10947.70677772
0.19300001 338085.84513294 10822.12841408
0.19400001 332451.88125375 10696.63978480
0.19500001 326880.40518960 13454.39811339
0.19600001 321369.52643569 12345.41094143
0.19700001 315921.72682876 10321.16330325
0.19800001 310535.50026570 11123.38214519
0.19900001 305212.17021354 14650.18486262
0.20000001 299948.81732650 9043.45726980
0.20100001 294748.99052376 13396.34225245
0.20200001 289609.60065520 10582.33530810
0.20300001 284532.38961777 11318.69899397
0.20400001 279516.61908965 10314.16373191
0.20500001 274561.35088278 8483.94614329
0.20600001 269668.16763577 10047.83640105
0.20700001 264835.43411513 9089.15252847
0.20800001 260063.76840147 8152.99952478
0.20900001 255354.78134337 11261.14638957
0.21000001 250703.71587214 8728.25028069
0.21100001 246113.29690270 12522.24513838
0.21200001 241582.89115432 10806.00323218
0.21300001 237112.24817516 8372.43387888
0.21400001 232702.20984688 8255.11128459
0.21500001 228351.92557725 8138.46301234
0.21600001 224059.58481650 8751.76779670
0.21700001 219826.70412243 9344.83363406
0.21800001 215652.55641771 10626.28021990
0.21900001 211535.35456005 11867.13395192
0.22000001 207476.24229895 8253.40530889
0.22100001 203476.95390646 8808.51775111
0.22200001 199534.15936102 8009.30153547
0.22300001 195648.07080706 7888.53058795
0.22400001 191817.56031249 6473.84296667
0.22500001 188046.68312051 8924.69600292
0.22600001 184329.46236836 6276.41849044
0.22700001 180669.53825990 7414.67820082
0.22800001 177064.16132301 7906.80049779
0.22900001 173513.45895343 8979.32192548
0.23000001 170017.68975342 7658.44719712
0.23100001 166577.84008321 8115.67275267
0.23200001 163190.05060940 6273.84179239
0.23300001 159856.88770274 6172.07472611
0.23400001 156576.94827276 6623.20522518
0.23500001 153348.59124496 5971.39442550
0.23600001 150173.51088667 6406.40227743
0.23700001 147050.31729196 5249.69657562
0.23800001 143978.44190763 6710.11560248
0.23900001 140958.07627009 6596.83828147
0.24000001 137988.06931971 6484.74962441
0.24100001 135069.76318287 6373.94242609
0.24200001 132200.47669538 5782.44912418
0.24300001 129380.87472594 7103.01035845
0.24400001 126609.65478311 7909.93855674
0.24500001 123887.48692900 5028.59333232
0.24600001 121213.93095432 5389.17162516
0.24700001 118588.17204221 7940.66437559
0.24800001 116008.91097925 5199.51963606
0.24900001 113476.51814621 5957.51748451
0.25000001 110991.21184158 5014.58318823
0.25100001 108550.86061341 4923.86727037
0.25200001 106157.22040149 5640.13338676
0.25300001 103808.84356483 3955.11712694
0.25400001 101503.97405077 3882.52719113
0.25500001 99243.60146055  3810.95447639
0.25600001 97027.13652770  4862.51517714
0.25700001 94853.66641087  6240.42300843
0.25800001 92722.72403498  5043.18919888
0.25900001 90634.62930126  5302.12606499
0.26000001 88588.81294201  4161.90262894
0.26100001 86582.19261028  4083.21639670
0.26200001 84618.86669590  4673.50022875
0.26300001 82694.45742253  3929.64080266
0.26400001 80810.33317343  3212.21089564
0.26500001 78966.32935582  3150.75669039
0.26600001 77160.15898423  3708.31741626
0.26700001 75393.96069901  3637.00483622
0.26800001 73665.49570843  3864.12376024
0.26900001 71973.96686202  4372.41869378
0.27000001 70320.59954042  5717.06501318
0.27100001 68703.37646404  3363.71747086
0.27200001 67123.04558659  3023.55773153
0.27300001 65577.73017559  4581.91622420
0.27400001 64066.93924167  3435.58977942
0.27500001 62592.92089877  3627.88586698
0.27600001 61151.44174688  3049.01102980
0.27700001 59745.75882914  3986.23721774
0.27800001 58372.24654620  2931.45436029
0.27900001 57032.57136292  2874.44173273
0.28000001 55724.78474327  3523.19968214
0.28100001 54449.26866527  2533.52459090
0.28200001 53205.86641182  2258.58913608
0.28300001 51993.56100893  3765.37386648
0.28400001 50812.26977976  2823.89202667
0.28500001 49661.42676218  2343.52283983
0.28600001 48539.82195649  3343.42309461
0.28700001 47448.22341945  2254.73968361
0.28800001 46385.01166661  2211.86938602
0.28900001 45351.52893577  2367.34992250
0.29000001 44345.29060314  1935.67202645
0.29100001 43368.01352929  3039.23053199
0.29200001 42417.09841802  1864.23156372
0.29300001 41493.30088082  1829.85465546
0.29400001 40595.85961010  1796.36687278
0.29500001 39725.63610455  2116.58199184
0.29600001 38879.71347100  2424.92784398
0.29700001 38059.02959322  1871.36257369
0.29800001 37263.74218969  1838.40680796
0.29900001 36492.88264912  1970.61575634
0.30000001 35745.73540813  2098.09603910
0.30100001 35023.00054527  2221.15879973
0.30200001 34322.40422393  2027.93934957
0.30300001 33645.25356249  1687.64599859
0.30400001 32991.17894041  2264.01976197
0.30500001 32357.83040664  2079.31428037
0.30600001 31746.66591215  2046.70764825
0.30700001 31157.23905588  2303.14322005
0.30800001 30588.39653376  1843.10392040
0.30900001 30039.93269822  1676.22832392
0.31000001 29512.67568845  1652.11966326
0.31100001 29003.31263467  1628.82611468
0.31200001 28514.85334716  1472.64967084
0.31300001 28044.47379968  1585.07373420
0.31400001 27594.29706243  1434.21365773
0.31500001 27161.87752930  1544.96766702
0.31600002 26747.02838893  1271.82126011
0.31700002 26349.75264211  1382.57158659
0.31800002 25970.16126825  1864.00841329
0.31900002 25607.68871795  1229.16911666
0.32000002 25261.40321168  1702.87127113
0.32100002 24931.93727018  2288.00399162
0.32200002 24618.78551572  1550.61427913
0.32300002 24320.34343898  1418.36249652
0.32400002 24037.72189218  1289.02289750
0.32500002 23769.51999935  1627.26141621
0.32600002 23516.72655467  1384.19459055
0.32700002 23277.77175584  1374.31970954
0.32800002 23053.82998709  1251.47722011
0.32900002 22842.32020024  1243.76439380
0.33000002 22645.83425592  1349.23886886
0.33100002 22460.34625934  1454.08288569
0.33200002 22289.89341148  1558.73232008
0.33300002 22130.96132998  1330.51345816
0.33400002 21984.96494328  1215.21899479
0.33500002 21850.26825265  1321.50428650
0.33600002 21727.53859826  1427.82526660
0.33700002 21615.31291324  1863.02390822
0.33800002 21515.75478180  1312.89141896
0.33900002 21425.63579315  1092.70747720
0.34000002 21347.16177072  1201.09811391
0.34100002 21278.52646418  1419.06499710
0.34200002 21220.90913347  1200.99740929
0.34300002 21171.82592639  1310.95952345
0.34400002 21133.05542873  1202.99923725
0.34500002 21103.21246940  1095.25677903
0.34600002 21083.74924753  1097.40920031
0.34700002 21070.94070165  1319.88378806
0.34800002 21068.15616624  1433.79343580
0.34900002 21073.51235464  1438.26728632
0.35000002 21086.87080346  1443.29094050
0.35100002 21108.23786852  1337.41801469
0.35200002 21136.57209311  1454.93600894
0.35300002 21172.56984017  1236.68986294
0.35400002 21216.22864161  1242.74065154
0.35500002 21266.65875758  1135.63963144
0.35600002 21323.19870612  1941.15748615
0.35700002 21386.54147877  1378.14879817
0.35800002 21456.74157956  1733.16838318
0.35900002 21532.67231957  1395.31723240
0.36000002 21615.24727392  1521.60540392
0.36100002 21702.43870597  1414.13097306
0.36200002 21796.51284082  1661.54825256
0.36300002 21894.01114034  1314.95437137
0.36400002 21997.60066792  1565.67930170
0.36500002 22105.61962280  1941.75771964
0.36600002 22218.95028652  1223.15327121
0.36700002 22336.27078644  1479.55464698
0.36800002 22459.42726835  1616.06816565
0.36900002 22585.93567687  1880.27923417
0.37000002 22715.40939473  1390.52385197
0.37100002 22849.43799295  1529.99844048
0.37200002 22987.34572941  1929.21308173
0.37300002 23128.18762393  1427.24052588
0.37400002 23273.42773179  1309.13037193
0.37500002 23420.83928127  1585.12247765
0.37600002 23572.16231104  1599.60701020
0.37700002 23725.26038100  2421.40018919
0.37800002 23882.08794314  2308.08449860
0.37900002 24041.04628922  1507.37367374
0.38000002 24202.64284849  2489.72598777
0.38100002 24365.97051212  2094.25526473
0.38200002 24531.68386818  1691.21436599
0.38300002 24699.11235792  1707.20272706
0.38400002 24869.09052563  2297.90407343
0.38500002 25039.47501094  2174.67850772
0.38600002 25212.95406641  2488.14048992
0.38700002 25386.65752377  2216.25530682
0.38800002 25561.80303597  2088.14378893
0.38900002 25738.18157864  2107.95717116
0.39000002 25916.33893217  3191.98603580
0.39100002 26094.53563799  1841.23052185
0.39200002 26274.03088171  2323.28129078
0.39300002 26453.97201199  2345.14472997
0.39400002 26635.18577193  1735.94831493
0.39500002 26816.08226720  1592.87536214
0.39600002 26997.35272279  1929.23091697
0.39700002 27178.56028280  2271.58417606
0.39800002 27360.83319908  1801.30053900
0.39900002 27542.36092386  1983.05008047
0.40000002 27724.03112320  3668.72121235
0.40100002 27905.06009860  1850.94272404
0.40200002 28087.15546237  2207.22921659
0.40300002 28267.73874303  2055.63005879
0.40400002 28447.79277378  1901.02384218
0.40500002 28627.70261230  1917.76988886
0.40600002 28806.95406861  2110.39755506
0.40700002 28985.53394755  3193.04657095
0.40800002 29163.53800399  1968.10145545
0.40900002 29339.72987061  2526.15086155
0.41000002 29515.80280453  2183.57919494
0.41100002 29690.64660180  2568.83486570
0.41200002 29863.75974096  2035.06600397
0.41300002 30036.10700062  3730.48466624
0.41400002 30207.15290985  2256.47442928
0.41500002 30377.23676130  2653.75552921
0.41600002 30544.58786563  2483.73327998
0.41700002 30711.43018778  1925.60676402
0.41800002 30877.47278006  2134.71418180
0.41900002 31039.99506447  2933.27967258
0.42000002 31201.49582826  1970.37455492
0.42100002 31361.99402306  2977.82147359
0.42200002 31520.45300221  2199.97012154
0.42300002 31676.50429106  3223.40122940
0.42400002 31830.73038045  4261.33923161
0.42500002 31983.39688728  2861.23482112
0.42600002 32132.83087376  2469.72949799
0.42700002 32281.35777693  2279.70959423
0.42800002 32427.19679666  2295.35923402
0.42900002 32571.57269167  2941.21315343
0.43000002 32713.56232100  2326.42509470
0.43100002 32851.95527313  2767.44884335
0.43200002 32989.06015224  2356.90351427
0.43300002 33123.43700037  2371.96943600
0.43400002 33255.64609129  2386.92411131
0.43500002 33385.26280163  2401.73591976
0.43600002 33513.08421611  2196.78277447
0.43700002 33637.46811225  2872.97628761
0.43800002 33758.70171225  2445.31167441
0.43900002 33878.53091880  2459.58146126
0.44000002 33994.78846271  3148.25750873
0.44100002 34109.26466543  3392.16653173
0.44200002 34220.78727790  2728.76570686
0.44300002 34329.83059626  2515.00350867
0.44400002 34435.57861666  2528.43247975
0.44500002 34537.85116249  3003.75705795
0.44600002 34638.00955449  2786.97438083
0.44700002 34735.66424244  2334.23674771
0.44800002 34829.66815030  2345.77826109
0.44900002 34921.87426105  2357.22662433
0.45000002 35010.89874418  3079.03363598
0.45100002 35095.97163563  3093.35908657
0.45200002 35178.94700162  3107.53243066
0.45300002 35258.64589229  2641.22528897
0.45400002 35335.81031598  2894.00300203
0.45500002 35409.94594860  3875.26466828
0.45600002 35480.58057589  2675.41330512
0.45700002 35548.57393914  3663.28071805
0.45800002 35612.81264536  2942.33072021
0.45900002 35674.40298213  2953.84070691
0.46000002 35733.82616001  2965.19303529
0.46100002 35788.98452301  2976.21209399
0.46200002 35841.83222523  3484.90151243
0.46300002 35891.07262424  2747.82065035
0.46400002 35936.98942676  3509.24718385
0.46500002 35980.72001462  4024.08391716
0.46600002 36020.62620731  3280.21848104
0.46700002 36057.52990356  3543.73420688
0.46800002 36091.91948313  3300.78665277
0.46900002 36122.50117561  3055.96374430
0.47000002 36149.90272686  2553.99074870
0.47100002 36174.58407840  2561.16067414
0.47200002 36195.93458242  3338.53218445
0.47300002 36214.67316536  2832.34972251
0.47400002 36229.21788626  3355.73146577
0.47500002 36241.68340869  3363.95321344
0.47600002 36251.30979271  3631.29387405
0.47700002 36256.92230848  2599.62145274
