# SAXS profile: number of points = 501, q_min = 0, q_max = 0.5, delta_q = 0.001
#    q    intensity    error
0.00000000 1664650.74656091 349.57665678
0.00100000 1664582.25755419 599.24962695
0.00200000 1664376.73102098 973.66041848
0.00300000 1664034.35851756 1597.47304108
0.00400000 1663554.97950854 1247.66628204
0.00500000 1662939.06554736 1496.64521823
0.00600000 1662186.34350000 2443.41402442
0.00700000 1661297.45895175 2990.33555039
0.00800000 1660271.91664504 3362.05077315
0.00900000 1659111.00770198 3732.99992691
0.01000000 1657813.87467866 3008.93231247
0.01100000 1656381.82923877 3577.78490693
0.01200000 1654814.28594689 4194.95439880
0.01300000 1653112.65506210 5207.30509311
0.01400000 1651276.17874400 4086.90872357
0.01500000 1649306.61914971 6333.33769955
0.01600000 1647202.80536858 4200.36734146
0.01700000 1644966.91790939 4885.55196535
0.01800000 1642598.52937930 7490.24963101
0.01900000 1640098.21745817 6396.38333671
0.02000000 1637466.78956840 5158.02062047
0.02100000 1634705.75870532 6473.43509797
0.02200000 1631813.39506223 8444.63470311
0.02300000 1628792.62709934 8795.48058669
0.02400000 1625643.20077316 7315.39473704
0.02500000 1622366.46807136 6327.22951445
0.02600000 1618962.72038182 7212.47924919
0.02700000 1615432.92230849 7463.30044289
0.02800000 1611776.86648547 7011.22969074
0.02900000 1607997.29314103 7235.98815137
0.03000000 1604094.45476715 7459.03955752
0.03100000 1600068.50455076 9216.39501029
0.03200000 1595920.55850370 9479.76855413
0.03300000 1591653.22680484 11364.40456329
0.03400000 1587264.72561393 8333.14019397
0.03500000 1582758.25113709 9401.58444590
0.03600000 1578133.65358338 12262.09905502
0.03700000 1573392.65911580 15246.17557193
0.03800000 1568536.60728655 11928.72145047
0.03900000 1563566.80145963 9381.40124321
0.04000000 1558482.02980548 11501.59791294
0.04100000 1553286.33888322 12721.41570530
0.04200000 1547979.92842586 10982.91810171
0.04300000 1542563.05638282 14253.28330259
0.04400000 1537039.19344140 11412.51654132
0.04500000 1531408.14869223 11623.38838865
0.04600000 1525670.01787820 11831.57153866
0.04700000 1519828.29348959 16414.14633308
0.04800000 1513882.89757394 11127.03981489
0.04900000 1507836.71815911 12439.65350385
0.05000000 1501689.24441879 13785.50790570
0.05100000 1495443.63369969 13997.35306348
0.05200000 1489098.32581396 13022.16546609
0.05300000 1482658.80009665 14411.44420877
0.05400000 1476123.26847290 19484.82805250
0.05500000 1469495.61393953 13578.14010621
0.05600000 1462774.51773813 16258.73952336
0.05700000 1455964.74035816 17733.65136534
0.05800000 1449065.06654390 16671.49436902
0.05900000 1442077.33987935 16872.30566462
0.06000000 1435004.58069916 14443.32177951
0.06100000 1427847.99792215 17262.68310159
0.06200000 1420608.26591588 18794.64823660
0.06300000 1413288.48846337 20351.35518541
0.06400000 1405886.57278024 13707.39472566
0.06500000 1398409.15468395 22150.80204636
0.06600000 1390853.84782896 16773.69818963
0.06700000 1383223.64336339 15519.77000485
0.06800000 1375521.40670575 19931.30611613
0.06900000 1367748.12674201 17233.62720381
0.07000000 1359903.18138781 17379.56347199
0.07100000 1351991.39107109 16061.65847822
0.07200000 1344011.66353370 14716.92840513
0.07300000 1335968.84885471 23726.80786739
0.07400000 1327862.28728639 19419.98686166
0.07500000 1319694.22386750 16548.96634299
0.07600000 1311464.81644658 16662.16127409
0.07700000 1303179.63252006 21346.08338156
0.07800000 1294836.77000229 15343.81644409
0.07900000 1286438.46767066 16980.98856972
0.08000000 1277988.49930256 17080.31709443
0.08100000 1269487.19138000 20299.10114256
0.08200000 1260935.21802669 18838.37304131
0.08300000 1252335.61674548 17357.37246271
0.08400000 1243689.35211009 20614.15197883
0.08500000 1235000.06758845 17524.65178178
0.08600000 1226266.91624562 17603.06240920
0.08700000 1217493.34038267 17678.00413247
0.08800000 1208678.49272555 19363.03036282
0.08900000 1199828.02152454 21056.98276680
0.09000000 1190940.74247642 16256.34189845
0.09100000 1182019.44261408 19574.24288931
0.09200000 1173064.80937212 16364.25485964
0.09300000 1164080.59304772 18054.89084661
0.09400000 1155064.90825338 18105.64328779
0.09500000 1146022.11871089 18152.99121362
0.09600000 1136953.34669309 23159.74076083
0.09700000 1127861.61406731 18237.52315687
0.09800000 1118747.49291364 18274.74115598
0.09900000 1109612.86581103 19973.03252378
0.10000000 1100457.56978849 21673.51285623
0.10100000 1091284.39337715 20035.98240473
0.10200000 1082095.74394742 18390.21803339
0.10300000 1072892.28686968 21758.25660124
0.10400000 1063676.73633052 23454.07313949
0.10500000 1054451.69240034 20118.93923758
0.10600001 1045213.62592053 23485.95127953
0.10700001 1035970.33021854 20139.26416715
0.10800001 1026718.62926546 18465.53541636
0.10900001 1017463.16143883 16788.14295389
0.11000001 1008203.82230110 21822.57276089
0.11100001 998942.55621258 18460.45930780
0.11200001 989682.56544477 26840.19243842
0.11300001 980421.67653750 20118.25374973
0.11400001 971165.09337955 23453.63810942
0.11500001 961912.88927008 20084.74207371
0.11600001 952665.71334523 20063.14086785
0.11700001 943426.91262913 23378.11999594
0.11800001 934194.64893649 16675.37526890
0.11900001 924973.29538032 23309.32814149
0.12000001 915762.85280046 19945.31587352
0.12100001 906566.64760486 18249.18747597
0.12200001 897383.44330167 19868.07037071
0.12300001 888216.48309721 23129.15830957
0.12400001 879065.74594200 23075.47691824
0.12500001 869933.12936289 21374.25799561
0.12600001 860821.69188058 21318.25020401
0.12700001 851730.66934221 19623.87554645
0.12800001 842660.71760186 16305.48565406
0.12900001 833614.81787491 19506.58765766
0.13000001 824593.39836431 19443.91324992
0.13100001 815596.76943808 17763.69847570
0.13200001 806628.53157139 20919.91195248
0.13300001 797689.33512154 22446.97894854
0.13400001 788778.01734434 20764.58228555
0.13500001 779898.25700069 19091.91023153
0.13600001 771049.20297625 17429.56805510
0.13700001 762233.77743250 20511.71191790
0.13800001 753450.99567536 15709.45400062
0.13900001 744705.50511230 18766.57961383
0.14000001 735994.26174218 18679.53524395
0.14100001 727320.89114811 17041.12928331
0.14200001 718684.40333530 18498.93741436
0.14300001 710089.74047518 23006.90867658
0.14400001 701530.86852397 24413.27537621
0.14500001 693016.75812450 16694.77449075
0.14600001 684542.23604850 25660.06692877
0.14700001 676113.39186175 27017.49241339
0.14800001 667726.05349454 17908.41359962
0.14900001 659382.82633345 14836.11429248
0.15000001 651085.94374021 20645.93625014
0.15100001 642835.34244670 14656.64649936
0.15200001 634632.55255635 20390.74487581
0.15300001 626477.62770019 20260.28743589
0.15400001 618369.54225249 18690.22029659
0.15500001 610312.48286565 17137.57532764
0.15600001 602303.77665577 21276.38191450
0.15700001 594349.72030123 18311.91574675
0.15800001 586442.10152557 16783.97373784
0.15900001 578590.08281688 16663.39517165
0.16000001 570788.41058421 15162.99484290
0.16100001 563043.35558507 15050.14960522
0.16200001 555350.01355281 19009.63186128
0.16300001 547712.68821548 17515.85259602
0.16400001 540129.91868901 17378.68095426
0.16500001 532603.32557470 13261.82343292
0.16600001 525132.83520676 13154.57814300
0.16700001 517718.50886816 14351.15774341
0.16800001 510360.44661005 21993.98448514
0.16900001 503062.34999948 15393.70863685
0.17000001 495821.45595755 13989.60304043
0.17100001 488639.14465691 20171.02484394
0.17200001 481515.88605636 19992.54053317
0.17300001 474452.08402852 16098.15997131
0.17400001 467448.74376874 14724.63612410
0.17500001 460504.92500071 18235.99589127
0.17600001 453619.70744420 15656.68494189
0.17700001 446797.74337929 13122.45034283
0.17800001 440035.78927175 14177.95379999
0.17900001 433335.02407494 12870.05082292
0.18000001 426696.49918009 16218.73469993
0.18100001 420120.55972384 12616.22100445
0.18200001 413604.04518722 15894.80420738
0.18300001 407152.42681318 13484.88901307
0.18400001 400761.47974230 13345.35790586
0.18500001 394434.18517429 12105.18571487
0.18600001 388169.26827062 10888.14848938
0.18700001 381966.69628808 10771.46134422
0.18800001 375826.94504347 11720.16383491
0.18900001 369752.27041234 11591.73422511
0.19000001 363736.73297112 11463.16368121
0.19100001 357789.22047930 12365.19604402
0.19200001 351901.29518511 13243.80587008
0.19300001 346079.28355874 14099.27067841
0.19400001 340319.38286146 11945.21090289
0.19500001 334623.53200128 10821.72553630
0.19600001 328989.76817223 12638.14254157
0.19700001 323420.18518653 13447.81193557
0.19800001 317913.82337847 10438.70088395
0.19900001 312471.52226027 10311.56072191
0.20000001 307090.44480405 11110.53281811
0.20100001 301774.35063412 11886.89223328
0.20200001 296519.78511930 9029.02788363
0.20300001 291329.01076259 9806.13496575
0.20400001 286201.01886102 12320.95444433
0.20500001 281134.89163433 11293.18913075
0.20600001 276131.88322139 11146.06399308
0.20700001 271190.97997002 9307.27487252
0.20800001 266312.01971021 9183.77043383
0.20900001 261497.41183584 12355.75329332
0.21000001 256742.03749576 11376.24021922
0.21100001 252048.71874912 8816.66459864
0.21200001 247416.51446523 8695.45381195
0.21300001 242845.60938906 14031.61997385
0.21400001 238336.31345235 8454.98111944
0.21500001 233888.37681567 7577.98376710
0.21600001 229499.14713486 8217.21735166
0.21700001 225171.13291535 7363.09639446
0.21800001 220902.90172650 10159.32493074
0.21900001 216693.24966495 10011.22860787
0.22000001 212542.70892760 7750.37024750
0.22100001 208453.29478401 7635.64454898
0.22200001 204421.66588992 8889.27656155
0.22300001 200448.17605744 7408.56493740
0.22400001 196531.17402367 7296.22018064
0.22500001 192674.95699028 9144.35389117
0.22600001 188874.08499727 10289.86063724
0.22700001 185131.44908110 10130.39337278
0.22800001 181444.61757193 9972.19665334
0.22900001 177813.75585852 9815.31978757
0.23000001 174239.18159975 6037.38792795
0.23100001 170721.56682573 6535.22188716
0.23200001 167257.01374426 5845.63290682
0.23300001 163848.66860697 7476.41510213
0.23400001 160494.44811477 6788.91547634
0.23500001 157193.03849971 7234.02397390
0.23600001 153946.07694090 8209.17494114
0.23700001 150752.29212391 7534.59991672
0.23800001 147610.88994111 8466.96104750
0.23900001 144522.22206828 5723.08026460
0.24000001 141484.94097142 5626.14894385
0.24100001 138500.55129666 5027.57024988
0.24200001 135566.25066872 6423.80709180
0.24300001 132682.75826078 7769.90269129
0.24400001 129848.73238491 4771.94114088
0.24500001 127064.85787788 4688.69347749
0.24600001 124330.25627403 5067.07983415
0.24700001 121645.36949914 4977.72875538
0.24800001 119007.60123581 5333.92093972
0.24900001 116417.89266450 5238.80541774
0.25000001 113875.99314146 5144.91761353
0.25100001 111380.40495043 5052.21540757
0.25200001 108932.58080700 4547.39080092
0.25300001 106530.80872054 4058.82400428
0.25400001 104173.76737565 4383.11146970
0.25500001 101862.14234960 5084.95838667
0.25600001 99595.35179040  4607.28119181
0.25700001 97372.58009460  5652.47854193
0.25800001 95193.48575319  4807.74722544
0.25900001 93057.95408227  3629.26038093
0.26000001 90965.71276044  4985.83095231
0.26100001 88913.65685173  4542.59894349
0.26200001 86905.91916552  4799.81414262
0.26300001 84938.01544966  3699.90012806
0.26400001 83010.90078876  4949.52519373
0.26500001 81125.19343617  3884.27444552
0.26600001 79278.22143199  3492.60221045
0.26700001 77472.07005378  4048.69057260
0.26800001 75704.53538807  4582.01722119
0.26900001 73974.84242513  3295.57938599
0.27000001 72283.80781772  3232.17061952
0.27100001 70630.19109118  3458.05431947
0.27200001 69014.04132516  4804.41271421
0.27300001 67433.99011851  3602.99826254
0.27400001 65889.04590804  3533.30025403
0.27500001 64382.04092267  3731.58326848
0.27600001 62907.89857768  3397.97030249
0.27700001 61470.53296956  2563.32134614
0.27800001 60066.12234351  3016.52080685
0.27900001 58696.35179666  2958.29627056
0.28000001 57359.31288946  3143.00369853
0.28100001 56055.20696444  3082.47597687
0.28200001 54783.88128790  3023.24863196
0.28300001 53544.38447080  2737.18906370
0.28400001 52336.74561791  2684.87517728
0.28500001 51160.26072499  2853.20787568
0.28600001 50013.59532254  2583.70245665
0.28700001 48897.73901442  2746.09715303
0.28800001 47810.76457120  2279.85641649
0.28900001 46754.64621176  2440.59264778
0.29000001 45726.01983637  2594.72311843
0.29100001 44727.01015647  2154.94745134
0.29200001 43755.26217972  1923.04386383
0.29300001 42811.14693139  2076.76883595
0.29400001 41893.89524867  2224.56594301
0.29500001 41004.62765627  2002.66610953
0.29600001 40140.21819269  2503.54552719
0.29700001 39301.72341352  1932.46583172
0.29800001 38489.07522404  2589.35265827
0.29900001 37701.43307569  3223.47268057
0.30000001 36938.30310460  2001.31735695
0.30100001 36200.12080566  1967.83866015
0.30200001 35484.44563471  2419.15219567
0.30300001 34792.81872889  1586.55260915
0.30400001 34124.79955510  1873.45158427
0.30500001 33478.19668980  1997.64409105
0.30600001 32854.12613005  1815.51909590
0.30700001 32252.30485858  2235.08483252
0.30800001 31671.47623676  2642.35138753
0.30900001 31111.86348356  1591.37189253
0.31000001 30573.54389032  1996.75824601
0.31100001 30053.92975913  1406.52397932
0.31200001 29555.45949975  1387.62888921
0.31300001 29075.67854042  1643.35742891
0.31400001 28616.58575676  1757.77386333
0.31500001 28175.38214931  1736.16713024
0.31600002 27752.60888956  1451.60027670
0.31700002 27347.56592961  1695.82264359
0.31800002 26960.60955401  1419.07175107
0.31900002 26591.34003527  1404.02282034
0.32000002 26238.75623640  1768.75464165
0.32100002 25903.31962511  1376.24343685
0.32200002 25584.30011835  1239.55939943
0.32300002 25280.63262943  1597.23044516
0.32400002 24992.98560329  1705.77134820
0.32500002 24720.33787719  1813.23686915
0.32600002 24463.27958518  1439.90870457
0.32700002 24220.61334057  1668.31592590
0.32800002 23993.14605241  1539.28035788
0.32900002 23778.54138813  2118.66813801
0.33000002 23579.22076084  1638.99171270
0.33100002 23391.13812969  1630.83022763
0.33200002 23218.67215292  1391.72727475
0.33300002 23057.63641296  1617.26269459
0.33400002 22910.02141209  1266.35149352
0.33500002 22774.14729784  1492.16220162
0.33600002 22650.26561509  1259.46807917
0.33700002 22537.39444465  1713.96892868
0.33800002 22437.23990016  1483.21381384
0.33900002 22347.05460482  1367.63980658
0.34000002 22268.37388045  1480.73559131
0.34100002 22200.16846391  1594.41617459
0.34200002 22143.16168781  1367.11886735
0.34300002 22094.87404229  1368.11466549
0.34400002 22057.03924794  1712.17775271
0.34500002 22028.46702038  1371.93299100
0.34600002 22010.35378207  1260.20286548
0.34700002 21999.08823216  1148.35246011
0.34800002 21998.37249829  1612.26079676
0.34900002 22005.59185057  1501.88171493
0.35000002 22021.18130372  1275.35677561
0.35100002 22044.98092681  1396.77005768
0.35200002 22075.77449118  1519.58600907
0.35300002 22114.65447614  1291.71702913
0.35400002 22161.20133707  1534.10923522
0.35500002 22214.61091409  1779.39041850
0.35600002 22274.41976448  1431.35428186
0.35700002 22341.13921236  1919.55077204
0.35800002 22414.80633030  1569.14859148
0.35900002 22494.35189865  1336.16456607
0.36000002 22580.57068274  1222.73796039
0.36100002 22671.77613029  2339.04725415
0.36200002 22769.71288381  1239.81092525
0.36300002 22871.43335278  1623.41441628
0.36400002 22979.12622252  1258.10722028
0.36500002 23091.40131231  1648.03338972
0.36600002 23209.12525815  1788.72736837
0.36700002 23330.96394869  1674.23005226
0.36800002 23458.70451634  1817.81509908
0.36900002 23589.66379636  1571.07168326
0.37000002 23723.84520798  1584.27845804
0.37100002 23862.41650854  1597.82748510
0.37200002 24005.20878553  1746.01894372
0.37300002 24150.88905345  1625.83792810
0.37400002 24301.04317304  1640.32049188
0.37500002 24453.20545298  1379.16085288
0.37600002 24609.59582197  1391.67270966
0.37700002 24767.58350755  2106.48307710
0.37800002 24929.25150091  2125.84202245
0.37900002 25093.30298928  1573.35017196
0.38000002 25259.87524162  1587.96213229
0.38100002 25428.17582419  2185.55181563
0.38200002 25598.94528121  2058.92326651
0.38300002 25771.46299142  1929.76724022
0.38400002 25946.33184124  1648.24080830
0.38500002 26121.90341126  1512.45827916
0.38600002 26300.22159776  1832.07352329
0.38700002 26478.88155404  1695.17807740
0.38800002 26658.88418568  1711.10056252
0.38900002 26840.12310424  1884.17673118
0.39000002 27023.13524238  1743.39765276
0.39100002 27206.07334561  1919.66062621
0.39200002 27390.32002082  1776.12538590
0.39300002 27574.90247804  1955.61217639
0.39400002 27760.82156522  1973.79450680
0.39500002 27946.25102515  1826.00812850
0.39600002 28132.06952338  2847.95019313
0.39700002 28317.59307535  2197.72850270
0.39800002 28504.42217075  2388.38564684
0.39900002 28690.21348078  2065.69546849
0.40000002 28875.81771175  1910.56856942
0.40100002 29061.10118014  2102.86138103
0.40200002 29247.18007598  2828.78739098
0.40300002 29431.71626418  2853.69934418
0.40400002 29615.76039913  2518.82054129
0.40500002 29799.20907876  2359.20349455
0.40600002 29982.23454717  2196.49860700
0.40700002 30164.20572691  2769.07421693
0.40800002 30345.57039789  2420.21108176
0.40900002 30525.03140765  2628.20532873
0.41000002 30704.43304803  2839.39258065
0.41100002 30882.20999906  1908.52066837
0.41200002 31058.19570177  2308.86637787
0.41300002 31233.32940429  2715.42578707
0.41400002 31406.85702405  2737.10771934
0.41500002 31579.52523881  2758.78745558
0.41600002 31749.28533815  2978.87683800
0.41700002 31918.27754873  2401.53131656
0.41800002 32086.47915710  2621.62590375
0.41900002 32250.83280962  3047.70384492
0.42000002 32414.20290115  2456.34841224
0.42100002 32576.24284481  2474.49152375
0.42200002 32736.17122076  2700.24321110
0.42300002 32893.48275274  2301.22816243
0.42400002 33048.90853310  2317.55482070
0.42500002 33202.50338373  2333.80407343
0.42600002 33352.67847392  3845.23048347
0.42700002 33501.85342840  2580.98291043
0.42800002 33648.19622014  3680.94459993
0.42900002 33792.81046759  2397.60001629
0.43000002 33934.94593498  2413.28379453
0.43100002 34073.24146838  2870.32999731
0.43200002 34210.06572740  2221.94387429
0.43300002 34343.94400891  3353.68629139
0.43400002 34475.61254140  3149.34735490
0.43500002 34604.25796140  2489.43043571
0.43600002 34731.21033257  3414.94641778
0.43700002 34854.38888542  2747.92014995
0.43800002 34974.29912768  2533.36347737
0.43900002 35092.39980689  2779.31819642
0.44000002 35207.03430209  2794.73451534
0.44100002 35319.49332739  3278.35552601
0.44200002 35428.81710729  3060.51851085
0.44300002 35535.50675471  3313.33080683
0.44400002 35638.67831920  3568.32283582
0.44500002 35738.14218826  2629.97000827
0.44600002 35835.56293853  2643.05206979
0.44700002 35930.02837839  2414.49802145
0.44800002 36020.51058533  2668.57965318
0.44900002 36109.32605722  2681.11758681
0.45000002 36194.72430980  3672.85982340
0.45100002 36275.68663884  2951.39000481
0.45200002 36354.63753104  2717.32751104
0.45300002 36429.82298795  2728.95816936
0.45400002 36502.45599722  2491.29273988
0.45500002 36571.83930815  3251.96810540
0.45600002 36637.72501707  3264.97101963
0.45700002 36700.47743005  4034.11667030
0.45800002 36759.38176578  3543.23697633
0.45900002 36815.43984104  2794.29201637
0.46000002 36869.08702206  2549.49748841
0.46100002 36918.12279530  3325.95384026
0.46200002 36964.81999887  3080.64824471
0.46300002 37007.87162088  3606.04718165
0.46400002 37047.26485025  3617.66558409
0.46500002 37084.25801749  4147.50361325
0.46600002 37117.27879352  3900.09825408
0.46700002 37146.97136198  3129.26101585
0.46800002 37174.12915657  3922.80016517
0.46900002 37197.24131352  3671.36789165
0.47000002 37216.81775511  4206.98927843
0.47100002 37233.62172076  3163.36865133
0.47200002 37246.91079405  3964.00266914
0.47300002 37257.51240250  3178.81110885
0.47400002 37263.50527847  3186.02985232
0.47500002 37267.36195206  2660.88976950
0.47600002 37268.26075485  2933.19860174
0.47700002 37264.73677668  2939.06992888
