# SAXS profile: number of points = 501, q_min = 0, q_max = 0.5, delta_q = 0.001
#    q    intensity    error
0.00000000 1664650.74656090 274.66737318
0.00100000 1664582.23408083 549.31215029
0.00200000 1664376.63136042 748.96950783
0.00300000 1664034.13348771 1597.47282506
0.00400000 1663554.58977052 1621.96578666
0.00500000 1662938.44885215 1646.30912953
0.00600000 1662185.43734655 2617.94217040
0.00700000 1661296.25946080 2192.91115363
0.00800000 1660270.30871794 2241.36501140
0.00900000 1659108.98527029 3981.86173486
0.01000000 1657811.39483732 3556.00559547
0.01100000 1656378.81643730 4174.07479916
0.01200000 1654810.73738243 4517.63351112
0.01300000 1653108.46584821 5207.29189709
0.01400000 1651271.31488928 4458.43274785
0.01500000 1649301.02415470 4749.98716108
0.01600000 1647196.51165284 5040.42155098
0.01700000 1644959.76403774 6217.94818699
0.01800000 1642590.49130707 5149.52142196
0.01900000 1640089.31934934 7380.40227009
0.02000000 1637456.93963221 5673.78855248
0.02100000 1634694.90533555 5394.49343219
0.02200000 1631801.56005744 7881.60189316
0.02300000 1628779.59662618 7036.32817771
0.02400000 1625629.03347695 8534.55281491
0.02500000 1622351.15035101 8858.03768547
0.02600000 1618946.14728538 9179.42507496
0.02700000 1615415.08167259 7463.21801915
0.02800000 1611757.78894980 9815.60538484
0.02900000 1607976.82876909 7235.89606169
0.03000000 1604072.54944280 9696.61900709
0.03100000 1600045.16722639 9984.28230290
0.03200000 1595895.72546110 11059.55788683
0.03300000 1591626.82983812 8117.29720639
0.03400000 1587236.81707065 9166.29304152
0.03500000 1582728.71470963 13674.77672657
0.03600000 1578102.48706217 14013.55073273
0.03700000 1573359.77112400 9864.96622118
0.03800000 1568501.88902191 12846.03106560
0.03900000 1563530.34186203 9381.18248561
0.04000000 1558443.72126153 9584.42932989
0.04100000 1553246.20226147 14678.17729195
0.04200000 1547937.92212467 12979.46007917
0.04300000 1542519.06125691 13234.81415992
0.04400000 1536993.26712329 10374.70503490
0.04500000 1531360.12231962 12679.66240197
0.04600000 1525620.01234329 10755.62158702
0.04700000 1519776.16149614 16413.58330752
0.04800000 1513828.72074058 14464.63409969
0.04900000 1507780.43775251 13570.02457142
0.05000000 1501630.62871332 13784.96981350
0.05100000 1495382.81046778 13996.78375801
0.05200000 1489035.39968712 13021.61517709
0.05300000 1482593.62326029 12009.00890824
0.05400000 1476055.67032450 14612.95181767
0.05500000 1469425.67025958 13577.49382658
0.05600000 1462702.19057503 17508.54603820
0.05700000 1455890.05459828 16466.11728612
0.05800000 1448987.92253216 16670.60682712
0.05900000 1441997.84414865 12977.98120349
0.06000000 1434922.48853421 15755.44966018
0.06100000 1427763.43368775 19917.30083071
0.06200000 1420521.14795573 17451.10311836
0.06300000 1413198.87252294 18993.39373475
0.06400000 1405794.28708437 16447.79392810
0.06500000 1398314.38273477 15227.64434030
0.06600000 1390756.45569029 16772.52364039
0.06700000 1383123.52340640 19751.00483857
0.06800000 1375418.67972924 21353.37600233
0.06900000 1367642.61890772 15796.27298795
0.07000000 1359794.91329409 17378.17980569
0.07100000 1351880.54783469 16060.34166051
0.07200000 1343897.99720026 19130.38888634
0.07300000 1335852.50612624 14827.96351277
0.07400000 1327743.10096361 17924.53270303
0.07500000 1319572.08214808 19556.05917408
0.07600000 1311340.11467109 16660.57693795
0.07700000 1303052.08375872 16770.28110431
0.07800000 1294706.29004480 16876.49728218
0.07900000 1286305.11354812 18522.79450388
0.08000000 1277852.48595718 18631.09011926
0.08100000 1269348.07633129 17174.28027855
0.08200000 1260793.30711491 18836.25289219
0.08300000 1252190.84445709 26821.92914708
0.08400000 1243541.73904393 15855.15791703
0.08500000 1234849.32605517 20708.42417011
0.08600000 1226113.27551295 17600.85689638
0.08700000 1217337.00131274 19282.61900626
0.08800000 1208519.14473572 16133.73133992
0.08900000 1199665.76005847 17815.03737364
0.09000000 1190775.56097027 17879.49588787
0.09100000 1181851.35277064 19571.45932137
0.09200000 1172893.75488473 17998.05551438
0.09300000 1163906.59654064 18052.19216066
0.09400000 1154888.01801305 18102.87053314
0.09500000 1145842.34298809 23100.18272041
0.09600000 1136770.76635966 24810.02314206
0.09700000 1127675.94023064 16576.83710071
0.09800000 1118558.93403579 21593.78123685
0.09900000 1109421.46716387 19969.58734797
0.10000000 1100263.29501024 20002.78764396
0.10100000 1091087.20350672 18362.99849866
0.10200000 1081895.64308844 21729.87501352
0.10300000 1072689.13514171 23427.53181354
0.10400000 1063470.88041598 23449.53401636
0.10500000 1054242.90896737 16762.46304124
0.10600001 1045002.01233811 21803.96801339
0.10700001 1035755.76204367 18457.16854817
0.10800001 1026501.36910799 20139.95780972
0.10900001 1017242.98056812 21819.86296015
0.11000001 1007980.86679830 25174.32333323
0.11100001 998717.11185386 23489.82757655
0.11200001 989454.20166300 21802.62436005
0.11300001 980190.72440261 25141.89326463
0.11400001 970931.10554812 18423.41859523
0.11500001 961676.30312515 16733.16846231
0.11600001 952426.43855174 18386.59326209
0.11700001 943184.98528803 23372.12503615
0.11800001 933949.95785879 30007.81355932
0.11900001 924726.07779779 23303.09825812
0.12000001 915513.02136495 16616.56212050
0.12100001 906314.33480623 24878.32966240
0.12200001 897128.61671903 19862.42850990
0.12300001 887959.11461443 18167.64434097
0.12400001 878805.74434900 18125.36933122
0.12500001 869670.72006308 24655.16607555
0.12600001 860556.73363951 18032.96720319
0.12700001 851463.46477340 19617.71915289
0.12800001 842390.74747256 16300.26173181
0.12900001 833342.81951324 17875.20432105
0.13000001 824318.97546256 17817.65549446
0.13100001 815320.29412298 19372.01110151
0.13200001 806349.60017454 17695.34280999
0.13300001 797408.24866506 28850.23179679
0.13400001 788494.73807499 15967.01919879
0.13500001 779612.83131688 17494.51275959
0.13600001 770761.65372179 22174.81382314
0.13700001 761944.07026872 22081.14019759
0.13800001 753159.09856621 20414.37832929
0.13900001 744411.55668598 20322.43645590
0.14000001 735698.60530325 15560.02623598
0.14100001 727023.35462585 20131.27763904
0.14200001 718384.99357763 16950.29472293
0.14300001 709788.36349328 16864.57231206
0.14400001 701227.61521897 24402.72216069
0.14500001 692711.70267213 18204.46440497
0.14600001 684235.50719999 16596.13301005
0.14700001 675805.08935576 24004.59790637
0.14800001 667415.92316388 16408.42124511
0.14900001 659071.19336348 19277.83331543
0.15000001 650772.68648791 16214.00224887
0.15100001 642520.45957772 17579.36060353
0.15200001 634316.43085483 18924.83160756
0.15300001 626160.00077580 15910.72637052
0.15400001 618050.50795205 17243.60998561
0.15500001 609992.21275553 27120.25505900
0.15600001 601982.19996560 15594.34962608
0.15700001 594026.75939651 19709.80880702
0.15800001 586118.13935233 18172.59376834
0.15900001 578264.87206154 18041.86485991
0.16000001 570462.18813516 17909.66124188
0.16100001 562716.00452978 15041.39951110
0.16200001 555021.84130094 16284.34159249
0.16300001 547383.36575254 14812.19457652
0.16400001 539799.78184943 18704.06332409
0.16500001 532272.47879799 13253.58534779
0.16600001 524801.21216875 14460.89808405
0.16700001 517386.09842414 14341.94332547
0.16800001 510027.33936160 14222.11302962
0.16900001 502728.64638917 16665.45541471
0.17000001 495487.13232501 21605.71742525
0.17100001 488304.41589555 13858.07997751
0.17200001 481180.80797629 14983.97106797
0.17300001 474116.49855217 17324.21767522
0.17400001 467112.86616106 14714.05597896
0.17500001 460168.88982584 12148.45926514
0.17600001 453283.24245013 14441.60478653
0.17700001 446461.19420145 14304.61733783
0.17800001 439698.94964985 17708.87603358
0.17900001 432998.14161613 11690.95037584
0.18000001 426359.57204445 11575.66292778
0.18100001 419783.87843844 17190.15063406
0.18200001 413267.46770422 13613.03102923
0.18300001 406815.86043968 11228.11827854
0.18400001 400425.26716880 13334.16202664
0.18500001 394098.19066038 12094.87404275
0.18600001 387833.62821808 11966.60716401
0.18700001 381631.55994016 11838.21154864
0.18800001 375492.30137200 13838.76942089
0.18900001 369418.13874759 11581.25919692
0.19000001 363403.04730519 14576.09691611
0.19100001 357456.17462441 16471.58130498
0.19200001 351569.08608074 13231.30317985
0.19300001 345747.75957766 11067.38630704
0.19400001 339988.75710007 12928.07309963
0.19500001 334293.65584525 11793.88073554
0.19600001 328660.82936240 17481.47033990
0.19700001 323092.25775087 12474.59266128
0.19800001 317586.95707697 10427.96822844
0.19900001 312145.67592610 11237.24486441
0.20000001 306765.82045092 13873.48488557
0.20100001 301450.71587737 10960.74854733
0.20200001 296197.61521743 9921.13959062
0.20300001 291008.24344382 11576.30847134
0.20400001 285881.65357901 9669.94738937
0.20500001 280817.00483844 10412.69503159
0.20600001 275815.33804650 11989.69331161
0.20700001 270876.04085478 9296.46616157
0.20800001 265998.82107738 10006.87612196
0.20900001 261185.79206809 9050.08812297
0.21000001 256432.25050179 12985.72977928
0.21100001 251740.60452572 11207.49224330
0.21200001 247110.23247881 11053.24122131
0.21300001 242541.23399263 8564.13137715
0.21400001 238033.98330946 10747.23485451
0.21500001 233588.03234922 9081.90312711
0.21600001 229200.89540078 8952.58739762
0.21700001 224875.08209341 8824.09863855
0.21800001 220608.90009525 8696.40325293
0.21900001 216401.46794212 8569.49853569
0.22000001 212253.31248879 9147.05693420
0.22100001 208166.32511745 7625.13284959
0.22200001 204137.05179581 7511.22317599
0.22300001 200165.98022877 7398.13497908
0.22400001 196251.40256753 7948.18217983
0.22500001 192397.76336745 7174.51293524
0.22600001 188599.55262859 7706.17808482
0.22700001 184859.62976618 7586.63956437
0.22800001 181175.59531866 6845.72019285
0.22900001 177547.48905699 6737.92752836
0.23000001 173975.59731586 7233.90567850
0.23100001 170460.93036968 5932.04065741
0.23200001 166999.31891463 7003.95176652
0.23300001 163593.83811908 5742.14398955
0.23400001 160242.69986044 7343.12206840
0.23500001 156944.34242353 6666.99598147
0.23600001 153700.44418919 7103.26636417
0.23700001 150509.70506223 8059.79508729
0.23800001 147371.68221365 6339.93006870
0.23900001 144286.18413075 7272.02402415
0.24000001 141252.24095715 6127.52250256
0.24100001 138271.12740499 5521.16637844
0.24200001 135340.24305202 5919.78251111
0.24300001 132460.19050530 7756.86912291
0.24400001 129629.57675741 6193.05332254
0.24500001 126849.29734053 5148.81322261
0.24600001 124118.31864786 5058.44231578
0.24700001 121436.87091706 5872.68735536
0.24800001 118802.82146118 5324.74270979
0.24900001 116216.72614813 5229.75292407
0.25000001 113678.61236338 4707.99995376
0.25100001 111186.85279263 5043.43588127
0.25200001 108742.72738314 5364.82270926
0.25300001 106344.75457487 6482.77654559
0.25400001 103991.59918918 4375.44674289
0.25500001 101683.80540130 4685.58997458
0.25600001 99421.00687221  4599.21599551
0.25700001 97202.26933720  5266.41920186
0.25800001 95027.06672870  5537.70257563
0.25900001 92895.65208331  4709.80978347
0.26000001 90807.37443883  5332.66331624
0.26100001 88759.42174318  3488.24543956
0.26200001 86755.80902389  4107.02019352
0.26300001 84792.09626551  4700.87403939
0.26400001 82869.20087081  4282.26615763
0.26500001 80987.64568917  3554.54793749
0.26600001 79145.00963004  5071.61245708
0.26700001 77342.98926951  3109.18831576
0.26800001 75579.73127249  3354.60653127
0.26900001 73854.36469422  3290.21210283
0.27000001 72167.70706846  4107.06440362
0.27100001 70518.42185357  4315.72762167
0.27200001 68906.68824599  2821.72901721
0.27300001 67330.98012324  2767.30341403
0.27400001 65790.52692881  3528.01717352
0.27500001 64287.86164859  3459.97287767
0.27600001 62818.30003902  3915.15073522
0.27700001 61385.28384386  2815.74310318
0.27800001 59985.44606443  3514.54745125
0.27900001 58620.19001300  2954.45771648
0.28000001 57287.67577448  3622.01347227
0.28100001 55988.06972095  2368.29546129
0.28200001 54721.32848304  2555.21255445
0.28300001 53486.40767010  2734.22528951
0.28400001 52283.19804694  3129.14955121
0.28500001 51111.26693736  2850.47549201
0.28600001 49969.35611391  2796.53514728
0.28700001 48857.97490532  3165.99692372
0.28800001 47775.68034082  2692.39859305
0.28900001 46724.14382491  2235.75038785
0.29000001 45700.21876646  2593.25903665
0.29100001 44705.77361162  2153.92427456
0.29200001 43738.80351590  1922.32050552
0.29300001 42799.19550533  2642.42245558
0.29400001 41886.63579488  2965.57395466
0.29500001 41001.90680993  2366.63017310
0.29600001 40142.22718691  1788.33630583
0.29700001 39308.23345684  2459.90936618
0.29800001 38500.31435089  1726.73918038
0.29900001 37717.30845068  2885.37423307
0.30000001 36958.72355617  2169.29238182
0.30100001 36225.16394549  2461.50000662
0.30200001 35514.13841131  1936.94120065
0.30300001 34827.09601672  2382.17348032
0.30400001 34163.74253621  2657.08520154
0.30500001 33521.68375661  1846.37442873
0.30600001 32902.13236608  1818.17192063
0.30700001 32304.88320288  2089.47994448
0.30800001 31728.71966282  2353.00196159
0.30900001 31173.59772315  1594.52959903
0.31000001 30639.79064335  1429.34630118
0.31100001 30124.72505545  1973.77207908
0.31200001 29630.73097586  1530.27917370
0.31300001 29155.55705693  1510.54948264
0.31400001 28700.91501331  1627.34195830
0.31500001 28264.15231826  1741.63714831
0.31600002 27845.79450475  1588.88110967
0.31700002 27445.17465155  1701.87536072
0.31800002 27062.71209104  1424.44591836
0.31900002 26697.81831095  1794.09347544
0.32000002 26349.51889968  1395.60233460
0.32100002 26018.42921815  1382.35920981
0.32200002 25703.70239149  1369.87888382
0.32300002 25404.34176541  1481.58128191
0.32400002 25120.99807795  1224.64871429
0.32500002 24852.54558175  1336.81849014
0.32600002 24599.72214732  1447.93971415
0.32700002 24361.23559074  2037.57384129
0.32800002 24137.88593353  1429.44567267
0.32900002 23927.37243928  1421.28599020
0.33000002 23732.22397355  1296.13547369
0.33100002 23548.16162060  1407.23820509
0.33200002 23379.68253783  1284.59671787
0.33300002 23222.68283400  1396.14775809
0.33400002 23079.02705425  1623.60963015
0.33500002 22946.99912506  1619.14033494
0.33600002 22827.07728699  1730.86321725
0.33700002 22718.04364239  1612.52681410
0.33800002 22621.81105736  1265.35106142
0.33900002 22535.35839791  1723.95499908
0.34000002 22460.43864970  1263.73664047
0.34100002 22395.82381308  1953.13988724
0.34200002 22342.53718742  1494.38067055
0.34300002 22297.81696346  1495.73763275
0.34400002 22263.65676854  1613.00200927
0.34500002 22238.57349559  1154.18201908
0.34600002 22223.99087595  1735.13816982
0.34700002 22216.20230701  1159.68581535
0.34800002 22218.83635917  1395.78736619
0.34900002 22229.45106233  1283.75085965
0.35000002 22248.41960220  1171.37934753
0.35100002 22275.42278780  1293.75661679
0.35200002 22309.44715907  1890.05645283
0.35300002 22351.50384870  1305.55140164
0.35400002 22401.14776232  1192.86117484
0.35500002 22457.68533358  1319.16449898
0.35600002 22520.47941187  1326.56890259
0.35700002 22590.22809386  1698.33342854
0.35800002 22666.80231196  1464.72883478
0.35900002 22749.22052703  1228.45796665
0.36000002 22838.30410612  1360.36364852
0.36100002 22932.18129719  1618.78275444
0.36200002 23032.92895865  1755.80025768
0.36300002 23137.25551527  1515.95305317
0.36400002 23247.66837684  2545.61980784
0.36500002 23362.39065241  1410.85483833
0.36600002 23482.67241566  1551.26541326
0.36700002 23606.97003932  1694.03625027
0.36800002 23737.06103000  1313.84639025
0.36900002 23870.34689757  1854.72604180
0.37000002 24006.80822026  1736.77262296
0.37100002 24147.65251922  1616.92688928
0.37200002 24292.58204087  1766.92103844
0.37300002 24440.35177246  1782.43493920
0.37400002 24592.53921283  1521.66343588
0.37500002 24746.72949099  2372.71653599
0.37600002 24905.03989500  1549.21808006
0.37700002 25064.91002954  1847.53460580
0.37800002 25228.40267516  1577.65823603
0.37900002 25394.22475043  2460.70049489
0.38000002 25562.45825926  1753.07347047
0.38100002 25732.39579755  1769.35961886
0.38200002 25904.74332608  2381.16411934
0.38300002 26078.74141727  2703.84403823
0.38400002 26255.13593083  1971.10442339
0.38500002 26432.04038811  1836.49825317
0.38600002 26611.68508328  1544.80839227
0.38700002 26791.57174500  2027.05041426
0.38800002 26972.80616435  1731.24964568
0.38900002 27155.19265483  1747.43673012
0.39000002 27339.20769421  2405.16691085
0.39100002 27523.22453286  1618.36567920
0.39200002 27708.42686965  2123.43539376
0.39300002 27893.83525006  1813.37831552
0.39400002 28080.63176663  2495.66626650
0.39500002 28266.82100415  2854.38372023
0.39600002 28453.33967543  2372.15504113
0.39700002 28639.53082810  2393.69210002
0.39800002 28826.85885326  2587.93137616
0.39900002 29013.17442488  2088.94865756
0.40000002 29199.29788341  1756.33785090
0.40100002 29384.93888789  2480.67665845
0.40200002 29571.28218706  1966.34250219
0.40300002 29756.03418805  2344.18048440
0.40400002 29940.24181353  2000.75675399
0.40500002 30123.84145975  2751.81304773
0.40600002 30306.92841043  2220.28568055
0.40700002 30489.00161140  2239.11238443
0.40800002 30670.21049567  2257.94100368
0.40900002 30849.58099253  2086.97425303
0.41000002 31028.74126543  2295.50638758
0.41100002 31206.33562078  2121.40679602
0.41200002 31381.98686352  2332.93701397
0.41300002 31556.67284444  2743.53726709
0.41400002 31729.86708650  3160.29491156
0.41500002 31901.86253569  2786.94684317
0.41600002 32071.10951776  3009.07199308
0.41700002 32239.55751543  2425.70442240
0.41800002 32407.01788929  2240.45928794
0.41900002 32570.68871815  2051.95348647
0.42000002 32733.21479527  2893.94365718
0.42100002 32894.33950868  2498.65414748
0.42200002 33053.38899534  2097.23763113
0.42300002 33209.65172348  2956.98752958
0.42400002 33364.02287246  2339.65221480
0.42500002 33516.55620367  2998.39126006
0.42600002 33665.55207904  2587.53445541
0.42700002 33813.49681242  3256.23989734
0.42800002 33958.51553858  2840.79975200
0.42900002 34101.74639143  2419.51902113
0.43000002 34242.50170717  2213.77784027
0.43100002 34379.42259359  3118.90136549
0.43200002 34514.68789691  2690.07490216
0.43300002 34646.97019685  2932.17322671
0.43400002 34776.99003241  2949.95831929
0.43500002 34903.96652577  2510.99147086
0.43600002 35029.15656632  2525.77745391
0.43700002 35150.56039285  2309.39192725
0.43800002 35268.60922321  3948.14464659
0.43900002 35384.82517216  3036.01814365
0.44000002 35497.51595085  2582.97687057
0.44100002 35607.95312004  3541.21110561
0.44200002 35715.26287006  2847.93519622
0.44300002 35819.85240396  3101.28296811
0.44400002 35920.85967680  2397.71749706
0.44500002 36018.06562058  3855.37392674
0.44600002 36113.21421165  2905.66935317
0.44700002 36205.42008957  3162.90564892
0.44800002 36293.52268725  2688.80575571
0.44900002 36379.92488265  3437.90306434
0.45000002 36462.80650404  2713.37987459
0.45100002 36541.43876052  3964.01546461
0.45200002 36617.77240813  3981.08440489
0.45300002 36690.38202656  2748.47664787
0.45400002 36760.39556054  3763.34567387
0.45500002 36827.05030129  3526.55850399
0.45600002 36890.25791207  3287.47548964
0.45700002 36950.28460260  3807.72700876
0.45800002 37006.36054863  3057.46565343
0.45900002 37059.58122817  3579.95571631
0.46000002 37110.34304113  3079.41641150
0.46100002 37156.49256726  3089.93406834
0.46200002 37200.17924268  2583.55257085
0.46300002 37240.26539443  2591.92259430
0.46400002 37276.57912349  3380.05397222
0.46500002 37310.53681598  2608.00664704
0.46600002 37340.49077414  3138.84180324
0.46700002 37366.98012319  3672.42698057
0.46800002 37390.96756630  3156.54563156
0.46900002 37410.82659219  3692.44875966
0.47000002 37427.18092893  3173.07654955
0.47100002 37440.80676803  3180.97109378
0.47200002 37450.77242458  2922.84567241
0.47300002 37458.03579925  2929.59311871
0.47400002 37460.68160455  4804.33264350
0.47500002 37461.14015961  3209.67064101
0.47600002 37458.59432747  2948.17880628
0.47700002 37451.69193041  3490.87237029
