# SAXS profile: number of points = 501, q_min = 0, q_max = 0.5, delta_q = 0.001
#    q    intensity    error
0.00000000 1646666.22097351 296.39991978
0.00100000 1646598.28745761 543.37744777
0.00200000 1646394.42123224 1111.31626952
0.00300000 1646054.81801340 1382.68609639
0.00400000 1645579.31864662 1481.02144306
0.00500000 1644968.38304659 1480.47160334
0.00600000 1644221.75250589 2244.36278354
0.00700000 1643340.07637156 2760.81144304
0.00800000 1642322.79157253 3103.99020712
0.00900000 1641171.29023501 3692.63556088
0.01000000 1639884.66415851 4329.29570032
0.01100000 1638464.22053941 3539.08287045
0.01200000 1636909.38105005 3511.17077630
0.01300000 1635221.52530353 4120.75842551
0.01400000 1633399.93041038 3675.15000635
0.01500000 1631446.34073806 4698.56567055
0.01600000 1629359.63241092 5816.81414774
0.01700000 1627141.85891035 7029.25314582
0.01800000 1624792.70342318 6019.85723706
0.01900000 1622312.74663617 6813.71384332
0.02000000 1619702.69393858 6122.47646004
0.02100000 1616964.13969166 5335.98190291
0.02200000 1614095.31320141 7239.21780860
0.02300000 1611099.10577900 6379.95274929
0.02400000 1607975.38249781 8441.87114304
0.02500000 1604725.37048752 9387.64384609
0.02600000 1601349.42199841 9728.19818359
0.02700000 1597848.44644844 8724.25291719
0.02800000 1594222.31656405 6934.86739508
0.02900000 1590473.65294132 8588.55812022
0.03000000 1586602.74822149 10328.78436569
0.03100000 1582609.84634587 10635.13865680
0.03200000 1578495.88784480 8594.91050518
0.03300000 1574263.61844161 9634.49378902
0.03400000 1569911.18593545 12363.05115968
0.03500000 1565441.78357298 10989.40182815
0.03600000 1560855.29712434 11261.57148919
0.03700000 1556153.39313320 11531.09717640
0.03800000 1551337.36390957 13612.98599831
0.03900000 1546408.61005947 10206.29729905
0.04000000 1541365.89298983 9479.40068115
0.04100000 1536213.27825567 12581.58733228
0.04200000 1530950.85597193 12837.02352287
0.04300000 1525578.93948156 11075.70361475
0.04400000 1520101.08056345 11286.75104736
0.04500000 1514516.84775207 16720.26677609
0.04600000 1508826.57273664 18083.28731488
0.04700000 1503033.54452405 11904.02622626
0.04800000 1497137.81771100 16505.94520825
0.04900000 1491142.35512374 13420.28182079
0.05000000 1485046.21485712 13632.72488721
0.05100000 1478853.10064921 16149.07661138
0.05200000 1472561.12141342 16389.60604511
0.05300000 1466175.94666628 13063.62829380
0.05400000 1459695.39120528 16859.48255464
0.05500000 1453123.71188213 15868.11167399
0.05600000 1446459.38082561 13603.95111148
0.05700000 1439707.40777023 18788.18254841
0.05800000 1432866.23916125 16485.12685128
0.05900000 1425938.08496432 15400.13203689
0.06000000 1418925.37527345 16878.11812740
0.06100000 1411829.80090954 14443.01953825
0.06200000 1404651.94631796 19910.94226976
0.06300000 1397394.86429571 17439.48872180
0.06400000 1390056.34797087 14908.35502920
0.06500000 1382643.27749591 24638.70435752
0.06600000 1375152.91178768 19348.40237414
0.06700000 1367588.57803596 13949.40414878
0.06800000 1359952.86986241 16890.61543433
0.06900000 1352246.82054207 15618.45150850
0.07000000 1344469.85999335 15750.46514739
0.07100000 1336626.97555511 21653.35801819
0.07200000 1328716.74020164 18914.28368284
0.07300000 1320744.14768380 20524.36501669
0.07400000 1312708.41771413 16244.76743051
0.07500000 1304611.82220426 17847.09056429
0.07600000 1296454.91447880 22461.08244633
0.07700000 1288242.50562578 24115.90083607
0.07800000 1279973.31544557 22751.52674901
0.07900000 1271649.24989447 16785.77088592
0.08000000 1263274.31839431 24558.05390163
0.08100000 1254848.20102650 16978.09695647
0.08200000 1246372.46886243 21724.27315169
0.08300000 1237849.52723048 17156.59525261
0.08400000 1229280.67328102 15673.32932002
0.08500000 1220669.09889118 22045.28496089
0.08600000 1212014.44966012 17398.46824176
0.08700000 1203320.19654779 19060.59280836
0.08800000 1194584.70321816 20732.01849800
0.08900000 1185814.37540955 20811.04326593
0.09000000 1177007.82932390 27312.46796248
0.09100000 1168167.77258395 17732.78762093
0.09200000 1159294.79278582 24258.24467886
0.09300000 1150392.65504031 19464.64463797
0.09400000 1141459.62460803 26025.28066419
0.09500000 1132500.08616851 21200.40260955
0.09600000 1123515.04023285 32694.28920766
0.09700000 1114507.19252302 16383.25650031
0.09800000 1105477.39520955 18057.97409979
0.09900000 1096427.76821646 18091.05902626
0.10000000 1087357.89008177 19768.16737133
0.10100000 1078270.34079561 19797.04438810
0.10200000 1069167.81843774 23126.10100057
0.10300000 1060050.73330087 18190.47143914
0.10400000 1050922.03972385 19862.42748521
0.10500000 1041784.25940602 26502.99280624
0.10600001 1032633.71481890 26518.03504432
0.10700001 1023478.37709794 18238.38553814
0.10800001 1014314.84029538 19900.85810316
0.10900001 1005147.84098941 19901.92818829
0.11000001 995977.30348869 24874.53432546
0.11100001 986805.38814405 18236.16443134
0.11200001 977634.60688357 24856.36105018
0.11300001 968463.55901523 19872.87316662
0.11400001 959296.65089910 19857.44160859
0.11500001 950134.54893082 19838.81031585
0.11600001 940977.65049415 23119.82196139
0.11700001 931829.49625692 23090.73600470
0.11800001 922687.82221198 18116.97624241
0.11900001 913557.49654954 27954.86071114
0.12000001 904438.29206984 24623.33366148
0.12100001 895333.34916175 19661.52127381
0.12200001 886241.75973497 17986.27736118
0.12300001 877166.20318997 17946.82136282
0.12400001 868107.11115390 19532.41092128
0.12500001 859066.41639292 19483.62724187
0.12600001 850046.93738314 22670.75288833
0.12700001 841048.09786434 17762.93666400
0.12800001 832070.16455876 20930.72597592
0.12900001 823116.62621141 16050.77496763
0.13000001 814187.33636277 17598.66010499
0.13100001 805283.33603976 15944.61080518
0.13200001 796407.34551046 15888.32729191
0.13300001 787560.61227941 15829.96905309
0.13400001 778741.70591469 22077.32840353
0.13500001 769954.51212055 29843.43829686
0.13600001 761197.81794014 18771.13907548
0.13700001 752474.88341011 24921.96931370
0.13800001 743784.36375974 21711.06660195
0.13900001 735131.21834465 20069.08320723
0.14000001 726512.51990478 23048.61078097
0.14100001 717931.34912653 19879.51999489
0.14200001 709387.03486123 18259.62313855
0.14300001 700884.32471911 24222.56340481
0.14400001 692417.52259807 22590.12274034
0.14500001 683995.38238948 16477.44953904
0.14600001 675612.57629399 23835.61281608
0.14700001 667275.61425258 20738.92706936
0.14800001 658979.57457674 16201.01360531
0.14900001 650727.93665440 16105.51719207
0.15000001 642522.12316906 14553.12677644
0.15100001 634362.75909241 14463.47158977
0.15200001 626250.80898664 18684.19376777
0.15300001 618186.65561644 15708.12366046
0.15400001 610169.14184206 19861.00650422
0.15500001 602202.55797118 18319.00267801
0.15600001 594283.75472630 13995.38308432
0.15700001 586419.56097458 19457.40195146
0.15800001 578601.82212808 19319.51575271
0.15900001 570839.20205458 16440.16979516
0.16000001 563126.58427496 17679.35994782
0.16100001 555470.35818965 18897.10247764
0.16200001 547865.71376188 17413.91253396
0.16300001 540316.69692283 15950.14964613
0.16400001 532822.02470309 18462.28402756
0.16500001 525383.22895552 18314.86022606
0.16600001 518000.27326257 15571.08894943
0.16700001 510673.01890270 16729.64888914
0.16800001 503401.78984310 17865.73036509
0.16900001 496190.08383326 13918.13250871
0.17000001 489035.33418773 16306.88398850
0.17100001 481938.83710545 19894.43613515
0.17200001 474901.14054897 13556.05369713
0.17300001 467922.40980623 15876.60811449
0.17400001 461003.73955097 16941.88822860
0.17500001 454144.30961367 16785.17447604
0.17600001 447342.80048048 13064.64710506
0.17700001 440604.63098509 15293.38746381
0.17800001 433925.48770188 16311.25985313
0.17900001 427307.46099219 11537.30199174
0.18000001 420751.14693797 12565.73359685
0.18100001 414257.30014632 11309.22482820
0.18200001 407822.22931269 12314.19279579
0.18300001 401451.31486958 13296.06817658
0.18400001 395141.08014169 16447.74823790
0.18500001 388893.76643163 14105.17757483
0.18600001 382708.51151276 10734.97425509
0.18700001 376585.12628300 11681.67116920
0.18800001 370524.24505535 12605.23541233
0.18900001 364527.73794262 13505.75332889
0.19000001 358589.67792331 11300.95423371
0.19100001 352719.57651933 15237.48642561
0.19200001 346908.21919640 12051.59210434
0.19300001 341162.34052651 13898.95440981
0.19400001 335478.24229214 11775.28686088
0.19500001 329857.50125566 9697.81099519
0.19600001 324298.37406763 10541.31914721
0.19700001 318802.99637621 15149.51910373
0.19800001 313370.15189342 11224.91937130
0.19900001 308000.87906975 10164.02948965
0.20000001 302692.33834573 10038.79187568
0.20100001 297448.08627174 11716.48067199
0.20200001 292265.15658898 11569.31677038
0.20300001 287145.14893326 8786.64197266
0.20400001 282087.42271948 11276.44525620
0.20500001 277090.93573346 10274.53238264
0.20600001 272157.12546458 8450.47914511
0.20700001 267284.68651718 8339.28261353
0.20800001 262474.02288502 9874.27320769
0.20900001 257726.62977033 8930.22814369
0.21000001 253038.09144924 8809.52157025
0.21100001 248410.84159758 9479.35816349
0.21200001 243844.26190321 8569.90698973
0.21300001 239338.41768016 9987.59264196
0.21400001 234893.63993596 10605.44834450
0.21500001 230509.54411270 8962.21149881
0.21600001 226183.67505842 8098.50686835
0.21700001 221918.17481103 8708.06959130
0.21800001 217711.98088288 10012.57447420
0.21900001 213563.67617304 7752.36181163
0.22000001 209473.95084701 8332.87415869
0.22100001 205444.68872854 9577.83184140
0.22200001 201472.57106394 7413.18360283
0.22300001 197557.91428277 9293.12472729
0.22400001 193699.25315966 9806.02515490
0.22500001 189900.81249513 7081.40163280
0.22600001 186156.87129339 8240.23429747
0.22700001 182470.64711503 6240.49642644
0.22800001 178839.67852625 6757.45757267
0.22900001 175263.93996821 6046.60621485
0.23000001 171743.78045095 7736.19895627
0.23100001 168280.10302801 6441.76264856
0.23200001 164868.92538170 8067.03690045
0.23300001 161513.02248785 6802.92882893
0.23400001 158210.78879481 7807.70279629
0.23500001 154960.75085319 7131.29409155
0.23600001 151764.53060185 5934.75224988
0.23700001 148620.67462974 6366.91000228
0.23800001 145528.70450484 6782.36559425
0.23900001 142488.77855209 6155.51552460
0.24000001 139499.64426455 5547.20361656
0.24100001 136562.73752559 8427.28693132
0.24200001 133675.28024133 5359.71061480
0.24300001 130838.00386344 6704.13963509
0.24400001 128049.52589533 5176.40232918
0.24500001 125310.63517008 6473.54771911
0.24600001 122620.65852952 4543.09561343
0.24700001 119979.13415519 4909.54640188
0.24800001 117384.46201654 5261.17183647
0.24900001 114837.06066419 5598.30697222
0.25000001 112337.05916841 4652.43952556
0.25100001 109882.54688670 4984.27256258
0.25200001 107475.16554502 4894.41927047
0.25300001 105113.36961851 5206.26544352
0.25400001 102795.47295768 5504.69783732
0.25500001 100522.55878535 4246.07308398
0.25600001 98293.76209087  5683.83706182
0.25700001 96108.41188505  4463.27485911
0.25800001 93965.96663376  3650.57797645
0.25900001 91866.69177641  3582.80114880
0.26000001 89809.94487813  4219.27141001
0.26100001 87792.82177163  4140.30967065
0.26200001 85819.26922262  5078.35549654
0.26300001 83885.06932709  3986.21868304
0.26400001 81991.18424888  3585.06470092
0.26500001 80137.87469521  3517.25148681
0.26600001 78322.88498143  3764.19803033
0.26700001 76547.95893816  3384.95090442
0.26800001 74811.03994017  4527.93840664
0.26900001 73111.37664117  3553.21307290
0.27000001 71449.96109494  4066.21747834
0.27100001 69825.26723732  3418.64524572
0.27200001 68237.54339342  3073.76028762
0.27300001 66685.18176045  3288.91332007
0.27400001 65167.41831878  2956.97174615
0.27500001 63686.93904423  2900.30334133
0.27600001 62239.03447151  2844.63520515
0.27700001 60827.12671174  2790.14043432
0.27800001 59447.56906636  2985.45705981
0.27900001 58102.17231208  3416.40789364
0.28000001 56788.90603192  3590.47875380
0.28100001 55507.99530698  3287.18363766
0.28200001 54259.46233504  2533.64571365
0.28300001 53042.23924784  2259.59949891
0.28400001 51856.12924972  3103.58948249
0.28500001 50700.72235347  3262.59163787
0.28600001 49574.68690517  2347.60940951
0.28700001 48478.78296303  2303.71187544
0.28800001 47411.46568543  2260.81584822
0.28900001 46374.18400160  2824.18793938
0.29000001 45364.20700399  2772.20682123
0.29100001 44383.18483461  3304.77209922
0.29200001 43428.88511697  2481.30946861
0.29300001 42501.74197657  2249.19229187
0.29400001 41601.04153908  2209.01541029
0.29500001 40727.77787394  2893.30147712
0.29600001 39878.88184145  2131.92512416
0.29700001 39055.40194240  1745.77654947
0.29800001 38257.38799371  2573.76589911
0.29900001 37483.90920818  1686.77599422
0.30000001 36734.24285669  1824.40625784
0.30100001 36009.18318511  2609.94572081
0.30200001 35306.29981143  1604.67140240
0.30300001 34627.00064855  2052.68869562
0.30400001 33970.80706588  2175.83029558
0.30500001 33335.52187318  1989.13068434
0.30600001 32722.47199412  1657.55689734
0.30700001 32131.18191960  1929.79887745
0.30800001 31560.57542988  1609.11601447
0.30900001 31010.50957216  2307.18202140
0.31000001 30481.56253149  1564.16145536
0.31100001 29970.76276651  1823.42129304
0.31200001 29480.84670796  1937.77614586
0.31300001 29009.10412948  1502.96175611
0.31400001 28557.70365794  1484.28671790
0.31500001 28123.85096462  1599.68471861
0.31600002 27707.90616277  1712.76430055
0.31700002 27309.45669973  2344.79006326
0.31800002 26928.73117277  1417.39383239
0.31900002 26565.33636077  1402.64982626
0.32000002 26218.09189893  1388.64130318
0.32100002 25887.65982309  1500.44883439
0.32200002 25573.50901767  1362.94022763
0.32300002 25274.26534633  1351.16228939
0.32400002 24990.82021522  1340.13279750
0.32500002 24721.82781847  1450.67692508
0.32600002 24468.22140492  1560.21621176
0.32700002 24228.69184317  1668.87237318
0.32800002 24004.01033271  1421.51755922
0.32900002 23791.87633831  1177.69793451
0.33000002 23594.78571460  1757.22174931
0.33100002 23408.64325097  1515.47563583
0.33200002 23237.61545121  1276.79084143
0.33300002 23078.12678456  1156.21420666
0.33400002 22931.52483529  1613.23284856
0.33500002 22796.31175343  1378.72100014
0.33600002 22673.05297389  1260.73517032
0.33700002 22560.36802458  1258.19178432
0.33800002 22460.31424747  1370.52844029
0.33900002 22369.77093019  1254.94420861
0.34000002 22290.71646128  1596.23828139
0.34100002 22221.60825074  1367.96226870
0.34200002 22163.69441712  2052.57983718
0.34300002 22114.14039913  1483.41660823
0.34400002 22074.95494518  1599.33056152
0.34500002 22044.70216401  1487.35612545
0.34600002 22024.75688710  1719.58297540
0.34700002 22011.49659841  1263.90019454
0.34800002 22008.39695149  1497.78152547
0.34900002 22013.27606204  1733.54557199
0.35000002 22026.22478725  1275.64886897
0.35100002 22047.09025435  1396.90370468
0.35200002 22074.94411224  1870.18935377
0.35300002 22110.52947394  1408.88300481
0.35400002 22153.73924623  1533.59267196
0.35500002 22203.69041906  1304.24483699
0.35600002 22259.85320309  1430.41823458
0.35700002 22322.67550519  1318.60050455
0.35800002 22392.38159073  1326.41278635
0.35900002 22467.80761537  1455.91400244
0.36000002 22549.84603802  1343.18164288
0.36100002 22636.53683388  1229.16400830
0.36200002 22730.05551303  1361.41673944
0.36300002 22826.99016064  1246.35372181
0.36400002 22929.99565076  1757.58424988
0.36500002 23037.36638687  1644.17691691
0.36600002 23150.14606020  1529.29872118
0.36700002 23266.86188034  1926.49625495
0.36800002 23389.34476414  1294.60029402
0.36900002 23515.07274252  1566.10391884
0.37000002 23643.87324234  1315.78160826
0.37100002 23777.10018874  1990.14338007
0.37200002 23914.31811950  1471.80677838
0.37300002 24054.34927854  1889.22868183
0.37400002 24198.83164431  1769.53964781
0.37500002 24345.29361663  2608.84178754
0.37600002 24495.79405136  1523.76094115
0.37700002 24647.94285794  1677.04611150
0.37800002 24803.77949533  1974.13290355
0.37900002 24961.86382642  1991.95682771
0.38000002 25122.37936748  1579.31845375
0.38100002 25284.68128549  2028.33722881
0.38200002 25449.27570564  1754.47315026
0.38300002 25615.69081179  2950.92772131
0.38400002 25784.54252631  1489.05740144
0.38500002 25953.77991901  1953.54110705
0.38600002 26126.01793831  2123.26157844
0.38700002 26298.42661736  1683.62535181
0.38800002 26472.22616660  1699.11991700
0.38900002 26647.24696189  2182.40962957
0.39000002 26824.02812499  1887.87518888
0.39100002 27000.82172410  2857.76710667
0.39200002 27178.85520951  2243.07102671
0.39300002 27357.18760355  1778.49085037
0.39400002 27536.86794375  2121.02735386
0.39500002 27716.18498243  2304.87805234
0.39600002 27895.76456436  1827.31214436
0.39700002 28075.25243227  1676.09264962
0.39800002 28255.80958483  2367.55439728
0.39900002 28435.46574454  2729.80484081
0.40000002 28615.17569275  1893.32318941
0.40100002 28794.38417913  1909.93159309
0.40200002 28974.42827994  2276.95555426
0.40300002 29153.00941705  1943.33969982
0.40400002 29331.02046993  2316.41745136
0.40500002 29508.70159279  2695.62001822
0.40600002 29685.82060387  2356.01526386
0.40700002 29862.11616963  1827.56159617
0.40800002 30037.75624473  2395.66136281
0.40900002 30211.59986259  2229.61617550
0.41000002 30385.29197947  2247.90400715
0.41100002 30557.57776987  1888.45839566
0.41200002 30728.14789649  2855.41327858
0.41300002 30897.81348796  1918.75430852
0.41400002 31066.12668120  2320.63977304
0.41500002 31233.38162983  2728.54834847
0.41600002 31397.98480312  2160.33844674
0.41700002 31561.90330657  2176.82457420
0.41800002 31725.01210087  2193.30881552
0.41900002 31884.49240974  2812.21236379
0.42000002 32042.90375616  3237.61514894
0.42100002 32200.15524050  2445.92390797
0.42200002 32355.40952777  3284.72133091
0.42300002 32508.12179645  2067.51664422
0.42400002 32658.94344634  2498.40929203
0.42500002 32808.15791941  2725.37380751
0.42600002 32954.01122270  2110.70451883
0.42700002 33098.94157985  2549.94258014
0.42800002 33241.09079702  2566.87715298
0.42900002 33381.62434895  3444.98379606
0.43000002 33519.83725829  2167.05758144
0.43100002 33654.31921527  2835.03998504
0.43200002 33787.39114451  2633.38939059
0.43300002 33917.64525980  2870.45045436
0.43400002 34045.72757711  2665.78059561
0.43500002 34171.01050533  2681.74103154
0.43600002 34294.60452147  2248.01143291
0.43700002 34414.60672480  2713.24772276
0.43800002 34531.34927480  2501.27840325
0.43900002 34646.53136425  3201.33964977
0.44000002 34758.23675574  3678.81195257
0.44100002 34867.95182502  3005.26891022
0.44200002 34974.65333791  2788.87898933
0.44300002 35078.78484154  2336.24718116
0.44400002 35179.55329325  3757.17646977
0.44500002 35276.71223158  3304.01702419
0.44600002 35371.87582114  2846.02126345
0.44700002 35464.27030767  2621.51898538
0.44800002 35552.90267573  3591.73216303
0.44900002 35639.78526492  3367.95986715
0.45000002 35723.33874335  2658.35237857
0.45100002 35802.87539129  2670.17857323
0.45200002 35880.23940577  3169.48109812
0.45300002 35954.15959012  2938.17406095
0.45400002 36025.49794307  3688.11052671
0.45500002 36093.73547985  3950.09859812
0.45600002 36158.51256736  2974.39938476
0.45700002 36220.44253862  3732.51678050
0.45800002 36278.58372697  3247.11479038
0.45900002 36333.99691874  3259.15967808
0.46000002 36387.10895645  2516.16870359
0.46100002 36435.81611998  3787.50326518
0.46200002 36482.20417051  4053.90271956
0.46300002 36524.99501507  3558.99568295
0.46400002 36564.30923544  3315.46889706
0.46500002 36601.39337405  3581.81252535
0.46600002 36634.57017399  4619.25317217
0.46700002 36664.54516924  3088.62143145
0.46800002 36692.05656500  4130.05808271
0.46900002 36715.66837259  2847.30021725
0.47000002 36735.98401508  2854.93713305
0.47100002 36753.57540680  2862.36858835
0.47200002 36767.69877383  2608.66835165
0.47300002 36779.26339473  3138.00690157
0.47400002 36786.40014267  4979.95915535
0.47500002 36791.47322118  3152.29357500
0.47600002 36793.65003383  3422.36152011
0.47700002 36791.59553888  3165.54903021
