# SAXS profile: number of points = 501, q_min = 0, q_max = 0.5, delta_q = 0.001
#    q    intensity    error
0.00000000 1664650.74656091 299.63713438
0.00100000 1664582.08236591 798.99941851
0.00200000 1664376.03008607 898.76308471
0.00300000 1664032.77242608 1198.10363883
0.00400000 1663552.14962890 1621.96340752
0.00500000 1662934.67018842 2394.62601985
0.00600000 1662180.00441621 1919.81798326
0.00700000 1661288.84718749 2392.25603937
0.00800000 1660260.63872959 3586.16313106
0.00900000 1659096.75568464 3484.10333588
0.01000000 1657796.30764120 3282.43683086
0.01100000 1656360.61529625 2981.44923734
0.01200000 1654789.01070341 3872.20645482
0.01300000 1653083.06245288 3818.62204269
0.01400000 1651241.84584803 5572.94147679
0.01500000 1649267.27544134 5937.36245597
0.01600000 1647158.10351993 4620.27868692
0.01700000 1644916.51718952 7550.16715259
0.01800000 1642542.07839616 5149.36964748
0.01900000 1640035.43207753 6396.13847371
0.02000000 1637397.33176172 6705.14237688
0.02100000 1634629.31237128 8630.84316063
0.02200000 1631729.62074048 6192.41419205
0.02300000 1628701.25946109 8794.98720142
0.02400000 1625543.91767186 6705.36896614
0.02500000 1622258.92417630 6326.81009324
0.02600000 1618846.68363867 7867.59524233
0.02700000 1615308.00557886 6784.29393416
0.02800000 1611642.88497692 10515.97030673
0.02900000 1607853.85867050 9405.94550509
0.03000000 1603941.36834089 8949.99324673
0.03100000 1599905.42602034 7679.54639826
0.03200000 1595747.19258338 11058.52855394
0.03300000 1591469.36408136 9739.79295719
0.03400000 1587070.10641293 9165.33028743
0.03500000 1582552.59408809 9400.36284297
0.03600000 1577916.67446266 8757.43794798
0.03700000 1573164.10515452 8967.03581408
0.03800000 1568296.23312035 11009.44006602
0.03900000 1563314.41253740 12193.85298249
0.04000000 1558217.33249719 13416.25185450
0.04100000 1553009.22590108 11740.75029219
0.04200000 1547690.15231332 14973.90291831
0.04300000 1542260.21323741 12214.70145582
0.04400000 1536723.34779046 12447.45969519
0.04500000 1531078.95668386 11620.88982119
0.04600000 1525327.36595903 16130.33764487
0.04700000 1519471.90391530 13128.23786040
0.04800000 1513512.54254081 12236.74947580
0.04900000 1507452.30722217 15828.24996260
0.05000000 1501290.62448386 13781.84857453
0.05100000 1495030.60392040 16325.73495533
0.05200000 1488670.77265569 17752.39979120
0.05300000 1482216.61719878 16808.33722260
0.05400000 1475666.23844658 18261.37055237
0.05500000 1469023.60782467 18509.69832205
0.05600000 1462287.34479318 13752.81311954
0.05700000 1455462.39268925 13928.77574821
0.05800000 1448547.34131181 14101.60902611
0.05900000 1441544.30168771 15568.67918538
0.06000000 1434455.84698290 13125.27161309
0.06100000 1427283.74185106 14601.11336147
0.06200000 1420028.33337223 16103.12205316
0.06300000 1412692.83782600 13561.85187722
0.06400000 1405275.23624407 15071.57761357
0.06500000 1397781.81570947 22140.86499654
0.06600000 1390210.42509280 18163.10005366
0.06700000 1382564.34886352 16922.58842205
0.06800000 1374845.96551443 14229.65640915
0.06900000 1367056.72617000 20095.73481556
0.07000000 1359195.75890311 15922.97906120
0.07100000 1351267.87921640 16053.06315698
0.07200000 1343272.02586999 16179.71230957
0.07300000 1335213.16286083 17785.04016263
0.07400000 1327090.50410626 14929.76887087
0.07500000 1318906.40557017 24056.85396520
0.07600000 1310660.95796739 19679.57520647
0.07700000 1302359.84157106 19808.89411911
0.07800000 1294000.98596869 21467.47736396
0.07900000 1285586.58276666 23140.55957518
0.08000000 1277120.89492989 17068.72156145
0.08100000 1268603.64777799 20284.97327970
0.08200000 1260036.05194542 15687.44958286
0.08300000 1251420.84756217 26805.43581281
0.08400000 1242758.93377292 22183.24800910
0.08500000 1234054.10313108 19103.15841327
0.08600000 1225305.61452517 20787.31072641
0.08700000 1216516.89351735 17663.82612332
0.08800000 1207686.84196496 17734.88210715
0.08900000 1198821.52585828 17802.50049517
0.09000000 1189919.26766673 19490.87851997
0.09100000 1180983.21090940 19557.08289147
0.09200000 1172014.12807955 19619.51742591
0.09300000 1163015.40910237 18038.36984284
0.09400000 1153985.28906370 19733.14937040
0.09500000 1144928.55944164 16486.97203089
0.09600000 1135845.89552928 21484.52612388
0.09700000 1126740.19850545 18219.38986638
0.09800000 1117612.58914310 18256.20250202
0.09900000 1108464.50236690 23277.75564428
0.10000000 1099296.24998146 23316.07455860
0.10100000 1090109.95578745 28353.76128356
0.10200000 1080908.53825226 18370.04147166
0.10300000 1071692.36069006 26749.44258114
0.10400000 1062464.60742681 26774.10936675
0.10500000 1053227.49624371 33492.63595636
0.10600001 1043977.47523060 38538.43031151
0.10700001 1034722.71698331 18438.75968433
0.10800001 1025459.58381113 18442.89148280
0.10900001 1016192.85953071 18443.90126856
0.11000001 1006922.83209913 16765.26594358
0.11100001 997651.06955708 20112.64650904
0.11200001 988380.71191557 20103.66462679
0.11300001 979109.83097783 25114.16834698
0.11400001 969843.38477800 35132.57826778
0.11500001 960581.63648338 16714.12126185
0.11600001 951325.23132361 21704.48617474
0.11700001 942077.77358494 25012.16606663
0.11800001 932836.70428143 18316.24955123
0.11900001 923607.18050337 18287.42303533
0.12000001 914388.67946303 16596.15531401
0.12100001 905184.99271940 18221.37476182
0.12200001 895994.33059236 21490.42503170
0.12300001 886820.20491593 21443.31356516
0.12400001 877662.71641901 16456.17670823
0.12500001 868523.90776198 16415.10263019
0.12600001 859406.27955567 18008.85943673
0.12700001 850309.41091859 22856.31804263
0.12800001 841233.97941542 22789.02957639
0.12900001 832182.96301986 22718.59596122
0.13000001 823156.94351969 17792.53817283
0.13100001 814156.06665281 20956.37814348
0.13200001 805183.87569675 22488.78670834
0.13300001 796240.82655166 27207.55032592
0.13400001 787326.30460407 20726.36594586
0.13500001 778443.47197789 25408.39612332
0.13600001 769592.00273552 22141.16296267
0.13700001 760774.25313199 17322.83056064
0.13800001 751989.40174430 21950.57167201
0.13900001 743242.34863747 20290.51707467
0.14000001 734529.98206141 17088.84083858
0.14100001 725855.73688701 17006.80071735
0.14200001 717218.87252969 23076.51831205
0.14300001 708623.99476460 21428.79061243
0.14400001 700065.33860302 15226.42183284
0.14500001 691551.96958259 22717.48327242
0.14600001 683078.42872134 15061.88006384
0.14700001 674650.93671476 14977.25150164
0.14800001 666265.25609287 17869.23501146
0.14900001 657924.21747852 17763.95471004
0.15000001 649629.73859816 22071.17141025
0.15100001 641381.92429471 17548.21027671
0.15200001 633182.28393658 15984.68751225
0.15300001 625030.97386500 21657.32426641
0.15400001 616926.75092429 17212.25716305
0.15500001 608874.13515127 22796.24869589
0.15600001 600869.93207261 19810.68259540
0.15700001 592920.80269013 18267.89079307
0.15800001 585018.72012617 13952.69713356
0.15900001 577172.29500852 18007.77645424
0.16000001 569376.64589293 19250.62530632
0.16100001 561638.14250786 16377.36900861
0.16200001 553951.44334700 17607.34745796
0.16300001 546321.17330003 14783.45164739
0.16400001 538745.92906403 14667.35861121
0.16500001 531227.07016258 13227.55467154
0.16600001 523764.64064592 17056.39632792
0.16700001 516358.77695540 18217.13851110
0.16800001 509009.47346851 12903.39076168
0.16900001 501720.62430585 16632.03948107
0.17000001 494489.16578138 15220.37724145
0.17100001 487316.48895502 17601.87241224
0.17200001 480203.65892879 12461.28553766
0.17300001 473150.18581477 13584.14247625
0.17400001 466157.57543045 13460.30062623
0.17500001 459224.82540473 14548.24315590
0.17600001 452350.91286377 14411.90076450
0.17700001 445540.64202748 13085.52927438
0.17800001 438790.70641017 15315.99033065
0.17900001 432102.02005551 12833.43060182
0.18000001 425476.11724052 13862.01255447
0.18100001 418913.07492306 13723.59298273
0.18200001 412409.62151310 12452.70910983
0.18300001 405971.36614765 14566.25330548
0.18400001 399594.04648087 12197.60884505
0.18500001 393280.60072019 15361.54098984
0.18600001 387029.97785031 11941.81053074
0.18700001 380841.98394171 15035.64223637
0.18800001 374716.93958630 11685.54831310
0.18900001 368657.24448426 12608.07835706
0.19000001 362656.60998520 13507.14607709
0.19100001 356724.66137391 13355.77195290
0.19200001 350852.57514722 14220.05554263
0.19300001 345046.36453654 13053.10458721
0.19400001 339302.58941251 14886.90181394
0.19500001 333622.97258712 12751.07061483
0.19600001 328005.78226305 11631.08558869
0.19700001 322452.97732265 13407.59543069
0.19800001 316963.50443560 16084.31379271
0.19900001 311538.31401340 12149.99482073
0.20000001 306174.54425966 11077.39553484
0.20100001 300875.74724841 10028.18912974
0.20200001 295638.95879189 11702.86873690
0.20300001 290465.99402767 9777.08582108
0.20400001 285356.11741825 11407.11133296
0.20500001 280307.96919134 10393.81998890
0.20600001 275323.39165134 11113.42922932
0.20700001 270400.81565797 8436.50584731
0.20800001 265540.50746474 15816.92107481
0.20900001 260744.51517493 11498.83366278
0.21000001 256008.01363395 8912.91941600
0.21100001 251333.49523692 7992.40552636
0.21200001 246720.44785031 9459.26241776
0.21300001 242168.56150250 7773.61119173
0.21400001 237678.55785958 10731.18739469
0.21500001 233249.95400109 7557.29886693
0.21600001 228880.13352750 7450.04869855
0.21700001 224571.74812952 9546.54546434
0.21800001 220323.03805744 7961.37335662
0.21900001 216132.94347444 9272.10371345
0.22000001 212002.13019423 9839.01932753
0.22100001 207932.52765409 6924.15349828
0.22200001 203920.65770788 8867.49021972
0.22300001 199967.02295215 9406.44920446
0.22400001 196069.72047066 7279.08871667
0.22500001 192233.57476904 8471.73404068
0.22600001 188452.53900631 6416.80925660
0.22700001 184729.71044541 6949.53203559
0.22800001 181062.94932389 8707.31764476
0.22900001 177451.97547236 7346.51213198
0.23000001 173897.26585445 7833.20271086
0.23100001 170399.60825086 7708.87864184
0.23200001 166954.96089210 8169.10662280
0.23300001 163566.45601099 6315.30116526
0.23400001 160232.09421179 6212.99974691
0.23500001 156950.47448914 6667.25647163
0.23600001 153723.30170664 6011.34999756
0.23700001 150549.13984566 7524.44636538
0.23800001 147427.43149160 8984.96523723
0.23900001 144358.37078922 7795.35239133
0.24000001 141340.70718169 6642.30684819
0.24100001 138375.69310206 7032.25305608
0.24200001 135460.72931164 4937.54381696
0.24300001 132596.55501052 7279.55121442
0.24400001 129781.75710130 7631.16767854
0.24500001 127016.98227107 7499.08298802
0.24600001 124301.48407038 6908.05530400
0.24700001 121635.46494527 5429.80741202
0.24800001 119016.41457319 7556.94760082
0.24900001 116445.26770665 6986.71639292
0.25000001 113922.13083928 4718.08527191
0.25100001 111444.97042478 7161.45413830
0.25200001 109015.37514824 4550.84705086
0.25300001 106631.76589221 4468.93751997
0.25400001 104292.74018561 4787.03700100
0.25500001 101998.88149346 3916.75723466
0.25600001 99749.98802805  4614.43466450
0.25700001 97544.77293336  5284.97604758
0.25800001 95382.96413372  5187.87966469
0.25900001 93264.72738110  4728.52190195
0.26000001 91189.53420244  4284.08451953
0.26100001 89154.25831729  4554.89127295
0.26200001 87163.27725927  4126.30974070
0.26300001 85211.95182913  3374.39345210
0.26400001 83301.24341536  3311.22458244
0.26500001 81431.68051138  3249.12420615
0.26600001 79600.72416637  3506.81006909
0.26700001 77810.23912855  3440.76893708
0.26800001 76058.25811231  3068.95086006
0.26900001 74343.93069169  3010.92933550
0.27000001 72668.06905063  2953.95714670
0.27100001 71029.37144465  2897.99849208
0.27200001 69427.94378510  3695.99676231
0.27300001 67862.40399530  4183.71740430
0.27400001 66331.76857818  3009.80414167
0.27500001 64838.68823862  3221.18618414
0.27600001 63378.53014131  3686.72927280
0.27700001 61954.68717234  4391.96798150
0.27800001 60563.70079819  3294.96829787
0.27900001 59207.04208888  2486.69588542
0.28000001 57882.84667663  4635.54799549
0.28100001 56591.43989786  2393.81802098
0.28200001 55332.54423590  3758.18658238
0.28300001 54105.26271851  3687.81488144
0.28400001 52909.47347774  2488.06810805
0.28500001 51744.68137663  3107.78571058
0.28600001 50609.41350009  3050.22949602
0.28700001 49504.77389055  3635.63076661
0.28800001 48428.82029562  2099.38945919
0.28900001 47383.33073840  2267.29248315
0.29000001 46365.16548584  3035.75935388
0.29100001 45376.31280216  1987.48259481
0.29200001 44414.44008552  2147.21620757
0.29300001 43479.95772993  2492.70609465
0.29400001 42572.11014235  2448.96075186
0.29500001 41691.89302364  1851.12013788
0.29600001 40836.37342859  2728.89078354
0.29700001 40006.45594013  2682.43299777
0.29800001 39202.20006228  1934.04063163
0.29900001 38422.63729790  3458.03752051
0.30000001 37667.37023368  2551.02276984
0.30100001 36936.75581057  1673.23511743
0.30200001 36228.32808183  1975.89310712
0.30300001 35543.66451792  1620.79117875
0.30400001 34882.52384679  1915.05064985
0.30500001 34242.38406667  2043.24315399
0.30600001 33624.51541385  2012.93171055
0.30700001 33028.73756292  1678.52052241
0.30800001 32453.66509324  2256.34117243
0.30900001 31899.40666086  1631.65472795
0.31000001 31366.28224445  1463.23713598
0.31100001 30851.68420415  1588.24477803
0.31200001 30357.85952509  1995.42220106
0.31300001 29882.55837099  1829.70913569
0.31400001 29427.60725187  1529.49995933
0.31500001 28990.24574053  1648.96525580
0.31600002 28571.14113887  1630.26939057
0.31700002 28169.52381111  1343.68634941
0.31800002 27785.75000862  1329.54820086
0.31900002 27419.43513120  1447.74624348
0.32000002 27069.42519532  2085.42861579
0.32100002 26736.37259202  1549.64022881
0.32200002 26419.48419189  1664.03129062
0.32300002 26117.77332102  1523.18861221
0.32400002 25831.81850365  1385.23133285
0.32500002 25560.54443572  1249.91068209
0.32600002 25304.75012080  1241.19805220
0.32700002 25063.01420896  1479.72042897
0.32800002 24836.30095078  1838.50726494
0.32900002 24622.15033822  1218.79649946
0.33000002 24423.13179744  1333.86940628
0.33100002 24235.04512440  1327.59583478
0.33200002 24062.41052618  2283.64317913
0.33300002 23900.90170302  1556.66580163
0.33400002 23752.69638715  1312.93035497
0.33500002 23615.96325308  1309.26906475
0.33600002 23490.99753674  1543.71097623
0.33700002 23376.78967148  1777.80493871
0.33800002 23275.26697181  1183.54738157
0.33900002 23183.29254787  1182.34797593
0.34000002 23102.77804899  1181.70715317
0.34100002 23032.39480357  1417.87429126
0.34200002 22973.05385635  1418.35641226
0.34300002 22922.31109748  1774.18696297
0.34400002 22881.82107584  1420.96115611
0.34500002 22850.36953371  1541.71450546
0.34600002 22829.18353717  1307.08496533
0.34700002 22814.70477366  1786.39146838
0.34800002 22810.48253819  1313.54169917
0.34900002 22814.08657721  2395.47920406
0.35000002 22825.89596063  1201.78347925
0.35100002 22845.79798412  1326.88400976
0.35200002 22872.43870115  1453.31482390
0.35300002 22906.99294451  1337.99752126
0.35400002 22949.09718240  1466.44737941
0.35500002 22997.85645432  1473.70271139
0.35600002 23052.85774451  1728.27282696
0.35700002 23114.69188416  1986.01442075
0.35800002 23183.27287924  2122.31281625
0.35900002 23257.56442938  1381.49939254
0.36000002 23338.41583377  1516.53033271
0.36100002 23424.17683950  1271.93286263
0.36200002 23516.46882859  1408.51896721
0.36300002 23612.35769219  1289.23479106
0.36400002 23714.19514775  1687.85791959
0.36500002 23820.42299878  1830.83779841
0.36600002 23931.98836032  1449.20162380
0.36700002 24047.54944319  1327.42479214
0.36800002 24168.91067147  1605.29912284
0.36900002 24293.39311837  1483.11172013
0.37000002 24420.95760264  1766.73426145
0.37100002 24552.85465920  1507.05429037
0.37200002 24688.77485187  2210.13922943
0.37300002 24827.57414343  1532.10967297
0.37400002 24970.70107264  1966.44280262
0.37500002 25115.77476442  1699.83571658
0.37600002 25264.90929895  1714.47682624
0.37700002 25415.68189235  1585.17615472
0.37800002 25570.00200475  2180.48202425
0.37900002 25726.56931971  1759.69742483
0.38000002 25885.61826923  2810.78999292
0.38100002 26046.32458482  1492.45446941
0.38200002 26209.44589627  1957.45255949
0.38300002 26374.24623260  1519.15665497
0.38400002 26541.32878125  1992.59035265
0.38500002 26709.03044423  2319.67940398
0.38600002 26879.44993373  1716.38735683
0.38700002 27050.16935633  2518.91188979
0.38800002 27222.10720316  2064.93303972
0.38900002 27395.24186961  1923.14607036
0.39000002 27570.17347686  2748.88427674
0.39100002 27744.99563567  1631.40582067
0.39200002 27921.04393442  1975.13474150
0.39300002 28097.37376170  1992.66584159
0.39400002 28275.07382706  3518.12622761
0.39500002 28452.21023030  2028.07364130
0.39600002 28629.69843737  3239.30738317
0.39700002 28806.87494195  1891.74756707
0.39800002 28985.34095994  1908.25001251
0.39900002 29162.73543974  1924.74063021
0.40000002 29340.00592551  1764.80144003
0.40100002 29516.85544015  1957.85311411
0.40200002 29694.51009013  3051.55647399
0.40300002 29870.53128527  1991.16970982
0.40400002 30046.19121483  1825.30620278
0.40500002 30221.13616554  2024.51400765
0.40600002 30395.75652911  2969.05763844
0.40700002 30569.30062121  2057.92541533
0.40800002 30742.22023738  2451.84589120
0.40900002 30913.22827846  2281.39635505
0.41000002 31084.20277900  1916.34119213
0.41100002 31253.55144598  2897.20435632
0.41200002 31421.17907137  2141.19634927
0.41300002 31587.91842057  2353.93179224
0.41400002 31753.09244630  1976.63009844
0.41500002 31917.37334999  2389.97302969
0.41600002 32078.81019566  2006.52967281
0.41700002 32239.50618458  2425.70056027
0.41800002 32399.43780343  2647.19619116
0.41900002 32555.50885673  3486.69516377
0.42000002 32710.64446313  2272.24502530
0.42100002 32864.51194040  2496.38844528
0.42200002 33016.26590404  2513.85860505
0.42300002 33165.43832088  3374.91516345
0.42400002 33312.73721430  2336.05580785
0.42500002 33458.32092101  2565.58416980
0.42600002 33600.48216124  2367.32208285
0.42700002 33741.66865924  2382.83675363
0.42800002 33880.00787550  2398.19647111
0.42900002 34016.73945116  2413.48777843
0.43000002 34151.04972423  3091.01165701
0.43100002 34281.55976874  2887.87873177
0.43200002 34410.60812145  2458.46601374
0.43300002 34536.80023961  2922.84954279
0.43400002 34660.79507673  2487.77868452
0.43500002 34781.89326359  2729.68311268
0.43600002 34901.24461400  4117.99804715
0.43700002 35016.91894112  2530.67285180
0.43800002 35129.39542555  2775.92495808
0.43900002 35240.17630484  3256.19244488
0.44000002 35347.45182962  2572.05745427
0.44100002 35452.65395119  3290.71549570
0.44200002 35554.81881208  3071.40316864
0.44300002 35654.32177573  2849.49353135
0.44400002 35750.45437305  2624.97723674
0.44500002 35842.86595452  2637.67663060
0.44600002 35933.30374327  4095.85782128
0.44700002 36020.86164054  3388.84282374
0.44800002 36104.51906435  2431.63947422
0.44900002 36186.58340036  3175.37284387
0.45000002 36265.25333804  2944.01340551
0.45100002 36339.61770562  2956.59143665
0.45200002 36411.99056752  3216.45333922
0.45300002 36480.66740130  3478.06699488
0.45400002 36546.88354809  2743.75741241
0.45500002 36609.90397364  3255.35281562
0.45600002 36669.49124433  4273.27936468
0.45700002 36726.04750178  3532.31141613
0.45800002 36778.76692729  2785.44004525
0.45900002 36828.72145512  3303.53647109
0.46000002 36876.35143833  2804.99980510
0.46100002 36919.52823708  2814.37577090
0.46200002 36960.28255595  4107.02679227
0.46300002 36997.55463868  3090.03590988
0.46400002 37031.17962148  2841.21739112
0.46500002 37062.57966174  3367.87677348
0.46600002 37090.00108518  2857.97016907
0.46700002 37114.14341138  3387.03688825
0.46800002 37135.91842366  3657.51677890
0.46900002 37153.61679694  2881.26311916
0.47000002 37167.93120976  3676.28025020
0.47100002 37179.53803738  2632.31141781
0.47200002 37187.65004221  4221.54223288
0.47300002 37193.14112288  3173.31895101
0.47400002 37194.17261450  3975.12738659
0.47500002 37193.06608802  3983.37756683
0.47600002 37189.09906909  3459.14421387
0.47700002 37180.84443345  2932.45333946
