# SAXS profile: number of points = 501, q_min = 0, q_max = 0.5, delta_q = 0.001
#    q    intensity    error
0.00000000 1664650.74656091 249.69761198
0.00100000 1664582.07665062 549.31209834
0.00200000 1664376.00541556 823.86614877
0.00300000 1664032.71750383 1297.94556589
0.00400000 1663552.05892496 1497.19690992
0.00500000 1662934.51799442 2095.29757561
0.00600000 1662179.78586779 1745.28884622
0.00700000 1661288.56086361 2591.61026266
0.00800000 1660260.25690372 2465.48658559
0.00900000 1659096.26724465 2986.37340870
0.01000000 1657795.72002335 3008.89936177
0.01100000 1656359.88417089 3577.73750558
0.01200000 1654788.16961112 3549.52077944
0.01300000 1653082.06076442 4165.76697686
0.01400000 1651240.68948220 4829.87923085
0.01500000 1649265.93038189 5541.53377284
0.01600000 1647156.58747070 6300.37422872
0.01700000 1644914.80312845 5329.52420121
0.01800000 1642540.15179443 6553.73550056
0.01900000 1640033.31180314 5412.11017316
0.02000000 1637394.99292210 6705.13279933
0.02100000 1634626.74657213 5933.69535908
0.02200000 1631726.80966774 5629.45774911
0.02300000 1628698.16173061 8208.63910877
0.02400000 1625540.54193853 7314.93277227
0.02500000 1622255.27047201 6959.47542817
0.02600000 1618842.72235179 7211.94465794
0.02700000 1615303.74395387 8141.13124240
0.02800000 1611638.32511777 8412.75244292
0.02900000 1607848.97637084 11576.51316140
0.03000000 1603936.13942997 7458.30339117
0.03100000 1599899.79649770 9983.37518951
0.03200000 1595741.22859794 8688.81138991
0.03300000 1591463.07720759 9739.75448152
0.03400000 1587063.45467222 13331.33363436
0.03500000 1582545.54527980 12818.61950871
0.03600000 1577909.22731409 10508.87593957
0.03700000 1573156.29493146 9863.69042539
0.03800000 1568287.94319912 11926.83036000
0.03900000 1563305.73388649 11255.80180524
0.04000000 1558208.21964610 10541.27909438
0.04100000 1552999.59680433 11740.67749622
0.04200000 1547680.09612606 16970.31304132
0.04300000 1542249.76303144 12214.61869019
0.04400000 1536712.42079483 14521.93305094
0.04500000 1531067.50941732 13733.67619761
0.04600000 1525315.47555387 16130.21190383
0.04700000 1519459.50838707 13128.13076303
0.04800000 1513499.63681372 14461.48970262
0.04900000 1507438.94221846 13566.95111147
0.05000000 1501276.68834990 13781.72064081
0.05100000 1495016.14410586 12827.23911397
0.05200000 1488655.82199280 13018.29577000
0.05300000 1482201.10791537 12005.82953380
0.05400000 1475650.12909347 18261.17119912
0.05500000 1469007.01407617 13573.62544326
0.05600000 1462270.17147925 13752.65160452
0.05700000 1455444.69365850 16461.08025366
0.05800000 1448529.08898439 17947.27625052
0.05900000 1441525.41234717 14271.10224878
0.06000000 1434436.39169566 13125.09359720
0.06100000 1427263.75164658 15928.26421273
0.06200000 1420007.76537182 21470.51841603
0.06300000 1412671.60325179 18986.30723541
0.06400000 1405253.43453970 13701.22162752
0.06500000 1397759.39853278 17989.16430061
0.06600000 1390187.43325789 23751.35340850
0.06700000 1382540.67499316 14101.91554489
0.06800000 1374821.71718323 14229.40543891
0.06900000 1367031.80635132 15789.21810259
0.07000000 1359170.19923145 20265.22861953
0.07100000 1351241.63939585 16052.75142790
0.07200000 1343245.21112615 19121.09647614
0.07300000 1335185.71909355 16302.61839400
0.07400000 1327062.33835692 14929.45200617
0.07500000 1318877.68878849 16538.72699262
0.07600000 1310631.60768958 19679.13451203
0.07700000 1302329.78331236 16760.98509713
0.07800000 1293970.31929547 16866.90390301
0.07900000 1285555.38797347 18511.99845510
0.08000000 1277088.89504181 24826.60928426
0.08100000 1268570.97343877 24965.47792861
0.08200000 1260002.68999771 26667.95818520
0.08300000 1251386.76078964 15767.47392595
0.08400000 1242724.27766958 20598.15586922
0.08500000 1234018.83888897 22286.38127657
0.08600000 1225269.63158640 20786.70027583
0.08700000 1216480.38527813 19269.05020764
0.08800000 1207649.57749446 20958.75940172
0.08900000 1198783.56152653 21038.65249297
0.09000000 1189880.66020440 19490.24612971
0.09100000 1180943.86583099 21186.13394836
0.09200000 1171974.13798893 26158.46398901
0.09300000 1162974.74331532 19677.53358158
0.09400000 1153944.09372568 27954.29698429
0.09500000 1144886.54154629 19783.64036780
0.09600000 1135803.26247845 21483.71971968
0.09700000 1126696.99829298 19874.93598426
0.09800000 1117568.67193091 16595.89555847
0.09900000 1108419.97969272 23276.82066808
0.10000000 1099251.08561045 18319.02020319
0.10100000 1090064.28505029 20013.58121480
0.10200000 1080862.13089873 18369.25277865
0.10300000 1071645.26493805 18389.43361139
0.10400000 1062416.82571923 18406.37237152
0.10500000 1053179.08517504 18420.10306637
0.10600001 1043928.48035216 25132.57934706
0.10700001 1034672.98664096 20114.04380682
0.10800001 1025409.33051298 21795.07634577
0.10900001 1016142.04076101 20119.61335401
0.11000001 1006871.30256913 16764.40797687
0.11100001 997599.06102033 20111.59801689
0.11200001 988327.97353279 18427.37593403
0.11300001 979056.63140575 26786.99069641
0.11400001 969789.47258502 16728.86918976
0.11500001 960527.20568195 18384.49158244
0.11600001 951270.22577453 16694.79324853
0.11700001 942022.10160525 21675.92957876
0.11800001 932780.54105509 23310.18681884
0.11900001 923550.46063251 19948.69088928
0.12000001 914331.44100432 26552.18629750
0.12100001 905127.11322663 18220.20964757
0.12200001 895935.99870486 26448.03192777
0.12300001 886761.30547999 19792.51327083
0.12400001 877603.32294895 18100.56938868
0.12500001 868464.06692187 19696.76596591
0.12600001 859345.83382653 26192.86224933
0.12700001 850248.53638701 21222.20446835
0.12800001 841172.60284297 21159.69782176
0.12900001 832121.16700627 19471.63622569
0.13000001 823094.54470070 17791.18942229
0.13100001 814093.36482010 16119.04938325
0.13200001 805120.54830894 19274.58683513
0.13300001 796177.16834763 25605.05894116
0.13400001 787262.11678436 17536.26447813
0.13500001 778378.86326114 17466.82251511
0.13600001 769526.88749928 25302.04525399
0.13700001 760708.78238259 17321.33979161
0.13800001 751923.49288013 17245.36612242
0.13900001 743176.00928280 17167.36662401
0.14000001 734463.35845492 21747.46106947
0.14100001 725788.80602644 18551.16275696
0.14200001 717151.52659202 19997.77126222
0.14300001 708556.32541627 30609.63470177
0.14400001 699997.24624286 19792.42307112
0.14500001 691483.62646922 18172.19056083
0.14600001 683009.77375055 19578.47608816
0.14700001 674581.96183690 16473.29228521
0.14800001 666196.04572044 16378.43055675
0.14900001 657854.70750891 14801.73161731
0.15000001 649559.93136970 20597.54639559
0.15100001 641311.71531417 16084.09857901
0.15200001 633111.97725846 15982.91262008
0.15300001 624960.37135493 18767.56083741
0.15400001 616855.92280280 17210.28105837
0.15500001 608803.07128054 18519.79030236
0.15600001 600798.67845227 15563.69049983
0.15700001 592849.40036049 21075.79717753
0.15800001 584947.04361352 18136.28394325
0.15900001 577100.48076039 13850.41219200
0.16000001 569304.72405357 17873.32265533
0.16100001 561566.02989125 17739.87172166
0.16200001 553879.18163670 17605.05061939
0.16300001 546248.78757051 14781.49288946
0.16400001 538673.53695322 13332.17066900
0.16500001 531154.58408347 15870.89972170
0.16600001 523692.03398124 14430.33467765
0.16700001 516286.21952124 22117.70268857
0.16800001 508936.84774437 18062.16957928
0.16900001 501647.90900472 15350.42674036
0.17000001 494416.35597930 13949.95814267
0.17100001 487243.70301261 13827.97694447
0.17200001 480130.81600884 16197.21384294
0.17300001 473077.44427846 16051.51844239
0.17400001 466084.85508655 14681.67362858
0.17500001 459152.11514939 16970.26297739
0.17600001 452278.24612352 19212.78080273
0.17700001 445468.01843552 11893.99665399
0.17800001 438718.08920435 14135.49750181
0.17900001 432029.57325177 12831.27893164
0.18000001 425403.78884833 15014.62743662
0.18100001 418840.87200163 12577.79198034
0.18200001 412337.60981324 14714.26830126
0.18300001 405899.39828200 13443.38870616
0.18400001 399522.31955952 14412.76835898
0.18500001 393208.99984127 14261.69109799
0.18600001 386958.56808501 11939.60718233
0.18700001 380770.73499760 12885.28228108
0.18800001 374645.94167554 12745.45553798
0.18900001 368586.44356971 16807.54262089
0.19000001 362586.10025893 15582.13839486
0.19100001 356654.46691077 12325.97895884
0.19200001 350782.60509219 11170.67258699
0.19300001 344976.68454894 12046.58639368
0.19400001 339233.14884339 10914.82707980
0.19500001 333553.81156980 14709.72378534
0.19600001 327936.84495487 12597.69449426
0.19700001 322384.47195237 13404.74697726
0.19800001 316895.41332514 13243.05994871
0.19900001 311470.52190333 13081.76253818
0.20000001 306107.06102316 11074.95399123
0.20100001 300808.65092440 10025.95280916
0.20200001 295572.30047926 10800.21236997
0.20300001 290399.82780612 9774.85866596
0.20400001 285290.27197762 11404.47916135
0.20500001 280242.65753938 13855.19764364
0.20600001 275258.40132956 12820.16064791
0.20700001 270336.36794735 11808.29311011
0.20800001 265476.59274222 11651.76820624
0.20900001 260680.99468366 9853.74206484
0.21000001 255945.06912715 8910.72800289
0.21100001 251270.96661573 10387.54225095
0.21200001 246658.40578927 7880.73643752
0.21300001 242107.05456187 10880.29154638
0.21400001 237617.70678474 8429.48854671
0.21500001 233189.66256382 9066.41450912
0.21600001 228820.39518034 10427.34590136
0.21700001 224512.44232315 8809.86865329
0.21800001 220264.37411263 9406.39054122
0.21900001 216074.94349438 9269.61551419
0.22000001 211944.69311382 9836.35367250
0.22100001 207875.75069997 11075.62052099
0.22200001 203864.46957804 7501.19351281
0.22300001 199911.38261862 8060.42732832
0.22400001 196014.80465087 11907.89994562
0.22500001 192179.29846174 9120.82993629
0.22600001 188398.95457049 8980.97858907
0.22700001 184676.85810317 7579.13861497
0.22800001 181010.79827341 6839.49333620
0.22900001 177400.58451117 8568.44863710
0.23000001 173846.50337969 6626.15978968
0.23100001 170349.62126931 6520.98381058
0.23200001 166905.74019516 6416.69148527
0.23300001 163517.90180552 6313.42648730
0.23400001 160184.27896942 7340.44493094
0.23500001 156903.45837827 7220.69749608
0.23600001 153677.05897654 6009.54167551
0.23700001 150503.63034579 6447.57582897
0.23800001 147382.72820307 5283.67105599
0.23900001 144314.36719429 6753.91270415
0.24000001 141297.50130651 7151.06687937
0.24100001 138333.29935684 6025.79880501
0.24200001 135419.22135315 5923.23702217
0.24300001 132555.79710168 5336.69664375
0.24400001 129741.82389925 5721.61470461
0.24500001 126977.94843441 5154.03517076
0.24600001 124263.34358962 7366.33135646
0.24700001 121598.06452682 5428.13785726
0.24800001 118979.98790522 5332.68331018
0.24900001 116409.71026608 5238.43720979
0.25000001 113887.36975268 4716.64564144
0.25100001 111411.10441517 5474.74192997
0.25200001 108982.32166500 4549.46723314
0.25300001 106599.65103177 4061.44689646
0.25400001 104261.47274783 5982.00228192
0.25500001 101968.60053992 5090.27277978
0.25600001 99720.52523368  4997.49435853
0.25700001 97516.31437900  4528.65785403
0.25800001 95355.38587055  4075.01260798
0.25900001 93238.06334220  6908.94082055
0.26000001 91163.74429876  4996.68506144
0.26100001 89129.47912376  4903.90417342
0.26200001 87139.36175729  4468.94237918
0.26300001 85189.01149037  3373.48501464
0.26400001 83279.16160286  4303.45087946
0.26500001 81410.55818043  4547.59399515
0.26600001 79580.59166709  3187.20284708
0.26700001 77791.02840187  4378.07928563
0.26800001 76039.93833614  5215.95981699
0.26900001 74326.57126138  3913.29416209
0.27000001 72651.64421614  4134.60526800
0.27100001 71013.93091874  4056.31592603
0.27200001 69413.50057982  3695.22787824
0.27300001 67848.88869608  3067.44840311
0.27400001 66319.18513463  4377.06642603
0.27500001 64827.05073891  2952.22403037
0.27600001 63367.97299887  3159.52728325
0.27700001 61945.05829616  3358.04176916
0.27800001 60554.97858717  2787.64857119
0.27900001 59199.23560220  3480.91521815
0.28000001 57876.07649729  3171.31976176
0.28100001 56585.52256022  3829.70834813
0.28200001 55327.63206831  3757.85294794
0.28300001 54101.37168556  2535.19039718
0.28400001 52906.45824455  2487.92631671
0.28500001 51742.63416665  3329.63866622
0.28600001 50608.33686462  2832.29570669
0.28700001 49504.62259923  2352.45977726
0.28800001 48429.64316070  2309.36764343
0.28900001 47385.11278494  2267.37775408
0.29000001 46367.87166336  2428.74923269
0.29100001 45379.93420893  2186.40533368
0.29200001 44419.06661301  1952.21807005
0.29300001 43485.50854133  1917.71101745
0.29400001 42578.64018931  2637.74688459
0.29500001 41699.31265030  2221.73948318
0.29600001 40844.76161309  2547.48790240
0.29700001 40015.75008334  2146.44493608
0.29800001 39212.40623182  2286.27945358
0.29900001 38433.82305211  2421.33096691
0.30000001 37679.34688827  2211.58937030
0.30100001 36949.64182308  1841.20073921
0.30200001 36242.17347638  2141.36892123
0.30300001 35558.43976733  2432.19739523
0.30400001 34898.17396920  1915.90984161
0.30500001 34258.86427344  1729.73013906
0.30600001 33641.94360901  1549.21157654
0.30700001 33046.96561861  1984.80084902
0.30800001 32472.85342803  1806.14019318
0.30900001 31919.40032673  2226.37827820
0.31000001 31387.18282685  2049.89700747
0.31100001 30873.40273459  1444.87531639
0.31200001 30380.40418377  2139.54006594
0.31300001 29905.97354169  1549.42856255
0.31400001 29451.86929346  1530.76097900
0.31500001 29015.32208843  1512.85896532
0.31600002 28597.05879777  1903.70629430
0.31700002 28196.25315352  1748.44974084
0.31800002 27813.25601507  1463.95079967
0.31900002 27447.75665649  1580.99085827
0.32000002 27098.51488731  1565.75226433
0.32100002 26766.19462765  1551.36871408
0.32200002 26450.15403062  1409.66102581
0.32300002 26149.19211346  1652.10603596
0.32400002 25864.04392343  1891.30830146
0.32500002 25593.45673158  1376.67210278
0.32600002 25338.34423253  1491.41501215
0.32700002 25097.37525631  1481.74910530
0.32800002 24871.38226644  1595.62360486
0.32900002 24657.91923439  1952.90729584
0.33000002 24459.61802052  1335.86210145
0.33100002 24272.24882315  1692.26126809
0.33200002 24100.18513838  1444.56516560
0.33300002 23939.49222316  1918.98978748
0.33400002 23791.89320176  1315.09695900
0.33500002 23655.78795421  1430.70212322
0.33600002 23531.46842432  1308.46736370
0.33700002 23417.86765764  1662.20032506
0.33800002 23316.98316906  1185.66865030
0.33900002 23225.63016284  1421.40863328
0.34000002 23145.69527047  1539.07307990
0.34100002 23075.88070248  1538.93055693
0.34200002 23017.18938651  1776.35167503
0.34300002 22966.89204468  1303.60085419
0.34400002 22927.01609667  1542.41508095
0.34500002 22896.07592723  1188.30639690
0.34600002 22875.39807315  1309.73097871
0.34700002 22861.47326100  1432.04275289
0.34800002 22857.72277749  1196.60184407
0.34900002 22861.89205927  1440.29926795
0.35000002 22874.19302649  1324.75895187
0.35100002 22894.49381676  1450.59519693
0.35200002 22921.58816262  1577.80759590
0.35300002 22956.56668533  1828.49062309
0.35400002 22999.10410906  1959.52376290
0.35500002 23048.27758507  1476.93369760
0.35600002 23103.73407174  1484.64602177
0.35700002 23165.91591271  1866.01461515
0.35800002 23234.95285556  1501.44272464
0.35900002 23309.54658382  1636.33024769
0.36000002 23390.82718874  2026.58136362
0.36100002 23476.85340872  1657.23116062
0.36200002 23569.54133062  1668.37006211
0.36300002 23665.69653612  1679.79121970
0.36400002 23767.86224437  1431.41957147
0.36500002 23874.33933287  2097.12206634
0.36600002 23986.23330004  1848.61908800
0.36700002 24102.04031109  1596.51922583
0.36800002 24223.63835943  1608.93413605
0.36900002 24348.31630378  1351.33161887
0.37000002 24476.13633407  1634.51646182
0.37100002 24608.24196390  1647.76795996
0.37200002 24744.42675745  1522.89581693
0.37300002 24883.32030537  1954.33606936
0.37400002 25026.66485039  1830.07495388
0.37500002 25171.88037043  1845.60235619
0.37600002 25321.18750764  2004.67850994
0.37700002 25472.04851532  1444.26521924
0.37800002 25626.46914084  1602.55132364
0.37900002 25783.17893049  2204.46190299
0.38000002 25942.25436865  1630.85989814
0.38100002 26103.08093796  1944.41859118
0.38200002 26266.18838813  1810.79111326
0.38300002 26431.08715599  1826.91683077
0.38400002 26598.26628146  1689.65494558
0.38500002 26765.96112132  1549.74922234
0.38600002 26936.38662790  1876.38878139
0.38700002 27107.06950641  2681.97358402
0.38800002 27278.99458784  2387.59411441
0.38900002 27452.11051252  1927.13824928
0.39000002 27626.96024680  2106.41768381
0.39100002 27801.76245078  2125.16682242
0.39200002 27977.77287909  2638.86366298
0.39300002 28153.96633223  2163.06933578
0.39400002 28331.56656102  1846.50993810
0.39500002 28508.61379858  1862.75291385
0.39600002 28685.95457746  2049.89841122
0.39700002 28863.09206115  2067.75201323
0.39800002 29041.34686941  2259.56210023
0.39900002 29218.53770850  2454.35728380
0.40000002 29395.65733126  2121.77864670
0.40100002 29572.34057559  1961.53344332
0.40200002 29749.74845730  1798.37237945
0.40300002 29925.60953265  1994.84122596
0.40400002 30100.95402539  2377.22295679
0.40500002 30275.73007201  2212.55045849
0.40600002 30450.06306339  1858.97643810
0.40700002 30623.37237185  2436.39562134
0.40800002 30795.98755195  2267.20071100
0.40900002 30966.78431293  3047.13172077
0.41000002 31137.41904488  2111.58417258
0.41100002 31306.46649861  2902.10958193
0.41200002 31473.72969615  1949.79764706
0.41300002 31640.13448767  2161.33768926
0.41400002 31804.99047429  1979.86075084
0.41500002 31968.85736385  2593.31383223
0.41600002 32129.95699702  2009.72890539
0.41700002 32290.25395264  2631.97872439
0.41800002 32449.76717239  2039.46796342
0.41900002 32605.51296949  2670.39163874
0.42000002 32760.20887745  2275.68801750
0.42100002 32913.58870239  2291.77328994
0.42200002 33064.95800042  2097.97168454
0.42300002 33213.67214039  2957.34550752
0.42400002 33360.47799557  2339.40363029
0.42500002 33505.63023900  3425.61579796
0.42600002 33647.31202704  2155.11043745
0.42700002 33788.00395477  3253.78493503
0.42800002 33925.85370678  2183.12878948
0.42900002 34062.02068858  3515.20070164
0.43000002 34195.81797029  2210.75973654
0.43100002 34325.81965819  3114.03850696
0.43200002 34454.31686085  3356.71197924
0.43300002 34579.98119669  2251.15688258
0.43400002 34703.41678346  3623.03688388
0.43500002 34823.91469542  2960.72936771
0.43600002 34942.69281424  3206.69107152
0.43700002 35057.83573355  2303.29991685
0.43800002 35169.66546919  2315.92258090
0.43900002 35279.85773765  3259.85900944
0.44000002 35386.52322064  3043.06420857
0.44100002 35491.14584309  2823.67569709
0.44200002 35592.65573217  2838.15850258
0.44300002 35691.53666132  3090.17339058
0.44400002 35787.01039129  2627.66136251
0.44500002 35878.77832228  2400.29038351
0.44600002 35968.52502895  3135.19663273
0.44700002 36055.47206380  3392.09897252
0.44800002 36138.44996821  2920.70966485
0.44900002 36219.83489909  2444.83897155
0.45000002 36297.76270677  3192.20689253
0.45100002 36371.52923006  2465.98979867
0.45200002 36443.14174649  3219.20507874
0.45300002 36511.17637135  2983.69347447
0.45400002 36576.64460557  3494.89855770
0.45500002 36638.93144694  2506.10302974
0.45600002 36697.78814560  2767.19684627
0.45700002 36753.60929947  3029.96769425
0.45800002 36805.65858733  2534.06971384
0.45900002 36854.89708965  4577.37843548
0.46000002 36901.73265941  3317.28141464
0.46100002 36944.15546199  3072.27611383
0.46200002 36984.18303740  4109.68261389
0.46300002 37020.70819625  3091.96969510
0.46400002 37053.58050013  3101.38483485
0.46500002 37084.22803105  3110.62519467
0.46600002 37110.84639251  3119.53789561
0.46700002 37134.21306998  2867.50406917
0.46800002 37155.19177397  3920.80179778
0.46900002 37172.09634929  4193.01266693
0.47000002 37185.67025217  3152.60127340
0.47100002 37196.50720182  3160.21540165
0.47200002 37203.82618878  3959.41738981
0.47300002 37208.58351654  3968.29562013
0.47400002 37208.79226034  3711.57720389
0.47500002 37206.91037291  3719.20293716
0.47600002 37202.14700614  2927.99511890
0.47700002 37193.06552417  3200.09150938
