# SAXS profile: number of points = 501, q_min = 0, q_max = 0.5, delta_q = 0.001
#    q    intensity    error
0.00000000 1700912.83420645 382.70538770
0.00100000 1700842.95509990 714.35405811
0.00200000 1700633.25649390 994.87048655
0.00300000 1700283.92320290 1632.27262442
0.00400000 1699794.79734169 1402.33076109
0.00500000 1699166.38782735 1988.02475245
0.00600000 1698398.35522106 2496.64568382
0.00700000 1697491.42851510 2851.78571843
0.00800000 1696445.00930053 2519.22094517
0.00900000 1695260.54362238 2542.89092414
0.01000000 1693937.04036159 3074.49586101
0.01100000 1692475.87823218 3351.10238480
0.01200000 1690876.49194960 4945.81395580
0.01300000 1689140.26024338 5320.79205444
0.01400000 1687266.38812080 5314.88935819
0.01500000 1685256.80702804 6471.38642715
0.01600000 1683110.24872827 6867.09012179
0.01700000 1680828.89957808 4992.06205568
0.01800000 1678412.22688252 5261.82256805
0.01900000 1675861.04349430 5530.34169307
0.02000000 1673176.08103511 5797.55538304
0.02100000 1670358.89217377 5512.18459409
0.02200000 1667407.65970135 9204.09069971
0.02300000 1664325.32007069 6590.72856748
0.02400000 1661111.70365190 8720.83684182
0.02500000 1657768.31780626 10344.47477555
0.02600000 1654295.16185040 8709.86442552
0.02700000 1650693.46690151 10399.36931778
0.02800000 1646962.98552288 7164.28931558
0.02900000 1643106.23549484 9612.17191898
0.03000000 1639123.83309934 8384.11879168
0.03100000 1635015.66503325 10202.49821926
0.03200000 1630783.10178639 9686.85207077
0.03300000 1626428.67524195 11612.70127658
0.03400000 1621950.61794039 10218.28936450
0.03500000 1617352.03010816 8733.70136589
0.03600000 1612632.97019045 12530.15875745
0.03700000 1607795.13328812 14663.09229372
0.03800000 1602839.58277863 10314.27319252
0.03900000 1597768.17923071 13421.25332708
0.04000000 1592579.36653066 13712.10898123
0.04100000 1587277.34333048 13999.78681730
0.04200000 1581862.37890531 14284.21794420
0.04300000 1576334.39013672 15605.71118674
0.04400000 1570697.41291389 14843.09124138
0.04500000 1564950.88106379 14037.61005540
0.04600000 1559095.17264549 14289.10792155
0.04700000 1553133.51826613 16773.84277739
0.04800000 1547066.06063263 12508.02968219
0.04900000 1540895.73249043 16179.40594426
0.05000000 1534622.06607769 17609.78902826
0.05100000 1528248.06319161 17880.50317229
0.05200000 1521772.38636208 12098.09103536
0.05300000 1515200.27336692 13500.43506506
0.05400000 1508530.32988430 14934.45096231
0.05500000 1501766.16896500 15137.80368933
0.05600000 1494906.60295755 16615.88766724
0.05700000 1487956.51612970 15534.26675351
0.05800000 1480914.52863226 14416.70360939
0.05900000 1473782.60330803 14590.44845421
0.06000000 1466563.82885017 17444.77755917
0.06100000 1459259.58027456 14928.22620383
0.06200000 1451870.35159653 16464.21055670
0.06300000 1444399.21634906 15252.85643780
0.06400000 1436844.35142226 15410.15638969
0.06500000 1429211.91898509 16979.03839178
0.06600000 1421500.10924871 14286.07676637
0.06700000 1413711.88768995 18745.82050805
0.06800000 1405850.03390501 17460.65823842
0.06900000 1397915.52700767 17613.73646495
0.07000000 1389907.81122667 17763.02265929
0.07100000 1381831.70940076 22385.67474079
0.07200000 1373686.04002753 18050.23541156
0.07300000 1365476.18553263 15156.78636959
0.07400000 1357200.76644175 18322.21120562
0.07500000 1348862.79378513 23065.55485487
0.07600000 1340462.09548439 18578.80551440
0.07700000 1332004.26220996 17142.89565845
0.07800000 1323487.22699435 17251.65681291
0.07900000 1314913.67432865 22090.55076485
0.08000000 1306287.36882894 15871.39227582
0.08100000 1297608.24890000 19152.69865237
0.08200000 1288877.51666571 22465.13616966
0.08300000 1280098.21789398 19355.08596293
0.08400000 1271270.75937321 22692.18411995
0.08500000 1262399.34306878 17913.44751910
0.08600000 1253483.26596916 17993.75312782
0.08700000 1244525.57161535 18070.51214840
0.08800000 1235525.76485511 18143.69670899
0.08900000 1226489.39477809 26492.17217154
0.09000000 1217415.18233156 23264.80522723
0.09100000 1208306.07223516 18342.08703826
0.09200000 1199163.16025787 16728.32687161
0.09300000 1189989.63296458 18456.74007460
0.09400000 1180783.96923431 20191.40682285
0.09500000 1171550.44136392 26992.52343775
0.09600000 1162290.19818943 16911.32317862
0.09700000 1153006.35912269 28813.63026908
0.09800000 1143699.62997969 18682.33433412
0.09900000 1134371.58593749 22120.24696593
0.10000000 1125022.74815139 22157.32406684
0.10100000 1115655.06076756 17069.52323255
0.10200000 1106271.59103143 25637.84532806
0.10300000 1096872.92766673 22244.58401948
0.10400000 1087461.73410832 18840.27542977
0.10500000 1078040.54802920 20569.01462416
0.10600001 1068606.19181703 24011.58225996
0.10700001 1059165.92806358 25737.73326310
0.10800001 1049717.31488354 20595.45468727
0.10900001 1040264.63444549 27462.98764192
0.11000001 1030807.92943413 24028.13396610
0.11100001 1021349.36184105 18874.53709531
0.11200001 1011891.19288304 25727.33479022
0.11300001 1002432.42577990 22284.07387424
0.11400001 992977.65247674 27406.18449876
0.11500001 983527.49235832 27381.40667659
0.11600001 974082.23464948 20514.17282776
0.11700001 964645.46720394 18781.64813098
0.11800001 955215.02866550 25575.88359710
0.11900001 945795.90838642 20429.19258340
0.12000001 936387.34621453 18694.97424780
0.12100001 926993.83165627 20356.78550214
0.12200001 917612.82406064 16929.95740151
0.12300001 908248.37079563 21961.44664054
0.12400001 898900.46243428 21910.69980421
0.12500001 889571.09795682 20175.47345234
0.12600001 880262.92189813 18445.91039761
0.12700001 870975.38713719 21739.54668745
0.12800001 861709.19746131 21676.29588373
0.12900001 852467.66269471 19947.74424723
0.13000001 843251.25733936 18226.87678651
0.13100001 834059.66447977 18165.82034866
0.13200001 824897.20955125 23039.38014885
0.13300001 815763.82218266 18036.53895875
0.13400001 806659.18215622 21235.30397141
0.13500001 797586.35630005 21151.99116636
0.13600001 788545.12152147 19445.52361359
0.13700001 779537.89168083 17750.07863055
0.13800001 770563.81175892 20886.13310263
0.13900001 761627.67152595 15994.18185630
0.14000001 752726.59376365 20696.21867158
0.14100001 743864.13692018 17428.73755003
0.14200001 735039.06813052 17343.24763054
0.14300001 726256.76872671 18824.57633331
0.14400001 717510.60506046 17166.44203581
0.14500001 708810.34277679 23284.42085859
0.14600001 700150.48200831 16982.15074223
0.14700001 691536.83076728 21492.96571421
0.14800001 682965.71391492 16790.71286876
0.14900001 674439.60401234 16692.38098687
0.15000001 665960.68583223 16592.41127039
0.15100001 657528.55549541 19489.14730448
0.15200001 649145.72853289 16387.68469010
0.15300001 640811.60360003 19243.57336419
0.15400001 632525.10949059 14706.20948966
0.15500001 624290.59918247 16069.24078131
0.15600001 616105.88797177 15960.22378115
0.15700001 607976.25229737 18731.74921736
0.15800001 599894.19497989 14307.47722557
0.15900001 591868.86265613 15625.33871165
0.16000001 583895.20703438 21151.60487323
0.16100001 575979.24273985 15395.92588519
0.16200001 568115.89899634 16668.52126341
0.16300001 560309.49036468 20675.42117050
0.16400001 552559.11814119 16411.00658355
0.16500001 544866.11975844 17637.31712926
0.16600001 537229.89616038 18840.65334787
0.16700001 529651.66220193 16016.66702121
0.16800001 522130.31444688 15883.20491542
0.16900001 514670.69951944 18373.74484042
0.17000001 507269.19412236 26022.91088727
0.17100001 499927.42175806 15477.75370851
0.17200001 492646.22716249 16619.42125814
0.17300001 485425.76536256 12669.61307428
0.17400001 478266.87565032 12554.50607872
0.17500001 471168.66107380 14926.62388777
0.17600001 464130.54748217 19716.26658822
0.17700001 457156.84296822 18309.13242563
0.17800001 450244.67244761 14506.88403145
0.17900001 443394.80488690 15563.15838663
0.18000001 436608.64824555 16595.49550370
0.18100001 429886.45104587 12909.49073471
0.18200001 423224.95000709 12779.27796913
0.18300001 416629.66678536 11498.97934648
0.18400001 410096.36712020 13656.20967023
0.18500001 403628.41838675 13513.48008599
0.18600001 397223.89964488 12256.34400257
0.18700001 390883.31661736 14329.78306420
0.18800001 384606.63947053 14174.67836739
0.18900001 378396.65071609 12941.16606593
0.19000001 372247.23178296 15997.32554173
0.19100001 366167.11312509 11600.17469191
0.19200001 360148.73957833 12511.56780414
0.19300001 354196.84307562 14429.98006876
0.19400001 348308.59972599 17319.64593980
0.19500001 342485.80410680 12082.89973987
0.19600001 336726.80116601 9950.27744467
0.19700001 331033.17415227 9831.68573694
0.19800001 325404.39539371 14569.98249231
0.19900001 319840.94876235 14392.84337451
0.20000001 314340.05436152 10425.08839560
0.20100001 308905.65185968 10295.82586309
0.20200001 303534.60716172 12015.41799239
0.20300001 298228.46482762 10038.37060056
0.20400001 292986.70802067 9009.34169747
0.20500001 287808.11603361 12450.57968811
0.20600001 282693.91593147 12288.70510640
0.20700001 277643.50248985 8662.47768715
0.20800001 272656.47553289 8547.78091201
0.20900001 267735.00908026 10963.74914011
0.21000001 262874.49099007 10815.97144308
0.21100001 258077.19025050 8206.85503793
0.21200001 253342.78578700 8903.73262740
0.21300001 248670.73044503 9578.79698959
0.21400001 244062.17567014 8658.10609122
0.21500001 239516.03146619 9312.38374367
0.21600001 235029.86169046 11475.33353957
0.21700001 230606.53029919 9049.00067677
0.21800001 226244.29432465 11148.18812994
0.21900001 221942.12893450 8056.49966125
0.22000001 217700.44221029 7938.44700055
0.22100001 213521.66439122 13509.51634481
0.22200001 209401.44876438 10506.71818856
0.22300001 205341.20760666 6899.46490183
0.22400001 201338.36528462 7474.68716464
0.22500001 197397.88697314 7360.96755331
0.22600001 193514.40750450 8565.91565325
0.22700001 189690.24794723 9731.11017987
0.22800001 185923.33686010 8302.40700011
0.22900001 182213.49675251 7543.63912230
0.23000001 178561.41610667 8043.29936891
0.23100001 174967.79005498 7915.54319643
0.23200001 171428.43737153 6590.56658644
0.23300001 167946.64996096 7663.40600016
0.23400001 164520.11410252 6959.20115567
0.23500001 161147.82707521 6845.56001792
0.23600001 157831.16063799 6171.98782867
0.23700001 154568.89303837 7725.35363945
0.23800001 151360.64976240 8139.41932596
0.23900001 148206.04836148 6402.50159205
0.24000001 145104.34821109 6819.17916673
0.24100001 142056.31911808 5672.30909069
0.24200001 139059.99508770 6082.48447285
0.24300001 136115.64302087 5480.01604724
0.24400001 133221.95164371 8812.63251810
0.24500001 130379.55424028 4811.00577905
0.24600001 127587.60967849 6145.25751087
0.24700001 124846.60824751 5573.15285581
0.24800001 122154.01208623 6843.67885088
0.24900001 119510.42505313 5826.13349696
0.25000001 116915.91067008 6162.63794296
0.25100001 114368.90073659 5187.77358284
0.25200001 111870.55897362 5519.13428807
0.25300001 109419.44089867 4585.76898502
0.25400001 107014.27733291 4093.29630164
0.25500001 104655.48022724 6831.91007247
0.25600001 102342.92869429 6312.51214053
0.25700001 100075.26659689 4647.49560065
0.25800001 97852.13982459  4181.71139326
0.25900001 95673.78833745  4477.53350605
0.26000001 93539.54838510  4028.28084180
0.26100001 91446.64542186  4672.00933566
0.26200001 89399.24553749  3879.48044366
0.26300001 87392.66645969  3806.82473111
0.26400001 85427.62952937  5433.19749516
0.26500001 83504.97645064  3665.03358984
0.26600001 81622.39745462  3922.77260729
0.26700001 79780.99390064  5452.23338117
0.26800001 77979.46757996  4719.70749862
0.26900001 76216.78713652  3704.13603012
0.27000001 74493.41973797  4239.42071791
0.27100001 72808.57234355  3267.64888141
0.27200001 71162.04004554  4079.71994888
0.27300001 69552.47370014  4002.04952610
0.27400001 67978.75744957  3364.94865300
0.27500001 66443.80442977  4126.16045036
0.27600001 64942.96130194  3507.89422074
0.27700001 63479.11747874  3441.20312138
0.27800001 62049.49974124  3116.12602448
0.27900001 60654.84549261  2802.25399438
0.28000001 59294.05701686  2749.16908370
0.28100001 57966.79917380  2942.39486532
0.28200001 56673.21529762  2646.35591357
0.28300001 55412.23566517  4012.95429681
0.28400001 54183.54173581  2547.98117072
0.28500001 52987.08591381  3182.40453061
0.28600001 51820.89755139  2677.06769422
0.28700001 50686.24074198  4598.25597776
0.28800001 49581.37144215  3009.09357525
0.28900001 48508.08834599  2321.11213722
0.29000001 47462.56674658  2693.26347752
0.29100001 46447.35534802  2441.27311265
0.29200001 45460.34458068  2197.78046279
0.29300001 44501.34402313  3140.01498291
0.29400001 43569.81761456  1927.96452071
0.29500001 42666.64361009  1894.39906596
0.29600001 41789.40638269  1861.71814248
0.29700001 40938.31071435  2378.92534822
0.29800001 40113.69419761  3238.37868587
0.29900001 39314.70471038  1946.07797529
0.30000001 38540.60501554  2262.14091848
0.30100001 37792.24773199  2396.78446463
0.30200001 37066.78352971  2695.49662589
0.30300001 36365.60490998  1824.09882864
0.30400001 35688.81373088  2612.42128878
0.30500001 35033.67766298  2572.87340938
0.30600001 34401.63124375  1742.61471315
0.30700001 33792.38415265  2029.57068829
0.30800001 33204.55062098  2154.64339180
0.30900001 32638.30077324  2276.52158671
0.31000001 32093.73985623  1796.60764221
0.31100001 31568.32285575  1625.13733756
0.31200001 31064.21514538  2333.54395220
0.31300001 30579.78000353  1584.33847700
0.31400001 30116.05777481  1565.28217696
0.31500001 29670.24764641  2812.73961005
0.31600002 29243.72472025  1668.64701154
0.31700002 28835.08152534  1512.97679927
0.31800002 28444.81600019  1361.08451005
0.31900002 28072.62142989  1886.48024941
0.32000002 27717.45239637  1468.05493569
0.32100002 27379.65126340  1322.43721864
0.32200002 27058.52059064  1704.28100010
0.32300002 26753.09838147  2080.32102865
0.32400002 26463.94939177  1548.14111273
0.32500002 26189.96649713  1408.75836459
0.32600002 25931.88044981  1780.74231481
0.32700002 25688.39954492  1390.25624920
0.32800002 25460.49664855  1507.77068292
0.32900002 25245.49051117  1249.65183948
0.33000002 25046.23357482  1492.25466705
0.33100002 24858.14855380  1237.93585660
0.33200002 24685.96574721  1726.28966645
0.33300002 24525.42291285  1597.34086996
0.33400002 24378.38308845  1592.51795067
0.33500002 24243.32391621  2077.16809151
0.33600002 24120.39161125  1463.14302443
0.33700002 24008.65958655  1460.68691842
0.33800002 23909.79238789  1215.81300050
0.33900002 23821.10754734  1214.87654245
0.34000002 23743.83767624  1335.94709012
0.34100002 23677.24091729  1579.03527155
0.34200002 23622.12452959  1215.35836461
0.34300002 23575.49280850  1703.09368114
0.34400002 23539.85407608  1461.82500736
0.34500002 23513.20047368  1708.46922733
0.34600002 23497.18974398  1223.02878410
0.34700002 23488.13700298  1348.68889059
0.34800002 23489.69762929  1598.59144787
0.34900002 23499.21502552  1357.07973200
0.35000002 23517.24916117  1485.81987237
0.35100002 23543.50159076  1491.71633144
0.35200002 23576.59389480  1373.21877644
0.35300002 23617.94872860  1379.52445058
0.35400002 23667.04994602  1260.27046932
0.35500002 23722.77996888  1646.83546344
0.35600002 23785.29112310  1528.44287996
0.35700002 23854.56298508  1793.38613016
0.35800002 23930.85300372  1288.67649529
0.35900002 24012.79346681  1426.35999949
0.36000002 24101.49436195  1566.11517782
0.36100002 24195.32297567  1970.70914971
0.36200002 24295.67926074  1322.89979841
0.36300002 24399.90782327  1465.45853328
0.36400002 24510.02682806  1341.92403240
0.36500002 24624.71691873  1487.08672516
0.36600002 24744.71973283  1770.85595156
0.36700002 24868.92814905  2059.14734828
0.36800002 24998.91745528  1798.79719070
0.36900002 25131.99113338  1534.30813137
0.37000002 25268.25552616  1406.17848664
0.37100002 25408.87691004  1417.81539874
0.37200002 25553.73553229  1572.70472783
0.37300002 25701.28114084  1586.02613433
0.37400002 25853.30471699  2181.37268883
0.37500002 26007.13764508  2346.88421227
0.37600002 26165.18371821  1775.56945123
0.37700002 26324.74837845  1492.61330377
0.37800002 26487.82420700  1656.41616525
0.37900002 26653.25013457  2278.85299446
0.38000002 26821.06319666  1686.10621773
0.38100002 26990.48183064  1701.21015038
0.38200002 27162.29134779  1560.47371186
0.38300002 27335.77824207  1731.99499147
0.38400002 27511.45077689  2065.42226492
0.38500002 27687.83032287  2244.37563230
0.38600002 27866.60046749  2588.24997404
0.38700002 28045.64690585  1795.48239997
0.38800002 28225.90239738  2305.77407608
0.38900002 28407.34778729  2160.37890157
0.39000002 28590.35161251  2179.87146197
0.39100002 28773.17120898  2537.79382086
0.39200002 28957.35638963  2048.44348805
0.39300002 29141.39291313  2411.15896387
0.39400002 29326.85099515  2085.13920454
0.39500002 29511.46294975  2103.57717872
0.39600002 29696.44002422  3006.31924828
0.39700002 29880.98802111  2140.67408325
0.39800002 30066.81051430  2519.29817235
0.39900002 30251.32723512  1815.07972010
0.40000002 30435.32311632  2013.75324940
0.40100002 30619.14031903  2584.86794820
0.40200002 30803.37996373  2234.47728844
0.40300002 30985.88814248  1877.74491040
0.40400002 31167.93134441  2461.48749455
0.40500002 31349.11395694  2100.07724348
0.40600002 31529.75296164  2117.38066046
0.40700002 31709.14047687  2716.83928479
0.40800002 31887.52728445  2151.92988075
0.40900002 32064.18872960  1971.94770030
0.41000002 32240.44505083  2981.43529734
0.41100002 32414.99213394  2203.57126968
0.41200002 32587.41402630  3230.06463134
0.41300002 32759.03061331  2237.76948723
0.41400002 32928.62857015  2049.80722562
0.41500002 33097.29755381  2478.32575826
0.41600002 33262.91829130  3120.89345656
0.41700002 33427.61417322  2515.09380957
0.41800002 33591.28123681  2322.33333835
0.41900002 33750.99774719  2551.57555059
0.42000002 33909.50781392  2997.93972789
0.42100002 34066.50411080  3450.25569983
0.42200002 34221.15784975  3039.86559584
0.42300002 34373.06441728  2404.73970058
0.42400002 34522.85329364  2200.83200176
0.42500002 34670.78395084  2437.00951938
0.42600002 34814.89877096  2452.88380914
0.42700002 34957.89417443  2693.15629482
0.42800002 35097.97127891  2258.55455882
0.42900002 35236.04626684  2499.99760110
0.43000002 35371.52286769  3201.47668646
0.43100002 35503.08310782  2300.59989441
0.43200002 35632.74389967  3008.65087374
0.43300002 35759.49999112  2560.73791571
0.43400002 35883.84619184  3043.84739747
0.43500002 36004.83286748  2590.18779923
0.43600002 36124.05658565  2604.72522354
0.43700002 36239.40986092  3333.30107697
0.43800002 36351.14336616  2393.72290410
0.43900002 36461.02810601  2887.71356284
0.44000002 36567.23826961  3628.38438925
0.44100002 36671.15912666  3646.94694798
0.44200002 36771.73062304  2443.48161570
0.44300002 36869.43851782  2701.05519382
0.44400002 36963.49403850  3947.70135040
0.44500002 37053.65274864  2478.88948636
0.44600002 37141.65578810  3237.45258020
0.44700002 37226.63033546  2751.79264481
0.44800002 37307.13752724  2512.63583154
0.44900002 37386.05390581  3532.98226153
0.45000002 37461.36583764  2534.26151902
0.45100002 37532.20280307  2799.15181771
0.45200002 37600.71183872  2554.96849053
0.45300002 37665.26764033  2821.50533266
0.45400002 37727.15522867  4892.26908614
0.45500002 37785.63412442  2584.53749660
0.45600002 37840.66277599  4150.36408997
0.45700002 37892.14438950  3123.82853152
0.45800002 37939.68180717  3134.57665947
0.45900002 37984.32083178  2883.01008777
0.46000002 38026.22716702  2892.46510655
0.46100002 38063.46771072  3692.91781232
0.46200002 38098.16983058  4233.46883222
0.46300002 38129.35103789  2919.18325382
0.46400002 38156.48818504  3193.69821245
0.46500002 38181.32617327  2935.76230860
0.46600002 38201.73253829  3478.84093848
0.46700002 38218.79442534  4024.43924373
0.46800002 38233.27988175  2958.68250388
0.46900002 38243.57587406  4044.25834036
0.47000002 38250.07658098  3242.84164624
0.47100002 38253.81426567  3791.71824973
0.47200002 38253.86814875  2714.11207379
0.47300002 38251.39710199  4079.51169429
0.47400002 38243.71439877  2997.35125807
0.47500002 38234.09424613  4094.87168785
0.47600002 38221.36201509  4649.05558906
0.47700002 38203.96078138  3287.06894143
