# SAXS profile: number of points = 501, q_min = 0, q_max = 0.5, delta_q = 0.001
#    q    intensity    error
0.00000000 1682732.95097189 277.65093691
0.00100000 1682663.63915556 656.23883486
0.00200000 1682455.64118178 1211.36810001
0.00300000 1682109.13944993 1412.97172747
0.00400000 1681623.98479987 1387.33984018
0.00500000 1681000.67331080 1512.90066586
0.00600000 1680238.87487862 2293.52615758
0.00700000 1679339.31897506 2418.24871983
0.00800000 1678301.38137967 3171.98974473
0.00900000 1677126.52095837 3270.39685567
0.01000000 1675813.79244807 3318.11145232
0.01100000 1674364.49240242 3315.24183930
0.01200000 1672778.09888966 4566.68441019
0.01300000 1671055.99118065 4211.06128350
0.01400000 1669197.35658269 7886.95785949
0.01500000 1667204.10334920 5201.67703407
0.01600000 1665075.03119659 5095.12982323
0.01700000 1662812.23268491 7183.34916743
0.01800000 1660415.25723399 6151.83880487
0.01900000 1657884.92452122 8455.21349658
0.02000000 1655221.81959409 7820.92345137
0.02100000 1652427.61207226 5998.31250378
0.02200000 1649500.46768138 6828.93224646
0.02300000 1646443.32630021 5927.19624448
0.02400000 1643256.00180176 7394.65234529
0.02500000 1639939.92443801 8314.49579663
0.02600000 1636495.22044636 6627.80594595
0.02700000 1632922.98586262 8229.93222569
0.02800000 1629223.09036474 8504.54492172
0.02900000 1625398.00015073 13165.72440571
0.03000000 1621448.32144149 15079.47008254
0.03100000 1617373.89116209 8539.73453828
0.03200000 1613176.11328001 7985.22212852
0.03300000 1608857.55545787 12307.76086665
0.03400000 1604416.38839137 8423.18642770
0.03500000 1599855.75751278 10367.06578741
0.03600000 1595175.64663082 10623.87029753
0.03700000 1590377.76666477 12691.21516492
0.03800000 1585463.19521138 12057.44815760
0.03900000 1580433.77532722 9482.60309110
0.04000000 1575287.98759035 11625.62588714
0.04100000 1570029.93229218 11869.42683847
0.04200000 1564659.96526802 12110.46869301
0.04300000 1559177.94682442 12348.68991205
0.04400000 1553587.98975963 14681.40718506
0.04500000 1547889.33182080 11748.48057441
0.04600000 1542082.53197780 14133.18706258
0.04700000 1536170.69065831 16590.64423071
0.04800000 1530154.00723950 13495.95897179
0.04900000 1524035.44044448 12573.29296892
0.05000000 1517814.31823435 18578.04812030
0.05100000 1511493.89508349 16505.51410321
0.05200000 1505072.73360858 14358.39454775
0.05300000 1498556.07017130 13352.13520767
0.05400000 1491942.32925620 14770.22974843
0.05500000 1485235.43240501 22456.76078556
0.05600000 1478433.80282176 13904.67056439
0.05700000 1471542.75944333 14082.66486523
0.05800000 1464560.51065100 18145.90557424
0.05900000 1457489.36137250 15740.88583801
0.06000000 1450331.94066628 18578.75302791
0.06100000 1443090.06950743 13420.73827359
0.06200000 1435763.98992426 17638.36144070
0.06300000 1428356.82277016 16454.67136766
0.06400000 1420866.73404353 13853.45130480
0.06500000 1413299.92525215 13991.66991450
0.06600000 1405654.46988904 16952.19370003
0.06700000 1397933.42559528 15684.81376921
0.06800000 1390139.40826839 15826.73790397
0.06900000 1382273.51351182 17416.64708568
0.07000000 1374335.29453113 23418.67451547
0.07100000 1366329.31648250 16231.99304008
0.07200000 1358254.60370666 19334.75518954
0.07300000 1350116.30361180 19482.17917397
0.07400000 1341913.19835266 22644.78628343
0.07500000 1333648.20338299 24325.74436991
0.07600000 1325321.24631807 18368.95333512
0.07700000 1316937.76096701 18489.80703094
0.07800000 1308495.84474205 15505.67648735
0.07900000 1299997.95623554 21839.96668913
0.08000000 1291447.90477078 23536.63916858
0.08100000 1282845.62638850 18934.80233388
0.08200000 1274192.49443817 15863.69730016
0.08300000 1265491.28017824 19134.22905430
0.08400000 1256742.66512331 27239.89854515
0.08500000 1247950.60203674 20928.13257863
0.08600000 1239114.34903939 19404.53161703
0.08700000 1230237.36752632 21110.87421807
0.08800000 1221318.45833597 26087.36349522
0.08900000 1212363.67974072 19640.29253430
0.09000000 1203371.58095668 22996.43199235
0.09100000 1194345.13306453 16481.96361063
0.09200000 1185285.36986953 18188.20485525
0.09300000 1176195.47397421 24876.53544356
0.09400000 1167073.88210714 23283.12504229
0.09500000 1157924.90478019 25011.17911884
0.09600000 1148749.79949031 28414.32762609
0.09700000 1139551.37869595 21776.82787067
0.09800000 1130330.46178954 26856.65303486
0.09900000 1121088.86143484 23542.86719718
0.10000000 1111826.76253748 25266.26436687
0.10100000 1102546.35441926 18555.85601759
0.10200000 1093250.29792172 16890.71789737
0.10300000 1083939.35355820 18600.40018204
0.10400000 1074616.41912479 16925.20939746
0.10500000 1065283.89170956 18631.81614262
0.10600001 1055938.38126698 16947.81181679
0.10700001 1046587.52031716 20345.66235238
0.10800001 1037228.46396350 25438.02927586
0.10900001 1027865.62480621 16959.78360753
0.11000001 1018499.04667692 23741.21389553
0.11100001 1009130.95666835 25430.10130512
0.11200001 999763.51606966 22029.79011369
0.11300001 990395.82547487 27097.23106075
0.11400001 981032.11515466 18615.08526154
0.11500001 971673.38159634 20288.54116308
0.11600001 962319.76908431 18577.58401702
0.11700001 952974.72972385 33735.30702099
0.11800001 943636.35837943 18528.30076943
0.11900001 934309.45734210 23544.59943401
0.12000001 924993.36832052 21825.21955360
0.12100001 915692.22729714 31838.62024298
0.12200001 906403.94937720 18395.46901924
0.12300001 897132.26268244 25029.99130811
0.12400001 887877.25827262 18312.46931471
0.12500001 878641.05944073 28230.73857008
0.12600001 869425.83007108 18218.81912767
0.12700001 860231.56861883 18168.09158543
0.12800001 851058.62620862 19761.58223191
0.12900001 841910.50388447 19700.70671943
0.13000001 832787.31655233 18000.69869574
0.13100001 823689.44605929 19570.86216089
0.13200001 814620.25903069 22752.34490728
0.13300001 805580.39932797 21049.81682679
0.13400001 796569.16355342 16130.52632244
0.13500001 787589.81961712 16066.83307771
0.13600001 778642.05877701 25601.75209973
0.13700001 769728.18726655 19120.04907327
0.13800001 760847.39697585 22209.13656501
0.13900001 752004.56041961 17371.30616489
0.14000001 743196.77015220 15718.61243002
0.14100001 734427.41943400 18771.96572607
0.14200001 725695.42859634 18679.40121309
0.14300001 717006.04291107 18584.79750886
0.14400001 708352.75104028 15406.67306186
0.14500001 699745.24533993 15324.42159583
0.14600001 691177.97824372 18288.57016708
0.14700001 682656.80965819 18185.97826725
0.14800001 674177.91701549 24108.60344989
0.14900001 665744.01847204 19473.01345906
0.15000001 657357.03228848 14889.13748385
0.15100001 649016.73032302 22196.37322438
0.15200001 640725.44124473 17645.57948452
0.15300001 632482.60979184 14610.34897564
0.15400001 624287.32534272 17417.61719902
0.15500001 616143.92015157 18743.09893555
0.15600001 608049.65061306 18615.44093207
0.15700001 600010.50317034 19908.34943480
0.15800001 592018.76162354 22591.43700984
0.15900001 584083.44385148 15419.80364550
0.16000001 576199.34538720 16698.25781752
0.16100001 568372.77547972 20717.18864418
0.16200001 560598.49170025 16447.96052293
0.16300001 552880.85057925 16321.04347958
0.16400001 545219.07388061 16193.00725872
0.16500001 537614.12518600 16063.91081896
0.16600001 530065.83122038 15933.77963877
0.16700001 522574.95458076 18436.44526808
0.16800001 515140.84467409 16976.46733780
0.16900001 507767.99623153 16832.50986987
0.17000001 500452.75588520 20538.58207135
0.17100001 493197.06630571 19086.72736733
0.17200001 486001.69085664 12611.74447329
0.17300001 478866.34097603 13748.25329868
0.17400001 471792.35760138 18576.82495786
0.17500001 464778.67306706 15951.20481300
0.17600001 457824.62751476 15801.81776498
0.17700001 450934.53519050 15651.93845571
0.17800001 444105.51911154 15501.50387676
0.17900001 437338.33775802 12988.94924493
0.18000001 430634.60782694 12860.90317024
0.18100001 423994.31951231 15047.55911029
0.18200001 417414.27718470 16041.23142996
0.18300001 410899.84929834 14743.08728928
0.18400001 404447.12137099 14590.43059272
0.18500001 398058.99694275 13327.01584724
0.18600001 391734.20949744 12086.95960507
0.18700001 385472.56481287 14131.42489368
0.18800001 379274.56084123 12902.92116943
0.18900001 373142.67388080 12761.48004967
0.19000001 367070.59405812 14723.20222332
0.19100001 361067.69004211 11438.62496101
0.19200001 355125.61675614 12337.06450905
0.19300001 349249.72297432 16261.06787006
0.19400001 343436.90528436 13059.18894053
0.19500001 337688.95818122 20848.91726333
0.19600001 332004.25682683 11772.87150342
0.19700001 326384.57049802 12601.70886245
0.19800001 320828.99570846 9576.74597448
0.19900001 315338.26506998 9460.14839919
0.20000001 309909.49350958 10278.14883800
0.20100001 304546.59097074 10150.53835679
0.20200001 299246.46933664 14579.28867515
0.20300001 294010.81511759 10796.07764139
0.20400001 288838.80364547 10658.15235828
0.20500001 283729.43047455 10520.68777928
0.20600001 278683.99129917 10383.76600663
0.20700001 273701.60900788 12809.23590705
0.20800001 268782.06689726 10111.58183465
0.20900001 263927.44070386 9145.08625269
0.21000001 259133.20364515 10662.03616800
0.21100001 254401.46326128 12134.95037122
0.21200001 249732.10181757 11170.51744238
0.21300001 245124.46675927 10229.04448145
0.21400001 240579.61504953 7758.69295215
0.21500001 236096.73980153 7649.53473122
0.21600001 231673.19498317 7540.96285323
0.21700001 227311.84182063 11892.95612635
0.21800001 223010.90093717 12454.04435167
0.21900001 218769.43469766 8663.27002364
0.22000001 214587.77172530 7824.94346595
0.22100001 210468.35965238 8410.31604938
0.22200001 206407.05605010 6904.31635134
0.22300001 202404.80319129 8160.96205057
0.22400001 198459.53276017 8037.61145686
0.22500001 194575.99084282 11213.41488252
0.22600001 190748.63670579 7793.98966436
0.22700001 186980.06226054 7034.19027488
0.22800001 183268.12921736 7554.31264358
0.22900001 179612.77642786 6196.64107981
0.23000001 176014.13696711 6098.89013434
0.23100001 172473.60745086 8402.91455240
0.23200001 168986.56145337 6496.68866233
0.23300001 165556.35534792 5811.02834754
0.23400001 162180.98544152 6288.56800792
0.23500001 158859.07021625 8435.41702745
0.23600001 155592.23246537 7190.69536349
0.23700001 152379.13417086 5983.92888192
0.23800001 149219.21946012 5884.46019774
0.23900001 146112.50149580 6838.06539344
0.24000001 143057.87570199 5171.54245124
0.24100001 140056.44707650 5592.45419629
0.24200001 137106.01116363 5497.26577764
0.24300001 134206.84058033 6385.56177687
0.24400001 131357.76096931 6275.61732717
0.24500001 128559.39041883 7115.76259629
0.24600001 125810.78457784 5127.41876802
0.24700001 123112.42298300 6869.67352743
0.24800001 120461.73965907 4499.24618911
0.24900001 117859.59729486 6629.60266147
0.25000001 115305.84697114 5209.51841261
0.25100001 112798.95439602 5116.56081346
0.25200001 110340.02017438 4606.14436009
0.25300001 107927.82249080 6168.07534716
0.25400001 105560.78872353 6056.55053955
0.25500001 103239.57830649 5550.15999235
0.25600001 100963.88794445 5449.02129017
0.25700001 98732.60794615  5349.33295162
0.25800001 96545.16553069  4876.01381583
0.25900001 94401.92361563  4049.84271473
0.26000001 92302.18963326  4336.35707415
0.26100001 90243.12798899  4965.17713689
0.26200001 88228.91253970  3828.69384082
0.26300001 86254.97169094  3757.26674464
0.26400001 84321.97430203  4357.33822824
0.26500001 82430.84898152  3617.89013299
0.26600001 80578.98912792  3872.62640074
0.26700001 78767.82489388  3799.76005269
0.26800001 76995.88526351  3417.46252914
0.26900001 75262.24335605  3352.93310018
0.27000001 73567.42243673  3289.56744993
0.27100001 71910.35058139  3520.73093108
0.27200001 70291.11462600  2878.42128015
0.27300001 68708.24731636  3106.30000818
0.27400001 67160.70724475  3324.45516594
0.27500001 65651.32718780  2989.76158162
0.27600001 64175.48169441  2933.14052966
0.27700001 62736.14421284  2877.70707124
0.27800001 61330.27594698  3336.67382081
0.27900001 59959.09689851  3525.59506449
0.28000001 58621.02980956  3212.13948044
0.28100001 57316.07632056  2666.91715742
0.28200001 56044.17339606  2854.89032792
0.28300001 54804.37450970  2568.13311107
0.28400001 53596.32672128  2520.36738336
0.28500001 52419.89112952  3148.33881025
0.28600001 51273.30306280  2648.77896160
0.28700001 50157.76177415  2600.17849345
0.28800001 49071.37264576  3190.86615732
0.28900001 48016.06681298  2715.30870680
0.29000001 46988.15391985  2256.13631725
0.29100001 45990.05632130  2014.36456222
0.29200001 45019.46526845  2374.32671065
0.29300001 44076.56147159  2915.66467936
0.29400001 43160.61087719  2864.78568258
0.29500001 42272.65926848  2252.28739244
0.29600001 41409.90095065  1844.81117468
0.29700001 40572.98704917  2176.33512834
0.29800001 39762.04613119  1783.32785340
0.29900001 38976.33952463  1753.93536164
0.30000001 38215.01751304  1897.94893463
0.30100001 37478.88582789  2376.91105173
0.30200001 36765.26249000  2172.27563706
0.30300001 36075.58457536  2632.07477522
0.30400001 35409.78212392  1781.99736975
0.30500001 34765.26500099  2393.58860864
0.30600001 34143.45978654  1572.30639761
0.30700001 33543.92849587  1859.67548385
0.30800001 32965.41638358  1680.74183389
0.30900001 32408.06006643  1959.06732377
0.31000001 31872.11515988  1635.51766686
0.31100001 31354.79245754  1907.62566343
0.31200001 30858.50094824  1593.68735693
0.31300001 30381.31111284  1860.24776751
0.31400001 29924.50339549  1413.93285238
0.31500001 29485.50625767  1537.37436907
0.31600002 29065.11977415  1934.86511498
0.31700002 28662.40498385  1777.35581720
0.31800002 28277.70066387  1759.01445308
0.31900002 27910.69307608  1741.62733041
0.32000002 27560.29036344  1592.43365260
0.32100002 27226.96148837  2104.09968345
0.32200002 26910.05265909  1434.17132437
0.32300002 26608.50710424  1810.44290910
0.32400002 26322.86178402  1283.23957273
0.32500002 26052.08968331  2038.31559334
0.32600002 25796.92663263  2024.54289800
0.32700002 25556.11706798  1508.83322314
0.32800002 25330.49241151  1500.07183164
0.32900002 25117.49809244  1491.97945734
0.33000002 24919.89832077  1361.00031124
0.33100002 24733.33241026  1354.89201359
0.33200002 24562.26772360  1472.26239707
0.33300002 24402.63287543  1344.82916145
0.33400002 24256.28447855  1950.20536443
0.33500002 24121.66266567  1215.73185592
0.33600002 23998.81802809  1455.76837052
0.33700002 23886.91672323  1574.38675579
0.33800002 23787.79944174  1330.57062479
0.33900002 23698.40658190  1450.34255150
0.34000002 23620.42596105  1329.00332964
0.34100002 23552.81441054  1449.91132378
0.34200002 23496.39112127  1571.55619457
0.34300002 23448.33822291  1330.92774056
0.34400002 23410.95708578  1211.51708657
0.34500002 23382.45768938  1334.90457271
0.34600002 23364.36807002  1337.72695720
0.34700002 23353.07438306  1462.83664864
0.34800002 23352.19573692  1344.73625520
0.34900002 23359.12531974  1716.89579232
0.35000002 23374.27657423  1599.85243590
0.35100002 23397.58656229  1358.93189190
0.35200002 23427.60594718  1240.49179366
0.35300002 23465.62772424  1744.43484764
0.35400002 23511.29034053  1377.17389692
0.35500002 23563.49202930  1635.77769415
0.35600002 23622.20848663  2023.95091900
0.35700002 23687.65161500  2035.24312316
0.35800002 23759.92577494  1791.26088902
0.35900002 23837.72034625  1673.40804757
0.36000002 23922.24324299  2202.16220604
0.36100002 24011.66028084  1825.36650101
0.36200002 24107.59952580  1837.72239890
0.36300002 24207.17799444  1718.22557543
0.36400002 24312.60929081  1464.22696390
0.36500002 24422.52634785  1877.11546401
0.36600002 24537.69436413  1620.96016648
0.36700002 24656.87578765  1497.16556874
0.36800002 24781.83146060  1508.84187995
0.36900002 24909.86341734  1935.49647921
0.37000002 25040.89693220  1393.52598029
0.37100002 25176.32333069  1685.80669008
0.37200002 25315.78441595  1841.34366672
0.37300002 25457.93398005  1713.82819672
0.37400002 25604.52871959  1872.33125131
0.37500002 25752.93059110  1597.71188956
0.37600002 25905.43396188  1757.94283193
0.37700002 26059.44308867  1477.57049312
0.37800002 26216.88146314  2235.64467268
0.37900002 26376.64708339  1653.81585047
0.38000002 26538.74459994  2578.37185375
0.38100002 26702.56875648  2142.08016712
0.38200002 26868.57388049  1543.59964256
0.38300002 27036.37630957  2491.67255873
0.38400002 27206.28952133  2042.51228258
0.38500002 27376.83782969  2694.70227524
0.38600002 27549.82943077  2238.97474391
0.38700002 27723.22080339  1936.18983264
0.38800002 27897.67000186  1953.39494607
0.38900002 28073.29794983  1970.74560944
0.39000002 28250.59170752  2153.96646679
0.39100002 28427.70944801  1838.70433421
0.39200002 28606.07856861  2023.59409381
0.39300002 28784.40836933  1871.27447675
0.39400002 28964.22318009  2059.35636567
0.39500002 29143.26436803  1904.22098402
0.39600002 29322.60035711  1920.77702739
0.39700002 29501.60692393  2113.49522016
0.39800002 29681.76647133  1954.09918822
0.39900002 29860.76052365  2149.97485957
0.40000002 30039.41931531  2168.24538891
0.40100002 30217.71055343  1822.12803270
0.40200002 30396.63881614  2021.22459384
0.40300002 30573.86320527  2779.16429704
0.40400002 30750.57200852  2615.33627324
0.40500002 30926.49199678  2071.76579703
0.40600002 31102.01501408  2088.65591723
0.40700002 31276.26819659  2488.34001562
0.40800002 31449.78632113  2508.27782689
0.40900002 31621.38134568  2722.60106286
0.41000002 31792.82692646  2156.03066017
0.41100002 31962.48436502  2567.86611556
0.41200002 32130.21552205  2985.70041886
0.41300002 32297.12144028  2807.91187106
0.41400002 32462.21618674  2222.85035871
0.41500002 32626.34234959  2239.47224499
0.41600002 32787.57141157  2050.86268897
0.41700002 32947.91212264  2685.58444437
0.41800002 33107.34220235  3121.19483402
0.41900002 33262.90155237  2933.78805593
0.42000002 33417.34107996  3376.48830271
0.42100002 33570.38026406  2550.00620569
0.42200002 33721.19402733  3209.41479363
0.42300002 33869.26243798  2800.31075107
0.42400002 34015.38403137  2385.32891823
0.42500002 34159.72098317  2619.36752911
0.42600002 34300.41799579  3295.41281510
0.42700002 34440.07970754  2653.26386640
0.42800002 34576.84250884  2447.52191297
0.42900002 34711.73212903  3582.25092547
0.43000002 34844.14035117  3153.74329263
0.43100002 34972.72122722  3172.72542008
0.43200002 35099.56875740  2963.63222847
0.43300002 35223.61486552  3668.89189825
0.43400002 35345.35189536  3459.42648069
0.43500002 35463.85868975  3247.07105551
0.43600002 35580.67583216  2332.31341132
0.43700002 35693.68551277  2345.07524932
0.43800002 35803.30978104  2593.41286689
0.43900002 35911.16954818  2607.15103275
0.44000002 36015.41377178  3097.14565408
0.44100002 36117.57330679  4070.81188032
0.44200002 36216.43258688  2887.89847134
0.44300002 36312.52247556  2660.25552263
0.44400002 36405.22729720  2430.04903725
0.44500002 36493.97396436  3173.88106609
0.44600002 36580.73058045  2943.28572199
0.44700002 36664.56194896  3203.01628366
0.44800002 36744.19722750  2722.19398061
0.44900002 36822.26169257  2982.60333845
0.45000002 36896.83067602  2995.28485623
0.45100002 36967.01543547  2506.36376531
0.45200002 37035.02845352  3019.83636322
0.45300002 37099.22305596  3031.74865182
0.45400002 37160.86503299  2536.22915870
0.45500002 37219.22290036  2800.37446374
0.45600002 37274.19516605  3066.17543968
0.45700002 37325.80390305  2820.71113464
0.45800002 37373.63614668  2830.49246772
0.45900002 37418.57753190  4389.19935251
0.46000002 37460.96314151  3108.51086881
0.46100002 37498.88693920  2598.67298805
0.46200002 37534.29697632  2867.43275341
0.46300002 37566.27862516  3137.53573948
0.46400002 37594.36069803  2884.42746126
0.46500002 37620.26303957  3944.48476665
0.46600002 37641.89129841  3691.54045460
0.46700002 37660.23989448  3172.49875907
0.46800002 37676.18972824  3445.67609491
0.46900002 37687.94023818  3188.39989527
0.47000002 37696.22327391  3994.85745080
0.47100002 37701.72002758  2936.21009492
0.47200002 37703.67148568  3477.59830431
0.47300002 37703.09210983  3484.89696889
0.47400002 37697.59498903  3491.73990136
0.47500002 37690.12126640  2960.18226457
0.47600002 37679.75334962  2965.58512794
0.47700002 37664.84202553  2970.62623136
