# SAXS profile: number of points = 501, q_min = 0, q_max = 0.5, delta_q = 0.001
#    q    intensity    error
0.00000000 1682732.95097189 302.89193117
0.00100000 1682663.64517316 757.19865831
0.00200000 1682455.66572213 757.10507355
0.00300000 1682109.19361482 1110.19210733
0.00400000 1681624.07323175 1387.33991313
0.00500000 1681000.82237078 1815.48096002
0.00600000 1680239.09278336 1764.25111925
0.00700000 1679339.60187854 2015.20760601
0.00800000 1678301.75905978 2718.84896447
0.00900000 1677127.00705611 2767.25967994
0.01000000 1675814.37433196 3041.60322075
0.01100000 1674365.21869140 3616.62902984
0.01200000 1672778.93317450 4566.68668779
0.01300000 1671056.97976204 3509.21981227
0.01400000 1669198.50162093 5633.54519271
0.01500000 1667205.43697991 6802.19848577
0.01600000 1665076.52897875 4670.53987257
0.01700000 1662813.92775908 6285.43692889
0.01800000 1660417.16098113 6151.84585825
0.01900000 1657887.02007800 5471.02741312
0.02000000 1655224.14354993 8342.33006086
0.02100000 1652430.15135272 6543.62369603
0.02200000 1649503.25976599 6828.94380569
0.02300000 1646446.40204647 8298.09024403
0.02400000 1643259.33506055 7394.66734495
0.02500000 1639943.54625565 7674.93614700
0.02600000 1636499.14700720 7953.38621823
0.02700000 1632927.20943891 8915.78297189
0.02800000 1629227.61339510 11339.42470925
0.02900000 1625402.83788747 10971.46965949
0.03000000 1621453.50156173 8293.73504171
0.03100000 1617379.44722012 10092.44821504
0.03200000 1613182.01593573 7985.25134667
0.03300000 1608863.79707180 9846.24689200
0.03400000 1604422.99048724 9265.54319758
0.03500000 1599862.72185009 9503.18500663
0.03600000 1595183.02011489 10623.91940494
0.03700000 1590385.52237697 11784.75726583
0.03800000 1585471.39783066 9275.00810655
0.03900000 1580442.36530781 12327.45102029
0.04000000 1575297.00246037 10656.88471547
0.04100000 1570039.45392741 10880.37392020
0.04200000 1564669.91453125 12110.54570031
0.04300000 1559188.32907745 12348.77213950
0.04400000 1553598.82669274 12584.15108064
0.04500000 1547900.64709859 18156.87543412
0.04600000 1542094.30907433 13046.11846124
0.04700000 1536182.94953843 13272.62130129
0.04800000 1530166.76969693 12371.39890862
0.04900000 1524048.69491410 16002.51204148
0.05000000 1517828.10886122 15094.80124553
0.05100000 1511508.22425511 12968.74116825
0.05200000 1505087.53080336 14358.53571299
0.05300000 1498571.43074640 15779.95790139
0.05400000 1491958.28578373 18462.98464757
0.05500000 1485251.86476526 13723.72787063
0.05600000 1478450.82685614 15168.90619139
0.05700000 1471560.30346707 14082.83276155
0.05800000 1464578.61971213 22034.58636242
0.05900000 1457508.08055807 14429.33067146
0.06000000 1450351.20347634 17251.92837134
0.06100000 1443109.87042369 16105.10690654
0.06200000 1435784.38745835 18995.42833399
0.06300000 1428377.84663916 13712.42796886
0.06400000 1420888.35077948 13853.66206799
0.06500000 1413322.12471706 23786.21247165
0.06600000 1405677.23767252 16952.46827951
0.06700000 1397956.88455593 18536.90915672
0.06800000 1390163.45928867 14388.19247714
0.06900000 1382298.22766589 15965.54527703
0.07000000 1374360.62595900 16100.63548708
0.07100000 1366355.30601382 17707.96559534
0.07200000 1358281.18695014 19335.13360202
0.07300000 1350143.48480415 17983.91206024
0.07400000 1341941.08650575 21135.57310297
0.07500000 1333676.67934513 21285.48080005
0.07600000 1325350.32419554 19900.13605073
0.07700000 1316967.50549067 21571.92875141
0.07800000 1308526.23837742 23259.05497792
0.07900000 1300028.85809954 18720.41643469
0.08000000 1291479.60891762 18829.77358134
0.08100000 1282877.97823435 18935.27984715
0.08200000 1274225.54994954 19036.93060956
0.08300000 1265525.03720232 17540.17783882
0.08400000 1256777.00537925 22433.47059902
0.08500000 1247985.56291134 24148.52177599
0.08600000 1239149.96872096 24256.36177659
0.08700000 1230273.58623191 17863.57331092
0.08800000 1221355.38336642 26088.15221390
0.08900000 1212401.28218562 16367.41807828
0.09000000 1203409.85210637 16426.54525290
0.09100000 1194384.12660859 26372.00275451
0.09200000 1185324.99612599 24802.92670934
0.09300000 1176235.70859857 18243.41669766
0.09400000 1167114.71669190 21620.80114284
0.09500000 1157966.53167235 18342.19072382
0.09600000 1148792.05870824 20057.91028792
0.09700000 1139594.18356013 25128.05292884
0.09800000 1130373.98390177 21821.87078524
0.09900000 1121132.96268762 23543.79332353
0.10000000 1111871.55003854 21898.31120782
0.10100000 1102591.61964258 16869.65257394
0.10200000 1093296.29531433 18580.57141283
0.10300000 1083986.02537244 18601.20107041
0.10400000 1074663.77618550 22003.74185257
0.10500000 1065331.85817365 25408.16601288
0.10600001 1055986.97275952 25422.88756542
0.10700001 1046636.78587224 16955.51672902
0.10800001 1037278.24372794 18655.45009140
0.10900001 1027915.98566043 20352.73747399
0.11000001 1018550.10617921 18654.74607274
0.11100001 1009182.55551787 25431.40159619
0.11200001 999815.78884722 22030.94194440
0.11300001 990448.57496187 27098.67428678
0.11400001 981085.54359573 18616.09906626
0.11500001 971727.33796598 20289.66777213
0.11600001 962374.26920457 18578.63614189
0.11700001 953029.91564430 20242.35636160
0.11800001 943691.97150719 16844.90248477
0.11900001 934365.67593537 21864.15784673
0.12000001 925050.07991769 25184.48961207
0.12100001 915749.57211170 28488.97053046
0.12200001 906461.81427473 20069.06551352
0.12300001 897190.65011782 18356.52156627
0.12400001 887936.11876075 24973.20451682
0.12500001 878700.38128712 21589.66938554
0.12600001 869485.76605354 19876.44554863
0.12700001 860291.92201494 16517.60568110
0.12800001 851119.54191142 19762.99669460
0.12900001 841971.81222234 24627.67666826
0.13000001 832849.17679433 24548.23064309
0.13100001 823751.68208284 21203.36929629
0.13200001 814683.07258800 16252.92806430
0.13300001 805643.53658287 19432.12301847
0.13400001 796632.80718709 17744.99661669
0.13500001 787653.91108739 24102.21081565
0.13600001 778706.59945795 20803.14778540
0.13700001 769793.16901189 19121.66321990
0.13800001 760912.76036900 22211.04452255
0.13900001 752070.32312614 18952.17303653
0.14000001 743262.88234061 22008.01498402
0.14100001 734493.85607581 18773.66384672
0.14200001 725762.27736465 26464.92269233
0.14300001 717073.15923549 20135.41526107
0.14400001 708420.27884492 18489.77015001
0.14500001 699813.08879566 21456.27031461
0.14600001 691246.13871270 19814.57150094
0.14700001 682725.25615588 19703.45182220
0.14800001 674246.58209824 24111.05891336
0.14900001 665813.01251266 17976.95218601
0.15000001 657426.30441554 17868.84779712
0.15100001 649086.38334020 19238.92130999
0.15200001 640795.27084133 29412.50431951
0.15300001 632552.71284297 16073.16519182
0.15400001 624357.62706863 15967.94706582
0.15500001 616214.44609367 15861.36059100
0.15600001 608120.40634373 15753.35986981
0.15700001 600081.42386137 17066.31650009
0.15800001 592089.97850102 19769.88531526
0.15900001 584154.80089228 21029.57382473
0.16000001 576270.78051849 19483.71600901
0.16100001 568444.36404629 13813.19869837
0.16200001 560670.24059811 16450.06563569
0.16300001 552952.77721589 17683.43065016
0.16400001 545291.00145684 18894.33409247
0.16500001 537686.14753550 17404.90141743
0.16600001 530137.95248180 18591.93887132
0.16700001 522647.10872464 15804.84931405
0.16800001 515213.09016449 14366.71769758
0.16900001 507840.23814454 15539.91202099
0.17000001 500525.16755952 12838.47115413
0.17100001 493269.46930136 16544.25878161
0.17200001 486074.09915644 16397.71050939
0.17300001 478938.71988233 15000.36141510
0.17400001 471864.68349242 16102.38308463
0.17500001 464851.00278370 18408.10057960
0.17600001 457896.87143548 18235.74376618
0.17700001 451006.80848891 13246.07059094
0.17800001 444177.72927513 20274.49341037
0.17900001 437410.44783630 11810.08264941
0.18000001 430706.57469053 12863.05246072
0.18100001 424066.18832734 11577.00748819
0.18200001 417485.96649472 20627.98257893
0.18300001 410971.43008955 19282.78041071
0.18400001 404518.55648237 12347.92951995
0.18500001 398130.30130480 18883.32108297
0.18600001 391805.35527421 18683.23924891
0.18700001 385543.56199920 10872.32896204
0.18800001 379345.33197124 18282.54913813
0.18900001 373213.19187421 12763.89176516
0.19000001 367140.86662224 12622.30359086
0.19100001 361137.68777402 10400.76589933
0.19200001 355195.40214939 13367.77959154
0.19300001 349319.20024318 14231.26489037
0.19400001 343506.18844085 11052.31213535
0.19500001 337757.91412635 14895.12471684
0.19600001 332072.99092744 14719.13601843
0.19700001 326452.91703801 15513.04335075
0.19800001 320896.96572603 9578.77487960
0.19900001 315405.92883394 14193.26746830
0.20000001 309976.87860914 9345.80333176
0.20100001 304613.58808833 9229.79215530
0.20200001 299313.08113925 10025.49212660
0.20300001 294076.96477356 10798.50665687
0.20400001 288904.64248677 11548.96362928
0.20500001 283794.75924877 12276.96186540
0.20600001 278748.96996796 13848.24948259
0.20700001 273766.08100097 9395.65234408
0.20800001 268846.06895457 10113.98959216
0.20900001 263990.98385437 11642.00293831
0.21000001 259196.27160438 9023.91862249
0.21100001 254464.06583192 11328.74074639
0.21200001 249794.24116100 11971.38957358
0.21300001 245186.06874164 8657.52049656
0.21400001 240640.71443052 13193.12779238
0.21500001 236157.28318336 10712.09487164
0.21600001 231733.20113045 8297.20765876
0.21700001 227371.31187690 14126.58027481
0.21800001 223069.82710734 10258.98183372
0.21900001 218827.72474395 11554.10441278
0.22000001 214645.53181115 10673.24957397
0.22100001 210525.46934866 8412.59815295
0.22200001 206463.54037848 10359.30862832
0.22300001 202460.72552934 9523.75297923
0.22400001 198514.79049018 7369.86194544
0.22500001 194630.64196290 7917.57488945
0.22600001 190802.63805723 7796.19615969
0.22700001 187033.33268218 7036.19430824
0.22800001 183320.77483320 8186.18958730
0.22900001 179664.63444120 6818.27319949
0.23000001 176065.43247783 9761.06803819
0.23100001 172524.11062093 6604.22326690
0.23200001 169036.43041483 7089.38822688
0.23300001 165605.53662925 6975.30553272
0.23400001 162229.45359180 6862.30621149
0.23500001 158906.79720254 6187.83097573
0.23600001 155639.22596191 7746.16464249
0.23700001 152425.31346817 5441.58394819
0.23800001 149264.68999121 7491.59514500
0.23900001 146157.21073914 7366.32376968
0.24000001 143101.82913255 5690.44450462
0.24100001 140099.65434486 6102.74123193
0.24200001 137148.38790197 5498.96487304
0.24300001 134248.41052709 4913.49205771
0.24400001 131398.53836174 5794.67581586
0.24500001 128599.35243772 6168.91122825
0.24600001 125850.00310173 6061.56568614
0.24700001 123150.77278837 5039.32986089
0.24800001 120499.27107459 5850.84238381
0.24900001 117896.23392193 4421.10898122
0.25000001 115341.65610532 4776.87491359
0.25100001 112833.92376507 4691.63477211
0.25200001 110374.18851165 5026.44078262
0.25300001 107961.09382792 5347.31323028
0.25400001 105593.27485034 6058.41443117
0.25500001 103271.14877201 5155.29599061
0.25600001 100994.63134954 3893.34322273
0.25700001 98762.41545458  5733.15848839
0.25800001 96574.12175827  4127.09528861
0.25900001 94429.98960583  4787.60069954
0.26000001 92329.41461333  3976.16642846
0.26100001 90269.43339777  4611.86557051
0.26200001 88254.32871956  5222.45014909
0.26300001 86279.49168455  3758.33483561
0.26400001 84345.62537982  4693.83427449
0.26500001 82453.53977481  4276.86531050
0.26600001 80600.82781968  5487.70762178
0.26700001 78788.74274295  3167.30760814
0.26800001 77015.92206977  4350.62964360
0.26900001 75281.34440185  3963.56297032
0.27000001 73585.59482099  3290.38002813
0.27100001 71927.62634621  4108.50621132
0.27200001 70307.46384996  3166.99985899
0.27300001 68723.64705913  3954.35883892
0.27400001 67175.18564970  3048.07419310
0.27500001 65664.89826034  2990.37960830
0.27600001 64188.10027374  3467.12040037
0.27700001 62747.86144379  3401.56172985
0.27800001 61341.08920208  2823.83717506
0.27900001 59969.00513470  2518.69833486
0.28000001 58630.03354227  3459.75844307
0.28100001 57324.12015151  3394.73455604
0.28200001 56051.30082975  2855.25339941
0.28300001 54810.59958813  2801.91798356
0.28400001 53601.62848263  2291.46972609
0.28500001 52424.28056869  2923.70226570
0.28600001 51276.79324046  2648.95926418
0.28700001 50160.33680405  2166.92665250
0.28800001 49073.06939986  2340.04942509
0.28900001 48016.81597059  2506.47791231
0.29000001 46988.05461862  3076.54302178
0.29100001 45989.00522840  2014.31852435
0.29200001 45017.52009362  2176.37211195
0.29300001 44073.69798400  2526.74522503
0.29400001 43156.86218787  2864.53686332
0.29500001 42268.01409246  2439.70988891
0.29600001 41404.39135633  2213.47886669
0.29700001 40566.55579572  2175.99015589
0.29800001 39754.81888024  2317.90482454
0.29900001 38968.15363273  2104.28039578
0.30000001 38205.99613994  2587.50121107
0.30100001 37468.97983352  2376.28281354
0.30200001 36754.51274991  2338.68975699
0.30300001 36063.99676465  1808.97016335
0.30400001 35397.33991411  2105.25689106
0.30500001 34751.97111070  1754.62710445
0.30600001 34129.30206672  1571.65443458
0.30700001 33528.95041145  1858.84509881
0.30800001 32949.64754255  2290.82435385
0.30900001 32391.43482440  1506.20179064
0.31000001 31854.62013879  2080.42533976
0.31100001 31336.56938192  1613.20666816
0.31200001 30839.47836803  1592.70493572
0.31300001 30361.46574150  2002.03514578
0.31400001 29903.94071531  1695.55351884
0.31500001 29464.03991417  1675.91466967
0.31600002 29042.93989691  1795.28941473
0.31700002 28639.42519630  2049.15096982
0.31800002 28253.97209682  2027.92894327
0.31900002 27886.26946550  1472.39509749
0.32000002 27535.11978421  1458.39768843
0.32100002 27201.05107724  2102.09732678
0.32200002 26883.39440536  1823.50072886
0.32300002 26581.10334698  1550.21002060
0.32400002 26294.80630982  1281.87186830
0.32500002 26023.32986604  1272.54089071
0.32600002 25767.48262325  1263.89508252
0.32700002 25525.99871303  1758.23087461
0.32800002 25299.66338933  1373.39229212
0.32900002 25086.02511730  2110.98911358
0.33000002 24887.79768256  1482.81505614
0.33100002 24700.57376965  1599.11522157
0.33200002 24528.87879609  1715.30457544
0.33300002 24368.62390863  1709.21536189
0.33400002 24221.66057625  1460.56620191
0.33500002 24086.39337056  1699.53599671
0.33600002 23963.00614422  1816.99502693
0.33700002 23850.53421621  1209.22214203
0.33800002 23750.84765252  1811.59599049
0.33900002 23660.88972966  1206.70543336
0.34000002 23582.39256844  1568.11126810
0.34100002 23514.14604719  1326.90332428
0.34200002 23457.22887165  1568.93682738
0.34300002 23408.69447197  1328.67756115
0.34400002 23370.79564946  1209.43873214
0.34500002 23341.82434244  1453.72888890
0.34600002 23323.26943666  1578.16910117
0.34700002 23311.52237685  1460.23383084
0.34800002 23310.15120660  2074.48700488
0.34900002 23316.61732289  1346.53471417
0.35000002 23331.38477016  1351.23721296
0.35100002 23354.23489886  1356.41402717
0.35200002 23383.84612320  1485.80965304
0.35300002 23421.50447976  1492.41833614
0.35400002 23466.75608053  1249.60482047
0.35500002 23518.61868141  1255.89429707
0.35600002 23577.00235426  2146.33251098
0.35700002 23642.03200239  1650.45033226
0.35800002 23713.97031157  1915.49604264
0.35900002 23791.51638180  1413.21614002
0.36000002 23875.70183329  1422.15624706
0.36100002 23964.82854756  1431.41927695
0.36200002 24060.49762998  1703.12240541
0.36300002 24159.77331897  1846.77315998
0.36400002 24264.99368112  1594.21016036
0.36500002 24374.64415630  1471.98483032
0.36600002 24489.59513594  1348.15227609
0.36700002 24608.55836333  1630.07098320
0.36800002 24733.29132401  2053.48160945
0.36900002 24861.10453712  1379.79136717
0.37000002 24992.02609984  1947.12884567
0.37100002 25127.27851141  1682.52264883
0.37200002 25266.58704483  1413.66561212
0.37300002 25408.63457803  1425.42446735
0.37400002 25555.08529960  1868.71570106
0.37500002 25703.33032890  2029.53505891
0.37600002 25855.71551932  1608.35486007
0.37700002 26009.63527946  1474.74639021
0.37800002 26167.06343537  1636.35738945
0.37900002 26326.76547226  1650.68827331
0.38000002 26488.82891455  1967.98763744
0.38100002 26652.57300266  1679.91175594
0.38200002 26818.59372993  1540.72828277
0.38300002 26986.36227626  1709.85599483
0.38400002 27156.31590330  1568.27731771
0.38500002 27326.86789482  1740.44829867
0.38600002 27499.94600258  1915.64632929
0.38700002 27673.32285910  3060.11618673
0.38800002 27847.85739328  2274.89157823
0.38900002 28023.56859021  1967.25460823
0.39000002 28200.98000063  2646.38008863
0.39100002 28378.18494175  2502.95603044
0.39200002 28556.68413637  2525.12491439
0.39300002 28735.15944708  1868.07280416
0.39400002 28915.07747964  2055.86210620
0.39500002 29094.27801663  2073.84023528
0.39600002 29273.77609401  2266.22948369
0.39700002 29452.94695223  2461.67742290
0.39800002 29633.30525818  2305.61942485
0.39900002 29812.49269503  2325.37454039
0.40000002 29991.36979857  2525.57337040
0.40100002 30169.92529342  2365.02055580
0.40200002 30349.07659113  2018.06194354
0.40300002 30526.54091731  2774.86270086
0.40400002 30703.52687155  2051.76328040
0.40500002 30879.74254950  2068.63405140
0.40600002 31055.51893425  2085.53347284
0.40700002 31230.10666665  2102.41088041
0.40800002 31403.90420620  2311.95553720
0.40900002 31575.86922033  2718.68246869
0.41000002 31747.60600366  3131.58400458
0.41100002 31917.63186204  2564.26266530
0.41200002 32085.77141487  2782.79908667
0.41300002 32253.01779265  3204.65999972
0.41400002 32418.51442748  2219.85788061
0.41500002 32583.01887313  2236.49852142
0.41600002 32744.64745323  3481.90225192
0.41700002 32905.41714586  2063.16975281
0.41800002 33065.29532211  2285.96930041
0.41900002 33221.27732116  3139.41085561
0.42000002 33376.18384757  2107.70610985
0.42100002 33529.67293685  2334.67123722
0.42200002 33680.95233004  2564.46783193
0.42300002 33829.56578729  2151.56048602
0.42400002 33976.14268726  3248.96879842
0.42500002 34120.98706208  2834.43052956
0.42600002 34262.20109266  3072.29171756
0.42700002 34402.37656040  2650.35921580
0.42800002 34539.66641018  2444.89040270
0.42900002 34675.08483554  2683.85169345
0.43000002 34808.09267284  2925.44628732
0.43100002 34937.23329879  3169.50595506
0.43200002 35064.66656013  2505.19522110
0.43300002 35189.25462012  3207.14881806
0.43400002 35311.55327848  2534.48685667
0.43500002 35430.69004459  3244.03413421
0.43600002 35548.12571869  2796.21570154
0.43700002 35661.76919499  3045.87185129
0.43800002 35771.99625638  2826.70327813
0.43900002 35880.48109393  2368.11186442
0.44000002 35985.38976898  3332.60710444
0.44100002 36088.13340577  2631.90769401
0.44200002 36187.66542151  3366.53867370
0.44300002 36284.44349168  3383.16167149
0.44400002 36377.78750560  3885.14788972
0.44500002 36467.24369256  2927.59046238
0.44600002 36554.71844351  2450.99398779
0.44700002 36639.20655119  2954.58575631
0.44800002 36719.55813405  2720.36859328
0.44900002 36798.28779282  2980.66145248
0.45000002 36873.55294458  4490.09275486
0.45100002 36944.46814419  3005.80207066
0.45200002 37013.21496445  2515.04807603
0.45300002 37078.15398011  3030.02688686
0.45400002 37140.51680718  2534.84039222
0.45500002 37199.62184559  2798.89968031
0.45600002 37255.29734470  3064.62090482
0.45700002 37307.70454554  3588.25519325
0.45800002 37356.24755422  2829.17554260
0.45900002 37401.96284043  2838.80911413
0.46000002 37445.14722205  3366.13166906
0.46100002 37483.82153939  3896.44343369
0.46200002 37519.99615785  3648.06939933
0.46300002 37552.72243309  3136.40352626
0.46400002 37581.59281416  3407.71108993
0.46500002 37608.27657384  4731.87358279
0.46600002 37630.71919299  4481.25440749
0.46700002 37649.84870506  3171.62340524
0.46800002 37666.56980093  3444.79630441
0.46900002 37679.13280898  4250.20638230
0.47000002 37688.19233439  3195.20509755
0.47100002 37694.49334448  2668.77025528
0.47200002 37697.23528515  2674.61897025
0.47300002 37697.42969455  3216.34485398
0.47400002 37692.78816683  2954.17241260
0.47500002 37686.13703102  3228.94837386
0.47600002 37676.54894338  3774.06008654
0.47700002 37662.44118070  4320.63545704
