# SAXS profile: number of points = 501, q_min = 0, q_max = 0.5, delta_q = 0.001
#    q    intensity    error
0.00000000 1682732.95097189 403.85590823
0.00100000 1682663.69708176 757.19868167
0.00200000 1682455.87349814 832.81568375
0.00300000 1682109.66810931 1312.04558786
0.00400000 1681624.92597060 2144.07186208
0.00500000 1681002.12669305 1664.19217130
0.00600000 1680240.97172569 1764.25309214
0.00700000 1679342.17459428 2216.73176259
0.00800000 1678305.11583677 2945.42560265
0.00900000 1677131.23678612 3018.83635526
0.01000000 1675819.59116565 2765.10244482
0.01100000 1674371.52147545 4520.80330482
0.01200000 1672786.46030305 4240.51386279
0.01300000 1671065.78386886 5614.78128144
0.01400000 1669208.71890721 4506.86374084
0.01500000 1667217.14109959 4801.58558018
0.01600000 1665089.82572447 5519.77301903
0.01700000 1662828.91865049 5836.52976628
0.01800000 1660433.98571520 6625.13190112
0.01900000 1657905.67991033 6465.83244341
0.02000000 1655244.85167763 5735.42367051
0.02100000 1652452.96346349 7089.02353466
0.02200000 1649528.23904487 6259.95995158
0.02300000 1646473.55501657 6520.03557465
0.02400000 1643288.93297591 8627.26729151
0.02500000 1639975.56408207 7035.49549123
0.02600000 1636533.71494431 7953.55421841
0.02700000 1632964.43176771 7544.29602030
0.02800000 1629267.55482785 8504.77702623
0.02900000 1625445.60247475 8777.40665637
0.03000000 1621499.08284440 9801.96240634
0.03100000 1617428.03151207 13198.21334443
0.03200000 1613233.65990634 8784.05768277
0.03300000 1608918.57727794 10667.13065911
0.03400000 1604481.01616159 8423.52572351
0.03500000 1599924.05984010 10367.50838652
0.03600000 1595247.68387501 9738.98756013
0.03700000 1590453.69628154 14504.93838090
0.03800000 1585543.14020691 11130.51335937
0.03900000 1580517.76872882 10431.41775669
0.04000000 1575376.02382482 10657.41929503
0.04100000 1570122.18659983 11870.12428107
0.04200000 1564756.43584860 16148.28716712
0.04300000 1559278.77807478 11320.36445429
0.04400000 1553693.17242934 18877.37292172
0.04500000 1547999.02157938 13885.55186876
0.04600000 1542196.71117937 14134.23351502
0.04700000 1536289.54061891 19910.31337241
0.04800000 1530277.55711871 16871.31085222
0.04900000 1524163.66059447 16003.71918118
0.05000000 1517947.33698242 17418.44650298
0.05100000 1511631.78295213 14148.87414754
0.05200000 1505215.43300196 13163.10957502
0.05300000 1498703.78068119 18209.25178415
0.05400000 1492095.13192369 12309.78541242
0.05500000 1485393.16771240 17468.22446718
0.05600000 1478596.82367168 16434.60446202
0.05700000 1471710.74352683 12803.88406635
0.05800000 1464733.79207446 14259.18413164
0.05900000 1457667.77658680 13119.01060202
0.06000000 1450515.80157028 15926.66424532
0.06100000 1443279.16552480 13422.49686663
0.06200000 1435958.44351608 14926.78871808
0.06300000 1428556.57792054 13714.14378925
0.06400000 1421071.80068597 24939.81126839
0.06500000 1413510.58477729 16792.50653267
0.06600000 1405870.60530321 19780.60034212
0.06700000 1398154.96413104 15687.29943170
0.06800000 1390366.44477268 14390.29337699
0.06900000 1382506.07770790 20322.84029380
0.07000000 1374573.26357894 19030.96772544
0.07100000 1366572.82799081 14758.98723358
0.07200000 1358503.75311094 14875.61679344
0.07300000 1350370.93761342 22483.67716475
0.07400000 1342173.48159948 19629.28808830
0.07500000 1333914.01775664 15206.62051520
0.07600000 1325592.60151013 15310.59526521
0.07700000 1317214.59370395 16952.55261585
0.07800000 1308778.17864406 17059.92435867
0.07900000 1300285.91004033 20284.46114805
0.08000000 1291741.35552036 21972.52148816
0.08100000 1283144.65268661 17360.94796539
0.08200000 1274497.07543259 20627.73613384
0.08300000 1265801.28649784 27113.46482927
0.08400000 1257058.15344939 16027.49220879
0.08500000 1248271.48421352 16102.70290230
0.08600000 1239440.78521709 21027.11390846
0.08700000 1230569.02736348 19492.21430875
0.08800000 1221655.49652028 21201.83213783
0.08900000 1212706.02199463 22920.14489225
0.09000000 1203719.32451477 16430.76955147
0.09100000 1194698.11733529 21432.88523194
0.09200000 1185643.45218700 18193.69962867
0.09300000 1176558.64055627 24884.21641713
0.09400000 1167442.23055120 18299.65782393
0.09500000 1158298.36168384 21683.34634990
0.09600000 1149128.25310370 18391.79855548
0.09700000 1139934.78666362 21784.15479728
0.09800000 1130718.90615784 18470.29420052
0.09900000 1121482.06785103 20186.67817055
0.10000000 1112224.76994766 28645.35029711
0.10100000 1102948.99940564 27000.19277532
0.10200000 1093657.71308664 21966.11620055
0.10300000 1084351.50088388 18607.47263048
0.10400000 1075033.20643968 16931.77379798
0.10500000 1065705.04595494 16944.71102792
0.10600001 1056363.97897659 23736.49972449
0.10700001 1047017.36780017 27138.69145046
0.10800001 1037662.63345700 20358.94182655
0.10900001 1028303.99122580 27147.22664606
0.11000001 1018941.48688136 20358.45186615
0.11100001 1009577.34143728 18656.99014801
0.11200001 1000213.93958356 20344.35248888
0.11300001 990850.09230274 22026.59858892
0.11400001 981490.25018445 25396.06141928
0.11500001 972135.15172272 23681.21341107
0.11600001 962785.07719178 16896.87890041
0.11700001 953443.80930322 20251.14746333
0.11800001 944108.78376949 16852.34258400
0.11900001 934784.98996189 18508.74367304
0.12000001 925472.26042523 26875.71570873
0.12100001 916174.14266093 18442.58636056
0.12200001 906888.96634250 21751.73288248
0.12300001 897620.25232996 21704.45872393
0.12400001 888368.11116186 18322.59315603
0.12500001 879134.37160634 36554.40889385
0.12600001 869922.00006820 21543.61934690
0.12700001 860730.21381342 23136.42923764
0.12800001 851559.86774839 26364.29474802
0.12900001 842413.88562918 21355.19300721
0.13000001 833292.99387508 26198.73296231
0.13100001 824196.96983049 19582.92092626
0.13200001 815129.76251524 24392.75929315
0.13300001 806091.86263458 17822.69192307
0.13400001 797082.42203669 16140.91980722
0.13500001 788104.69756598 20900.53756487
0.13600001 779158.37637396 19214.04646734
0.13700001 770245.84301379 23916.13455330
0.13800001 761366.45733930 19049.38966092
0.13900001 752524.81176765 18963.62615083
0.14000001 743718.05327267 18875.56508224
0.14100001 734949.62525218 17219.87053180
0.14200001 726218.45488613 20250.60256963
0.14300001 717529.73964894 18598.37172894
0.14400001 708876.97516960 26210.72739325
0.14500001 700269.86050514 18403.09280219
0.14600001 691702.79229012 18302.45674740
0.14700001 683181.97274403 18199.96861251
0.14800001 674703.24041831 21111.46538870
0.14900001 666269.14029934 16490.16200043
0.15000001 657881.88696656 20861.43562001
0.15100001 649541.37807091 20733.36176633
0.15200001 641249.73181615 19131.68665150
0.15300001 633006.41781496 19009.18362401
0.15400001 624810.45989334 17432.21265367
0.15500001 616666.07070462 18758.98275613
0.15600001 608570.97037238 15765.03173153
0.15700001 600530.79804598 18502.35476105
0.15800001 592537.90673153 22611.24758810
0.15900001 584601.17552307 19642.60042472
0.16000001 576715.81374980 25069.83760706
0.16100001 568887.53089317 16588.76118390
0.16200001 561111.61231838 16463.01548258
0.16300001 553392.21955995 14974.79416822
0.16400001 545728.47047424 17558.81436645
0.16500001 538121.50693831 17418.99400197
0.16600001 530571.18462779 21265.29408388
0.16700001 523078.10668249 14499.72580184
0.16800001 515641.56397909 15685.81711687
0.16900001 508265.94657391 15552.93869954
0.17000001 500948.43782453 17989.05925172
0.17100001 493689.88152360 15284.63945373
0.17200001 486491.48347702 15149.34551087
0.17300001 479353.37547509 13762.23605980
0.17400001 472276.23572807 12397.25177333
0.17500001 465259.28099595 14739.41471806
0.17600001 458301.92945045 17035.08352222
0.17700001 451408.43916828 13257.86648455
0.17800001 444575.80565561 14324.23313479
0.17900001 437805.17913719 15366.96251355
0.18000001 431097.58259567 14045.15990439
0.18100001 424453.39076448 12746.33592675
0.18200001 417869.35505244 11470.51433803
0.18300001 411350.84754462 17029.92589283
0.18400001 404893.89007410 15730.12837248
0.18500001 398501.63280697 14453.65490473
0.18600001 392172.25592521 16500.64844760
0.18700001 385906.17472299 13059.06556960
0.18800001 379703.70892632 16146.90098497
0.18900001 373566.96240043 13840.65661087
0.19000001 367490.19639587 11581.45408663
0.19100001 361482.32214921 10410.69136980
0.19200001 355535.21579703 11322.01948204
0.19300001 349654.24368885 12209.92676657
0.19400001 343836.39440810 16091.54401869
0.19500001 338083.32017526 10933.61509114
0.19600001 332393.19350701 9822.21933229
0.19700001 326768.09339261 9705.01283240
0.19800001 321206.98515351 10546.83185595
0.19900001 315710.63387416 12312.71530299
0.20000001 310276.30247155 14967.72953862
0.20100001 304907.68327577 12934.18453586
0.20200001 299601.75154456 15508.88540171
0.20300001 294360.17349331 9007.42173463
0.20400001 289182.15592608 9781.58688653
0.20500001 284066.79535148 8777.66439125
0.20600001 279015.15303463 11262.44718460
0.20700001 274026.73310021 8549.63447686
0.20800001 269100.95751402 11810.84158359
0.20900001 264240.03646489 8323.56154211
0.21000001 259439.50912893 11495.76519293
0.21100001 254701.33588388 10529.35372320
0.21200001 250025.43118418 9585.97548477
0.21300001 245411.29875122 10241.01398104
0.21400001 240860.05648429 7767.73718885
0.21500001 236370.35969974 8424.24001798
0.21600001 231940.17229730 9059.58355826
0.21700001 227572.11546705 8929.93023313
0.21800001 223264.49372999 7334.23896580
0.21900001 219016.20227260 8673.04202007
0.22000001 214827.72714639 8545.84738995
0.22100001 210701.35979061 7717.99117406
0.22200001 206633.09921704 7603.06524520
0.22300001 202623.84576325 10212.24230936
0.22400001 198671.71994488 9387.23921128
0.22500001 194781.22686117 7263.39229312
0.22600001 190946.84224262 7802.08834298
0.22700001 187171.25643193 9601.88590902
0.22800001 183452.19494190 6301.58319426
0.22900001 179789.60068855 6823.01566880
0.23000001 176184.01943180 6104.77656202
0.23100001 172636.22525263 7209.28910750
0.23200001 169142.08987430 8276.12284896
0.23300001 165704.82983178 5816.23980217
0.23400001 162322.22758036 6866.23055139
0.23500001 158993.22720452 8442.54076386
0.23600001 155719.14270312 7196.56052040
0.23700001 152498.84372286 6533.05077409
0.23800001 149331.81947948 6424.25517787
0.23900001 146217.88739288 6842.99745366
0.24000001 143156.13679658 7245.13242597
0.24100001 140147.52900792 6104.82665235
0.24200001 137189.96529280 5500.63191861
0.24300001 134283.64855087 6389.21630028
0.24400001 131427.40635721 6278.94463573
0.24500001 128621.80397141 8068.44614480
0.24600001 125866.20226657 6062.34591895
0.24700001 123160.67233454 5956.05039585
0.24800001 120502.99205588 4950.86566282
0.24900001 117893.77102629 4421.01662263
0.25000001 115333.03170000 4776.51773382
0.25100001 112819.09443129 5970.38675976
0.25200001 110353.20113674 5025.48501752
0.25300001 107934.07746268 5345.97510965
0.25400001 105560.17148245 5248.97977530
0.25500001 103232.13735481 5946.17139296
0.25600001 100949.65906201 4669.93144916
0.25700001 98711.54870377  4966.17825025
0.25800001 96517.34816393  5249.57881501
0.25900001 94367.41005350  3680.32916622
0.26000001 92261.00370902  3973.22031272
0.26100001 90195.34579379  4962.54816038
0.26200001 88174.59457344  4174.18550462
0.26300001 86194.05008586  5119.92681736
0.26400001 84254.64059653  4018.94654662
0.26500001 82357.02972540  3943.25476984
0.26600001 80498.79049877  3546.37438324
0.26700001 78681.43842677  3795.59276932
0.26800001 76903.16902773  3413.34731882
0.26900001 75163.30281915  3348.52529905
0.27000001 73462.44532182  3284.87339801
0.27100001 71799.36033244  3808.23825225
0.27200001 70174.07436173  4310.44272165
0.27300001 68585.33482821  3664.51461329
0.27400001 67031.88571186  2765.06541647
0.27500001 65516.67109021  2983.62934265
0.27600001 64035.11051378  4523.12024520
0.27700001 62590.10386138  2610.00745454
0.27800001 61178.75332568  3072.39713742
0.27900001 59802.00778286  4269.86355778
0.28000001 58458.46293689  3203.23162823
0.28100001 57148.16981804  3384.31477680
0.28200001 55870.94864439  2846.06625865
0.28300001 54625.96346721  2327.06615384
0.28400001 53412.78493058  2740.07599663
0.28500001 52231.31957216  3137.01320198
0.28600001 51079.83147107  3078.58158848
0.28700001 49959.42673657  3453.19573948
0.28800001 48868.29958772  2118.44088740
0.28900001 47808.18481775  2703.55297941
0.29000001 46775.62941347  2450.10758465
0.29100001 45773.00894426  2205.34367532
0.29200001 44797.97793210  2559.53259031
0.29300001 43850.68945097  2513.96014522
0.29400001 42930.53649184  3039.48212750
0.29500001 42038.35138590  2053.15317888
0.29600001 41171.49015226  2201.02796773
0.29700001 40330.53844218  2163.33018445
0.29800001 39515.83560411  1949.51384182
0.29900001 38726.17106103  1742.67778024
0.30000001 37961.10666478  2228.12726117
0.30100001 37221.42371666  1854.74363161
0.30200001 36504.27141654  1990.94305731
0.30300001 35811.24551369  1959.59144728
0.30400001 35142.10316475  2090.07668467
0.30500001 34494.31868230  2533.26288396
0.30600001 33869.22260395  2651.45221708
0.30700001 33266.68967910  1690.61324953
0.30800001 32685.22401232  1969.44826610
0.30900001 32125.01400357  1941.95718846
0.31000001 31586.25664533  1473.49894227
0.31100001 31066.32709972  1453.90417710
0.31200001 30567.44350264  2152.71231059
0.31300001 30087.81731640  1842.27714151
0.31400001 29628.64657329  2239.92578699
0.31500001 29187.37367897  1521.82973568
0.31600002 28764.76277723  1778.09389526
0.31700002 28359.98969401  1352.77157246
0.31800002 27973.30854381  1873.93202808
0.31900002 27604.42430726  1590.01491538
0.32000002 27252.20858677  1574.63268670
0.32100002 26917.22108113  1820.14257569
0.32200002 26598.74084967  1933.06358278
0.32300002 26295.71042022  1405.76874563
0.32400002 26008.64567345  1648.29799760
0.32500002 25736.51904682  1384.36742508
0.32600002 25480.19756013  1374.78412446
0.32700002 25238.23240543  1862.58163972
0.32800002 25011.56462190  1357.75284979
0.32900002 24797.63717155  1472.97971774
0.33000002 24599.26989757  1465.62456990
0.33100002 24411.93815803  1702.00040897
0.33200002 24240.21982246  1574.03874871
0.33300002 24080.09221727  1447.69521266
0.33400002 23933.28005926  1443.17685592
0.33500002 23798.22639552  1319.37373385
0.33600002 23675.13077596  1555.81129262
0.33700002 23563.12931033  1433.58085513
0.33800002 23463.82373706  1551.07614159
0.33900002 23374.47716742  1907.35742719
0.34000002 23296.53074216  1429.94112467
0.34100002 23229.02749596  1310.81408368
0.34200002 23172.87265607  1430.69322554
0.34300002 23125.20090355  1431.91250776
0.34400002 23088.23193912  1314.29766538
0.34500002 23060.29856177  1196.82955204
0.34600002 23042.77030928  1439.25150168
0.34700002 23032.17612781  1683.19151114
0.34800002 23031.96250710  1808.58494153
0.34900002 23039.79701474  1814.38410084
0.35000002 23055.84340308  1335.27923393
0.35100002 23080.13853776  1340.49450976
0.35200002 23111.19546481  1590.85921517
0.35300002 23150.43023460  1721.00306515
0.35400002 23197.24081112  1605.82907121
0.35500002 23250.85678474  1241.59581111
0.35600002 23310.90255629  1622.78855832
0.35700002 23377.76497331  1757.54045394
0.35800002 23451.53275436  1641.72462823
0.35900002 23530.98363805  1651.87512963
0.36000002 23617.08030344  1534.63795081
0.36100002 23708.26948169  1544.83091260
0.36200002 23805.96638981  1555.48191759
0.36300002 23907.44826423  1566.41608447
0.36400002 24014.84004074  1840.73757631
0.36500002 24126.67185310  1324.55434748
0.36600002 24243.85085583  1468.08645812
0.36700002 24365.19436310  1479.45467181
0.36800002 24492.26960850  1626.77662445
0.36900002 24622.53319235  1503.20572260
0.37000002 24755.87261126  1653.19725129
0.37100002 24893.58360870  1805.78064051
0.37200002 25035.43721297  2381.24572331
0.37300002 25180.06556864  1412.60174532
0.37400002 25329.12043651  1424.76309205
0.37500002 25480.06064536  1868.19813502
0.37600002 25635.12266513  2319.46600862
0.37700002 25791.79128699  2047.35248935
0.37800002 25951.87947549  1622.90085988
0.37900002 26114.42946360  1488.52254994
0.38000002 26279.34877609  1652.05133907
0.38100002 26445.91813710  1666.88629915
0.38200002 26614.81739718  2140.62986466
0.38300002 26785.44818466  2159.97864394
0.38400002 26958.31026500  2023.89523902
0.38500002 27131.86793841  1570.93522806
0.38600002 27307.89320165  2219.31258564
0.38700002 27484.25354535  1759.54199533
0.38800002 27661.85970822  1936.88350853
0.38900002 27840.59308518  2117.27720444
0.39000002 28020.99084695  2136.46054834
0.39100002 28201.31638299  1824.06123007
0.39200002 28382.86582107  2007.80402331
0.39300002 28564.48788889  2025.79357706
0.39400002 28747.48014129  2214.27476279
0.39500002 28929.81507703  1718.43109699
0.39600002 29112.41740370  2080.37344623
0.39700002 29294.72858957  2798.23260745
0.39800002 29478.20843023  1764.27085814
0.39900002 29660.60875561  1957.60027062
0.40000002 29842.58480461  2154.03787325
0.40100002 30024.28904323  1810.46471509
0.40200002 30206.59482721  2008.58761820
0.40300002 30387.21682733  2025.61196968
0.40400002 30567.34908455  2599.75316282
0.40500002 30746.79551363  2059.72792905
0.40600002 30925.67178981  2643.21729311
0.40700002 31103.45135689  2474.59070720
0.40800002 31280.38976142  1919.05200279
0.40900002 31455.50177892  2127.96479617
0.41000002 31630.30866603  2145.00948382
0.41100002 31803.55176503  2162.00555143
0.41200002 31974.73892984  1980.83517056
0.41300002 32145.10988201  2195.83256008
0.41400002 32313.71420585  2816.14032648
0.41500002 32481.34210582  2837.57018082
0.41600002 32646.02260417  2450.41057278
0.41700002 32809.83682801  2468.61223991
0.41800002 32972.75140933  2901.27253398
0.41900002 33131.79014494  3757.14518047
0.42000002 33289.64707151  3153.36196827
0.42100002 33446.09959294  2328.85202501
0.42200002 33600.41245300  3197.91940675
0.42300002 33751.92074862  3005.27116586
0.42400002 33901.49139045  2161.22017855
0.42500002 34049.20799141  2175.74449375
0.42600002 34193.33145267  3066.11617665
0.42700002 34336.31973722  2204.39183159
0.42800002 34476.47826496  3327.84222222
0.42900002 34614.76521835  2679.18295486
0.43000002 34750.55461698  2471.28580869
0.43100002 34882.42432887  2712.45744435
0.43200002 35012.62073948  2274.06982479
0.43300002 35139.93490914  2973.89283229
0.43400002 35264.87388379  2761.23975595
0.43500002 35386.66829105  2545.71703750
0.43600002 35506.70476873  2327.46460789
0.43700002 35622.97536485  2808.51551086
0.43800002 35735.74666462  2353.19902938
0.43900002 35846.75090453  3548.82850773
0.44000002 35954.12212137  3329.71140745
0.44100002 36059.35461832  2868.88238939
0.44200002 36161.31921324  2643.21175315
0.44300002 36260.50655555  2897.93982125
0.44400002 36356.16423182  3640.16111622
0.44500002 36447.95713075  2682.20529236
0.44600002 36537.66169215  3184.80543233
0.44700002 36624.50072361  2953.39987832
0.44800002 36707.03094838  4697.21543792
0.44900002 36787.97758009  3724.78290651
0.45000002 36865.35883534  3491.51830077
0.45100002 36938.38212232  4007.07588253
0.45200002 37009.20585851  3269.20835445
0.45300002 37076.17436234  3534.84263123
0.45400002 37140.53699534  3041.81012408
0.45500002 37201.58983338  2799.04775172
0.45600002 37259.18081188  2809.52866227
0.45700002 37313.44354971  4101.49390937
0.45800002 37363.83485890  3087.00018235
0.45900002 37411.35607918  3872.07553771
0.46000002 37456.30962551  3367.13511337
0.46100002 37496.66022300  2858.37054427
0.46200002 37534.59354366  2867.45540967
0.46300002 37568.87965319  3137.75297735
0.46400002 37599.40012214  3409.32576766
0.46500002 37627.56900091  2893.18391760
0.46600002 37651.53678549  3428.73735988
0.46700002 37672.19321186  3173.50570658
0.46800002 37690.31041143  3181.81615574
0.46900002 37704.27581768  2923.96672825
0.47000002 37714.67211182  2930.99588209
0.47100002 37722.26941307  4006.10520155
0.47200002 37726.28636856  3212.01617366
0.47300002 37727.74311674  3218.93119529
0.47400002 37724.27609203  4031.78219843
0.47500002 37718.79083333  2962.43397246
0.47600002 37710.28847800  3777.43977588
0.47700002 37697.25972264  2702.89365023
