# SAXS profile: number of points = 501, q_min = 0, q_max = 0.5, delta_q = 0.001
#    q    intensity    error
0.00000000 1682732.95097188 277.65093691
0.00100000 1682663.68929363 858.15850192
0.00200000 1682455.84304768 1135.65773002
0.00300000 1682109.59483006 1312.04553071
0.00400000 1681624.79932249 1261.21864742
0.00500000 1681001.93117878 1815.48215753
0.00600000 1680240.68436898 2646.37918562
0.00700000 1679341.78795188 2015.21022929
0.00800000 1678304.60333293 3625.13809625
0.00900000 1677130.59587931 3270.40480177
0.01000000 1675818.81575378 4147.65174808
0.01100000 1674370.56742779 3616.64058311
0.01200000 1672785.33163844 3588.12469368
0.01300000 1671064.44922014 3860.15904795
0.01400000 1669207.18184710 3755.71632565
0.01500000 1667215.36197919 4001.31704692
0.01600000 1665087.82441277 5944.36379889
0.01700000 1662826.63968669 4489.63212855
0.01800000 1660431.41084487 6625.12162739
0.01900000 1657902.85725393 4973.70879619
0.02000000 1655241.70034819 7299.61622874
0.02100000 1652449.47484468 6543.70021707
0.02200000 1649524.46039485 7967.20350568
0.02300000 1646469.43405106 5927.29023238
0.02400000 1643284.40794757 9859.70689726
0.02500000 1639970.66556121 8314.65165413
0.02600000 1636528.41579041 7290.73442581
0.02700000 1632958.70438162 8915.95493428
0.02800000 1629261.40785691 9922.20242888
0.02900000 1625439.04242656 8777.37123211
0.03000000 1621492.07902630 9801.92006826
0.03100000 1617420.53813399 10092.70462235
0.03200000 1613225.70404435 11978.20140422
0.03300000 1608910.09506565 9025.98604942
0.03400000 1604472.04733522 10108.17436461
0.03500000 1599914.55880728 9503.49291817
0.03600000 1595237.67961248 12394.99734341
0.03700000 1590443.06351404 9065.52588129
0.03800000 1585531.94220394 10202.89852027
0.03900000 1580505.97846988 12327.94720297
0.04000000 1575363.62448792 11626.18408747
0.04100000 1570109.19580578 17805.03910600
0.04200000 1564742.83799630 14129.62848262
0.04300000 1559264.48577971 14407.60451738
0.04400000 1553678.22734550 10487.32852163
0.04500000 1547983.35980931 12817.30281478
0.04600000 1542180.40459206 11959.60959358
0.04700000 1536272.50643022 14379.51132895
0.04800000 1530259.83794816 13496.89239869
0.04900000 1524145.24391250 12574.19884758
0.05000000 1517928.15349261 15095.79618944
0.05100000 1511611.82063933 12969.63002526
0.05200000 1505194.76742501 13162.92885454
0.05300000 1498682.37301537 13353.26056607
0.05400000 1492072.86100029 16002.48218049
0.05500000 1485370.10855938 16220.24234213
0.05600000 1478572.95002044 18962.69896889
0.05700000 1471686.06774773 15364.40326447
0.05800000 1464708.20088756 16851.46863805
0.05900000 1457641.38387419 20990.03690815
0.06000000 1450488.48650382 13271.97027156
0.06100000 1443251.00354924 20133.35244037
0.06200000 1435929.37764646 13569.53325305
0.06300000 1428526.68008451 15085.24244701
0.06400000 1421040.94861458 22168.23983512
0.06500000 1413478.82981029 15392.78517667
0.06600000 1405837.95718480 15541.53934384
0.06700000 1398121.34564144 15686.92223223
0.06800000 1390331.86376102 21584.90319526
0.06900000 1382470.52684980 15967.53533270
0.07000000 1374536.72725079 19030.46187995
0.07100000 1366535.38211585 19186.15766354
0.07200000 1358465.23518683 16362.71452437
0.07300000 1350331.50176824 17986.41644632
0.07400000 1342132.94560195 18118.79561475
0.07500000 1333872.40975779 22809.21927598
0.07600000 1325549.97507003 16841.11322279
0.07700000 1317170.99270588 23116.35200588
0.07800000 1308733.49287347 18610.19114141
0.07900000 1300240.08054954 21844.03437780
0.08000000 1291694.57217759 20402.31672464
0.08100000 1283096.75730526 18938.50902639
0.08200000 1274448.01200305 15866.87849399
0.08300000 1265751.17786953 19138.15870758
0.08400000 1257006.93026053 22437.57475834
0.08500000 1248219.10486317 17712.22992951
0.08600000 1239387.26107089 22643.60632292
0.08700000 1230514.42009956 22739.90755125
0.08800000 1221599.73888558 27724.20737604
0.08900000 1212649.17292019 19644.91752402
0.09000000 1203661.27176464 24644.96569709
0.09100000 1194638.89862086 18134.61933305
0.09200000 1185583.08487083 18192.77329216
0.09300000 1176497.15879641 21565.19393413
0.09400000 1167379.51017119 23289.22232245
0.09500000 1158234.46753401 21682.15025136
0.09600000 1149063.23222329 18390.75789624
0.09700000 1139868.51242580 21782.88829653
0.09800000 1130651.49153459 20148.21052647
0.09900000 1121413.55174994 20185.44488067
0.10000000 1112154.98109282 20218.97850711
0.10100000 1102877.95924471 23623.64699808
0.10200000 1093585.47558757 18585.48603180
0.10300000 1084277.92727826 21989.15739959
0.10400000 1074958.52215581 22009.77677659
0.10500000 1065629.15188111 18637.85474330
0.10600001 1056286.79423531 16953.40384519
0.10700001 1046938.94419846 20352.49403296
0.10800001 1037583.06498217 25446.72586625
0.10900001 1028223.07344982 18662.24966147
0.11000001 1018859.35226011 16964.00901362
0.11100001 1009494.04217610 23743.30098966
0.11200001 1000129.37192180 25428.29047820
0.11300001 990764.35402107 18636.27837655
0.11400001 981403.15017389 23700.88719264
0.11500001 972046.88099983 21987.70148357
0.11600001 962695.64957766 18584.84039028
0.11700001 953353.04238642 20249.21957392
0.11800001 944016.72415727 18535.76925183
0.11900001 934691.76199176 26919.12401330
0.12000001 925377.76369867 25193.41080343
0.12100001 916078.40164576 21793.50620180
0.12200001 906792.05631784 16730.31422725
0.12300001 897522.11550463 28379.65062935
0.12400001 888268.67573284 21651.54999115
0.12500001 879033.71935266 19936.48569434
0.12600001 869819.97971940 18227.07853394
0.12700001 860627.12346283 21481.25401397
0.12800001 851455.35781100 19770.79434015
0.12900001 842308.38239981 21352.51850022
0.13000001 833186.10882683 19646.52937217
0.13100001 824089.08939663 17948.66121312
0.13200001 815020.61258298 17885.62818627
0.13300001 805981.51871973 22680.32100599
0.13400001 796970.83153528 24207.99014918
0.13500001 787991.98713321 22505.05221360
0.13600001 779044.46206715 20812.17378543
0.13700001 770130.70250920 23912.55944047
0.13800001 761250.13226418 22220.89240863
0.13900001 752407.25627716 15800.55312695
0.14000001 743599.44726969 17299.84195660
0.14100001 734829.89988361 18782.25312685
0.14200001 726097.58013533 21804.71135989
0.14300001 717407.67903905 17045.60725797
0.14400001 708753.88713802 23123.09665859
0.14500001 700145.62736001 15333.18996248
0.14600001 691577.48290857 22873.92632626
0.14700001 683055.51928957 22745.74986541
0.14800001 674575.68219629 16584.44392923
0.14900001 666140.50752586 14988.16212649
0.15000001 657752.30063463 23836.94449970
0.15100001 649410.63223806 14806.56311367
0.15200001 641118.02626388 22070.48909557
0.15300001 632873.61168309 20467.13356766
0.15400001 624676.57139237 17428.47716431
0.15500001 616531.28845929 15869.51611387
0.15600001 608435.13853038 14328.64818863
0.15700001 600393.97429668 21344.00679362
0.15800001 592400.15729766 15541.61886025
0.15900001 584462.51370506 16832.52118921
0.16000001 576576.09806269 19494.03879567
0.16100001 568747.00225207 20730.82921067
0.16200001 560970.19419738 15087.29408515
0.16300001 553249.89169185 17692.93237155
0.16400001 545585.25358063 16203.88279632
0.16500001 537977.46104252 17414.33123610
0.16600001 530426.23460618 15944.61336506
0.16700001 522932.28667752 19766.84136970
0.16800001 515494.92571543 14374.57668229
0.16900001 508118.63884684 12957.02590240
0.17000001 500800.21158667 14130.07863714
0.17100001 493540.97900631 14006.69364561
0.17200001 486341.83588192 13882.62836083
0.17300001 479202.87940619 15008.63489178
0.17400001 472125.09118640 16111.26949761
0.17500001 465107.52844500 12278.83933085
0.17600001 458149.45265681 14596.64225103
0.17700001 451255.29786619 13253.36872429
0.17800001 444421.99198333 17899.09657254
0.17900001 437650.73804233 12998.22753381
0.18000001 430942.55532128 12870.10002259
0.18100001 424297.81284712 12741.66392167
0.18200001 417713.29044602 11466.23036438
0.18300001 411194.23646933 17023.44219401
0.18400001 404736.76567204 12354.59035578
0.18500001 398343.96048518 11113.79702258
0.18600001 392014.21876871 10995.99935595
0.18700001 385747.66098308 15229.31837512
0.18800001 379544.76521709 13988.12298296
0.18900001 373407.66967633 12770.54290631
0.19000001 367330.48200393 10524.01880666
0.19100001 361322.24958466 11446.68940770
0.19200001 355374.88347839 11316.91369911
0.19300001 349493.60836635 11187.29093244
0.19400001 343675.44611602 12063.00872870
0.19500001 337922.05371964 11921.89061860
0.19600001 332231.77035751 9817.44927800
0.19700001 326606.36570897 10670.23047196
0.19800001 321045.15935606 13416.47784354
0.19900001 315548.71175519 10413.10798004
0.20000001 310114.17137438 12154.92552147
0.20100001 304745.45224792 11080.54516743
0.20200001 299439.40882102 11853.30955841
0.20300001 294197.87118849 9902.70081225
0.20400001 289019.83800935 13331.04065828
0.20500001 283904.48990022 15790.76847463
0.20600001 278852.86707753 12121.73470483
0.20700001 273864.40608982 14525.76878562
0.20800001 268938.69153207 10117.47405369
0.20900001 264077.92366877 10813.99148543
0.21000001 259277.51244815 9026.74702260
0.21100001 254539.52780215 12141.53605013
0.21200001 249863.83045615 10378.09468862
0.21300001 245249.92411338 10234.27981708
0.21400001 240698.87813973 9315.04702439
0.21500001 236209.51080557 12245.10161908
0.21600001 231779.59450806 9053.31138951
0.21700001 227411.88048018 10410.91638061
0.21800001 223104.57463496 8061.88418560
0.21900001 218856.66770404 7222.27037571
0.22000001 214668.64532990 9251.14570791
0.22100001 210542.70178874 7712.17953118
0.22200001 206474.97992322 7597.24724551
0.22300001 202466.24097309 6802.86601837
0.22400001 198514.62167784 8039.84255813
0.22500001 194624.61930498 6597.77490643
0.22600001 190790.80998437 7795.71286461
0.22700001 187015.86871606 6395.94301255
0.22800001 183297.45725152 7555.52154521
0.22900001 179635.61511620 7436.91481751
0.23000001 176030.62446066 8539.24599642
0.23100001 172483.70207238 6602.67642759
0.23200001 168990.23242587 6496.82979287
0.23300001 165553.74922924 6392.03056005
0.23400001 162171.98144384 6859.87513951
0.23500001 158843.71563843 5623.06779955
0.23600001 155570.59416884 8848.85581485
0.23700001 152351.24094963 8702.30329464
0.23800001 149185.10815944 6952.77229463
0.23900001 146072.24011760 5784.46098226
0.24000001 143011.40441795 5686.84876567
0.24100001 140003.86490615 8639.63891202
0.24200001 137047.33143005 6993.52565368
0.24300001 134142.13460920 5400.56259483
0.24400001 131286.95216225 6272.23443625
0.24500001 128482.56800743 5215.10768212
0.24600001 125728.06856085 5589.87019265
0.24700001 123023.75068651 5034.13211624
0.24800001 120367.25737784 6294.00418604
0.24900001 117759.40702091 5299.17356663
0.25000001 115199.93908102 6072.18907623
0.25100001 112687.32373645 4259.58103875
0.25200001 110222.79020322 5856.13712055
0.25300001 107805.01037897 4107.37108976
0.25400001 105432.52800847 4436.07382583
0.25500001 103105.86229490 5938.89794917
0.25600001 100824.81139427 4275.47632946
0.25700001 98588.18108069  6486.11674018
0.25800001 96395.52255071  4493.95947394
0.25900001 94247.12837373  4778.32963463
0.26000001 92142.25565188  5050.31727124
0.26100001 90078.21905868  4602.09642946
0.26200001 88059.05835305  4168.71601968
0.26300001 86080.21286262  4431.40956785
0.26400001 84142.38156314  4013.59179048
0.26500001 82246.53992287  5578.78306695
0.26600001 80390.02196946  4185.50669190
0.26700001 78574.32288819  4422.16310141
0.26800001 76797.88765674  4338.31287902
0.26900001 75059.82181574  3951.89980561
0.27000001 73360.70846930  4174.95811656
0.27100001 71699.43720367  3802.93832925
0.27200001 70076.05503623  3156.57604849
0.27300001 68489.16339755  2814.90474885
0.27400001 66937.68809500  4141.76964689
0.27500001 65424.45000017  2979.42959401
0.27600001 63944.74465956  3188.28511961
0.27700001 62501.72564454  3127.58649927
0.27800001 61092.32426547  3323.72805897
0.27900001 59717.66392728  3009.77040438
0.28000001 58376.16684381  3690.83332338
0.28100001 57067.96635432  3620.96263656
0.28200001 55792.86614123  2842.08873575
0.28300001 54549.89335647  3253.35579376
0.28400001 53338.84612069  2508.25935754
0.28500001 52159.50816997  2685.17160768
0.28600001 51010.20124358  3074.38497447
0.28700001 49891.91955119  2586.39723195
0.28800001 48802.97109949  2115.60889730
0.28900001 47745.09202165  2076.91160125
0.29000001 46714.83589848  2039.10268349
0.29100001 45714.45613764  2803.21058305
0.29200001 44741.70165418  2752.95703309
0.29300001 43796.67398030  1931.43341396
0.29400001 42878.76243261  2466.60092570
0.29500001 41988.95064493  2237.17139626
0.29600001 41124.43290310  2564.93100158
0.29700001 40285.80914645  2881.24120655
0.29800001 39473.35692680  1770.38014197
0.29900001 38686.15984000  1740.87727521
0.30000001 37923.47690023  1712.24506310
0.30100001 37186.11643275  2526.79673122
0.30200001 36471.35393219  1657.62311469
0.30300001 35780.70569779  2121.08033418
0.30400001 35113.99446717  1606.46532293
0.30500001 34468.68557861  2056.74656585
0.30600001 33846.06207294  1558.61123225
0.30700001 33245.97644711  2150.34985840
0.30800001 32666.93739804  1665.52388209
0.30900001 32109.21254034  1493.07845381
0.31000001 31572.94402011  2062.02907158
0.31100001 31055.48696903  2180.09528844
0.31200001 30559.07171056  2008.64787864
0.31300001 30081.94996918  1416.85991063
0.31400001 29625.29048598  1539.77454591
0.31500001 29186.51313522  1660.12894573
0.31600002 28766.42000763  1504.62766974
0.31700002 28364.09259959  1894.15419348
0.31800002 27979.98231864  1874.37910427
0.31900002 27613.59275411  1457.99776645
0.32000002 27263.90684477  2362.96291812
0.32100002 26931.43202202  1821.10351956
0.32200002 26615.44113207  1418.47000230
0.32300002 26314.94093972  1406.79680925
0.32400002 26030.37041634  2030.36898861
0.32500002 25760.82669936  1637.61583082
0.32600002 25507.01681728  1626.45500437
0.32700002 25267.60045929  1367.48260161
0.32800002 25043.42347570  1483.07160846
0.32900002 24832.03461451  1352.10434879
0.33000002 24636.16705551  1345.50432745
0.33100002 24451.29877195  1461.20968381
0.33200002 24282.11978885  1698.04871725
0.33300002 24124.44169336  1450.36150329
0.33400002 23980.09735464  1325.49994405
0.33500002 23847.55732159  1562.49202970
0.33600002 23726.96807571  1679.15761024
0.33700002 23617.36261089  1197.40034108
0.33800002 23520.58491865  1674.43051966
0.33900002 23433.66605633  1553.65213311
0.34000002 23358.12640449  1314.24504439
0.34100002 23293.12446162  1433.92480977
0.34200002 23239.37753100  2032.63225201
0.34300002 23194.10508349  1316.49746689
0.34400002 23159.51073484  1558.05615848
0.34500002 23133.95747013  1440.78293948
0.34600002 23118.84209337  1444.00294554
0.34700002 23110.56888800  1447.64610371
0.34800002 23112.74788574  1209.95240912
0.34900002 23122.86739119  2185.11107196
0.35000002 23141.25959787  1340.22611309
0.35100002 23167.85721430  1712.56808639
0.35200002 23201.21727037  1228.50451265
0.35300002 23242.69041052  1357.60561118
0.35400002 23291.77490672  1488.34448703
0.35500002 23347.60907603  1620.79109883
0.35600002 23409.84902945  1629.67671737
0.35700002 23478.96941493  1386.90278903
0.35800002 23554.88489076  1648.95979488
0.35900002 23636.45385158  1531.64228213
0.36000002 23724.75284319  1284.69542731
0.36100002 23817.99770668  1422.64907041
0.36200002 23917.78306584  1693.02035451
0.36300002 24021.35478830  1705.03584364
0.36400002 24130.78024956  1849.62439374
0.36500002 24244.64644859  1331.03115308
0.36600002 24363.87459530  1475.35449600
0.36700002 24487.15614978  2162.70573359
0.36800002 24616.17737191  2043.75822311
0.36900002 24748.38345568  1648.24241622
0.37000002 24883.61238731  1800.20502343
0.37100002 25023.21910020  1675.55483032
0.37200002 25166.90355047  2956.98547274
0.37300002 25313.36717867  2272.12794559
0.37400002 25464.19918944  1862.06965394
0.37500002 25616.92437727  2167.19190498
0.37600002 25773.77389133  2623.51256868
0.37700002 25932.14343689  1911.45838328
0.37800002 26093.92889649  1928.47190645
0.37900002 26258.11367954  1646.38380570
0.38000002 26424.65427906  1812.20287631
0.38100002 26592.84683511  1523.77019584
0.38200002 26763.29897747  1691.30675900
0.38300002 26935.52225640  1706.63477102
0.38400002 27109.87137767  1565.59514623
0.38500002 27284.85649293  1579.79326578
0.38600002 27462.29211621  2869.53503917
0.38700002 27640.08856600  1608.65323075
0.38800002 27819.07885807  1947.89199392
0.38900002 27999.15078703  1801.74543850
0.39000002 28180.87506483  2148.65092111
0.39100002 28362.43902299  1834.48264292
0.39200002 28545.20250953  1851.01374443
0.39300002 28728.00370946  2037.39011960
0.39400002 28912.23000238  2398.26959232
0.39500002 29095.69413818  2419.59803917
0.39600002 29279.42624217  2441.02588146
0.39700002 29462.81608298  1758.93020349
0.39800002 29647.29268115  2306.70771635
0.39900002 29830.68902171  1968.82556871
0.40000002 30013.66964397  2346.91900900
0.40100002 30196.26082303  2367.08499807
0.40200002 30379.46296991  2387.37021060
0.40300002 30560.94523191  2407.59137944
0.40400002 30741.86859502  2054.32546620
0.40500002 30922.04780204  1883.15280037
0.40600002 31101.73528442  2088.63713199
0.40700002 31280.19045450  2297.21729582
0.40800002 31457.80790769  2122.93026724
0.40900002 31633.47892789  2529.09676012
0.41000002 31808.95031177  2353.22625557
0.41100002 31982.75312699  2174.18766059
0.41200002 32154.43391408  2589.55745797
0.41300002 32325.24031485  2609.61677427
0.41400002 32494.30057589  3034.15546004
0.41500002 32662.27318890  2853.37632098
0.41600002 32827.31481116  3080.02295810
0.41700002 32991.50560990  2482.28099971
0.41800002 33154.66611251  2292.14795030
0.41900002 33313.94158265  2518.53410299
0.42000002 33472.05959937  2113.76066386
0.42100002 33628.65795520  2554.43297932
0.42200002 33783.08761495  3000.95181504
0.42300002 33934.61157923  2374.06553858
0.42400002 34084.27836999  2607.44741886
0.42500002 34231.99889876  2843.65228327
0.42600002 34376.08842889  2421.96742503
0.42700002 34519.04935545  2216.12307363
0.42800002 34659.08205694  2899.40564687
0.42900002 34797.22111675  2693.30504206
0.43000002 34932.79722569  2484.24599243
0.43100002 35064.49043607  2272.17908793
0.43200002 35194.40383062  2285.87663712
0.43300002 35321.40163580  2759.30802655
0.43400002 35446.05019969  3006.71135067
0.43500002 35567.42897216  3023.94295451
0.43600002 35687.07768463  3275.00327432
0.43700002 35802.82719368  2587.47044391
0.43800002 35915.18079277  2365.01476728
0.43900002 36025.60912266  2377.69031477
0.44000002 36132.42989420  3585.24052616
0.44100002 36237.08774809  3123.27474102
0.44200002 36338.40075958  2897.62421389
0.44300002 36436.90651967  4125.38675166
0.44400002 36531.89195944  3170.05507501
0.44500002 36622.87451892  2450.07042143
0.44600002 36711.82530686  2953.83360418
0.44700002 36797.84108506  2720.09654192
0.44800002 36879.51337056  2980.60241186
0.44900002 36959.57410224  2744.24850715
0.45000002 37036.04183639  2756.03718387
0.45100002 37108.13611360  3019.11809729
0.45200002 37177.94424630  2778.86557439
0.45300002 37243.85466201  2536.30662269
0.45400002 37307.16118278  4073.94219424
0.45500002 37367.11727586  2811.50203708
0.45600002 37423.62772479  2821.92878233
0.45700002 37476.73283761  3347.04716836
0.45800002 37525.92169159  3100.39179710
0.45900002 37572.21357458  3629.47600332
0.46000002 37615.90273421  3121.36775682
0.46100002 37654.97443103  2870.43883692
0.46200002 37691.52736781  3141.21203971
0.46300002 37724.56155845  2888.19256980
0.46400002 37753.64417271  2633.31680585
0.46500002 37780.44593097  4489.45060276
0.46600002 37802.98451220  2912.90910965
0.46700002 37822.13173301  3451.64790555
0.46800002 37838.79709832  3992.93925305
0.46900002 37851.21881178  3735.91547379
0.47000002 37860.03929585  3477.25547394
0.47100002 37866.11316222  4021.38140843
0.47200002 37868.57275398  3492.80797351
0.47300002 37868.36711999  3769.41744178
0.47400002 37863.19616940  2697.75285494
0.47500002 37856.02256619  2973.21215327
0.47600002 37845.83692295  3249.44371222
0.47700002 37831.08099466  3254.98636306
