# SAXS profile: number of points = 501, q_min = 0, q_max = 0.5, delta_q = 0.001
#    q    intensity    error
0.00000000 1664650.74656091 374.54641798
0.00100000 1664582.06556981 699.12448414
0.00200000 1664375.96056952 823.86612657
0.00300000 1664032.61519400 1098.26156515
0.00400000 1663551.87773305 1372.43035128
0.00500000 1662934.23394031 1945.63313072
0.00600000 1662179.38164238 2792.46147485
0.00700000 1661288.01321787 3588.38225768
0.00800000 1660259.52263112 2465.48549520
0.00900000 1659095.36008775 3235.23609047
0.01000000 1657794.58155757 3555.96953099
0.01100000 1656358.50888036 2981.44544579
0.01200000 1654786.54584975 4194.88407765
0.01300000 1653080.14475250 3818.61530280
0.01400000 1651238.46680430 4458.34405801
0.01500000 1649263.39699613 5145.70202776
0.01600000 1647153.72923166 4620.26641704
0.01700000 1644911.56333454 5329.51370428
0.01800000 1642536.51900985 4681.22928982
0.01900000 1640029.24821718 6396.11435666
0.02000000 1637390.48985095 6189.33633162
0.02100000 1634621.80209368 5933.67741062
0.02200000 1631721.40795472 6755.32693584
0.02300000 1628692.19637972 7622.27982601
0.02400000 1625534.09903446 6705.32846426
0.02500000 1622248.31903061 6959.44560648
0.02600000 1618835.20916746 8523.16776610
0.02700000 1615295.67231184 6784.24213444
0.02800000 1611629.66455360 8412.70723477
0.02900000 1607839.69340224 9405.86263827
0.03000000 1603926.20564847 12679.03723845
0.03100000 1599889.26179404 9983.30945296
0.03200000 1595730.00649964 8688.75028558
0.03300000 1591451.12423063 10551.32144007
0.03400000 1587050.77982514 10831.62207208
0.03500000 1582532.13534733 9400.24131805
0.03600000 1577895.10445751 12260.24552823
0.03700000 1573141.42062295 10760.28781470
0.03800000 1568272.27250916 11009.27186252
0.03900000 1563289.26081785 11255.68319914
0.04000000 1558190.95160145 10541.16227605
0.04100000 1552981.57079465 10762.16278461
0.04200000 1547661.22050433 16970.10607012
0.04300000 1542229.94783714 14250.20537948
0.04400000 1536691.79036929 15559.00510008
0.04500000 1531045.97866184 12677.06129236
0.04600000 1525293.01522786 17205.30601159
0.04700000 1519436.11235621 13127.92862131
0.04800000 1513475.38395547 15573.66242551
0.04900000 1507413.72363340 13566.72414420
0.05000000 1501250.45179810 16078.39308747
0.05100000 1494988.99610629 15159.18912669
0.05200000 1488627.58326767 11834.58983848
0.05300000 1482171.93642058 15607.27121809
0.05400000 1475620.02247616 13391.25232846
0.05500000 1468975.78733254 16041.21634598
0.05600000 1462237.94505687 16252.77551773
0.05700000 1455411.43193445 12662.08004888
0.05800000 1448494.70863484 19228.76815496
0.05900000 1441490.08115930 15568.09360364
0.06000000 1434399.98350023 18374.66464708
0.06100000 1427226.21005833 17255.16568596
0.06200000 1419969.19080333 22811.80611656
0.06300000 1412631.92022067 13561.26706818
0.06400000 1405212.48029748 19181.15125310
0.06500000 1397717.43868343 15221.14361927
0.06600000 1390144.33780920 23750.61712273
0.06700000 1382496.53034471 15511.61179639
0.06800000 1374776.38630350 21343.40439643
0.06900000 1366985.27126241 20094.68442837
0.07000000 1359122.51919572 15922.12105799
0.07100000 1351192.86932522 14592.88367221
0.07200000 1343195.27046020 17649.58668067
0.07300000 1335134.62040795 20747.99297330
0.07400000 1327010.10820369 17914.63730030
0.07500000 1318824.16498379 15034.59618552
0.07600000 1310577.08402453 15137.16603012
0.07700000 1302274.03568041 19807.58901145
0.07800000 1293913.34515715 22999.31078875
0.07900000 1285497.21664687 16968.56405563
0.08000000 1277029.69798368 17067.50271421
0.08100000 1268510.43329962 17162.94696780
0.08200000 1259941.10377037 23529.40121703
0.08300000 1251324.06702878 17343.35238298
0.08400000 1242660.29448211 19012.70339801
0.08500000 1233953.58412082 19101.60237892
0.08600000 1225203.31595039 17587.79442624
0.08700000 1216412.82296872 17662.31501889
0.08800000 1207580.82055640 17733.32518269
0.08900000 1198713.63234329 21037.42523575
0.09000000 1189809.65169540 16240.90250857
0.09100000 1180871.75622515 17925.63410167
0.09200000 1171900.80771249 19617.62044287
0.09300000 1162900.24979533 19676.27315117
0.09400000 1153868.40576273 16442.62555488
0.09500000 1144809.85074260 18133.78888810
0.09600000 1135725.43270259 19829.76698714
0.09700000 1126617.95277995 18217.41315290
0.09800000 1117488.49300226 28210.99833226
0.09900000 1108338.68406087 19950.09725120
0.10000000 1099168.72652429 18317.64768895
0.10100000 1089980.64378425 18344.37509766
0.10200000 1080777.46231756 20037.61509386
0.10300000 1071559.59259538 21731.22956009
0.10400000 1062330.15060612 21751.21085695
0.10500000 1053091.25857269 20092.98215893
0.10600001 1043839.59412495 20104.35152883
0.10700001 1034582.99834791 20112.29443432
0.10800001 1025318.29484801 18440.35040068
0.10900001 1016049.98730271 18441.30813750
0.11000001 1006778.27244629 20115.43083030
0.11100001 997505.07905336 18433.89472865
0.11200001 988232.97336098 20100.65962444
0.11300001 978960.68966030 21762.29715574
0.11400001 969692.50781777 21745.35551168
0.11500001 960429.29469164 18382.61756600
0.11600001 951171.33823002 18362.36354924
0.11700001 941922.41184006 21673.63571716
0.11800001 932679.83663218 19978.00304159
0.11900001 923448.80210491 16622.07922082
0.12000001 914228.96547499 18252.58215549
0.12100001 905023.79686632 19874.32351543
0.12200001 895831.82512175 16528.09795216
0.12300001 886656.30134553 16491.80798203
0.12400001 877497.48204497 23034.30998900
0.12500001 868357.29709928 19694.34442622
0.12600001 859238.41293801 21279.04029915
0.12700001 850140.27979122 17954.96355534
0.12800001 841063.61330450 17902.03985290
0.12900001 832011.42318173 17846.64586840
0.13000001 822984.17659340 19405.96779877
0.13100001 813982.17654472 24175.27178294
0.13200001 805008.77858734 17665.91847888
0.13300001 796064.66088802 16000.90043818
0.13400001 787148.99015376 17533.74458231
0.13500001 778265.20064608 20639.59409425
0.13600001 769412.66109151 20554.86021024
0.13700001 760593.89846683 17318.72388472
0.13800001 751808.08097216 17242.71915019
0.13900001 743060.07213974 23406.39337620
0.14000001 734346.89367479 17084.58128706
0.14100001 725671.83545076 18548.17298891
0.14200001 717034.02295460 18456.45662136
0.14300001 708438.43131368 22953.40625722
0.14400001 699878.87865220 18266.83959447
0.14500001 691364.76113695 19683.15567807
0.14600001 682890.47049896 15057.73558484
0.14700001 674462.38017687 17967.67865556
0.14800001 666076.00861738 19352.83934342
0.14900001 657734.36933493 19238.73121075
0.15000001 649439.27378272 20593.72034332
0.15100001 641190.86460305 24852.55908468
0.15200001 632990.80197814 29054.27918178
0.15300001 624839.01892243 15877.16022005
0.15400001 616734.35161868 22942.51896290
0.15500001 608681.21431937 24213.33984832
0.15600001 600676.67604965 15560.53002744
0.15700001 592727.13313553 18261.92383381
0.15800001 584824.69598729 16737.68358915
0.15900001 576978.07197719 19386.46413349
0.16000001 569182.20455413 17869.47615546
0.16100001 561443.40274819 20464.61299619
0.16200001 553756.60468518 21662.95939791
0.16300001 546126.08172947 16121.64269372
0.16400001 538550.80561193 17327.87298861
0.16500001 531031.96691392 17189.50558054
0.16600001 523569.52653362 13115.41725889
0.16700001 516163.79281126 13007.32819298
0.16800001 508814.41690627 18057.82450863
0.16900001 501525.54941059 17904.46295937
0.17000001 494294.24940440 12678.64809590
0.17100001 487121.73869815 12567.74145188
0.17200001 480009.03586316 13701.85857576
0.17300001 472955.93293828 14812.98051916
0.17400001 465963.55071403 14677.85254067
0.17500001 459031.03695452 14542.10393751
0.17600001 452157.49481065 14405.73846504
0.17700001 445347.64247348 19025.25218504
0.17800001 438597.91545320 16486.89642060
0.17900001 431909.77198393 11661.56439438
0.18000001 425284.34043989 12701.11742718
0.18100001 418721.90872133 13717.33037767
0.18200001 412219.04660110 14710.03737283
0.18300001 405781.19146959 11199.56141362
0.18400001 399404.57472494 14408.52071387
0.18500001 393091.86135713 12063.98979498
0.18600001 386841.94702888 14106.19226483
0.18700001 380654.53969298 11807.90437914
0.18800001 374530.37189213 10617.93654480
0.18900001 368471.40997728 11551.57924857
0.19000001 362471.62294431 10384.81248802
0.19100001 356540.61689711 10268.37025182
0.19200001 350669.45662430 12182.25749876
0.19300001 344864.07006700 12042.65389579
0.19400001 339121.28885127 10911.22798439
0.19500001 333442.64064603 10783.53550807
0.19600001 327826.50742449 11624.72850261
0.19700001 322274.81069517 10528.71856297
0.19800001 316786.43139047 9456.07542389
0.19900001 311362.36098385 12143.13265225
0.20000001 305999.67310473 11071.06869616
0.20100001 300702.12218887 10022.40220624
0.20200001 295466.65990389 8996.96021930
0.20300001 290294.99106638 9771.32986113
0.20400001 285186.26537161 17538.95614935
0.20500001 280139.52968127 11253.20543920
0.20600001 275156.17289620 11961.03940117
0.20700001 270235.10590033 12647.00355395
0.20800001 265376.29520743 11647.36614723
0.20900001 260581.62058513 9849.98572374
0.21000001 255846.68100517 8097.54783660
0.21100001 251173.58016619 11182.24831762
0.21200001 246562.07330614 10240.95619891
0.21300001 242011.71316197 10099.14926769
0.21400001 237523.49012502 9192.15950241
0.21500001 233096.42610248 7552.32456278
0.21600001 228728.21990778 7445.10390999
0.21700001 224421.41126156 9540.15464378
0.21800001 220174.44890706 9402.55028513
0.21900001 215986.06572610 8553.04860716
0.22000001 211856.94589958 9129.97551523
0.22100001 207789.16203210 8303.25530741
0.22200001 203779.05488172 7498.05067891
0.22300001 199827.14877136 10071.28877430
0.22400001 195931.80048635 9919.04786866
0.22500001 192097.45663138 7814.52490529
0.22600001 188318.39765151 9618.36261489
0.22700001 184597.53965788 6944.55977033
0.22800001 180932.68027864 8701.05300607
0.22900001 177323.64756358 10400.03242143
0.23000001 173770.79009281 7225.38979376
0.23100001 170275.22107089 7110.69356820
0.23200001 166832.62217218 6996.96050481
0.23300001 163446.09317702 6884.34977021
0.23400001 160113.78313917 8466.01668389
0.23500001 156834.25428115 7217.51272338
0.23600001 153609.14420710 5460.80533484
0.23700001 150437.04077807 9667.08469763
0.23800001 147317.49722235 5809.46577774
0.23900001 144250.53726695 5712.32154596
0.24000001 141235.02759152 7147.90508451
0.24100001 138272.09676526 7026.98829000
0.24200001 135359.42051653 4933.85111121
0.24300001 132497.35973935 5819.28431502
0.24400001 129684.78314887 6195.69080802
0.24500001 126922.23704765 7025.14615291
0.24600001 124209.04877992 4601.94547499
0.24700001 121545.14086544 7234.36712654
0.24800001 118928.43717923 5774.57054041
0.24900001 116359.61937060 5672.53171267
0.25000001 113838.70253526 5143.23282386
0.25100001 111363.81846338 5893.37355189
0.25200001 108936.43401828 4547.55165324
0.25300001 106555.17747482 4871.70294463
0.25400001 104218.42056795 5182.26120792
0.25500001 101926.93394438 5479.59222810
0.25600001 99680.33832318  4611.21266900
0.25700001 97477.52523772  5658.57060778
0.25800001 95317.97045697  5184.34465845
0.25900001 93202.12243708  5452.32442054
0.26000001 91129.20746229  5708.33382553
0.26100001 89096.32344573  5602.37708335
0.26200001 87107.67799763  4123.67767153
0.26300001 85158.69111051  4721.19805856
0.26400001 83250.36451890  4963.80321932
0.26500001 81383.15175849  4221.34428146
0.26600001 79554.61258909  3504.77862346
0.26700001 77766.39842459  3751.45123752
0.26800001 76016.75469477  3374.00381679
0.26900001 74304.79706107  3611.21330806
0.27000001 72631.32031418  4428.69496573
0.27100001 70994.96035548  3186.25397154
0.27200001 69395.95849311  3410.11756173
0.27300001 67832.74294067  3624.30362684
0.27400001 66304.40773386  3555.57403299
0.27500001 64813.72529531  3488.27486048
0.27600001 63356.02651988  3685.42023708
0.27700001 61934.47127653  4132.26811914
0.27800001 60545.78846731  3040.60964073
0.27900001 59191.41283533  2734.64340242
0.28000001 57869.52141875  2439.20044324
0.28100001 56580.38978798  2632.68566144
0.28200001 55323.81517511  2348.49606534
0.28300001 54098.91384193  3456.92075812
0.28400001 52905.30903081  2261.70206812
0.28500001 51742.81363323  2663.72017192
0.28600001 50609.82295874  2614.50357780
0.28700001 49507.39654528  2566.46355838
0.28800001 48433.77150116  2729.48532214
0.28900001 47390.45528969  2473.78188321
0.29000001 46374.50505391  2429.09668970
0.29100001 45387.90475184  2385.58838668
0.29200001 44428.23232219  2538.40717388
0.29300001 43495.97784786  2301.80725667
0.29400001 42590.27486054  1884.61975179
0.29500001 41712.24965437  2963.23835572
0.29600001 40858.89333926  1820.26378443
0.29700001 40031.04705603  1968.32667692
0.29800001 39228.93405905  1935.35955342
0.29900001 38451.53420985  2249.41485776
0.30000001 37698.16330036  1872.27936895
0.30100001 36969.63976261  1674.72476053
0.30200001 36263.34187825  2472.25344959
0.30300001 35580.74826719  2271.47507691
0.30400001 34921.59084081  1757.42914226
0.30500001 34283.36042992  2360.40947735
0.30600001 33667.51750794  1705.42818010
0.30700001 33073.69327532  2139.20658232
0.30800001 32500.58508479  2259.60328500
0.30900001 31948.23691876  1782.71170447
0.31000001 31417.09957805  1465.60776470
0.31100001 30904.26351431  2314.11136151
0.31200001 30412.26266167  1713.42695948
0.31300001 29938.87902880  2397.20615733
0.31400001 29485.71831489  2368.44043578
0.31500001 29050.21791536  1514.67843382
0.31600002 28632.84106618  1769.93915431
0.31700002 28232.99682142  1481.38541336
0.31800002 27850.93634007  1865.73431376
0.31900002 27486.30710705  1451.27708397
0.32000002 27137.96849616  1306.69324496
0.32100002 26806.49858746  1683.18012601
0.32200002 26491.35086531  1411.85661122
0.32300002 26191.24757648  1400.18416174
0.32400002 25906.87331354  1894.44020076
0.32500002 25637.08850340  1379.01905590
0.32600002 25382.79823818  1743.03683755
0.32700002 25142.60893882  2226.62955306
0.32800002 24917.38906039  1475.60785003
0.32900002 24704.63189854  1467.45520426
0.33000002 24507.11090767  1703.48935986
0.33100002 24320.41171870  1332.27221704
0.33200002 24149.02383206  1688.74131655
0.33300002 23989.02827522  1802.77556025
0.33400002 23842.07517348  1317.87076762
0.33500002 23706.62021405  1194.81371537
0.33600002 23582.92371590  1311.32853532
0.33700002 23469.94222238  1546.90396513
0.33800002 23369.63849853  1782.51926089
0.33900002 23278.84525811  1899.55386302
0.34000002 23199.47160595  1423.98363461
0.34100002 23130.20493663  1186.57956944
0.34200002 23072.04135818  1187.05658410
0.34300002 23022.23745361  1425.53701064
0.34400002 22982.84932894  1308.29876001
0.34500002 22952.35345703  1786.84080125
0.34600002 22932.15215216  1432.34229126
0.34700002 22918.62845348  1315.98770813
0.34800002 22915.32222575  1799.42576300
0.34900002 22919.91218332  1564.28408060
0.35000002 22932.52476877  1328.13723489
0.35100002 22953.21395450  1211.92975420
0.35200002 22980.63601501  1338.50720809
0.35300002 23015.93134898  1466.57521502
0.35400002 23058.77162247  1964.60743529
0.35500002 23108.25119897  1604.17487421
0.35600002 23164.01051464  1736.60595054
0.35700002 23226.45800577  1371.98693938
0.35800002 23295.70144041  1630.81565658
0.35900002 23370.52814506  1514.41029553
0.36000002 23451.97326549  1650.90173622
0.36100002 23538.22276172  1405.93811215
0.36200002 23631.01293437  1930.06307283
0.36300002 23727.38573981  1554.61838731
0.36400002 23829.63120867  1957.00855571
0.36500002 23936.28910786  1445.51256769
0.36600002 24048.24103641  1588.62687812
0.36700002 24164.13291123  1333.86019988
0.36800002 24285.77288202  2285.16990758
0.36900002 24410.58112397  1354.78731656
0.37000002 24538.35926579  1502.11573361
0.37100002 24670.52548494  1789.60000345
0.37200002 24806.65548868  1665.51892841
0.37300002 24945.56918739  1539.39114748
0.37400002 25088.86276854  1552.37345734
0.37500002 25234.05944863  1850.16132642
0.37600002 25383.27749464  1722.50929238
0.37700002 25534.10063881  1592.56193229
0.37800002 25688.38581777  1898.50024380
0.37900002 25844.97894742  1620.48025677
0.38000002 26003.99274862  1634.74108158
0.38100002 26164.68528012  1649.16019133
0.38200002 26327.60508953  1815.02518086
0.38300002 26492.33237952  1678.55425909
0.38400002 26659.28395231  1693.53109330
0.38500002 26826.77985278  2329.90594059
0.38600002 26996.95852255  2507.47762637
0.38700002 27167.43402088  2213.60262889
0.38800002 27339.14438087  1595.23915020
0.38900002 27511.98292797  2414.17661630
0.39000002 27686.58747822  2598.10949204
0.39100002 27861.06903647  1638.23093696
0.39200002 28036.79526833  1983.32299124
0.39300002 28212.63900827  1834.10374882
0.39400002 28389.92560806  2018.52380637
0.39500002 28566.61479505  1866.54269914
0.39600002 28743.57734304  2054.01613425
0.39700002 28920.34481675  1899.19913410
0.39800002 29098.19587212  2089.83252655
0.39900002 29275.05513874  2107.80406985
0.40000002 29451.75801777  2480.13266018
0.40100002 29628.00232233  2322.53921209
0.40200002 29805.01336486  2522.39840058
0.40300002 29980.40880499  2361.85671756
0.40400002 30155.27050769  2015.12604715
0.40500002 30329.60679547  2031.78045549
0.40600002 30503.44773840  2048.45912993
0.40700002 30676.24896151  2628.34113556
0.40800002 30848.37230372  2271.05727661
0.40900002 31018.59382026  3052.22977653
0.41000002 31188.71735289  2499.61987068
0.41100002 31357.27875627  2131.66791085
0.41200002 31523.94734886  1952.90863080
0.41300002 31689.83565268  2361.52666473
0.41400002 31854.11797883  2776.08651339
0.41500002 32017.41549798  2197.67550391
0.41600002 32177.91222305  2214.00135541
0.41700002 32337.62744605  2027.56933694
0.41800002 32496.53843893  2859.37055273
0.41900002 32651.66441674  2057.05495573
0.42000002 32805.73735467  3936.19658301
0.42100002 32958.53416898  2086.27531175
0.42200002 33109.24732354  2310.86002645
0.42300002 33257.27803008  2749.71187782
0.42400002 33403.45856283  2768.31175957
0.42500002 33547.90925700  2358.08265341
0.42600002 33688.91306540  2373.55248250
0.42700002 33828.90761368  2388.99756888
0.42800002 33966.12193202  2622.86405988
0.42900002 34101.60128693  3079.37474213
0.43000002 34234.67879192  2213.27208878
0.43100002 34363.99176932  3785.53751270
0.43200002 34491.75518980  2464.26356631
0.43300002 34616.74984595  2929.61567829
0.43400002 34739.47750253  2266.75101446
0.43500002 34859.23192338  4103.62897648
0.43600002 34977.28192786  2292.76093902
0.43700002 35091.64649680  2997.17766932
0.43800002 35202.74675329  3245.34137698
0.43900002 35312.18832173  3262.84635555
0.44000002 35418.05786910  3045.77603079
0.44100002 35521.95568212  3768.16923733
0.44200002 35622.71672872  2603.84260268
0.44300002 35720.78374813  2379.00431037
0.44400002 35815.54445326  2629.75647611
0.44500002 35906.49428376  2642.35903957
0.44600002 35995.43991147  3137.54266858
0.44700002 36081.65230643  2424.68714990
0.44800002 36163.84256480  3897.01585947
0.44900002 36244.41141896  2935.79746407
0.45000002 36321.56354708  3194.30005753
0.45100002 36394.55655570  3454.57147199
0.45200002 36465.38447735  3468.95218973
0.45300002 36532.56924852  3483.01531722
0.45400002 36597.24460438  2997.31447515
0.45500002 36658.73967813  3008.94949539
0.45600002 36716.82840591  2516.93870651
0.45700002 36771.83397316  4294.58269326
0.45800002 36823.03724347  4056.42597499
0.45900002 36871.48793673  3052.95934585
0.46000002 36917.49986184  2552.84523644
0.46100002 36959.14081323  3329.64915367
0.46200002 36998.35768340  3083.44327547
0.46300002 37034.05936343  2835.32771925
0.46400002 37066.12298076  2843.89842049
0.46500002 37095.99307820  2593.01003906
0.46600002 37121.76629322  3900.56977813
0.46700002 37144.35031662  3911.30027372
0.46800002 37164.52778848  2875.97711922
0.46900002 37180.63247170  3145.48165619
0.47000002 37193.38409313  2627.71271072
0.47100002 37203.38543893  3687.59973949
0.47200002 37209.91724866  2904.04812932
0.47300002 37213.92852700  3439.68357678
0.47400002 37213.27286713  2916.59039920
0.47500002 37210.60797858  3719.57254984
0.47600002 37205.10146684  3194.43016335
0.47700002 37195.18757831  3200.27409092
