# SAXS profile: number of points = 501, q_min = 0, q_max = 0.5, delta_q = 0.001
#    q    intensity    error
0.00000000 1664650.74656091 374.54641798
0.00100000 1664582.12613165 499.37464970
0.00200000 1664376.20433060 898.76317880
0.00300000 1664033.17017277 998.41993767
0.00400000 1663552.87054921 1247.66470032
0.00500000 1662935.77136140 1795.97070416
0.00600000 1662181.59454143 1745.29074532
0.00700000 1661291.01625992 2392.25916284
0.00800000 1660263.47522590 2689.62694342
0.00900000 1659100.31688238 3235.24575622
0.01000000 1657800.72837688 4376.59411189
0.01100000 1656365.90848069 5068.47990063
0.01200000 1654795.36931043 4194.90644512
0.01300000 1653090.49948115 4512.93726263
0.01400000 1651250.48057267 5572.97061899
0.01500000 1649277.13616811 4354.09183337
0.01600000 1647169.34659963 6720.45123455
0.01700000 1644929.20008515 5773.70175130
0.01800000 1642556.27445529 5149.41415213
0.01900000 1640051.28367863 5904.18488766
0.02000000 1637414.83168837 6189.42834376
0.02100000 1634648.59318103 8091.51090310
0.02200000 1631750.80537192 6192.49458773
0.02300000 1628724.26172384 7036.08913092
0.02400000 1625568.94039708 6705.47218489
0.02500000 1622286.07500065 7592.29917775
0.02600000 1618875.93683974 7212.09262849
0.02700000 1615339.55830998 10855.08232902
0.02800000 1611676.75196622 7010.79419257
0.02900000 1607890.15987743 8682.60726199
0.03000000 1603980.10531900 7458.50783257
0.03100000 1599946.68152006 10751.64219453
0.03200000 1595791.05284608 11058.83250557
0.03300000 1591515.96762536 9740.07817089
0.03400000 1587119.46157858 11665.32858085
0.03500000 1582604.87240125 8546.06670561
0.03600000 1577971.79040964 9633.51822565
0.03700000 1573222.21773626 17934.73411163
0.03800000 1568357.31379835 11009.86885240
0.03900000 1563378.69703717 11256.32713995
0.04000000 1558284.83238366 12458.48781222
0.04100000 1553079.87442120 12719.72476128
0.04200000 1547764.08740219 10981.38670958
0.04300000 1542337.64976380 11197.37185704
0.04400000 1536804.10995128 13485.45669111
0.04500000 1531163.18679263 10565.02647977
0.04600000 1525415.15330788 12905.01279690
0.04700000 1519563.26583258 12034.94162511
0.04800000 1513607.60329436 12237.51804202
0.04900000 1507551.06416103 13567.96020900
0.05000000 1501393.11472375 14931.35522122
0.05100000 1495136.94558555 11662.06871883
0.05200000 1488781.02721850 14202.97166154
0.05300000 1482330.73874404 18010.31931534
0.05400000 1475784.19360337 13392.74218151
0.05500000 1469145.67462385 16043.07151529
0.05600000 1462413.36236547 15004.36179804
0.05700000 1455592.68467181 12663.65694777
0.05800000 1448681.69917431 15385.00036359
0.05900000 1441682.78007152 15570.17475199
0.06000000 1434598.63658764 14439.23595184
0.06100000 1427430.78500473 19912.66038136
0.06200000 1420179.60921461 13420.69793441
0.06300000 1412848.37947660 14919.67958485
0.06400000 1405435.05473034 13702.99242446
0.06500000 1397946.13422498 24911.40127719
0.06600000 1390379.24459283 20959.96809292
0.06700000 1382737.39644652 22566.27536609
0.06800000 1375023.62948493 14231.49523133
0.06900000 1367238.69631211 18662.80907843
0.07000000 1359382.24054236 17372.90584768
0.07100000 1351458.87538762 16055.33219160
0.07200000 1343467.64349560 26479.74849379
0.07300000 1335413.37395387 25199.25154724
0.07400000 1327295.18475644 16425.27868112
0.07500000 1319115.70352001 15037.91972499
0.07600000 1310875.04053597 19682.78965639
0.07700000 1302578.34092909 18288.20076415
0.07800000 1294224.21081758 16870.21337916
0.07900000 1285814.60600107 18515.73119487
0.08000000 1277353.32393222 17071.82797521
0.08100000 1268840.91912726 17167.41844126
0.08200000 1260277.84876876 17259.50594879
0.08300000 1251667.21498143 22079.41070850
0.08400000 1243010.06346680 19018.05486372
0.08500000 1234309.95611801 20699.37893583
0.08600000 1225566.03105143 20791.72869299
0.08700000 1216782.03715889 24092.28546706
0.08800000 1207956.55367062 20964.08697351
0.08900000 1199095.74404586 24281.68995743
0.09000000 1190198.19340528 16246.20610316
0.09100000 1181266.68323090 21191.92529278
0.09200000 1172302.05270075 19624.33728429
0.09300000 1163308.00929625 21323.43681243
0.09400000 1154282.55981637 18093.37997546
0.09500000 1145230.18615478 23087.84163807
0.09600000 1136151.93985022 19837.21380229
0.09700000 1127050.99019881 16567.65033481
0.09800000 1117927.67661503 24901.84016743
0.09900000 1108784.14633832 16631.76297714
0.10000000 1099620.02219155 16659.24411964
0.10100000 1090438.44402744 25025.56346743
0.10200000 1081241.32893976 26728.28690859
0.10300000 1072029.42912756 18396.02586919
0.10400000 1062805.78347253 20087.03025263
0.10500000 1053573.03203669 18426.99319730
0.10600001 1044327.20042641 21789.88806219
0.10700001 1035076.50670570 20121.88823725
0.10800001 1025817.59541041 23480.96586400
0.10900001 1016554.98904068 21805.10554119
0.11000001 1007288.87125642 18448.49654542
0.11100001 998021.16837558 20120.10770157
0.11200001 988754.75566096 18435.33328718
0.11300001 979487.76111058 20099.08980427
0.11400001 970225.01059697 25104.57333123
0.11500001 960967.21336343 20064.99635985
0.11600001 951714.44903677 21713.36617729
0.11700001 942470.43857771 18349.90030330
0.11800001 933233.39544346 21655.68196121
0.11900001 924007.30553019 21621.77196783
0.12000001 914792.34105760 23244.87448122
0.12100001 905591.91708906 23201.26600879
0.12200001 896404.71818581 21500.26817859
0.12300001 887234.09283335 21453.32137547
0.12400001 878079.87317416 23049.59775686
0.12500001 868944.20620944 22992.26477971
0.12600001 859829.59034968 18017.72991484
0.12700001 850736.04137949 21234.37259353
0.12800001 841663.56381804 22800.66701841
0.12900001 832615.55575962 17859.60451280
0.13000001 823592.26306844 17801.94760532
0.13100001 814594.32870059 22580.55585597
0.13200001 805624.61214401 25715.53883188
0.13300001 796684.46459590 19216.03019195
0.13400001 787772.38612201 17547.63072816
0.13500001 778892.07504804 19067.27889616
0.13600001 770042.93738615 17406.82142036
0.13700001 761227.51373519 17333.15130507
0.13800001 752444.90874939 23532.71563084
0.13900001 743700.07520022 18741.24277885
0.14000001 734989.82557723 17099.53909848
0.14100001 726317.74031308 15470.56859831
0.14200001 717682.75805010 18473.15506350
0.14300001 709089.74869929 16847.97322377
0.14400001 700532.83734539 21331.22590336
0.14500001 692021.07473933 18186.31470204
0.14600001 683549.14766698 22608.38912562
0.14700001 675123.33393589 20982.83420862
0.14800001 666739.02338948 16391.77966337
0.14900001 658399.35105132 19258.18192687
0.15000001 650106.11298211 14724.90415381
0.15100001 641859.34248804 16097.83306918
0.15200001 633660.86287555 17451.02098705
0.15300001 625510.53550521 15894.22345722
0.15400001 617407.13327757 15790.18817873
0.15500001 609355.37277132 14258.91639577
0.15600001 601351.89729433 19826.57298951
0.15700001 593403.37268467 19689.12483494
0.15800001 585501.76876543 15360.63962856
0.15900001 577655.89968315 19409.23914548
0.16000001 569860.60281568 13762.13420760
0.16100001 562122.12754732 16391.48201303
0.16200001 554435.70782216 14911.54906579
0.16300001 546805.46839120 16141.69818892
0.16400001 539230.17464228 14680.54219770
0.16500001 531711.34479787 15887.53573263
0.16600001 524248.70182099 17072.15978083
0.16700001 516842.47125421 13024.43089055
0.16800001 509492.88644337 12915.64528117
0.16900001 502203.44964017 16648.04514166
0.17000001 494971.31086063 13965.61619538
0.17100001 487798.19156183 13843.71333024
0.17200001 480684.36464865 14968.51182202
0.17300001 473630.04531342 14834.09371975
0.17400001 466636.52194118 13474.13020738
0.17500001 459702.69784975 15776.99733531
0.17600001 452827.59484785 15629.34517433
0.17700001 446016.12395426 13099.49417923
0.17800001 439264.69990319 14153.10929936
0.17900001 432574.72735022 14015.42182815
0.18000001 425947.20513539 13877.36059881
0.18100001 419382.59546933 13738.97447656
0.18200001 412877.41138480 11333.48547788
0.18300001 406437.34594240 12339.43840572
0.18400001 400058.20324049 12211.77723081
0.18500001 393742.79291974 10985.42444144
0.18600001 387490.06581365 10869.09685957
0.18700001 381299.93248636 12903.19032495
0.18800001 375172.45623006 14890.59549129
0.18900001 369110.50156857 12623.57975008
0.19000001 363107.53969249 10403.03150372
0.19100001 357173.12587016 12343.90381332
0.19200001 351298.24170873 12204.10149362
0.19300001 345489.45602600 12064.49237451
0.19400001 339742.84208915 12918.72218090
0.19500001 334060.38954167 9821.37591664
0.19600001 328440.21784636 10675.94978560
0.19700001 322884.36656199 14384.49921011
0.19800001 317391.87598913 16106.05150822
0.19900001 311963.40283462 11230.68303281
0.20000001 306596.37952364 11092.65753542
0.20100001 301294.22991732 10955.05871756
0.20200001 296054.03516669 13522.26869535
0.20300001 290877.66869222 9790.94279095
0.20400001 285764.04706173 9665.96934873
0.20500001 280712.36025380 10408.81481020
0.20600001 275723.96833291 12841.84443211
0.20700001 270797.65755413 10138.66477807
0.20800001 265933.53104602 11671.82322934
0.20900001 261133.55135018 9870.84870764
0.21000001 256392.95291451 11360.77228069
0.21100001 251714.34676812 11206.32324788
0.21200001 247097.05310450 11842.12682986
0.21300001 242541.03575265 8564.12437730
0.21400001 238046.63677958 9212.40527890
0.21500001 233613.70546680 9082.90129797
0.21600001 229239.52910844 8954.09643031
0.21700001 224926.50430143 7355.09703840
0.21800001 220673.25104106 9423.85163127
0.21900001 216478.57786052 7858.17274788
0.22000001 212343.10129965 11966.59603955
0.22100001 208268.80839009 9709.49230624
0.22200001 204252.04722272 8881.90069346
0.22300001 200293.51886973 7402.84880747
0.22400001 196391.45218764 7291.03300723
0.22500001 192550.18393265 7832.94185278
0.22600001 188764.20540997 7070.16364797
0.22700001 185036.44533763 6961.07140278
0.22800001 181364.53588141 6852.85931235
0.22900001 177748.47898897 6745.55509663
0.23000001 174188.44512057 7242.75589064
0.23100001 170685.58088963 8315.80189422
0.23200001 167235.68496929 8182.84245254
0.23300001 163841.78788184 9201.35524262
0.23400001 160502.09609831 6223.46907055
0.23500001 157215.01053330 7235.03512693
0.23600001 153982.39371151 7663.70409749
0.23700001 150802.72796604 8075.48646454
0.23800001 147675.59973243 6353.00460098
0.23900001 144600.84804288 5205.63077577
0.24000001 141577.63844826 5629.83505919
0.24100001 138606.98324693 6037.72047583
0.24200001 135686.40090983 6924.07736595
0.24300001 132816.59015706 6805.52240157
0.24400001 129996.04431563 5255.09034004
0.24500001 127225.62116223 5633.55077156
0.24600001 124504.31848358 8303.19339245
0.24700001 121832.45030872 5438.60083906
0.24800001 119207.75747729 4897.65094765
0.24900001 116630.80779760 4373.65549932
0.25000001 114101.73030160 5155.11641891
0.25100001 111618.75327610 4641.10798079
0.25200001 109183.36856648 4557.85993644
0.25300001 106793.83044939 4068.84513262
0.25400001 104448.93476855 5593.24072148
0.25500001 102149.30047050 5099.29332074
0.25600001 99894.41296954  5006.20874283
0.25700001 97683.33502676  6048.55239103
0.25800001 95515.66416907  4452.94047425
0.25900001 93391.50961740  4370.72285689
0.26000001 91310.31847945  3574.79913761
0.26100001 89269.23608596  4560.76548743
0.26200001 87272.33415703  3787.18311994
0.26300001 85315.07675373  5743.41123882
0.26400001 83398.46491116  3315.08913708
0.26500001 81523.04236006  3903.32345290
0.26600001 79686.14565564  3510.57331298
0.26700001 77889.81834403  4383.63918384
0.26800001 76131.99807989  3686.31152147
0.26900001 74411.77657200  3315.04480316
0.27000001 72730.07722292  3547.77333482
0.27100001 71085.52673207  2900.28962792
0.27200001 69478.32098161  2845.13737884
0.27300001 67906.91696765  3070.07186140
0.27400001 66370.58940811  3011.56563691
0.27500001 64871.75927121  3222.82915312
0.27600001 63405.86917828  3161.41678685
0.27700001 61976.26871341  2842.85158043
0.27800001 60579.60257446  3295.83343405
0.27900001 59217.27432504  2487.12563936
0.28000001 57887.53890047  2683.95586815
0.28100001 56590.42989279  3830.04047642
0.28200001 55325.98534731  3288.02346481
0.28300001 54093.13260448  2534.80431382
0.28400001 52891.78878608  2713.34889315
0.28500001 51721.51259461  3328.27949299
0.28600001 50580.91714724  2395.25944488
0.28700001 49470.75105220  2137.13654661
0.28800001 48389.43668924  2726.98683370
0.28900001 47338.57921160  2059.22829318
0.29000001 46315.12721780  2021.65539875
0.29100001 45320.99241662  2382.07147417
0.29200001 44354.04780486  2339.23259196
0.29300001 43414.28530645  2871.85510896
0.29400001 42501.35054691  2068.75333580
0.29500001 41615.97337581  2217.29916642
0.29600001 40755.49596639  2360.35466063
0.29700001 39920.54456219  3033.56232488
0.29800001 39111.34818401  2280.38726382
0.29900001 38326.90123548  2242.12382842
0.30000001 37566.70771853  2374.59170730
0.30100001 36831.30378502  1835.30395449
0.30200001 36118.18272560  2298.20007563
0.30300001 35428.82086517  2100.22060031
0.30400001 34763.02981284  1749.44955815
0.30500001 34118.32150192  2192.44344351
0.30600001 33495.86126591  1696.73293275
0.30700001 32895.55743936  2127.68475591
0.30800001 32316.15500687  2246.78078322
0.30900001 31757.52142493  2658.10466911
0.31000001 31220.18256731  1602.06374429
0.31100001 30701.22229205  1724.18072555
0.31200001 30203.27343371  1701.65250582
0.31300001 29723.86198272  1819.99215537
0.31400001 29264.85732507  2074.14686112
0.31500001 28823.55421572  1912.73114832
0.31600002 28400.56213546  1485.49147283
0.31700002 27995.01202958  1335.36213704
0.31800002 27607.44061862  2245.72736345
0.31900002 27237.32165944  1830.34810218
0.32000002 26883.69201117  1553.33979796
0.32100002 26546.98872996  1410.44157801
0.32200002 26226.61131182  2033.08700516
0.32300002 25921.38757970  2141.62514324
0.32400002 25632.09741355  1874.34721212
0.32500002 25357.50890729  2107.96981528
0.32600002 25098.38148928  1723.50593848
0.32700002 24853.46922138  1956.46518975
0.32800002 24623.61948101  1458.21081472
0.32900002 24406.38368429  1812.17407437
0.33000002 24204.38654385  1442.09741857
0.33100002 24013.38341816  1195.86655085
0.33200002 23837.88076654  1428.84264081
0.33300002 23673.68105670  1423.26177253
0.33400002 23522.73296900  1418.42086520
0.33500002 23383.33095729  1178.51993606
0.33600002 23255.88589105  1410.70210496
0.33700002 23139.12085522  1290.46883121
0.33800002 23035.20857541  1522.74253499
0.33900002 22940.94019220  1286.98680573
0.34000002 22858.10026112  1636.86863722
0.34100002 22785.56602223  1519.56946999
0.34200002 22724.14367795  1169.15724760
0.34300002 22671.23802337  1871.73749985
0.34400002 22628.82413565  1171.04170448
0.34500002 22595.47822664  1407.24645060
0.34600002 22572.48817046  1409.87767790
0.34700002 22556.20808468  1883.89458846
0.34800002 22550.33282357  1298.56097715
0.34900002 22552.35371527  1539.19821397
0.35000002 22562.63201168  2138.26073702
0.35100002 22581.00836633  1430.73275785
0.35200002 22606.27504936  1316.70255261
0.35300002 22639.52634455  1803.23835875
0.35400002 22680.39640762  1328.50428250
0.35500002 22728.01133809  1941.88138070
0.35600002 22781.88166383  1829.95473132
0.35700002 22842.74785258  1717.31786490
0.35800002 22910.38749654  1727.21419517
0.35900002 22983.78222394  1365.23672877
0.36000002 23063.92198719  1623.58486519
0.36100002 23148.77191826  1382.67621217
0.36200002 23240.47851661  1518.53293820
0.36300002 23335.79824586  1528.96157349
0.36400002 23437.09866235  1539.81745505
0.36500002 23542.80504200  1680.25007544
0.36600002 23654.05992787  1432.37166678
0.36700002 23769.29341369  1312.06505859
0.36800002 23890.41660923  1586.80154635
0.36900002 24014.66731631  2132.50255870
0.37000002 24142.18313749  1746.56632182
0.37100002 24274.01268026  1760.83696324
0.37200002 24410.03745620  2321.76082263
0.37300002 24548.87448080  1652.63030833
0.37400002 24692.12419282  1527.82525681
0.37500002 24837.47851023  1540.91723977
0.37600002 24986.99062235  1554.31582529
0.37700002 25138.07227660  1995.46027185
0.37800002 25292.79340199  1581.68491032
0.37900002 25449.88839961  1595.70807825
0.38000002 25609.42142997  2195.36775609
0.38100002 25770.81641708  1624.33463572
0.38200002 25934.59892193  1638.93705651
0.38300002 26100.12817857  1653.70419974
0.38400002 26268.06623902  1516.98089717
0.38500002 26436.60742957  1683.74760696
0.38600002 26607.97232047  2007.97072629
0.38700002 26779.59722446  1714.42989553
0.38800002 26952.64947310  1729.95588839
0.38900002 27126.96754942  1745.62044450
0.39000002 27302.93953077  1761.44922728
0.39100002 27478.97689161  2746.79866022
0.39200002 27656.30461729  1793.37315787
0.39300002 27833.97415786  1973.98554080
0.39400002 28013.07871142  1991.72999074
0.39500002 28191.66525421  2009.50199452
0.39600002 28370.64051689  2196.31323967
0.39700002 28549.47308852  1874.84398655
0.39800002 28729.46311336  2407.24182832
0.39900002 28908.50133827  1734.51016247
0.40000002 29087.54136666  1749.61569610
0.40100002 29266.11533828  1764.74683851
0.40200002 29445.51308138  1957.97948511
0.40300002 29623.43963155  1974.69857940
0.40400002 29800.90531564  2172.48610044
0.40500002 29977.86171936  1825.65186521
0.40600002 30154.45044328  2761.39393018
0.40700002 30330.09370480  2413.06236949
0.40800002 30505.01832493  2620.07614807
0.40900002 30678.22331967  2641.39515298
0.41000002 30851.33619067  2472.58045616
0.41100002 31022.95480839  2492.38430740
0.41200002 31192.75507628  2125.63039539
0.41300002 31361.84233953  2337.08460188
0.41400002 31529.35396027  2551.51309013
0.41500002 31695.92895356  2175.60866646
0.41600002 31859.82733834  2192.11552388
0.41700002 32022.94449024  2409.40645761
0.41800002 32185.35828982  2427.41983724
0.41900002 32343.98539781  2445.20541194
0.42000002 32501.68907747  2462.97811500
0.42100002 32658.09057876  2067.25723159
0.42200002 32812.51233459  2706.54020817
0.42300002 32964.33272899  2935.14432527
0.42400002 33114.26584813  2744.34491221
0.42500002 33262.63015149  2338.03038414
0.42600002 33407.49725230  2353.72533045
0.42700002 33551.46671996  3015.60597169
0.42800002 33692.61402374  2168.11981517
0.42900002 33832.21559897  2836.83141240
0.43000002 33969.32970423  2196.11726945
0.43100002 34102.78040757  2651.83233016
0.43200002 34234.75950838  2668.25728253
0.43300002 34363.84450620  3355.62957505
0.43400002 34490.80915104  2925.68302488
0.43500002 34614.85033838  3169.33584717
0.43600002 34737.21827971  3187.83467260
0.43700002 34855.90895711  3206.04665781
0.43800002 34971.45398549  3454.30553111
0.43900002 35085.26618071  3010.31598096
0.44000002 35195.65044920  2793.83086506
0.44100002 35303.93945825  2340.65129701
0.44200002 35409.21944810  2823.53129260
0.44300002 35511.90803193  2838.11182441
0.44400002 35611.12499523  3090.15551791
0.44500002 35706.74896029  2866.53794238
0.44600002 35800.26352576  3600.61167474
0.44700002 35891.13921939  3135.45007080
0.44800002 35977.96748128  3876.98595952
0.44900002 36063.21483757  2677.69382859
0.45000002 36145.04022311  3178.77571307
0.45100002 36222.77126168  2701.49440873
0.45200002 36298.32237169  2713.11823425
0.45300002 36370.28541902  3219.86152074
0.45400002 36439.74023310  4476.62229980
0.45500002 36506.00711031  2996.41320562
0.45600002 36568.83553186  3509.51131232
0.45700002 36628.69736297  4529.50493057
0.45800002 36684.70242813  3283.46444645
0.45900002 36737.97209999  3041.90423405
0.46000002 36788.83980341  2798.34323227
0.46100002 36835.26684355  2552.68411324
0.46200002 36879.34607168  3073.52484728
0.46300002 36919.94840961  2826.59138421
0.46400002 36956.86988287  2577.74179650
0.46500002 36991.53311011  3102.84994434
0.46600002 37022.20259463  2593.40541467
0.46700002 37049.65425093  4421.50594787
0.46800002 37074.71061779  3390.66782025
0.46900002 37095.66864339  2876.76923964
0.47000002 37113.25806135  2884.25698694
0.47100002 37128.17313742  3417.27721754
0.47200002 37139.53280823  2898.55497540
0.47300002 37148.35471851  3697.74740394
0.47400002 37152.61318180  2911.83619614
0.47500002 37154.73992004  3183.41826724
0.47600002 37153.98475788  3455.87805606
0.47700002 37148.97337653  3462.65597255
