# SAXS profile: number of points = 501, q_min = 0, q_max = 0.5, delta_q = 0.001
#    q    intensity    error
0.00000000 1682732.95097188 328.13292544
0.00100000 1682663.76245361 555.27905480
0.00200000 1682456.13766112 757.10528592
0.00300000 1682110.26642905 1211.11943497
0.00400000 1681625.98443760 1513.46344350
0.00500000 1681003.78150346 1664.19380956
0.00600000 1680243.35737467 2293.53227619
0.00700000 1679345.39658137 2418.25747158
0.00800000 1678309.35818033 2718.86127504
0.00900000 1677136.58355249 2767.27548116
0.01000000 1675826.19032481 3318.13600012
0.01100000 1674379.49293627 3918.04818406
0.01200000 1672795.93203815 3588.14743154
0.01300000 1671076.91882627 4562.04018960
0.01400000 1669221.63441749 4506.89861272
0.01500000 1667231.94682813 5201.76390573
0.01600000 1665106.61713976 4670.62426987
0.01700000 1662847.89529868 7632.47218180
0.01800000 1660455.24102481 4732.29764986
0.01900000 1657929.35973705 6963.30362510
0.02000000 1655271.00134952 5735.51427913
0.02100000 1652481.74263174 7634.46599709
0.02200000 1649559.81652896 6829.17795070
0.02300000 1646508.04614094 6520.17215951
0.02400000 1643326.40403134 8011.21658494
0.02500000 1640016.14942879 10233.70123982
0.02600000 1636577.52203428 7953.76712088
0.02700000 1633011.62917133 8916.24390365
0.02800000 1629318.14998169 7796.28770520
0.02900000 1625499.83123332 8046.22453404
0.03000000 1621557.01991316 9802.31263594
0.03100000 1617489.80847596 10869.53201310
0.03200000 1613299.34903745 11978.74821832
0.03300000 1608988.31380599 13129.34524593
0.03400000 1604554.81124145 11793.47840678
0.03500000 1600002.23502886 13824.01994902
0.03600000 1595330.14004034 13281.12402961
0.03700000 1590540.54241905 9066.08151107
0.03800000 1585634.56897006 14841.54025242
0.03900000 1580613.89217167 12328.78892989
0.04000000 1575476.95675026 13564.85722620
0.04100000 1570227.90488401 10881.67988539
0.04200000 1564867.03523612 10093.39284553
0.04300000 1559394.57095297 19554.80882744
0.04400000 1553813.90254208 14683.54206096
0.04500000 1548125.05346026 14954.88871130
0.04600000 1542327.98706291 14135.43665854
0.04700000 1536426.20821894 13274.72305639
0.04800000 1530419.71183786 12373.44394592
0.04900000 1524311.32853822 18291.73679389
0.05000000 1518100.72694500 15097.51243250
0.05100000 1511790.86110848 16508.75697235
0.05200000 1505380.30712121 15558.10619913
0.05300000 1498874.47597353 12140.88382137
0.05400000 1492271.66901172 19697.98694955
0.05500000 1485575.78707490 13726.72091291
0.05600000 1478785.40660749 12643.61581650
0.05700000 1471905.58990483 17927.81092188
0.05800000 1464934.75606180 14261.14051615
0.05900000 1457874.94801447 20993.40023192
0.06000000 1450729.33966222 13274.17407806
0.06100000 1443499.00593273 14766.99552077
0.06200000 1436184.59517485 21715.11209408
0.06300000 1428789.28941069 16459.65338359
0.06400000 1421310.97630405 19400.89573387
0.06500000 1413756.33365531 20994.28253685
0.06600000 1406123.02612046 15544.69078107
0.06700000 1398413.89859588 18542.96916317
0.06800000 1390632.13708311 17271.65195104
0.06900000 1382778.48628881 17423.00974297
0.07000000 1374852.38963485 17570.61436234
0.07100000 1366858.75947584 17714.49035251
0.07200000 1358796.49785258 16366.70458336
0.07300000 1350670.54035466 20989.42118058
0.07400000 1342479.94654457 16613.19011705
0.07500000 1334227.36712846 21294.26977749
0.07600000 1325912.78043771 18377.15199840
0.07700000 1317541.60994886 15415.23755920
0.07800000 1309112.23934954 17064.27884017
0.07900000 1300626.84682739 18729.02747278
0.08000000 1292089.15945491 23548.32603574
0.08100000 1283499.76028933 17365.75257148
0.08200000 1274858.96198878 23807.99223234
0.08300000 1266170.20534651 23930.61800416
0.08400000 1257433.94617120 27254.88206257
0.08500000 1248654.44039482 17718.40734100
0.08600000 1239830.56501150 17797.76859637
0.08700000 1230965.60893442 17873.62148103
0.08800000 1222059.08131717 21208.83635231
0.08900000 1213116.56855735 19652.48933370
0.09000000 1204136.75810000 21367.40777623
0.09100000 1195122.43520195 16492.69038063
0.09200000 1186074.59751618 21509.46383662
0.09300000 1176996.77446291 16595.65529979
0.09400000 1167887.07029523 16642.39153386
0.09500000 1158749.94732873 20023.20003098
0.09600000 1149586.44798531 18399.13196491
0.09700000 1140399.91739322 20116.65548856
0.09800000 1131190.69106284 25197.27382814
0.09900000 1121960.60304931 18512.35082081
0.10000000 1112709.57762771 21914.81616197
0.10100000 1103440.50941276 21947.43276445
0.10200000 1094155.89367892 23666.59309346
0.10300000 1084856.11792689 23693.25873007
0.10400000 1075544.10855910 18633.80255742
0.10500000 1066222.53737725 18648.23305612
0.10600001 1056887.67192792 18659.35272588
0.10700001 1047547.41012267 23758.37637960
0.10800001 1038198.79372610 18672.00618390
0.10900001 1028846.18512259 16975.96285351
0.11000001 1019489.86343489 18671.95772769
0.11100001 1010131.46357363 16970.20938688
0.11200001 1000774.10374638 20355.74622849
0.11300001 991415.93947011 20343.85603573
0.11400001 982061.98017324 20328.68394675
0.11500001 972712.62340043 18617.72048856
0.11600001 963368.08958646 20288.53292211
0.11700001 954032.18410776 21952.28159016
0.11800001 944702.92598217 21921.83242990
0.11900001 935384.43120257 26939.07288751
0.12000001 926076.96097590 20169.95716016
0.12100001 916783.97637512 25165.72133701
0.12200001 907503.82829930 16743.44642093
0.12300001 898240.33124787 23390.17932771
0.12400001 888993.06689597 23336.06910556
0.12500001 879764.04104851 21615.80350711
0.12600001 870556.36412904 18242.50946997
0.12700001 861369.36400775 16538.29256834
0.12800001 852203.52662748 18139.15291915
0.12900001 843061.93661862 26303.53366224
0.13000001 833945.31491001 24580.53931557
0.13100001 824853.48040892 24498.14952293
0.13200001 815790.30460088 17902.51907840
0.13300001 806756.53611276 19458.96856839
0.13400001 797750.88635932 19385.34745247
0.13500001 788776.96793107 17700.15599490
0.13600001 779834.24563953 16025.59450351
0.13700001 770925.34886335 15958.15547395
0.13800001 762049.31204451 20655.34757698
0.13900001 753211.10418513 25307.89429409
0.14000001 744407.33298006 18893.05900204
0.14100001 735641.97364089 15669.17477756
0.14200001 726913.67512526 23388.44860028
0.14300001 718227.83378835 18616.46632989
0.14400001 709577.87489526 18519.98340835
0.14500001 700973.15911207 19956.70678132
0.14600001 692408.55096762 19847.89204980
0.14700001 683890.06190795 15182.36009061
0.14800001 675413.39802738 21133.68622134
0.14900001 666981.34056755 19509.20513206
0.15000001 658596.14609774 19392.36443684
0.15100001 650257.44173221 16308.45740816
0.15200001 641967.24467997 19153.09364880
0.15300001 633725.44850137 16102.96440630
0.15400001 625530.74555747 20361.02672875
0.15500001 617387.77116685 20225.62433793
0.15600001 609293.67313920 15783.75334758
0.15700001 601254.53877834 15674.70656575
0.15800001 593262.54117476 19809.03718479
0.15900001 585326.55391614 15452.62175276
0.16000001 577441.53335676 19523.29916434
0.16100001 569613.65454796 15225.77370479
0.16200001 561837.97962134 19231.71495029
0.16300001 554118.91785343 17720.72382951
0.16400001 546454.95126051 13524.76068220
0.16500001 538847.94718979 13417.31451847
0.16600001 531297.16809734 13308.99468920
0.16700001 523803.51733207 18479.78896399
0.16800001 516366.67795690 24870.80221810
0.16900001 508990.29988403 16873.02923787
0.17000001 501671.76548477 16728.24580999
0.17100001 494412.51969422 16582.59669360
0.17200001 487212.69951219 13907.48716433
0.17300001 480073.13364811 16288.88219391
0.17400001 472994.68643345 14899.33332629
0.17500001 465976.22814746 14762.12760489
0.17600001 459017.05519679 14624.28406926
0.17700001 452121.79841186 15693.14836407
0.17800001 445287.11986161 13151.55570629
0.17900001 438514.39002756 14207.86690798
0.18000001 431804.36557181 15240.53580274
0.18100001 425157.75139083 16249.53002573
0.18200001 418571.04562194 17234.66361761
0.18300001 412050.07083497 13647.09899073
0.18400001 405590.22685134 15757.18105756
0.18500001 399194.92162483 14478.80049134
0.18600001 392862.51568944 13223.75290284
0.18700001 386593.20116713 10901.92878797
0.18800001 380387.07989133 12940.76906930
0.18900001 374247.01690012 15999.06072840
0.19000001 368166.55854327 10547.97240064
0.19100001 362154.87520896 11473.06698872
0.19200001 356203.62343845 12374.51446296
0.19300001 350318.82302085 11213.70605477
0.19400001 344496.68696451 13099.48714083
0.19500001 338739.30581303 16930.19130457
0.19600001 333044.80066320 14762.21148700
0.19700001 327414.91107794 9724.22331856
0.19800001 321849.20320162 15371.51867135
0.19900001 316348.12533065 12337.57747097
0.20000001 310908.79549131 9373.90062708
0.20100001 305535.19282246 10183.48845807
0.20200001 300223.95689813 17369.45784728
0.20300001 294977.07685823 10831.55877418
0.20400001 289793.60295586 14257.84593934
0.20500001 284672.74776349 12314.94365034
0.20600001 279615.56366065 9550.27002825
0.20700001 274621.24685000 11138.63829875
0.20800001 269689.41748212 9300.24000150
0.20900001 264822.62748177 11678.67842401
0.21000001 260015.79904027 10698.35055725
0.21100001 255271.69499077 8929.40431290
0.21200001 250589.33712305 8006.32969958
0.21300001 245968.84560145 8685.16034878
0.21400001 241410.74871624 9342.59641700
0.21500001 236914.54580213 12281.65063503
0.21600001 232477.67377958 7567.14863929
0.21700001 228102.73330438 8204.85570488
0.21800001 223788.20456719 7351.44286761
0.21900001 219532.84276405 8693.50098450
0.22000001 215337.26550214 10707.64603338
0.22100001 211203.63082013 7033.08123886
0.22200001 207128.13021430 9006.96716826
0.22300001 203111.50808575 8871.91109270
0.22400001 199151.96467055 8065.65495055
0.22500001 195253.75213262 9928.65376544
0.22600001 191411.64382322 7169.32345842
0.22700001 187628.33710990 8983.64520565
0.22800001 183901.41088255 10107.22202008
0.22900001 180231.03244361 6839.76800469
0.23000001 176617.52877063 6119.79766132
0.23100001 173061.69984383 7829.31167120
0.23200001 169559.31519929 6518.70818113
0.23300001 166113.96473955 8162.84061336
0.23400001 162723.17293607 6309.59132901
0.23500001 159385.71431235 6206.48000887
0.23600001 156103.40773666 7769.26697052
0.23700001 152874.67803791 8732.20202254
0.23800001 149699.13729642 5366.71432592
0.23900001 146576.71563053 6859.79061597
0.24000001 143506.37210967 5187.75559715
0.24100001 140489.22489193 6629.68683624
0.24200001 137522.82164156 9022.87275470
0.24300001 134607.82983297 7882.63488789
0.24400001 131742.79411845 5809.85749545
0.24500001 128928.45464838 5233.20622173
0.24600001 126163.84990864 4674.37086024
0.24700001 123449.53456904 6429.25206450
0.24800001 120782.83422039 6315.73470016
0.24900001 118164.72150799 6203.64817265
0.25000001 115594.91709826 5657.79348503
0.25100001 113071.92608749 6411.17851247
0.25200001 110597.18290347 5876.02860565
0.25300001 108168.86687612 6181.85103444
0.25400001 105785.91161709 4855.57357295
0.25500001 103448.82541982 4766.92210088
0.25600001 101157.10727311 4679.52800385
0.25700001 98909.71364795  4210.58670921
0.25800001 96706.58627185  4884.16637075
0.25900001 94547.40445500  4424.81873785
0.26000001 92431.80245382  4704.31680847
0.26100001 90356.96498101  3906.13178095
0.26200001 88327.07744156  6272.10606590
0.26300001 86337.31225542  4102.74927251
0.26400001 84388.73182717  4025.34269863
0.26500001 82482.00898625  3291.03231428
0.26600001 80614.46732825  3228.60956927
0.26700001 78788.02294336  3484.00653942
0.26800001 77000.74329064  3417.67815268
0.26900001 75251.63136759  3961.99857899
0.27000001 73541.54420239  3288.41030462
0.27100001 71869.37297718  4105.17877873
0.27200001 70235.02604778  4314.18667915
0.27300001 68637.10664081  3103.08373808
0.27400001 67074.69957283  3043.51463715
0.27500001 65550.60577080  3799.31329028
0.27600001 64059.78575391  3194.02106885
0.27700001 62605.89993739  2610.66615094
0.27800001 61185.52076402  2816.67558168
0.27900001 59799.97261969  3767.39845334
0.28000001 58447.63201791  2463.56780615
0.28100001 57128.51644400  3141.49726794
0.28200001 55842.54281076  3792.82568722
0.28300001 54588.64478175  2325.47637777
0.28400001 53366.92186175  2965.86682284
0.28500001 52176.74905863  2686.05916867
0.28600001 51016.68992554  3953.28348945
0.28700001 49887.67916137  3017.20697849
0.28800001 48788.00229654  2537.95199960
0.28900001 47719.40705742  2283.37373578
0.29000001 46678.55290807  3056.27839632
0.29100001 45667.54247191  2000.23845495
0.29200001 44684.26344999  1963.87347159
0.29300001 43728.71178310  2506.96716519
0.29400001 42800.37479461  2272.70000918
0.29500001 41900.10987435  2046.40146313
0.29600001 41025.24340580  2558.74455234
0.29700001 40176.41575379  2334.65162997
0.29800001 39353.67968169  2471.01766419
0.29900001 38556.19516623  2082.03463754
0.30000001 37783.51392174  2388.29602805
0.30100001 37036.09297265  2348.82912752
0.30200001 36311.31069194  1815.38406398
0.30300001 35610.71485548  1948.61840914
0.30400001 34934.13104069  1758.06022785
0.30500001 34279.06874389  1888.09119580
0.30600001 33646.67989655  2324.14452389
0.30700001 33036.93960754  1678.93735034
0.30800001 32448.34317863  1804.77693304
0.30900001 31881.13587445  1630.72017718
0.31000001 31335.45242065  2192.69838695
0.31100001 30808.63728925  2883.68858680
0.31200001 30303.11764001  1422.73144056
0.31300001 29816.65559512  1685.23745403
0.31400001 29350.98545366  1525.51754118
0.31500001 28903.23000260  1644.01580039
0.31600002 28474.27960737  1489.34726538
0.31700002 28063.06918300  1606.33015609
0.31800002 27670.25153246  1324.02159852
0.31900002 27295.19207649  1441.18620988
0.32000002 26937.10237962  1945.53231149
0.32100002 26596.17608983  1541.51443916
0.32200002 26271.84527549  1909.30644580
0.32300002 25963.01459341  1514.16308278
0.32400002 25670.43217287  1376.57699045
0.32500002 25392.93564534  1365.88607304
0.32600002 25131.20190893  1849.02826800
0.32700002 24883.94443946  1714.00617415
0.32800002 24652.09475236  1703.21330709
0.32900002 24433.14764603  1572.27312548
0.33000002 24229.77264286  1323.30909555
0.33100002 24037.55402486  1436.48429655
0.33200002 23861.24920252  1430.24334493
0.33300002 23696.35633613  1662.06251212
0.33400002 23545.05516667  1774.70861723
0.33500002 23405.59487411  1179.64203752
0.33600002 23278.28731916  1294.38922768
0.33700002 23162.00120182  1409.17621985
0.33800002 23058.65004601  1407.03889244
0.33900002 22965.37803070  1405.48120204
0.34000002 22883.50902630  2223.93393004
0.34100002 22812.43170030  1170.27780165
0.34200002 22752.59718598  1638.86965292
0.34300002 22701.47211087  1405.67521968
0.34400002 22661.04006215  1641.79243026
0.34500002 22629.88612685  1174.49114561
0.34600002 22609.27096208  1412.17513117
0.34700002 22595.52661574  1297.43519972
0.34800002 22592.48196709  1537.53143309
0.34900002 22597.39655970  1542.27238824
0.35000002 22610.81442831  1547.59726684
0.35100002 22632.52642122  1433.99694197
0.35200002 22661.16487507  1559.88135806
0.35300002 22698.07264762  1446.32125761
0.35400002 22742.72251968  1332.15503469
0.35500002 22794.22128427  1338.93262166
0.35600002 22852.19717425  1590.85578164
0.35700002 22917.25441870  1230.65662057
0.35800002 22989.22282300  2104.54850301
0.35900002 23067.08371771  1494.74709571
0.36000002 23151.70482910  1755.13082623
0.36100002 23241.38430376  1640.60939571
0.36200002 23337.78143612  1524.89071126
0.36300002 23438.14541910  1535.66736060
0.36400002 23544.41217325  1546.86795305
0.36500002 23655.30123704  1818.14653920
0.36600002 23771.71928344  1570.35985025
0.36700002 23892.30612328  1846.39750467
0.36800002 24018.80746508  1595.32926740
0.36900002 24148.52562660  2010.36485364
0.37000002 24281.55865533  1486.39568350
0.37100002 24418.93216067  1362.57647911
0.37200002 24560.67196283  1511.58662756
0.37300002 24705.26940900  1524.56224745
0.37400002 24854.31441091  1677.66630221
0.37500002 25005.43487557  2256.49055006
0.37600002 25160.89012859  1707.41808501
0.37700002 25317.88425963  1435.52410552
0.37800002 25478.52818414  1593.29983547
0.37900002 25641.66181798  1753.88975144
0.38000002 25807.27016988  1917.35122810
0.38100002 25974.66016542  1934.85252738
0.38200002 26144.57802194  1802.40729422
0.38300002 26316.19555427  1970.55681646
0.38400002 26490.15728783  2294.70998377
0.38500002 26664.95170398  1852.68093216
0.38600002 26842.35692311  1869.83867185
0.38700002 27020.10765706  1887.08440817
0.38800002 27199.29861784  1587.07914954
0.38900002 27379.75271265  2082.23029244
0.39000002 27561.87372141  2101.45516145
0.39100002 27743.92706032  3099.55167802
0.39200002 27927.37578292  1810.95076844
0.39300002 28111.11703375  2325.91393357
0.39400002 28296.24021853  1676.55231238
0.39500002 28480.81286126  1860.93640052
0.39600002 28665.74644933  2389.86339471
0.39700002 28850.47485761  1894.61077366
0.39800002 29036.47485456  1911.61641262
0.39900002 29221.39960779  1928.61246549
0.40000002 29406.12139133  2653.16742824
0.40100002 29590.56221711  2319.60428210
0.40200002 29775.70892108  2699.91253434
0.40300002 29959.30677621  2723.30111499
0.40400002 30142.46142761  2014.27008034
0.40500002 30324.99246827  2216.15055458
0.40600002 30507.09554709  2234.94992567
0.40700002 30688.13023467  2253.73639122
0.40800002 30868.41531734  2651.28831723
0.40900002 31046.90146601  1909.38453063
0.41000002 31225.32789980  2502.55402311
0.41100002 31402.12438337  2522.84679250
0.41200002 31576.94459923  1956.19181061
0.41300002 31751.08623022  2563.26531282
0.41400002 31923.50200344  2384.68571265
0.41500002 32095.00294964  2203.00110685
0.41600002 32263.65562240  3834.37433413
0.41700002 32431.44434648  3456.86781669
0.41800002 32598.46349543  2663.45758610
0.41900002 32761.57908129  3095.96936988
0.42000002 32923.76167660  2079.13564840
0.42100002 33084.46109135  2513.09578358
0.42200002 33243.09809673  2320.20214160
0.42300002 33399.04480615  2336.59728536
0.42400002 33553.08115357  2352.90992739
0.42500002 33705.30504694  3015.27673238
0.42600002 33853.97235522  2385.18173531
0.42700002 34001.66669033  2619.48852595
0.42800002 34146.48887403  3295.98999475
0.42900002 34289.60941900  2654.01589480
0.43000002 34430.12454016  2671.08918840
0.43100002 34566.87605418  2911.91377679
0.43200002 34702.02357037  2253.89653770
0.43300002 34834.17655940  2267.70500148
0.43400002 34964.17021393  3650.25954331
0.43500002 35090.98020767  3212.93030007
0.43600002 35216.14157993  3000.94364694
0.43700002 35337.46894964  3018.17336602
0.43800002 35455.50322504  3502.11749702
0.43900002 35571.66210317  3286.82173409
0.44000002 35684.33510575  2360.51887911
0.44100002 35794.76845737  2610.51258731
0.44200002 35902.09063247  2862.83284270
0.44300002 36006.64701741  2877.65136600
0.44400002 36107.65632553  2892.22340874
0.44500002 36204.96016543  2422.11194985
0.44600002 36300.06721093  3164.09550839
0.44700002 36392.38336184  3179.23876116
0.44800002 36480.45044913  3685.43768128
0.44900002 36566.91373247  3702.40019088
0.45000002 36649.88741043  3471.11100115
0.45100002 36728.46851613  2739.20931175
0.45200002 36804.92011842  3251.16277274
0.45300002 36877.49824065  3264.76507397
0.45400002 36947.53043424  3026.00288598
0.45500002 37014.27291420  4050.84221971
0.45600002 37077.50816634  2541.66330526
0.45700002 37137.49917068  3827.01947092
0.45800002 37193.59562442  3585.09085215
0.45900002 37246.84355674  3341.04202539
0.46000002 37297.55104804  4384.51382125
0.46100002 37343.60239318  3105.49412220
0.46200002 37387.32904716  3375.51516301
0.46300002 37427.45079334  3125.94083841
0.46400002 37463.71400446  2874.40359323
0.46500002 37497.63615567  2883.19338066
0.46600002 37527.39404048  3154.55289256
0.46700002 37553.86253402  3954.42191226
0.46800002 37577.81834596  2907.95961053
0.46900002 37597.57734790  2915.69226152
0.47000002 37613.72520613  3454.63275530
0.47100002 37627.13699743  3996.00213852
0.47200002 37636.94578546  2937.37557305
0.47300002 37644.14747634  3479.44871615
0.47400002 37646.45998479  3218.77248126
0.47500002 37646.73024602  3225.57200036
0.47600002 37643.98619344  3501.45554174
0.47700002 37636.70881143  2968.40736465
