# SAXS profile: number of points = 501, q_min = 0, q_max = 0.5, delta_q = 0.001
#    q    intensity    error
0.00000000 1664650.74656090 274.66737318
0.00100000 1664582.13160037 549.31211647
0.00200000 1664376.22956662 973.66012513
0.00300000 1664033.22481176 998.41997045
0.00400000 1663552.95862891 1372.43124302
0.00500000 1662935.91834331 1945.63510147
0.00600000 1662181.81006054 1919.82006878
0.00700000 1661291.29744545 2192.90460377
0.00800000 1660263.85203622 3137.89881283
0.00900000 1659100.80629543 2737.51644741
0.01000000 1657801.30564105 3555.98395415
0.01100000 1656366.63285088 3279.60607584
0.01200000 1654796.20101323 3226.85273345
0.01300000 1653091.47400124 4165.79069821
0.01400000 1651251.62327378 4086.84794878
0.01500000 1649278.46416218 3958.26849025
0.01600000 1647170.82894973 5040.34296191
0.01700000 1644930.88782504 5773.70767527
0.01800000 1642558.17040577 6085.67829519
0.01900000 1640053.35977696 6888.22442188
0.02000000 1637417.14937467 6189.43710462
0.02100000 1634651.12421406 6473.21874537
0.02200000 1631753.56076846 6192.50504446
0.02300000 1628727.32762209 7622.44424023
0.02400000 1625572.27360636 7924.66519518
0.02500000 1622289.66760216 9490.39498890
0.02600000 1618879.84893888 7212.11005689
0.02700000 1615343.75871962 7462.88850709
0.02800000 1611681.22680800 7711.89502394
0.02900000 1607894.95264267 12300.39695248
0.03000000 1603985.25277996 10441.94447556
0.03100000 1599952.21648412 12287.63358799
0.03200000 1595796.93554423 9479.03423372
0.03300000 1591522.17771438 8928.43982858
0.03400000 1587126.00596793 8332.41191579
0.03500000 1582611.80197420 9400.71453783
0.03600000 1577979.12637972 10509.34146736
0.03700000 1573229.92774512 12554.37540401
0.03800000 1568365.49274135 13762.40783572
0.03900000 1563387.24004726 14070.48581203
0.04000000 1558293.78748102 11500.20868452
0.04100000 1553089.34629971 12719.80233597
0.04200000 1547773.98118223 11979.77117013
0.04300000 1542347.96382719 15269.24555066
0.04400000 1536814.88293977 13485.55122409
0.04500000 1531174.44987387 14791.14587305
0.04600000 1525426.85161623 13980.53774497
0.04700000 1519575.46977649 12035.03828035
0.04800000 1513620.28294010 14462.64247641
0.04900000 1507564.21766891 14698.75180646
0.05000000 1501406.85183625 13782.91554167
0.05100000 1495151.17723730 16327.05161601
0.05200000 1488795.73339894 16570.29728493
0.05300000 1482345.98719670 14408.40366724
0.05400000 1475800.06219737 18263.02662137
0.05500000 1469162.01387091 12340.96149221
0.05600000 1462430.28397556 15004.53541376
0.05700000 1455610.10732885 13930.18937738
0.05800000 1448699.70048736 16667.29083234
0.05900000 1441701.35971291 14272.84412778
0.06000000 1434617.80061983 15752.10418673
0.06100000 1427450.46503485 15930.34793424
0.06200000 1420199.88343681 14762.97847840
0.06300000 1412869.27708786 17632.60940247
0.06400000 1405456.49132197 15073.52157437
0.06500000 1397968.16071175 17991.85106998
0.06600000 1390401.83816421 16768.24695282
0.06700000 1382760.72244994 18335.40803776
0.06800000 1375047.55068962 14231.74281581
0.06900000 1367263.26824459 14356.26498871
0.07000000 1359407.37868190 20268.76496530
0.07100000 1351484.67391480 17515.24219431
0.07200000 1343494.06597881 25009.14320979
0.07300000 1335440.41393624 14823.38928925
0.07400000 1327322.87580878 19412.09796843
0.07500000 1319143.99850562 15038.24228784
0.07600000 1310903.91558142 19683.22321522
0.07700000 1302607.88611122 15240.51298211
0.07800000 1294254.38934776 19937.98980292
0.07900000 1285845.34189526 18516.17379177
0.08000000 1277384.85308043 20176.29470090
0.08100000 1268873.08707633 23410.70955495
0.08200000 1260310.62746782 23536.30207241
0.08300000 1251700.76781340 15771.43041463
0.08400000 1243044.18311957 20603.45830231
0.08500000 1234344.64129300 20699.96060625
0.08600000 1225601.51479634 17593.51057094
0.08700000 1216817.96627091 19274.39749081
0.08800000 1207993.16885824 17739.38051779
0.08900000 1199133.05574748 22663.61581813
0.09000000 1190236.15742121 17871.39674320
0.09100000 1181305.36526172 19562.41776780
0.09200000 1172341.50290744 21260.41415418
0.09300000 1163347.99535445 16403.20750532
0.09400000 1154323.12407297 27963.47899488
0.09500000 1145271.50464802 18141.10148631
0.09600000 1136193.88714096 23144.27056902
0.09700000 1127093.48140475 18225.10245113
0.09800000 1117970.89494422 16601.86857050
0.09900000 1108827.92628777 19958.90361170
0.10000000 1099664.45138842 21657.89238860
0.10100000 1090483.31711890 16684.39553662
0.10200000 1081286.98805402 23388.23865170
0.10300000 1072075.80774920 18396.82172638
0.10400000 1062852.79126892 23435.90515002
0.10500000 1053620.64840784 18427.82600767
0.10600001 1044375.39495081 23467.11622876
0.10700001 1035125.39312423 20122.83858927
0.10800001 1025867.02190793 16772.92659756
0.10900001 1016604.95746418 23483.57562269
0.11000001 1007339.53018788 23481.08555392
0.11100001 998072.37302187 25151.42498411
0.11200001 988806.57144224 18436.29939247
0.11300001 979540.08418453 18425.14985098
0.11400001 970278.04236288 20084.75642259
0.11500001 961020.73314600 16721.76154413
0.11600001 951768.56509257 16703.53910397
0.11700001 942525.22224382 18350.96694132
0.11800001 933288.59486909 21656.96286394
0.11900001 924063.04751329 18296.44920256
0.12000001 914848.63033143 23246.30479174
0.12100001 905648.80400694 16573.37389407
0.12200001 896462.14955055 18193.70018226
0.12300001 887292.00479554 26405.81130681
0.12400001 878138.24065844 24697.63918221
0.12500001 869002.98004197 18066.57280638
0.12600001 859889.04079342 19657.06439885
0.12700001 850795.86794597 21235.86586470
0.12800001 841723.97175111 17916.09558309
0.12900001 832676.33034992 19484.62704854
0.13000001 823653.60076582 16184.79401792
0.13100001 814655.97658777 24195.28364516
0.13200001 805686.83408882 16073.45309778
0.13300001 796746.98891202 17616.07675532
0.13400001 787835.46197445 22335.13639998
0.13500001 778955.55969835 20657.90241718
0.13600001 770106.87135567 20573.40603832
0.13700001 761291.87373662 20486.36528825
0.13800001 752509.72967930 21965.76004515
0.13900001 743765.30798790 17180.97942474
0.14000001 735055.28857179 21764.98812106
0.14100001 726383.45623364 17019.16518223
0.14200001 717748.85125644 15395.71358559
0.14300001 709156.22710012 15317.77522787
0.14400001 700599.71846333 16761.84905489
0.14500001 692088.26326654 18188.08041661
0.14600001 683616.60327031 16581.12149452
0.14700001 675191.02915262 17987.08986519
0.14800001 666807.02583127 19374.07904957
0.14900001 658467.61813571 16297.07431777
0.15000001 650174.63397299 16199.10176976
0.15100001 641928.33735504 19026.75681698
0.15200001 633729.93746355 18907.33357641
0.15300001 625579.88164739 14450.89594798
0.15400001 617476.65581967 14356.33292530
0.15500001 609425.12272487 18538.71310819
0.15600001 601421.85621604 16996.18245880
0.15700001 593473.46849449 18284.91842731
0.15800001 585572.15482003 16759.07586196
0.15900001 577726.39736629 19411.60786775
0.16000001 569931.15058301 17892.98931715
0.16100001 562192.94085285 23224.19148291
0.16200001 554506.56567269 16269.22340484
0.16300001 546876.51009906 16143.79534024
0.16400001 539301.26110380 17352.01889520
0.16500001 531782.47902372 17213.79965868
0.16600001 524319.88435783 15761.05646792
0.16700001 516913.71517786 14328.84886126
0.16800001 509564.15265372 14209.19706766
0.16900001 502274.73040964 12808.00623022
0.17000001 495042.84684380 20316.55939381
0.17100001 487869.58459374 16363.14663996
0.17200001 480755.70344815 12475.61109361
0.17300001 473701.37315383 14836.32770782
0.17400001 466707.87337515 17151.51515653
0.17500001 459773.96582929 16993.24657960
0.17600001 452898.85349580 13226.91164104
0.17700001 446087.28188265 14292.63718657
0.17800001 439335.82855636 12975.78430929
0.17900001 432645.74621064 18690.29711911
0.18000001 426018.15482554 13879.67213982
0.18100001 419453.32727622 17176.61456332
0.18200001 412948.07578583 12468.96773736
0.18300001 406507.87691432 15707.46510598
0.18400001 400128.40618017 12213.92017564
0.18500001 393812.91625335 15382.33323555
0.18600001 387560.02452846 15219.48288225
0.18700001 381369.69799760 19358.32678494
0.18800001 375242.07325610 12765.73593530
0.18900001 369179.81147638 17886.76271113
0.19000001 363176.62118380 11445.51175739
0.19100001 357241.85390863 12346.27905444
0.19200001 351366.73641530 11189.27424985
0.19300001 345557.64279176 12066.87345648
0.19400001 339810.81080782 10933.41335439
0.19500001 334128.08611788 14735.04929411
0.19600001 328507.64445493 11648.88162286
0.19700001 322951.32969922 14387.48241802
0.19800001 317458.43813689 16109.42920457
0.19900001 312029.81741659 10296.98446138
0.20000001 306662.39596909 13868.80751316
0.20100001 301359.91769322 10957.44712520
0.20200001 296119.26333476 12623.56479259
0.20300001 290942.35144584 12463.97092504
0.20400001 285828.41818471 12304.91398445
0.20500001 280776.20990603 8675.98529618
0.20600001 275787.49529355 9419.52234699
0.20700001 270860.64466312 8450.85251295
0.20800001 265995.93624155 13342.35679257
0.20900001 261195.56086300 10695.95872295
0.21000001 256454.45587143 14610.21104165
0.21100001 251775.39156004 8807.10361311
0.21200001 247157.67163075 10265.69437649
0.21300001 242601.03110870 7787.49346675
0.21400001 238106.13579161 9982.60021501
0.21500001 233672.58335094 9842.28967606
0.21600001 229297.87304571 8210.01073256
0.21700001 224984.28841720 8092.68523699
0.21800001 220730.53370327 8701.19804998
0.21900001 216535.16128236 9289.35885823
0.22000001 212399.13064210 9153.34096781
0.22100001 208324.13465238 8324.63281433
0.22200001 204306.77760088 8200.87444067
0.22300001 200347.65648172 8751.18604892
0.22400001 196444.95588616 7293.01933213
0.22500001 192603.06437735 9140.94186760
0.22600001 188816.40371629 9000.87839079
0.22700001 185087.88707397 6330.00603727
0.22800001 181415.26687709 9347.42206788
0.22900001 177798.43467408 6134.04628634
0.23000001 174237.81865906 6037.34070205
0.23100001 170734.21051454 8318.17112966
0.23200001 167283.56320239 6431.21689147
0.23300001 163888.99583128 6903.00483089
0.23400001 160548.50520323 7357.13559890
0.23500001 157260.67148650 6680.43364071
0.23600001 154027.35815678 7118.37469389
0.23700001 150846.94937375 5923.75998209
0.23800001 147718.95627862 6354.86979968
0.23900001 144643.51156292 5207.16666256
0.24000001 141619.48774193 6655.40814124
0.24100001 138648.00461802 7046.09192798
0.24200001 135726.63415061 6431.40686344
0.24300001 132856.01578114 4862.53040760
0.24400001 130034.66704535 6690.28393596
0.24500001 127263.33956292 6574.42443282
0.24600001 124541.22119989 6459.95344923
0.24700001 121868.57773555 5440.21356747
0.24800001 119242.91052019 4899.09521048
0.24900001 116665.16333540 6124.92136486
0.25000001 114135.27449163 4297.19328790
0.25100001 111651.34697131 6330.63167277
0.25200001 109215.15271671 4973.65829002
0.25300001 106824.73864448 6919.03864935
0.25400001 104478.99726578 3996.32183449
0.25500001 102178.38903165 5100.74542179
0.25600001 99922.68479165  5392.82755335
0.25700001 97710.57399738  4537.67927113
0.25800001 95542.07935885  5196.53394220
0.25900001 93417.01504852  4371.91651113
0.26000001 91334.96014127  4290.91663046
0.26100001 89292.91015779  3509.21153524
0.26200001 87295.13194093  5165.68967703
0.26300001 85336.92329855  4055.21078703
0.26400001 83419.40959240  3979.10602584
0.26500001 81543.01057768  4229.63615881
0.26600001 79705.21969577  4788.29129980
0.26700001 77907.96423126  3445.09034133
0.26800001 76149.21534231  3687.14518135
0.26900001 74428.00547942  4822.93498330
0.27000001 72745.41952590  3252.81158803
0.27100001 71099.94043359  3771.14101906
0.27200001 69491.75507941  3130.25625569
0.27300001 67919.45907553  3070.63889012
0.27400001 66382.13447424  3559.74212964
0.27500001 64882.40332668  2686.13162485
0.27600001 63415.52142018  3161.89804765
0.27700001 61984.97558253  3877.16040618
0.27800001 60587.33627642  3296.25418612
0.27900001 59224.09091095  4228.60029117
0.28000001 57893.34089545  2928.24532108
0.28100001 56595.37023766  2633.38270179
0.28200001 55329.97779821  2583.63343557
0.28300001 54096.15645768  2534.94601159
0.28400001 52893.91832683  3391.82267325
0.28500001 51722.70912509  2218.90432649
0.28600001 50581.07297426  2395.26682407
0.28700001 49470.04636175  2778.23793518
0.28800001 48387.80223025  2726.89472376
0.28900001 47335.99112677  2676.85042492
0.29000001 46311.61087167  2425.80229228
0.29100001 45316.54309540  2183.35114968
0.29200001 44348.56399187  2144.03142768
0.29300001 43407.93351475  2680.00594206
0.29400001 42494.06977448  3008.58028245
0.29500001 41607.81773084  2216.86463364
0.29600001 40746.36660236  2178.30086168
0.29700001 39910.52800465  2319.20089214
0.29800001 39100.40499379  1929.01857169
0.29900001 38315.04748282  1724.17721835
0.30000001 37554.03322340  2034.67761636
0.30100001 36817.71797386  1834.62697349
0.30200001 36103.64354543  1969.09281219
0.30300001 35413.40297544  2099.30662777
0.30400001 34746.72375874  2066.56149339
0.30500001 34101.15856921  2660.91352913
0.30600001 33477.84292669  1541.65473976
0.30700001 32876.76669388  1822.68803180
0.30800001 32296.38357571  1496.93744960
0.30900001 31736.91368660  2213.64983444
0.31000001 31198.73463055  1455.42103942
0.31100001 30678.96687320  1866.50843294
0.31200001 30180.17044141  1983.74269704
0.31300001 29699.88882821  1818.52427905
0.31400001 29240.08975764  2072.39145969
0.31500001 28797.93902395  1774.52908667
0.31600002 28374.09515038  1619.02594594
0.31700002 27967.75536340  1600.87439280
0.31800002 27579.45458542  1847.54775016
0.31900002 27208.57302675  1697.81503726
0.32000002 26854.15971904  1680.93620720
0.32100002 26516.71487047  1793.06034444
0.32200002 26195.52623352  1269.17330611
0.32300002 25889.56473040  1635.70277712
0.32400002 25599.46718485  1747.16371810
0.32500002 25324.15739912  1362.18649100
0.32600002 25064.38525856  1598.23060169
0.32700002 24818.71060520  1465.29674352
0.32800002 24588.16701375  1577.45392946
0.32900002 24370.25151323  1568.22575914
0.33000002 24167.57031571  1559.89589989
0.33100002 23975.84687795  1313.39695417
0.33200002 23799.73808509  1426.55636837
0.33300002 23634.81777503  1420.92531192
0.33400002 23483.25121619  1180.03342949
0.33500002 23343.22015835  1764.74752754
0.33600002 23215.13130591  1642.93492032
0.33700002 23097.78755859  1756.58682702
0.33800002 22993.21692790  1519.96667700
0.33900002 22898.36660897  1401.38010283
0.34000002 22814.92136866  1400.37993993
0.34100002 22741.81186619  1283.32050439
0.34200002 22679.81568739  1283.56422962
0.34300002 22626.43754790  1284.27665604
0.34400002 22583.42748558  1285.56167050
0.34500002 22549.58485244  1287.35586020
0.34600002 22526.06129208  1641.47416410
0.34700002 22509.27293551  1879.97456461
0.34800002 22502.91138787  1531.43570703
0.34900002 22504.40725874  1181.48143704
0.35000002 22514.19314220  1422.44679009
0.35100002 22532.17814810  1427.63887508
0.35200002 22556.99576788  1433.27157898
0.35300002 22589.77795384  1919.22762586
0.35400002 22630.24609470  1325.56672778
0.35500002 22677.45764719  1816.46444358
0.35600002 22730.92567801  1338.96524048
0.35700002 22791.41421481  1468.67880157
0.35800002 22858.64936010  1477.12599161
0.35900002 22931.68439509  1609.80432078
0.36000002 23011.41632671  1619.88872905
0.36100002 23096.03129594  1630.34892640
0.36200002 23187.34499777  1641.31629341
0.36300002 23282.39866286  1271.21902721
0.36400002 23383.39096230  1920.36107374
0.36500002 23488.87736821  1934.30914290
0.36600002 23599.77393011  2208.58494787
0.36700002 23714.77792299  1309.05580336
0.36800002 23835.64283126  1451.23318252
0.36900002 23959.71156969  1329.76405511
0.37000002 24086.97688252  1608.52839241
0.37100002 24218.60183399  1351.39804635
0.37200002 24354.40172529  1771.41749340
0.37300002 24493.12973826  1374.06464341
0.37400002 24636.18541722  1524.36404490
0.37500002 24781.35907335  1537.43558974
0.37600002 24930.71433572  1550.81515872
0.37700002 25081.68592445  2133.19748893
0.37800002 25236.31719972  1434.68470077
0.37900002 25393.30977586  2171.12808869
0.38000002 25552.78893887  2190.51293556
0.38100002 25714.06817469  1473.41617621
0.38200002 25877.82817004  1486.68129880
0.38300002 26043.30669415  1500.09453665
0.38400002 26211.16239469  2270.54205000
0.38500002 26379.72394979  1832.86330686
0.38600002 26551.05995097  2311.93365476
0.38700002 26722.72967982  1710.78923515
0.38800002 26895.77387378  2040.17902385
0.38900002 27070.10939467  2375.40221192
0.39000002 27246.19191977  1917.58707816
0.39100002 27422.27436631  2096.15875187
0.39200002 27599.62289601  1952.39741616
0.39300002 27777.41702538  2298.30359357
0.39400002 27956.59016232  1656.42804559
0.39500002 28135.30454295  2506.85575355
0.39600002 28314.38836039  1854.73409742
0.39700002 28493.28131721  1871.15387275
0.39800002 28673.46760469  2917.38209966
0.39900002 28852.70556789  1904.27865770
0.40000002 29031.87625378  3317.90813486
0.40100002 29210.64550299  2113.68240874
0.40200002 29390.28221165  2842.62823019
0.40300002 29568.38793413  2508.58215119
0.40400002 29746.12808739  3614.15473386
0.40500002 29923.28448633  2186.79373387
0.40600002 30100.12666540  2572.65794799
0.40700002 30275.99924751  2038.18036591
0.40800002 30451.24380241  2055.00228537
0.40900002 30624.67249963  2071.75919276
0.41000002 30798.09012636  2848.05351938
0.41100002 30970.01905588  2105.34199517
0.41200002 31140.17661729  3086.61445256
0.41300002 31309.56623610  1944.32415539
0.41400002 31477.40808617  2155.41562083
0.41500002 31644.40191577  2369.53292773
0.41600002 31808.59639183  2586.51613816
0.41700002 31972.11993727  2606.04761957
0.41800002 32134.94679627  2827.55410258
0.41900002 32293.89869592  2441.41885710
0.42000002 32452.05298605  3074.02086476
0.42100002 32608.89803969  3096.21501558
0.42200002 32763.70282690  2702.51415574
0.42300002 32915.96445709  2930.83761414
0.42400002 33066.42019107  2740.37970319
0.42500002 33215.17610463  3183.67478049
0.42600002 33360.52771149  2136.74190117
0.42700002 33504.97944102  2581.22373845
0.42800002 33646.60022735  2598.19059268
0.42900002 33786.74659957  2397.16978483
0.43000002 33924.38736017  2412.53292144
0.43100002 34058.31796650  2427.67701969
0.43200002 34190.82351900  2442.76350207
0.43300002 34320.46711538  3351.39377263
0.43400002 34447.98738379  2697.27753997
0.43500002 34572.58749930  2713.25679552
0.43600002 34695.52402324  2274.29170750
0.43700002 34814.77010871  3430.99575680
0.43800002 34930.90613725  2530.22030596
0.43900002 35045.28913015  2544.28811142
0.44000002 35156.26638605  3023.26327114
0.44100002 35265.17823532  2571.88957058
0.44200002 35371.05459494  3525.61003383
0.44300002 35474.34174977  4961.44167225
0.44400002 35574.18659092  2612.03477422
0.44500002 35670.45715829  3340.89517577
0.44600002 35764.65454555  2637.82222102
0.44700002 35856.13697573  3373.34552654
0.44800002 35943.64607692  4115.36795261
0.44900002 36029.54195323  2918.39303652
0.45000002 36112.08319213  2442.98254373
0.45100002 36190.39539172  2944.45070861
0.45200002 36266.70126439  3450.05145479
0.45300002 36339.31152712  2969.64867874
0.45400002 36409.46057398  2733.44038214
0.45500002 36476.46914731  3243.48779030
0.45600002 36539.97065112  2755.29661753
0.45700002 36600.53767752  3017.34846914
0.45800002 36657.25375635  3028.62244889
0.45900002 36711.23498210  3546.30546734
0.46000002 36762.87859028  2542.15317500
0.46100002 36810.00785309  2806.02703163
0.46200002 36854.81935653  2815.52405818
0.46300002 36896.12669599  3081.56464770
0.46400002 36933.78812884  4121.81095053
0.46500002 36969.20241805  2842.56210865
0.46600002 37000.62014694  3110.27227697
0.46700002 37028.84695425  2859.36769733
0.46800002 37054.65537532  3128.15415505
0.46900002 37076.38535472  2875.27382054
0.47000002 37094.71099470  3406.96389279
0.47100002 37110.37383977  3152.89751086
0.47200002 37122.53103476  2897.22807193
0.47300002 37132.07783596  3432.11811705
0.47400002 37137.08801556  3704.42470513
0.47500002 37140.01318095  2916.97677349
0.47600002 37140.02952987  3454.58001046
0.47700002 37135.78764813  4260.21776092
