# SAXS profile: number of points = 501, q_min = 0, q_max = 0.5, delta_q = 0.001
#    q    intensity    error
0.00000000 1682732.95097189 378.61491397
0.00100000 1682663.75412393 605.75896587
0.00200000 1682456.10279025 908.52632428
0.00300000 1682110.18663336 1110.19276273
0.00400000 1681625.85154035 1639.58526755
0.00500000 1681003.57247972 1966.77425765
0.00600000 1680243.04590247 2469.95737803
0.00700000 1679344.98597775 2418.25688031
0.00800000 1678308.81885561 3625.14720178
0.00900000 1677135.89414666 3018.84473851
0.01000000 1675825.35931334 3318.13435472
0.01100000 1674378.48882775 3315.26955222
0.01200000 1672794.72825326 4566.72980835
0.01300000 1671075.48220031 5263.88800109
0.01400000 1669219.99926788 4131.31968133
0.01500000 1667230.03544790 4801.62271590
0.01600000 1665104.46884564 5095.21990244
0.01700000 1662845.44534503 4938.65119422
0.01800000 1660452.49400187 5205.51880293
0.01900000 1657926.31505456 5968.53500351
0.02000000 1655267.67831718 6256.91210707
0.02100000 1652478.01363803 8725.08430759
0.02200000 1649555.77068055 6829.16120088
0.02300000 1646503.62733838 9483.86132516
0.02400000 1643321.56224067 8011.19298121
0.02500000 1640010.92845425 7675.25149570
0.02600000 1636571.88195376 7953.73971009
0.02700000 1633005.50072444 7544.48575889
0.02800000 1629311.61927964 9922.50821646
0.02900000 1625492.84079522 9509.13355526
0.03000000 1621549.54240518 13572.37029379
0.03100000 1617481.80369981 8540.30431650
0.03200000 1613290.85400536 8784.36910465
0.03300000 1608979.25726159 9026.37404936
0.03400000 1604545.24961785 10108.63553901
0.03500000 1599992.07911553 10367.94915144
0.03600000 1595319.42188635 8854.02320065
0.03700000 1590529.19222110 9066.01681494
0.03800000 1585622.63439202 9275.89284048
0.03900000 1580601.31182038 10431.96914112
0.04000000 1575463.65068745 10658.01209078
0.04100000 1570214.03474096 10881.58376530
0.04200000 1564852.54823689 13121.28922570
0.04300000 1559379.34247371 11321.09455186
0.04400000 1553798.00395007 11536.95071513
0.04500000 1548108.31953916 11750.14269127
0.04600000 1542310.59995847 11960.61925869
0.04700000 1536408.03594064 15486.99372255
0.04800000 1530400.77314444 13498.13544718
0.04900000 1524291.60764010 13718.62510733
0.05000000 1518080.20209125 13935.97690414
0.05100000 1511769.52838486 12970.98315778
0.05200000 1505358.29572691 14361.11881048
0.05300000 1498851.60042489 15782.90808824
0.05400000 1492247.92405652 12311.04594758
0.05500000 1485551.19090898 16222.21976148
0.05600000 1478759.94036708 15172.07769616
0.05700000 1471879.21774293 17927.48970894
0.05800000 1464907.47439783 15557.31810451
0.05900000 1457846.73341748 23617.11818442
0.06000000 1450700.21934311 14601.29838984
0.06100000 1443468.96296678 20136.39297439
0.06200000 1436153.55133704 14928.81686397
0.06300000 1428757.31964230 15087.67800085
0.06400000 1421278.10789688 16628.95464008
0.06500000 1413722.43966764 18194.60864963
0.06600000 1406088.08795724 14131.18594515
0.06700000 1398377.97134333 14263.45597522
0.06800000 1390595.26324615 21588.99247246
0.06900000 1382740.55295842 15970.65413440
0.07000000 1374813.40213699 16105.93976025
0.07100000 1366818.79220787 16237.80801197
0.07200000 1358755.36386661 16366.20912448
0.07300000 1350628.37192764 16491.17319394
0.07400000 1342436.65545871 21143.37831434
0.07500000 1334182.88875746 19772.59133818
0.07600000 1325867.27096327 21439.27477656
0.07700000 1317495.02344367 15414.69249706
0.07800000 1309064.51694496 23268.62287991
0.07900000 1300577.89438579 15606.93546465
0.08000000 1292039.12873678 15698.27615057
0.08100000 1283448.56837354 20522.34357116
0.08200000 1274806.53241077 17458.47628061
0.08300000 1266116.58000384 20738.99055379
0.08400000 1257379.26323477 19237.90363049
0.08500000 1248598.44715803 19328.30486938
0.08600000 1239773.26837294 21032.75448547
0.08700000 1230907.31983671 17872.77512329
0.08800000 1221999.54244181 17945.06412353
0.08900000 1213055.84317443 32752.50930409
0.09000000 1204074.70428972 24653.43072844
0.09100000 1195059.17078448 21439.36253112
0.09200000 1186010.07976655 19853.80966816
0.09300000 1176930.93836077 19913.67241285
0.09400000 1167820.04023205 18305.57999095
0.09500000 1158681.68868237 16685.01710127
0.09600000 1149517.02025079 25088.21014631
0.09700000 1140329.07160302 26820.54102501
0.09800000 1131118.63196962 23515.95746431
0.09900000 1121887.25923820 23559.63355183
0.10000000 1112634.94284834 21913.34622992
0.10100000 1103364.56521296 18569.62650590
0.10200000 1094078.61715594 20284.21851617
0.10300000 1084777.38197944 16922.52795493
0.10400000 1075464.17907952 20326.27394085
0.10500000 1066141.27640749 20341.97651093
0.10600001 1056805.11909109 16961.72295952
0.10700001 1047463.51097432 20362.69161156
0.10800001 1038113.67576524 20367.79127706
0.10900001 1028759.58106930 20369.44066387
0.11000001 1019401.92674646 16973.04287924
0.11100001 1010042.35688816 23756.19735229
0.11200001 1000683.67009545 16961.58900662
0.11300001 991324.19785492 18646.80903956
0.11400001 981968.77428891 20326.75458485
0.11500001 972618.13451540 23692.97887245
0.11600001 963272.40716150 21977.06100432
0.11700001 953935.04559557 20261.58132267
0.11800001 944604.37025440 21919.54544413
0.11900001 935284.67307853 16835.12490838
0.12000001 925975.65338709 20167.75068077
0.12100001 916681.40804632 16775.27055750
0.12200001 907400.08809076 21763.99213819
0.12300001 898135.24664362 18375.84801210
0.12400001 888886.51369737 23333.27208396
0.12500001 879656.26759217 21613.15551316
0.12600001 870447.14605051 18240.22080503
0.12700001 861258.90208843 21497.02320920
0.12800001 852091.60458701 19785.56799099
0.12900001 842948.87423596 18081.25420457
0.13000001 833830.80210359 19661.73124036
0.13100001 824737.87150915 17962.79168819
0.13200001 815673.44658845 17899.95462919
0.13300001 806638.23156779 16213.42921886
0.13400001 797631.31362015 24228.05229346
0.13500001 788656.04094178 24132.87599064
0.13600001 779712.05166370 16023.08341719
0.13700001 770801.81170540 20742.27773106
0.13800001 761924.48571870 17474.73890399
0.13900001 753084.92851841 20559.21951809
0.14000001 744280.05444582 17315.67628330
0.14100001 735513.44920776 20366.36836910
0.14200001 726784.08576193 17148.47131237
0.14300001 718096.74732744 17061.97952127
0.14400001 709445.62330538 15430.44303474
0.14500001 700839.72726202 16883.22982616
0.14600001 692274.00753052 19844.03536199
0.14700001 683754.20510005 19733.14729013
0.14800001 675276.37982951 16601.67058135
0.14900001 666843.21568924 21005.56228527
0.15000001 658456.80684876 17896.85685457
0.15100001 650116.85541032 17787.19800331
0.15200001 641825.69361174 23567.84058152
0.15300001 633582.67466171 19026.48861793
0.15400001 625386.76246852 17448.29149627
0.15500001 617242.75230487 15887.82919412
0.15600001 609147.63813846 15779.97031071
0.15700001 601107.31924162 19944.74179377
0.15800001 593114.28637095 16974.93167713
0.15900001 585177.18618868 18257.52907085
0.16000001 577291.17794227 13941.58260538
0.16100001 569462.26458899 13837.93368272
0.16200001 561685.66860875 16479.85829493
0.16300001 553965.47203608 14990.30638096
0.16400001 546300.62960104 17577.22358723
0.16500001 538692.61908657 14754.79153337
0.16600001 531140.94484765 14635.58942627
0.16700001 523646.25588716 14515.47489854
0.16800001 516208.45063367 13085.88484143
0.16900001 508831.26705897 16867.75729947
0.17000001 501511.90026695 14150.15893420
0.17100001 494251.76167609 14026.86565873
0.17200001 487051.17935949 17694.57018172
0.17300001 479910.69821122 15030.80377780
0.17400001 472831.42814176 13653.00813237
0.17500001 465812.27342017 12297.44459907
0.17600001 458852.19906138 17055.53704463
0.17700001 451956.15078195 14480.67575498
0.17800001 445120.80030548 15536.94226851
0.17900001 438347.34013943 14202.45449135
0.18000001 431636.74342195 16406.51339243
0.18100001 424989.37166119 20883.97870992
0.18200001 418402.12629261 16079.19447297
0.18300001 411880.42611194 12504.69032747
0.18400001 405420.02350738 19125.69051247
0.18500001 399024.06936257 12246.04926727
0.18600001 392691.12526353 14319.48255924
0.18700001 386421.46304122 10897.08577259
0.18800001 380214.74036053 10779.08839849
0.18900001 374074.21181471 15991.67331064
0.19000001 367993.25194504 13705.90931628
0.19100001 361981.08833403 11467.56142027
0.19200001 356029.49977574 11337.75995608
0.19300001 350144.24892417 11208.11793768
0.19400001 344321.77871429 13092.83625430
0.19500001 338563.95140503 14930.67096251
0.19600001 332869.21179787 10819.91424080
0.19700001 327239.05511402 10690.90043580
0.19800001 321673.01991007 10562.13410790
0.19900001 316171.67403244 10433.66573617
0.20000001 310732.25630553 12179.15136150
0.20100001 305358.31473353 10177.59311108
0.20200001 300046.85627377 11877.35536696
0.20300001 294799.91762507 10825.05348683
0.20400001 289616.47119199 11577.41898312
0.20500001 284495.52230215 8790.91205466
0.20600001 279438.23427914 8676.55758449
0.20700001 274443.86640101 9418.91394011
0.20800001 269512.07859829 8449.20406345
0.20900001 264645.30388691 9169.96021316
0.21000001 259838.57567483 12335.83696331
0.21100001 255094.39967311 10545.60298101
0.21200001 250412.26004144 12001.00812983
0.21300001 245791.83594342 9467.90196814
0.21400001 241233.93943103 8557.77440590
0.21500001 236737.97099322 9971.40380966
0.21600001 232301.36834954 8317.55088700
0.21700001 227926.70243823 10434.48493096
0.21800001 223612.37631534 7345.66690927
0.21900001 219357.29741401 8686.54938831
0.22000001 215162.17788931 7845.88918771
0.22100001 211028.80593719 8432.71148398
0.22200001 206953.75065803 9691.64460158
0.22300001 202937.62131815 8864.31571833
0.22400001 198978.45846731 9401.73260715
0.22500001 195080.71302109 7935.88378096
0.22600001 191239.20533675 7814.03429957
0.22700001 187456.41223091 7693.21152176
0.22800001 183730.11083866 6311.12960576
0.22900001 180060.37078912 6212.08308600
0.23000001 176447.50863374 6725.29710963
0.23100001 172892.25578037 8423.31109998
0.23200001 169390.71616823 6512.22639107
0.23300001 165945.93776153 8737.05403636
0.23400001 162556.02149696 5730.10002877
0.23500001 159219.37186321 6200.00263359
0.23600001 155937.84645665 6652.30884448
0.23700001 152709.90902617 7087.26721312
0.23800001 149535.28909100 8041.26055121
0.23900001 146413.72444551 6852.16262815
0.24000001 143344.43553868 6218.28190779
0.24100001 140328.27024929 5603.30809610
0.24200001 137362.93701395 5006.87929099
0.24300001 134448.93846362 7873.33020886
0.24400001 131584.92203731 7253.61917043
0.24500001 128771.68978256 6177.17825108
0.24600001 126008.23147582 5602.32623643
0.24700001 123295.04465074 4586.57587798
0.24800001 120629.62800335 4505.51681907
0.24900001 118012.56512033 5310.56568164
0.25000001 115444.09881202 4346.47052590
0.25100001 112922.42917495 6829.54883960
0.25200001 110449.00357303 4610.69387229
0.25300001 108022.00909093 4115.63874108
0.25400001 105640.43314104 4444.82143470
0.25500001 103304.64117125 3966.89840866
0.25600001 101014.32278939 4283.51256055
0.25700001 98768.53226434  4204.57661743
0.25800001 96566.76144103  4501.94263139
0.25900001 94409.15158800  4050.15279476
0.26000001 92295.12984054  5058.69630591
0.26100001 90221.87898199  3900.29201294
0.26200001 88193.52287240  3479.23464194
0.26300001 86205.37494581  4437.85291220
0.26400001 84258.44805134  4019.12816223
0.26500001 82353.36106578  3614.48918821
0.26600001 80487.58363773  4512.93902812
0.26700001 78662.81956589  3478.47004581
0.26800001 76877.23112503  3412.19606495
0.26900001 75129.90787058  3955.58983657
0.27000001 73421.73386524  2984.59362286
0.27100001 71751.35020375  3220.20074953
0.27200001 70118.85486052  4307.05086363
0.27300001 68522.78067126  3661.17234453
0.27400001 66962.29217362  4143.29202432
0.27500001 65440.08349778  3521.98546053
0.27600001 63951.28596557  4517.19929796
0.27700001 62499.27146929  3648.70764106
0.27800001 61080.98254074  2556.23924031
0.27900001 59697.43465863  3510.20932406
0.28000001 58347.19094125  3689.00132185
0.28100001 57030.04235508  2653.60799637
0.28200001 55746.17927847  3076.35304908
0.28300001 54494.45716818  3250.04957934
0.28400001 53274.76021157  2960.74493889
0.28500001 52086.72050546  2681.42449854
0.28600001 50928.92705593  2411.73945489
0.28700001 49802.02196087  2581.73694065
0.28800001 48704.61531423  3167.01776071
0.28900001 47638.19745437  2486.71402482
0.29000001 46599.63517738  3051.11125766
0.29100001 45590.90689517  2196.56999818
0.29200001 44609.92307306  2548.78807543
0.29300001 43656.64932506  2310.30999164
0.29400001 42730.62425007  2079.91323383
0.29500001 41832.67802632  1857.37099229
0.29600001 40960.19283124  2189.73201241
0.29700001 40113.61860360  2151.69460375
0.29800001 39293.40158952  1938.54005919
0.29900001 38498.29994526  2771.87772728
0.30000001 37727.96209419  1873.75932611
0.30100001 36982.89905302  2345.45556898
0.30200001 36260.62249283  2472.06805548
0.30300001 35562.48396776  2108.14414941
0.30400001 34888.35843264  1915.37096863
0.30500001 34235.78333537  2199.99154128
0.30600001 33605.81977083  2011.81249583
0.30700001 32998.52786636  1829.43847152
0.30800001 32412.55848107  1953.01880374
0.30900001 31847.76689079  1777.10547664
0.31000001 31304.63605612  1752.43360939
0.31100001 30780.34755467  1728.62440051
0.31200001 30277.32926928  2274.43308239
0.31300001 29793.44301492  1403.27123244
0.31400001 29330.35347281  1524.44519393
0.31500001 28885.07101672  1779.89816032
0.31600002 28458.71791999  1759.17573152
0.31700002 28050.10803461  1605.58825992
0.31800002 27659.85776648  1455.87668247
0.31900002 27287.37688298  1309.79415240
0.32000002 26931.86520457  1815.47711940
0.32100002 26593.50566771  1669.80629994
0.32200002 26271.76737220  1654.72734629
0.32300002 25965.55774630  1514.31139947
0.32400002 25675.57270006  1877.52634260
0.32500002 25400.67130236  1242.09288550
0.32600002 25141.47621897  1233.18946693
0.32700002 24896.86614636  1347.41845964
0.32800002 24667.58786430  1217.34551875
0.32900002 24451.21203832  1452.40206385
0.33000002 24250.44890822  1444.84181437
0.33100002 24060.75084442  1318.04799367
0.33200002 23886.99065786  1431.78628783
0.33300002 23724.72301798  1188.60867949
0.33400002 23576.03580786  1540.10461208
0.33500002 23439.05258477  1653.85962870
0.33600002 23314.33267404  2239.22518772
0.33700002 23200.56490889  1293.89556624
0.33800002 23099.84718429  1409.55274194
0.33900002 23009.01451001  1290.80577514
0.34000002 22929.79577409  1407.43093127
0.34100002 22861.11195341  1407.33011850
0.34200002 22803.81495902  1642.55886929
0.34300002 22755.16229066  1526.41635875
0.34400002 22717.27528152  1410.74286179
0.34500002 22688.59914407  1413.04602161
0.34600002 22670.48436567  1297.99864383
0.34700002 22659.22396009  1182.81154674
0.34800002 22658.60869612  1542.03168785
0.34900002 22665.93472131  1546.95011800
0.35000002 22681.79516314  1433.03588628
0.35100002 22705.84603495  1198.86872743
0.35200002 22736.94337847  1324.31332980
0.35300002 22776.25183923  1451.30283593
0.35400002 22823.16678720  1458.40042678
0.35500002 22877.05159770  1710.28845845
0.35600002 22937.32183299  1228.29364233
0.35700002 23004.68680355  1976.56278378
0.35800002 23078.98366609  1491.36399514
0.35900002 23159.09872683  1375.65052953
0.36000002 23246.02438398  1384.64950802
0.36100002 23337.82643514  1520.69284254
0.36200002 23436.51893118  1403.73036787
0.36300002 23539.03182369  1413.75431830
0.36400002 23647.55938851  1683.11511920
0.36500002 23760.50492036  1565.34213830
0.36600002 23879.09164230  1840.36168005
0.36700002 24001.73691827  1589.87512878
0.36800002 24130.33808728  1602.73713168
0.36900002 24262.01446096  1481.19605300
0.37000002 24397.15366132  1493.47183212
0.37100002 24536.57634966  1642.96923020
0.37200002 24680.25062805  1657.03210566
0.37300002 24826.81212421  1671.34107137
0.37400002 24977.76370986  2669.49862295
0.37500002 25130.83114987  1700.85473279
0.37600002 25288.13247438  1573.04835509
0.37700002 25446.95901933  1587.12690922
0.37800002 25609.45611295  1601.48741389
0.37900002 25774.37314436  1762.96720659
0.38000002 25941.70961375  1779.08252959
0.38100002 26110.86040779  1496.15237224
0.38200002 26282.46449920  1509.92765701
0.38300002 26455.75563267  1828.62191596
0.38400002 26631.44176434  2614.54191908
0.38500002 26807.79648705  2173.04008619
0.38600002 26986.81330114  1723.24304498
0.38700002 27166.05182323  2055.38357832
0.38800002 27346.79374351  1914.82258864
0.38900002 27528.73263905  2093.56021638
0.39000002 27712.26989267  2600.51952993
0.39100002 27895.78438622  1804.29941958
0.39200002 28080.65773161  1820.89033687
0.39300002 28265.67011239  1837.55130106
0.39400002 28452.17522194  1685.79146177
0.39500002 28637.97597131  1871.20543862
0.39600002 28824.22497898  2231.42748247
0.39700002 29010.15761915  2424.66908868
0.39800002 29197.32439818  1922.20594283
0.39900002 29383.42590258  1763.00563768
0.40000002 29569.29069347  1778.59291948
0.40100002 29754.80574195  1973.63635837
0.40200002 29940.92678271  2714.89366465
0.40300002 30125.52668002  2008.16770364
0.40400002 30309.60328939  2393.70103319
0.40500002 30493.10620538  2414.13933266
0.40600002 30676.11103119  2060.05433391
0.40700002 30858.03610051  1888.51189883
0.40800002 31039.09076879  2285.09797067
0.40900002 31218.43550213  2303.92064922
0.41000002 31397.55560516  2903.48909216
0.41100002 31575.09105453  2341.60886355
0.41200002 31750.60827814  2360.34033124
0.41300002 31925.31455152  2379.07455311
0.41400002 32098.34766384  2397.74668410
0.41500002 32270.32676227  2819.13587953
0.41600002 32439.54621381  2637.82182537
0.41700002 32607.84190585  2453.41414125
0.41800002 32775.30336752  2471.91349711
0.41900002 32938.83947327  2282.66168366
0.42000002 33101.38543898  2717.45836638
0.42100002 33262.40480763  2526.61238891
0.42200002 33421.31449566  2332.64075576
0.42300002 33577.52531143  2562.63685320
0.42400002 33731.71793218  3010.55596810
0.42500002 33884.17763641  2814.75876964
0.42600002 34032.99343216  3051.73866567
0.42700002 34180.77152574  2194.40563594
0.42800002 34325.63395337  2650.62557948
0.42900002 34468.76983511  2890.20648763
0.43000002 34609.27863255  2684.98796355
0.43100002 34746.01520259  2701.85027019
0.43200002 34881.01641846  2492.07433611
0.43300002 35013.03683196  3191.08832808
0.43400002 35142.83296677  2522.37695572
0.43500002 35269.45394547  2998.60911654
0.43600002 35394.36564369  2552.11085568
0.43700002 35515.42456876  2566.69985522
0.43800002 35633.10726341  2581.08424694
0.43900002 35748.92341168  2359.42905698
0.44000002 35861.22674498  2372.22026160
0.44100002 35971.19952835  2861.86877010
0.44200002 36078.04942842  2876.86379776
0.44300002 36182.13597382  2650.70340706
0.44400002 36282.56421875  2664.04740401
0.44500002 36379.27060324  4137.41464178
0.44600002 36473.82392771  2934.68401230
0.44700002 36565.49024468  2457.20106089
0.44800002 36652.84716257  2715.42631073
0.44900002 36738.58312783  2975.82537438
0.45000002 36820.78727538  2490.92637723
0.45100002 36898.65207720  2751.90160234
0.45200002 36974.18506698  2763.63559381
0.45300002 37045.93397270  3279.67669004
0.45400002 37115.07291476  2533.10384648
0.45500002 37180.88102695  2797.48962105
0.45600002 37243.14174537  2808.31923641
0.45700002 37302.18169390  2818.92600421
0.45800002 37357.22101277  4629.68061953
0.45900002 37409.42709475  2839.37565106
0.46000002 37459.02765107  4662.52539271
0.46100002 37504.01692130  2858.93134541
0.46200002 37546.50450565  3389.88631996
0.46300002 37585.44911570  3139.13685892
0.46400002 37620.52395423  3936.04750526
0.46500002 37653.18696375  2895.15368286
0.46600002 37681.70423035  2903.56385709
0.46700002 37706.85170981  3970.53167323
0.46800002 37729.44325213  2919.69310445
0.46900002 37747.82785457  3193.46638786
0.47000002 37762.57324737  3468.30370429
0.47100002 37774.62889731  3476.77700850
0.47200002 37782.99688382  2948.77413156
0.47300002 37788.69470719  3224.13158523
0.47400002 37789.56504465  3500.25862816
0.47500002 37788.29276579  4316.93477018
0.47600002 37783.93597919  2973.78482219
0.47700002 37775.16032256  3250.17494821
