# SAXS profile: number of points = 501, q_min = 0, q_max = 0.5, delta_q = 0.001
#    q    intensity    error
0.00000000 1682732.95097188 378.61491397
0.00100000 1682663.71505580 605.75895181
0.00200000 1682455.94557161 1135.65779922
0.00300000 1682109.82720355 1312.04571196
0.00400000 1681625.21438100 1387.34085458
0.00500000 1681002.57807139 2118.06333221
0.00600000 1680241.62036346 2469.95528249
0.00700000 1679343.05764601 3022.81762939
0.00800000 1678306.27953333 2945.42764494
0.00900000 1677132.67994799 3521.97877845
0.01000000 1675821.40564252 3041.61598258
0.01100000 1674373.68808647 3013.87276978
0.01200000 1672789.05396344 3588.13267807
0.01300000 1671068.83901661 4211.09366005
0.01400000 1669212.25692871 5258.01884242
0.01500000 1667221.18497285 4401.46412432
0.01600000 1665094.43868222 6793.58561352
0.01700000 1662834.13850881 6285.51332552
0.01800000 1660439.80872179 5205.47903458
0.01900000 1657912.27852543 5471.11076600
0.02000000 1655252.06059121 5214.04422672
0.02100000 1652460.91111655 5998.43337931
0.02200000 1649537.00674907 6829.08351820
0.02300000 1646483.11653029 7112.80738717
0.02400000 1643299.33266973 8011.08461205
0.02500000 1639986.89464117 7675.13901745
0.02600000 1636545.88937393 7290.81227063
0.02700000 1632977.61726458 8916.05819863
0.02800000 1629281.74273608 7796.11349652
0.02900000 1625460.83017223 8046.03147878
0.03000000 1621515.38628334 11310.07033920
0.03100000 1617445.44908697 8540.11236414
0.03200000 1613252.16763222 7985.59859758
0.03300000 1608938.34131458 12308.37887848
0.03400000 1604501.96193374 12635.45353323
0.03500000 1599946.38205919 10367.65303450
0.03600000 1595271.21384689 12395.25790442
0.03700000 1590478.56480173 9065.72823864
0.03800000 1585569.34421306 9275.58109292
0.03900000 1580545.44155795 17069.89155933
0.04000000 1575405.19734865 13564.23937772
0.04100000 1570152.80818494 14837.94472533
0.04200000 1564788.54967664 13120.75259775
0.04300000 1559312.61298695 12349.75646811
0.04400000 1553728.59903414 12585.20223666
0.04500000 1548035.97642391 13885.88335373
0.04600000 1542235.37863197 14134.58790223
0.04700000 1536329.92804314 13273.89119563
0.04800000 1530319.70354120 12372.63537881
0.04900000 1524207.65361040 14861.02531444
0.05000000 1517993.16472425 15096.44272617
0.05100000 1511679.52784995 14149.32103981
0.05200000 1505265.25974435 16753.60312169
0.05300000 1498755.44840594 18209.87954704
0.05400000 1492148.62313931 13541.24938647
0.05500000 1485448.86949339 12477.77108582
0.05600000 1478654.32447661 13906.74457065
0.05700000 1471770.68942091 12804.40559565
0.05800000 1464795.81895729 12963.44360307
0.05900000 1457732.03789161 13119.58895379
0.06000000 1450582.14505310 18581.95814626
0.06100000 1443347.89156257 16107.76322258
0.06200000 1436029.37524344 17641.62169950
0.06300000 1428629.86749392 15086.33210610
0.06400000 1421147.54532069 15241.80813637
0.06500000 1413588.81801913 16793.43594363
0.06600000 1405951.29030764 18368.75446732
0.06700000 1398238.05836585 15688.23174906
0.06800000 1390452.17966297 15830.29880646
0.06900000 1382594.27969817 15968.96467816
0.07000000 1374664.18339571 23424.27878199
0.07100000 1366666.37507640 19187.99680480
0.07200000 1358600.06715765 19339.67286199
0.07300000 1350469.99670664 20986.30473215
0.07400000 1342275.23715749 16610.65683827
0.07500000 1334018.58992755 16728.59390180
0.07600000 1325700.13699274 16843.02103010
0.07700000 1317324.84604052 16953.97156349
0.07800000 1308891.50262660 18612.43804020
0.07900000 1300402.22816760 23407.24120490
0.08000000 1291860.63091240 18835.32888229
0.08100000 1283267.16031242 15784.18681241
0.08200000 1274622.50777336 20629.76625637
0.08300000 1265929.76708949 19140.85897671
0.08400000 1257189.87900515 19235.00605164
0.08500000 1248406.40680643 19325.33208459
0.08600000 1239578.80182975 19411.80494807
0.08700000 1230710.35393792 21118.99066527
0.08800000 1221800.06547385 17942.13480411
0.08900000 1212853.99593684 22922.94159989
0.09000000 1203870.61391213 23005.96851258
0.09100000 1194852.89506503 19786.76487188
0.09200000 1185801.56115994 18196.12581098
0.09300000 1176720.33570717 23228.46051841
0.09400000 1167607.48850088 18302.24824241
0.09500000 1158467.08005098 16681.92673683
0.09600000 1149300.42936363 20066.78643998
0.09700000 1140110.66501547 18435.59032001
0.09800000 1130898.27433489 25190.76024522
0.09900000 1121665.22982044 20189.97508615
0.10000000 1112411.20365622 26964.84884471
0.10100000 1103139.55223089 20253.64313152
0.10200000 1093852.09467174 21970.02035487
0.10300000 1084549.46023276 18610.86961306
0.10400000 1075234.73574698 23708.92703861
0.10500000 1065910.67643773 18642.77860803
0.10600001 1056573.39404079 18653.80414952
0.10700001 1047230.64598954 18661.65098971
0.10800001 1037879.80489304 23757.06985205
0.10900001 1028525.01878391 25455.99541300
0.11000001 1019166.55180115 18666.03627484
0.11100001 1009806.37456398 18661.22268039
0.11200001 1000447.00460286 16957.57752633
0.11300001 991086.97092641 20337.10560090
0.11400001 981731.21979408 27095.78294211
0.11500001 972380.07219509 16919.41405290
0.11600001 963034.09622680 25351.87377703
0.11700001 953696.55131032 20256.51570381
0.11800001 944366.02090406 21914.01454719
0.11900001 935046.29008835 25246.25102153
0.12000001 925737.63101490 18482.35267382
0.12100001 916443.66677954 18448.01188132
0.12200001 907162.55280725 18410.86487658
0.12300001 897898.20685367 20041.08892120
0.12400001 888650.14587265 23327.06742827
0.12500001 879420.75934959 19945.26376188
0.12600001 870212.39681273 29839.58449285
0.12700001 861024.92470976 19838.01520021
0.12800001 851858.72596016 18131.81383660
0.12900001 842716.93492036 21362.87530711
0.13000001 833600.20082960 16380.24471838
0.13100001 824508.59190602 16325.27088927
0.13200001 815445.45755951 22775.39270328
0.13300001 806411.88639090 16208.87968059
0.13400001 797406.70206005 16147.48647800
0.13500001 788433.15110545 20909.24815315
0.13600001 779491.04939806 17620.39600246
0.13700001 770582.84669811 17546.17224668
0.13800001 761707.49633969 20646.08266187
0.13900001 752870.13616126 17391.30096547
0.14000001 744067.51337014 17310.73151494
0.14100001 735303.35986307 23492.94345562
0.14200001 726576.35992964 24936.10184890
0.14300001 717891.86586758 18607.75804097
0.14400001 709243.34869704 20053.85663035
0.14500001 700640.20186694 16878.42325917
0.14600001 692077.46189631 15260.30875471
0.14700001 683560.88485245 16692.55759559
0.14800001 675086.07859149 19614.62693887
0.14900001 666656.12289972 17999.71616753
0.15000001 658273.02306827 17891.86161119
0.15100001 649936.61010794 16300.41095064
0.15200001 641648.93317470 14725.84371123
0.15300001 633409.59415860 21947.64347328
0.15400001 625217.52460585 21804.46219960
0.15500001 617077.37685395 17327.53355980
0.15600001 608986.21897505 14341.62613371
0.15700001 600949.79394497 17091.01294644
0.15800001 592960.93650593 14142.11900316
0.15900001 585028.20290315 14040.67753240
0.16000001 577146.46212385 18119.51403366
0.16100001 569322.04121242 16601.43150541
0.16200001 561549.79130986 20594.83956849
0.16300001 553834.29248541 17711.62150981
0.16400001 546174.06579085 16221.37051979
0.16500001 538570.84360896 16092.49756678
0.16600001 531024.07894539 14632.36918618
0.16700001 523534.42717352 17150.98864398
0.16800001 516101.64427184 14391.49503003
0.16900001 508729.55845988 23350.68783588
0.17000001 501415.26774808 14147.43244755
0.17100001 494160.36431053 16574.13940163
0.17200001 486965.28063238 21482.47436956
0.17300001 479830.16693454 16280.63833293
0.17400001 472756.53133688 19855.77525386
0.17500001 465742.77240751 12295.60977225
0.17600001 458788.56004384 17053.17158224
0.17700001 451898.14281809 16891.95337636
0.17800001 445068.61049624 14340.11130750
0.17900001 438300.76479178 11834.12120835
0.18000001 431596.03633152 15233.18282186
0.18100001 424954.87628131 19722.15673982
0.18200001 418373.46153218 13781.22247387
0.18300001 411857.76328600 14777.45724478
0.18400001 405403.60453477 21374.90605886
0.18500001 399013.80441681 15585.47993681
0.18600001 392687.08020005 11014.87311999
0.18700001 386423.59922115 10897.14601287
0.18800001 380223.25491419 18324.86063637
0.18900001 374089.04040550 10661.53815529
0.19000001 368014.45732737 13706.69911078
0.19100001 362008.82797681 16681.36758137
0.19200001 356063.65508565 16492.86928288
0.19300001 350184.86456886 12228.45604857
0.19400001 344368.96670213 19138.30622883
0.19500001 338617.73057408 10950.89792425
0.19600001 332929.39741102 13773.28982177
0.19700001 327306.01402661 12637.28579877
0.19800001 321746.55446488 14406.20265698
0.19900001 316251.81722132 11385.06595803
0.20000001 310819.07465992 9371.19554389
0.20100001 305451.74708403 12031.74488629
0.20200001 300147.08104879 10053.42695489
0.20300001 294906.79197870 9926.56308718
0.20400001 289729.90161630 8909.19489580
0.20500001 284615.57540899 14071.39471333
0.20600001 279565.09871576 11284.64574306
0.20700001 274577.44719300 8566.81675737
0.20800001 269652.42068155 11835.04530316
0.20900001 264792.28023634 10009.14866608
0.21000001 259992.21389804 8228.75395887
0.21100001 255254.71509336 9740.52038843
0.21200001 250579.15146448 9607.20512132
0.21300001 245965.38132843 9474.58693669
0.21400001 241414.12820960 10121.28780369
0.21500001 236924.72531525 11514.54219470
0.21600001 232494.70711745 12108.32491914
0.21700001 228126.62775786 9697.66340449
0.21800001 223818.75470985 11028.66965977
0.21900001 219570.16862339 9419.56067931
0.22000001 215381.44277204 7853.88468203
0.22100001 211254.65549508 11255.64857698
0.22200001 207185.83807841 8316.43993371
0.22300001 203175.92901935 9557.39615300
0.22400001 199223.05735571 8740.91205481
0.22500001 195331.61778567 9932.61323409
0.22600001 191496.33404151 7824.54057894
0.22700001 187719.65928906 8346.01644667
0.22800001 183999.49125350 8848.53595283
0.22900001 180335.73081649 6843.74130813
0.23000001 176728.74591716 7348.38160275
0.23100001 173179.43577129 6629.30911484
0.23200001 169683.79915124 5930.44906081
0.23300001 166244.71663107 7585.74677864
0.23400001 162860.52584411 5740.83380752
0.23500001 159529.56181577 8471.02013306
0.23600001 156253.55703049 7221.25847971
0.23700001 153031.09134009 6009.53124116
0.23800001 149861.99233026 6447.06321499
0.23900001 146745.63791607 5811.12753634
0.24000001 143681.57600929 5713.49814026
0.24100001 140670.40538995 6638.23674435
0.24200001 137710.21418373 6525.39880776
0.24300001 134801.24732300 5920.47106248
0.24400001 131942.20376090 5818.65146110
0.24500001 129133.79382615 5718.04466111
0.24600001 126375.05033753 5150.41542015
0.24700001 123666.42662605 5520.46954574
0.24800001 121005.59171344 4971.51497073
0.24900001 118392.91914419 6215.62854912
0.25000001 115828.71290755 5669.23662146
0.25100001 113311.31032894 7281.38514621
0.25200001 110841.90462812 5889.03067150
0.25300001 108418.97318383 5369.99199585
0.25400001 106041.23536554 4867.29293356
0.25500001 103709.29303321 4778.92444907
0.25600001 101422.75091657 4300.83195610
0.25700001 99180.48185621  5373.59876121
0.25800001 96982.16090073  4898.08426804
0.25900001 94827.89299900  4068.11680214
0.26000001 92717.04609377  3992.85977895
0.26100001 90646.85377687  5699.87443519
0.26200001 88621.54006114  4544.95589709
0.26300001 86636.26019537  3430.79606607
0.26400001 84692.16855382  4713.11940304
0.26500001 82789.66671728  4954.96178749
0.26600001 80926.35424529  3565.21070498
0.26700001 79104.03987086  3497.98080861
0.26800001 77320.71509951  3743.86920228
0.26900001 75575.53350767  3366.89017709
0.27000001 73869.32557216  4504.18233991
0.27100001 72200.78720374  3240.37148305
0.27200001 70570.05485024  4045.78143602
0.27300001 68975.62758194  3685.36795611
0.27400001 67416.63463574  3059.02994136
0.27500001 65895.66222124  3546.50470859
0.27600001 64408.26346997  3211.39616860
0.27700001 62957.32404891  2625.32053709
0.27800001 61539.98635278  2575.44855075
0.27900001 60157.19404894  3284.58295052
0.28000001 58807.68010633  3222.36698394
0.28100001 57491.11160220  3647.81120381
0.28200001 56207.61608141  2863.21609870
0.28300001 54956.24462112  3043.47697117
0.28400001 53736.69147102  2756.69240294
0.28500001 52548.75384816  2254.34164679
0.28600001 51390.72375595  2654.84491489
0.28700001 50263.63285423  2822.80575470
0.28800001 49165.81279297  3197.00712819
0.28900001 48098.95256215  2510.76544259
0.29000001 47059.70575177  2259.57187863
0.29100001 46050.12870125  2420.39487911
0.29200001 45068.29688849  2178.82691621
0.29300001 44113.97389739  2139.96897506
0.29400001 43186.81343720  2102.11824356
0.29500001 42287.47579570  2816.34602131
0.29600001 41413.54933657  2029.47108131
0.29700001 40565.41945088  1994.60176882
0.29800001 39743.51343822  2138.99599450
0.29900001 38946.57337656  2278.37465039
0.30000001 38174.20856698  1895.92215823
0.30100001 37427.15452016  2882.26530604
0.30200001 36702.66410413  2168.57701125
0.30300001 36002.11225871  2462.54459508
0.30400001 35325.54828232  2262.60147460
0.30500001 34670.30153216  1909.64029880
0.30600001 34037.65917587  1567.43427926
0.30700001 33427.52471479  1853.22205793
0.30800001 32838.57111030  1674.27462733
0.30900001 32270.69855870  2100.82257563
0.31000001 31724.39470393  2071.92031621
0.31100001 31196.69065647  1752.00623022
0.31200001 30690.27433943  1729.09013815
0.31300001 30202.81591268  2276.08431494
0.31400001 29735.94044851  1545.52557799
0.31500001 29286.97986039  1527.02320222
0.31600002 28856.66350881  1509.34785629
0.31700002 28444.14990694  1899.50042072
0.31800002 28049.66909431  1342.17672971
0.31900002 27672.93980185  1859.62164274
0.32000002 27313.03454878  1841.17174611
0.32100002 26970.30077453  1302.66558909
0.32200002 26643.96385096  1419.99012067
0.32300002 26333.12599667  1791.70597765
0.32400002 26038.39297514  1396.30888941
0.32500002 25758.54209031  1511.51132143
0.32600002 25494.41405949  1375.55117572
0.32700002 25244.68245876  1366.24227936
0.32800002 25010.31390873  1727.96266978
0.32900002 24788.66299919  1472.44665188
0.33000002 24582.56732061  1586.68188284
0.33100002 24387.50143503  1335.94739187
0.33200002 24208.20128686  1330.11968269
0.33300002 24040.33732800  1445.30514860
0.33400002 23886.00826545  1320.29916940
0.33500002 23743.33549890  1196.66416581
0.33600002 23612.69621321  1193.62185010
0.33700002 23493.07067027  1548.42836121
0.33800002 23386.30182055  1189.19350389
0.33900002 23289.50030259  1662.87040035
0.34000002 23204.16272418  1186.89297955
0.34100002 23129.29202805  1661.14583212
0.34200002 23065.75684402  1424.07989499
0.34300002 23010.74279212  1543.56069960
0.34400002 22966.53522024  1782.77738090
0.34500002 22931.34122936  1190.13666617
0.34600002 22906.73462608  1549.98427188
0.34700002 22888.94029698  1314.28301410
0.34800002 22881.68295100  1317.64177514
0.34900002 22882.44942280  1321.46151675
0.35000002 22891.56385137  1446.28907263
0.35100002 22908.88711983  1572.46608638
0.35200002 22933.19436930  1821.46904905
0.35300002 22965.60847560  1951.15818850
0.35400002 23005.76030069  1470.06815284
0.35500002 23052.67080849  1846.51901922
0.35600002 23106.01649840  1732.25813893
0.35700002 23166.43850328  1368.44158720
0.35800002 23233.70026253  1626.47526392
0.35900002 23306.81628987  1636.13858105
0.36000002 23386.64970428  1772.94199806
0.36100002 23471.44358503  1401.94939174
0.36200002 23563.10586132  1539.61340990
0.36300002 23658.46155746  1808.45288711
0.36400002 23759.83076916  1430.93587585
0.36500002 23865.67983187  2227.38400421
0.36600002 23977.09426473  1583.92692216
0.36700002 24092.64343150  1462.90537846
0.36800002 24214.07293109  2412.44820040
0.36900002 24338.69407627  1485.87734374
0.37000002 24466.57113029  1906.19064706
0.37100002 24598.85040521  1509.87750939
0.37200002 24735.40374816  1799.12967685
0.37300002 24874.79169685  1674.57105636
0.37400002 25018.62678761  1688.75738816
0.37500002 25164.61977365  2128.92693370
0.37600002 25314.77331593  1574.70554871
0.37700002 25466.56316429  1443.95419982
0.37800002 25621.94523840  2184.91148371
0.37900002 25779.77263573  1910.28124280
0.38000002 25940.10354786  1778.97238559
0.38100002 26102.27965049  2093.92497276
0.38200002 26266.87581445  1659.93529573
0.38300002 26433.19490030  3197.35940661
0.38400002 26601.95727102  1689.88941570
0.38500002 26771.47719664  1550.06860312
0.38600002 26943.58866672  1720.48293582
0.38700002 27116.14312470  1735.97556508
0.38800002 27289.95880834  2070.07992348
0.38900002 27465.24224804  1767.38842239
0.39000002 27642.02991055  1621.20513106
0.39100002 27818.97428266  1799.33134185
0.39200002 27997.25395778  1980.52583880
0.39300002 28175.74347584  2164.74247381
0.39400002 28355.76267551  2184.10272356
0.39500002 28535.13055817  2203.48288610
0.39600002 28714.96616565  2906.95973750
0.39700002 28894.56689379  1725.00572529
0.39800002 29075.48809080  2262.21845808
0.39900002 29255.37066059  1930.85455508
0.40000002 29435.10468804  1947.57379396
0.40100002 29614.54165676  2500.05972511
0.40200002 29794.69979378  2701.63453180
0.40300002 29973.31217069  2542.93592505
0.40400002 30151.58562262  3113.90515271
0.40500002 30329.27107416  2031.75796552
0.40600002 30506.54028121  1862.42437241
0.40700002 30682.81376456  2441.12477877
0.40800002 30858.28857939  1893.15609405
0.40900002 31032.18025719  2290.17501149
0.41000002 31205.83108989  2693.37540899
0.41100002 31377.97549425  2714.82256840
0.41200002 31548.28868821  2345.29989221
0.41300002 31717.88102362  3348.45685832
0.41400002 31885.82283825  2381.87107888
0.41500002 32052.80573998  2400.11420753
0.41600002 32217.10899656  2216.69828954
0.41700002 32380.57828854  3045.39353234
0.41800002 32543.30534387  2454.41620533
0.41900002 32702.20050692  3090.35809434
0.42000002 32860.12774760  4150.23433118
0.42100002 33016.75789414  2716.94913585
0.42200002 33171.24147601  3157.07305708
0.42300002 33323.26159509  3179.03930681
0.42400002 33473.24271989  3414.27091922
0.42500002 33621.65077687  2148.42358645
0.42600002 33766.41578288  2379.01293672
0.42700002 33910.33414796  2612.45226655
0.42800002 34051.40933954  2848.57078328
0.42900002 34190.79791870  3087.42919836
0.43000002 34327.76274665  2441.21896341
0.43100002 34460.97346250  3349.60677928
0.43200002 34592.59567028  2920.82595383
0.43300002 34721.34110990  2486.39535471
0.43400002 34847.99086628  2728.59781413
0.43500002 34971.52752424  2973.27941101
0.43600002 35093.43717153  2530.41240717
0.43700002 35211.64801605  2544.74592271
0.43800002 35326.51323000  2558.87610708
0.43900002 35439.77007349  2572.92742926
0.44000002 35549.46220110  2351.59703604
0.44100002 35657.00589991  2600.46556352
0.44200002 35761.53501893  3089.26034901
0.44300002 35863.37230662  3821.60113410
0.44400002 35961.66951005  3360.61817498
0.44500002 36056.38099506  2894.60640346
0.44600002 36148.92186554  3635.67798893
0.44700002 36238.81744374  2922.29837715
0.44800002 36324.44559578  3425.03213754
0.44900002 36408.61062388  2949.09760030
0.45000002 36489.27324055  2962.19934205
0.45100002 36565.76205914  2974.99054212
0.45200002 36640.00963453  2987.62652719
0.45300002 36710.59814862  2749.99103764
0.45400002 36778.70145526  2761.16114261
0.45500002 36843.48770299  3024.11361398
0.45600002 36904.89915935  3541.76334018
0.45700002 36963.13869106  4316.92517232
0.45800002 37017.53452341  3058.38884727
0.45900002 37069.16976469  2813.55011849
0.46000002 37118.31175361  3080.07765529
0.46100002 37162.93207192  2832.93044611
0.46200002 37205.27668150  4134.25054079
0.46300002 37244.00939124  2851.40149414
0.46400002 37279.03582897  2860.23415954
0.46500002 37311.80947390  3651.33384817
0.46600002 37340.39323896  3400.40307147
0.46700002 37365.83331737  2885.38978552
0.46800002 37388.81136356  3156.36360491
0.46900002 37407.62399318  3164.68513982
0.47000002 37422.98825342  4494.68821721
0.47100002 37435.64586714  3445.57700892
0.47200002 37444.67844912  3719.38008664
0.47300002 37451.30715265  3727.90329067
0.47400002 37453.07646668  2935.38500721
0.47500002 37452.82541313  3476.37141962
0.47600002 37449.60473441  2679.51934575
0.47700002 37442.02768824  2953.05286374
