# SAXS profile: number of points = 501, q_min = 0, q_max = 0.5, delta_q = 0.001
#    q    intensity    error
0.00000000 1700912.83420644 306.16431016
0.00100000 1700843.02949478 561.27821306
0.00200000 1700633.55364494 918.34214805
0.00300000 1700284.59323009 1530.25618842
0.00400000 1699795.99105140 2039.75526677
0.00500000 1699168.24193719 1988.02692176
0.00600000 1698401.02864820 2674.98172903
0.00700000 1697495.07192874 2444.39300517
0.00800000 1696449.78044870 2748.24876036
0.00900000 1695266.54877849 2797.18992506
0.01000000 1693944.45219137 2795.00846680
0.01100000 1692484.84249634 3655.76741896
0.01200000 1690887.15742347 3626.95311169
0.01300000 1689152.77749701 4966.10938487
0.01400000 1687280.91006448 4555.65865913
0.01500000 1685273.46250392 5258.05343715
0.01600000 1683129.14638610 5150.37541818
0.01700000 1680850.24119168 4538.29585480
0.01800000 1678436.14838619 8610.37782867
0.01900000 1675887.68759099 6535.96227652
0.02000000 1673205.53529650 7378.83674444
0.02100000 1670391.32329808 7165.97910184
0.02200000 1667443.23981124 8629.01915806
0.02300000 1664364.08998563 6590.88209635
0.02400000 1661153.93183324 6229.32752842
0.02500000 1657814.06563817 7758.57018153
0.02600000 1654344.51376292 8710.12426335
0.02700000 1650746.68980320 8319.76369766
0.02800000 1647020.07629460 8597.44519253
0.02900000 1643167.38885615 7394.25358935
0.03000000 1639189.13392035 10671.12175232
0.03100000 1635085.35456739 10202.93308197
0.03200000 1630857.17019807 8880.01770073
0.03300000 1626507.34837084 15760.85693230
0.03400000 1622033.90284331 9367.24622113
0.03500000 1617440.26692525 10481.01341367
0.03600000 1612726.02651980 11635.81881907
0.03700000 1607893.27502785 11914.48971897
0.03800000 1602942.91325180 12190.38141945
0.03900000 1597876.89276373 10545.98798063
0.04000000 1592693.49101413 10774.57196599
0.04100000 1587396.94736963 12000.72147855
0.04200000 1581987.53674777 14285.34811957
0.04300000 1576465.49461758 13526.07457167
0.04400000 1570834.26999454 13784.07135936
0.04500000 1565093.63155486 12958.97587141
0.04600000 1559243.92014847 16489.00522209
0.04700000 1553288.49739608 13420.41324166
0.04800000 1547227.32764513 14783.75780351
0.04900000 1541063.37805492 13869.57104809
0.05000000 1534796.08385424 17611.78588234
0.05100000 1528428.70542120 20266.96557800
0.05200000 1521959.69675655 13309.53816838
0.05300000 1515394.25070109 15957.10220377
0.05400000 1508731.06609358 13691.73506330
0.05500000 1501973.87749399 20186.52985521
0.05600000 1495121.15076376 19174.92965333
0.05700000 1488178.28019393 20715.44262727
0.05800000 1481143.45919105 15729.74427107
0.05900000 1474018.67101793 14592.78552465
0.06000000 1466807.20227482 16105.54383341
0.06100000 1459510.35796831 14930.79165975
0.06200000 1452128.47948722 13722.61477260
0.06300000 1444664.76819745 19416.29539239
0.06400000 1437117.39957124 23820.22201189
0.06500000 1429492.80647488 19812.77122454
0.06600000 1421788.73075684 18575.67063647
0.06700000 1414008.10796908 17307.46005151
0.06800000 1406154.13178309 20375.17432328
0.06900000 1398227.40039266 19085.80490894
0.07000000 1390227.51702514 17767.10849959
0.07100000 1382159.32738772 20898.25000893
0.07200000 1374021.85417843 22568.31001213
0.07300000 1365819.97275533 24256.96385271
0.07400000 1357552.66254454 19854.20862016
0.07500000 1349222.81972792 16919.25495244
0.07600000 1340830.30883330 18583.90895165
0.07700000 1332380.37929928 18706.62140249
0.07800000 1323871.66513096 21963.03195451
0.07900000 1315306.49498698 17362.04654817
0.08000000 1306688.31894995 17463.89020202
0.08100000 1298017.73511379 19158.74266917
0.08200000 1289295.17801586 22472.41600734
0.08300000 1280524.20778248 19361.52693035
0.08400000 1271705.04142505 17835.66404317
0.08500000 1262842.03339600 24435.99449336
0.08600000 1253934.32118910 19636.61239179
0.08700000 1244984.82576783 24650.70070774
0.08800000 1235993.29232340 19800.61347293
0.08900000 1226965.40624306 23189.64726720
0.09000000 1217899.56571256 24936.49477937
0.09100000 1208798.89376086 21685.85317290
0.09200000 1199664.17919427 16735.31608610
0.09300000 1190499.01808554 23500.45172135
0.09400000 1181301.75231433 30300.39137090
0.09500000 1172076.44607158 20253.48194008
0.09600000 1162824.41073486 25378.64395728
0.09700000 1153548.87723080 20348.60315100
0.09800000 1144250.41185356 18691.33135645
0.09900000 1134930.67133546 25535.94130581
0.10000000 1125589.59531751 18757.95148810
0.10100000 1116230.23311731 25617.48505488
0.10200000 1106855.11006512 22231.18593133
0.10300000 1097464.42661185 18832.49044655
0.10400000 1088061.18693544 23991.75030062
0.10500000 1078648.10254310 20580.60676483
0.10600001 1069221.69323252 18877.10988226
0.10700001 1059789.14605431 22319.16046619
0.10800001 1050348.46962897 24042.47760129
0.10900001 1040903.50585494 25762.36298243
0.11000001 1031454.58707794 25760.57952481
0.11100001 1022003.58360285 17169.66101276
0.11200001 1012553.03347360 24027.88461549
0.11300001 1003101.74134975 22298.95276006
0.11400001 993654.49372336 22282.70307091
0.11500001 984211.70673974 20550.34140440
0.11600001 974773.72384540 29082.37542046
0.11700001 965344.14068352 23921.22893271
0.11800001 955921.16548110 17063.19360749
0.11900001 946508.90118271 18740.87712614
0.12000001 937107.49407768 20410.20218243
0.12100001 927720.79641631 18675.02051161
0.12200001 918346.53870501 20332.19332480
0.12300001 908989.10984140 21979.35771151
0.12400001 899647.80993734 18555.23695423
0.12500001 890324.87451064 23557.99728962
0.12600001 881023.30045723 30210.29039629
0.12700001 871742.17670087 16737.45058143
0.12800001 862482.39219556 23364.64910574
0.12900001 853246.85829382 21629.80887721
0.13000001 844036.55021271 23219.44659080
0.13100001 834850.88601532 21489.06281898
0.13200001 825694.14449931 16472.59895928
0.13300001 816566.70349826 22978.18811970
0.13400001 807467.67332610 17986.34327132
0.13500001 798400.40781714 19544.84290487
0.13600001 789364.45432331 17843.58433132
0.13700001 780362.60906189 33922.36421547
0.13800001 771393.59469042 16083.55720773
0.13900001 762462.67828059 16011.71699898
0.14000001 753566.25985086 19125.51257699
0.14100001 744708.69126635 20620.98463371
0.14200001 735888.23944120 22098.72487271
0.14300001 727110.59826373 17276.14862962
0.14400001 718368.86104012 15624.52346463
0.14500001 709672.55867979 17096.01274505
0.14600001 701016.93436629 18548.90895836
0.14700001 692407.46262531 15371.44639545
0.14800001 683840.16533060 16812.21125783
0.14900001 675317.59101735 18233.57581774
0.15000001 666842.26072446 18124.77350167
0.15100001 658413.73205831 18014.20055911
0.15200001 650034.11953105 17901.94049662
0.15300001 641703.10945429 14823.34252789
0.15400001 633419.52407208 14727.00462966
0.15500001 625187.95759331 21944.09834713
0.15600001 617005.93195497 21795.73557496
0.15700001 608878.74915709 15873.46973970
0.15800001 600799.18546701 15761.96737467
0.15900001 592776.19606141 19917.28112777
0.16000001 584804.50721654 16947.63541910
0.16100001 576890.43711738 18223.96976879
0.16200001 569028.75643017 16695.30450178
0.16300001 561224.23670691 20709.17531212
0.16400001 553475.13712512 16438.21234866
0.16500001 545783.49096724 17667.01243669
0.16600001 538148.37871729 20220.92628499
0.16700001 530571.13326848 14707.43250861
0.16800001 523050.83369771 14585.27318632
0.16900001 515591.59005048 14462.34478380
0.17000001 508190.62843654 15642.10828189
0.17100001 500849.44331113 14214.10787238
0.17200001 493568.09092289 19212.13884643
0.17300001 486347.55035450 15232.40599645
0.17400001 479188.73349410 15094.44581791
0.17500001 472090.14978591 17448.45276014
0.17600001 465051.59451372 14816.54450098
0.17700001 458077.20925391 13453.72827122
0.17800001 451164.18417154 14536.51070060
0.17900001 444313.37753841 13196.10793619
0.18000001 437525.91418087 15442.47787044
0.18100001 430802.55276730 14113.09229531
0.18200001 424139.39625627 13971.15237265
0.18300001 417542.56706377 11524.17539535
0.18400001 411007.52562646 11405.45937494
0.18500001 404537.56535136 12415.25846716
0.18600001 398130.98620528 11167.57469065
0.18700001 391788.11227523 15467.79540340
0.18800001 385508.81824855 12022.09306508
0.18900001 379296.30905156 10809.94531871
0.19000001 373144.01154275 17104.92229731
0.19100001 367060.93941523 14799.89777652
0.19200001 361039.17095151 12542.50139151
0.19300001 355084.13733083 11366.24377304
0.19400001 349192.46230837 13278.04400671
0.19500001 343366.11094619 12113.95696663
0.19600001 337603.23926210 13966.64666829
0.19700001 331905.59529847 11829.11597545
0.19800001 326272.64360115 9739.23887176
0.19900001 320705.13292612 9621.15444248
0.20000001 315199.82981616 13304.58544533
0.20100001 309760.86519299 12201.48105662
0.20200001 304384.93678732 13902.78264485
0.20300001 299073.88181198 10066.82733760
0.20400001 293826.92331820 12649.24964673
0.20500001 288643.29387689 12486.70948332
0.20600001 283523.77273536 16726.48576315
0.20700001 278467.93369439 8688.19994195
0.20800001 273474.98671664 10288.12948660
0.20900001 268547.75674889 17764.43494869
0.21000001 263681.30065035 12518.27034014
0.21100001 258878.06070320 15641.41316711
0.21200001 254137.21434856 9743.62125875
0.21300001 249458.72314471 8808.38793066
0.21400001 244843.61800939 8685.82775952
0.21500001 240290.75145615 13235.21521593
0.21600001 235797.79134861 11512.82770691
0.21700001 231367.60632901 9078.86530160
0.21800001 226998.19421025 9693.95834208
0.21900001 222688.68929981 10288.21793209
0.22000001 218439.67720668 7241.27564179
0.22100001 214253.32133197 9275.02671902
0.22200001 210125.54460183 9137.30973906
0.22300001 206057.36340132 9000.58605897
0.22400001 202046.80566882 11592.43602341
0.22500001 198098.22621193 8730.18924199
0.22600001 194206.59920895 7274.00851735
0.22700001 190374.17967093 7161.87697790
0.22800001 186598.80587936 7691.60314208
0.22900001 182880.46532323 9464.06452804
0.23000001 179219.81015320 6830.96338704
0.23100001 175617.30657664 6111.48255790
0.23200001 172069.04757754 7216.57619670
0.23300001 168578.25524201 6508.80674272
0.23400001 165142.76998627 9896.18095947
0.23500001 161761.26747559 5726.34913947
0.23600001 158435.32973297 9575.03960528
0.23700001 155163.61158689 6647.20943478
0.23800001 151945.89162256 8170.89070848
0.23900001 148781.67351322 7498.59669975
0.24000001 145670.29263894 6845.77572637
0.24100001 142612.44852774 6729.88176436
0.24200001 139606.24765116 7632.97195138
0.24300001 136651.89266480 6001.75140974
0.24400001 133748.14688174 6881.34248258
0.24500001 130895.61810623 6279.06309758
0.24600001 128093.36582240 5695.03131387
0.24700001 125342.14188171 5595.27347829
0.24800001 122639.08040937 5038.62685698
0.24900001 119985.06330703 5399.32810424
0.25000001 117379.97447785 6629.03437224
0.25100001 114822.36231536 5642.37115111
0.25200001 112313.38605210 4262.29320233
0.25300001 109851.50682182 4603.87686871
0.25400001 107435.51096477 5753.17188435
0.25500001 105065.92903992 4841.43823922
0.25600001 102742.38640596 4356.79110168
0.25700001 100463.67775627 4665.53341574
0.25800001 98229.62709454  5342.70967046
0.25900001 96040.15725383  5243.79283417
0.26000001 93894.75715985  4043.57790841
0.26100001 91790.64972042  5050.32178658
0.26200001 89732.04860631  4247.91538202
0.26300001 87714.15377659  4862.87291547
0.26400001 85737.91926409  3408.08245201
0.26500001 83803.93694351  3678.15496650
0.26600001 81909.81510693  4264.63472534
0.26700001 80057.23504408  4183.79130138
0.26800001 78244.25384806  3472.87137139
0.26900001 76470.01463359  3097.03573922
0.27000001 74735.24556735  3645.58545129
0.27100001 73038.89819525  3873.98334360
0.27200001 71380.91702205  4092.26816653
0.27300001 69759.74516565  4300.68849299
0.27400001 68174.54185588  3093.41998311
0.27500001 66628.13308928  2758.40484044
0.27600001 65115.63967177  3246.66594769
0.27700001 63640.24151202  3715.31747531
0.27800001 62199.08798685  3904.54793317
0.27900001 60792.86144133  2808.63033152
0.28000001 59420.59552655  4007.32515197
0.28100001 58081.81257997  2702.54686725
0.28200001 56776.65626952  2892.20300726
0.28300001 55504.12180062  3073.81841080
0.28400001 54263.95220396  3247.69769312
0.28500001 53056.02526013  3641.76574623
0.28600001 51878.36229634  2456.69996282
0.28700001 50732.29064265  2849.12557735
0.28800001 49615.95910355  3441.36308631
0.28900001 48531.19710393  2322.21789134
0.29000001 47474.39967236  2072.25764379
0.29100001 46447.81716908  2848.18028363
0.29200001 45449.48290022  2397.00584162
0.29300001 44479.26033879  1961.53547379
0.29400001 43536.55224602  2311.79103370
0.29500001 42622.20067439  2081.66837948
0.29600001 41733.68956462  2417.00674555
0.29700001 40871.58016545  2009.65569187
0.29800001 40035.98972142  2693.42133601
0.29900001 39225.89532370  2824.26459700
0.30000001 38440.87324709  1909.16606020
0.30100001 37681.62892880  2219.07123267
0.30200001 36945.34336832  2182.91571626
0.30300001 36233.48261832  2313.14563986
0.30400001 35545.99593343  1951.47526913
0.30500001 34880.22399664  1761.10259296
0.30600001 34237.54252902  1734.30279891
0.30700001 33617.86252486  1863.77438662
0.30800001 33019.61888534  2448.73505247
0.30900001 32442.99600513  2262.89907849
0.31000001 31888.23376157  1487.58617541
0.31100001 31352.55931375  1907.48979896
0.31200001 30838.44590454  1447.86510377
0.31300001 30343.83646349  1715.03371812
0.31400001 29870.17996528  1552.50267720
0.31500001 29414.61431536  2509.65501221
0.31600002 28978.26691483  2342.45831697
0.31700002 28559.95615080  1634.77196748
0.31800002 28160.13502884  1616.95502992
0.31900002 27778.33501233  1466.69615810
0.32000002 27413.85080648  1451.97467672
0.32100002 27066.71681671  1830.25147781
0.32200002 26736.39063439  1424.91600633
0.32300002 26421.81109264  1412.51008790
0.32400002 26123.72833217  2037.65090640
0.32500002 25840.91020093  1263.62056866
0.32600002 25573.98784582  2132.48707750
0.32700002 25321.85905720  1744.16973445
0.32800002 25085.35658890  1361.75864691
0.32900002 24861.94551490  1230.66636126
0.33000002 24654.32273258  1591.31333613
0.33100002 24457.98465987  1583.41000186
0.33200002 24277.75486641  1455.20869560
0.33300002 24109.14144721  1449.44165244
0.33400002 23954.30484421  1685.18542559
0.33500002 23811.50924338  1200.10012270
0.33600002 23680.91529991  1675.89845514
0.33700002 23561.69422560  1314.03574919
0.33800002 23455.41788826  1431.24966732
0.33900002 23359.50984434  1429.60207018
0.34000002 23275.09785050  1428.62557372
0.34100002 23201.53166924  1428.28635720
0.34200002 23139.52656832  1190.52869832
0.34300002 23086.20246557  1786.87215546
0.34400002 23043.93023921  1311.77579099
0.34500002 23010.78783968  1313.68593998
0.34600002 22988.48703043  1675.17112924
0.34700002 22973.17284474  1319.11964722
0.34800002 22968.70635037  1803.61775158
0.34900002 22972.28207936  1567.85832617
0.35000002 22984.47773318  2057.22577694
0.35100002 23005.07637109  1336.13489892
0.35200002 23032.64649998  1341.53655893
0.35300002 23068.65256529  1959.91281477
0.35400002 23112.52592908  1599.96468322
0.35500002 23163.24558742  1484.30084754
0.35600002 23220.65153263  1616.50573301
0.35700002 23285.16304198  1625.53730895
0.35800002 23356.73985335  1509.31260081
0.35900002 23434.25382381  1898.17464964
0.36000002 23518.56390331  1910.29544353
0.36100002 23608.07877018  1538.30248553
0.36200002 23704.39736781  1419.77494759
0.36300002 23804.67971897  1429.70913164
0.36400002 23910.98726705  1440.03927637
0.36500002 24021.97465060  1714.44841202
0.36600002 24138.51806379  1461.70803059
0.36700002 24259.32178481  1740.84901374
0.36800002 24386.11324273  1754.70286150
0.36900002 24516.13257401  1496.70996454
0.37000002 24649.49883678  1508.91914277
0.37100002 24787.28646131  1798.06984508
0.37200002 24929.50421393  1534.28640953
0.37300002 25074.59480129  1547.35331849
0.37400002 25224.20472196  2128.29237423
0.37500002 25375.92468176  2146.80332977
0.37600002 25531.95894107  2598.89822372
0.37700002 25689.62512367  2184.90272027
0.37800002 25850.91181126  2498.36149035
0.37900002 26014.72562331  2075.97520308
0.38000002 26181.08730120  1645.87413116
0.38100002 26349.22148839  1660.79150909
0.38200002 26519.91273904  1523.56905903
0.38300002 26692.31347682  1998.72052783
0.38400002 26867.06167325  1706.73017365
0.38500002 27042.75314050  1878.93057721
0.38600002 27220.91337785  2054.22632538
0.38700002 27399.56239517  2073.05098903
0.38800002 27579.51415214  1770.19119972
0.38900002 27760.84135633  1948.81115554
0.39000002 27943.80483903  1802.79465460
0.39100002 28126.72172878  1653.85131601
0.39200002 28311.11978378  1668.94059032
0.39300002 28495.63934137  3368.18472972
0.39400002 28681.65052440  1869.32666149
0.39500002 28866.98636400  1714.69907126
0.39600002 29052.77760273  1730.09298821
0.39700002 29238.28053192  2792.84068873
0.39800002 29425.14321978  1937.20439566
0.39900002 29610.93491812  2131.98741512
0.40000002 29796.33938400  3405.27480784
0.40100002 29981.63377475  1988.68186250
0.40200002 30167.50520615  2005.98835373
0.40300002 30351.75607449  2023.24815579
0.40400002 30535.73242110  2226.05499897
0.40500002 30718.96929188  2244.94238222
0.40600002 30901.75046037  2452.51754149
0.40700002 31083.39232844  2282.76444076
0.40800002 31264.21921657  2685.28391574
0.40900002 31443.38873569  2320.52219864
0.41000002 31622.35548858  2339.42196989
0.41100002 31799.64827357  2358.26202771
0.41200002 31974.97978944  2773.19012854
0.41300002 32149.68256352  2395.79445815
0.41400002 32322.45311962  2615.69464264
0.41500002 32494.36345199  2230.41321303
0.41600002 32663.41989106  2451.71641319
0.41700002 32831.55606113  2470.24639509
0.41800002 32998.90571790  2488.77758717
0.41900002 33162.32186998  2298.14901449
0.42000002 33324.65851881  2314.89751370
0.42100002 33485.60849777  2755.53085385
0.42200002 33644.34715713  2561.68071393
0.42300002 33800.47790777  2794.62364584
0.42400002 33954.56055755  3030.44467336
0.42500002 34106.82251639  2833.25388069
0.42600002 34255.42714867  2632.87225541
0.42700002 34403.04390000  2208.67552304
0.42800002 34547.80147396  2667.78135624
0.42900002 34690.68977445  2685.05951578
0.43000002 34831.07395509  2477.01194170
0.43100002 34967.59295128  2492.49014368
0.43200002 35102.40151827  2507.89119532
0.43300002 35234.23346577  2752.49844878
0.43400002 35363.90706140  2538.24454962
0.43500002 35490.23007528  3017.37950399
0.43600002 35614.92817269  2801.47038282
0.43700002 35735.79526334  3286.97860409
0.43800002 35853.18208014  2360.93215186
0.43900002 35968.79216550  3086.12251405
0.44000002 36080.78016714  2864.09246540
0.44100002 36190.46525978  2879.31355252
0.44200002 36297.04603326  2894.32658786
0.44300002 36400.76747864  2909.14947476
0.44400002 36500.92244268  2680.08035736
0.44500002 36597.29028566  2938.03060337
0.44600002 36691.44830676  2952.19407067
0.44700002 36782.77832354  2718.98310253
0.44800002 36869.66229127  3476.44062220
0.44900002 36955.05618512  2993.35969286
0.45000002 37036.87811043  3257.20839979
0.45100002 37114.24617341  2767.98061079
0.45200002 37189.37617309  2527.01823072
0.45300002 37260.60549664  3806.17103187
0.45400002 37329.32178399  2547.72633250
0.45500002 37394.60653567  4092.46593322
0.45600002 37456.41152088  4108.21941031
0.45700002 37514.81077955  2834.99438497
0.45800002 37569.33374337  3103.97850099
0.45900002 37620.95866923  3634.18477969
0.46000002 37669.94430826  2865.36444961
0.46100002 37714.23811635  3136.31619040
0.46200002 37756.21714024  2884.38634513
0.46300002 37794.51290959  3156.59786782
0.46400002 37828.86227638  4221.70123013
0.46500002 37860.96660262  3969.72253643
0.46600002 37888.64525386  4777.37950649
0.46700002 37913.10169148  3193.79983786
0.46800002 37934.96965773  3202.47029029
0.46900002 37952.62323801  4013.49009764
0.47000002 37966.57167644  3755.27378250
0.47100002 37977.73554590  4033.23570614
0.47200002 37985.24058506  4312.08471560
0.47300002 37990.27004425  4321.77332507
0.47400002 37990.10300160  2977.47446388
0.47500002 37987.99290336  3526.04566842
0.47600002 37982.84481746  3261.20721060
0.47700002 37973.01014330  4083.99743449
