# SAXS profile: number of points = 501, q_min = 0, q_max = 0.5, delta_q = 0.001
#    q    intensity    error
0.00000000 1664650.74656091 274.66737318
0.00100000 1664582.10895938 649.18703791
0.00200000 1664376.13349025 898.76314054
0.00300000 1664033.01334918 1297.94579665
0.00400000 1663552.59500418 2370.56253796
0.00500000 1662935.33550952 1795.97023344
0.00600000 1662180.95536599 2094.34808903
0.00700000 1661290.17415277 1993.54829184
0.00800000 1660262.35169085 3137.89597718
0.00900000 1659098.90574484 2737.51331150
0.01000000 1657798.98071802 3008.90527993
0.01100000 1656363.78980371 5068.47341748
0.01200000 1654792.88140426 3549.53088624
0.01300000 1653087.55080763 3471.48400981
0.01400000 1651247.06340671 4829.89787458
0.01500000 1649273.21477968 5937.38383759
0.01600000 1647164.93318716 5040.32492087
0.01700000 1644924.19757048 6217.81374574
0.01800000 1642550.63758316 5617.52343331
0.01900000 1640045.03874683 6888.18947355
0.02000000 1637407.92109225 8252.53629561
0.02100000 1634641.00777077 5394.31557021
0.02200000 1631742.50218014 7881.31664360
0.02300000 1628715.10604107 7036.04957837
0.02400000 1625559.01921412 7924.60058001
0.02500000 1622275.37859207 10122.99882474
0.02600000 1618864.35073030 7867.68110440
0.02700000 1615327.10265355 7462.81155606
0.02800000 1611663.40435634 9113.95696960
0.02900000 1607875.83960730 7235.44161044
0.03000000 1603964.79213025 8950.12395148
0.03100000 1599930.36077177 8447.63269358
0.03200000 1595773.70998990 9478.89627392
0.03300000 1591497.52358766 8116.63774448
0.03400000 1587099.97312194 9165.50276768
0.03500000 1582584.22740952 10255.14626718
0.03600000 1577950.00895250 15763.72131794
0.03700000 1573199.31625159 11657.40747255
0.03800000 1568333.15844286 10092.22434164
0.03900000 1563353.27767540 11256.14412054
0.04000000 1558258.17079370 10541.61701391
0.04100000 1553051.93256985 10762.65039174
0.04200000 1547734.83976100 16970.91330531
0.04300000 1542307.04788172 12215.07238622
0.04400000 1536772.21234500 13485.17678961
0.04500000 1531129.84214189 11621.27604184
0.04600000 1525380.42909935 16130.89878760
0.04700000 1519527.10600091 15316.83394084
0.04800000 1513570.04320038 16687.11050270
0.04900000 1507512.03606306 13567.60895611
0.05000000 1501352.51472321 14930.95145420
0.05100000 1495094.85765619 17492.61064945
0.05200000 1488737.42767214 16569.64834216
0.05300000 1482285.63247570 15608.46843760
0.05400000 1475737.43278664 14609.80126590
0.05500000 1469097.32299033 13574.45989767
0.05600000 1462363.43156491 12503.20792333
0.05700000 1455541.14129695 13929.52937242
0.05800000 1448628.50440925 17948.50800769
0.05900000 1441627.98365796 18164.51344248
0.06000000 1434542.09515571 19689.09117586
0.06100000 1427372.61032444 25221.67520308
0.06200000 1420119.72978798 14762.14528118
0.06300000 1412786.75199631 16275.30414395
0.06400000 1405371.61958420 15072.61132494
0.06500000 1397881.04169211 15222.92525612
0.06600000 1390312.44178057 18164.43290175
0.06700000 1382668.78558186 16923.86672754
0.06800000 1374953.21638676 18499.99639245
0.06900000 1367166.44265565 15790.77315198
0.07000000 1359308.14378217 18819.62213196
0.07100000 1351382.99946403 18973.41820115
0.07200000 1343390.00229133 14710.12121421
0.07300000 1335333.93387305 16304.42809654
0.07400000 1327213.85808488 20903.61924447
0.07500000 1319032.51076433 21051.75985855
0.07600000 1310790.10039124 16653.58900620
0.07700000 1302491.56368607 18286.98241160
0.07800000 1294135.48658644 18402.60748227
0.07900000 1285724.14704062 21600.16668341
0.08000000 1277261.06512681 21726.21173701
0.08100000 1268746.58725100 20287.25888199
0.08200000 1260181.73737560 17258.18970320
0.08300000 1251569.31795545 20500.70639025
0.08400000 1242910.23072669 19016.52742273
0.08500000 1234208.14281860 17513.41436877
0.08600000 1225462.46929217 25587.65756020
0.08700000 1216676.66249830 17666.14596904
0.08800000 1207849.19194805 20962.22371072
0.08900000 1198986.49994400 22660.84591331
0.09000000 1190087.13418562 22742.56620263
0.09100000 1181153.82807226 17929.91595251
0.09200000 1172187.26969759 24528.01977091
0.09300000 1163191.42621261 18041.09986835
0.09400000 1154164.16683975 19736.20818051
0.09500000 1145109.93038516 24734.37565890
0.09600000 1136029.98860816 16529.23711125
0.09700000 1126927.08080590 16565.82886665
0.09800000 1117801.94806075 18259.29568008
0.09900000 1108656.66271914 23281.79101187
0.10000000 1099490.74749118 19988.74272940
0.10100000 1090307.42522304 25022.55658572
0.10200000 1081108.48796926 20043.75230973
0.10300000 1071894.81588728 25082.33987165
0.10400000 1062669.52970590 21758.15964434
0.10500000 1053434.95001715 20099.53979200
0.10600001 1044187.28201220 16759.20666488
0.10700001 1034934.88401248 18442.54050097
0.10800001 1025674.34980071 18446.75404930
0.10900001 1016410.14237438 23479.07539391
0.11000001 1007142.34992848 23476.48928186
0.11100001 997873.08279176 16764.26858005
0.11200001 988604.89742544 18432.53918025
0.11300001 979336.42671179 16746.65368522
0.11400001 970072.03637270 18407.11775686
0.11500001 960812.61155256 16718.14022824
0.11600001 951558.29259274 23379.78834999
0.11700001 942312.81501135 21682.61889455
0.11800001 933074.13702527 16655.37413034
0.11900001 923846.54283708 19955.08626520
0.12000001 914630.21175936 16600.53912540
0.12100001 905428.32025336 21540.14075354
0.12200001 896239.67399067 18189.18504056
0.12300001 887067.67110438 23099.24324387
0.12400001 877912.02015724 19753.02138425
0.12500001 868775.05086417 26271.75877607
0.12600001 859659.04390297 19651.80666968
0.12700001 850564.21681874 17963.91710579
0.12800001 841490.35623539 22795.97482477
0.12900001 832441.20960336 21102.38565804
0.13000001 823416.66550707 22652.19353581
0.13100001 814417.55197083 20963.10877588
0.13200001 805446.51881126 27316.71997320
0.13300001 796505.29780805 25615.61158510
0.13400001 787592.10681228 22328.23728081
0.13500001 778710.75863069 17474.27024755
0.13600001 769860.52919551 15820.63462092
0.13700001 761043.99844289 15753.61151060
0.13800001 752260.37102330 23526.94421318
0.13900001 743514.54132830 17175.18671463
0.14000001 734803.52860175 18649.31443542
0.14100001 726130.46291430 20106.55346638
0.14200001 717494.46265246 16929.28264476
0.14300001 708900.73954335 15312.25669638
0.14400001 700343.01800326 16755.70749609
0.14500001 691830.35462107 15151.08548091
0.14600001 683357.66839499 18081.64475872
0.14700001 674931.24097169 25471.90623595
0.14800001 666546.15770456 22345.96099130
0.14900001 658205.71402656 16290.59219076
0.15000001 649911.90856771 25024.85922014
0.15100001 641664.47188538 16092.94571423
0.15200001 633465.58690089 15991.83949592
0.15300001 625314.63802021 15889.24570189
0.15400001 617210.86505730 21525.22993467
0.15500001 609158.51463480 19956.03388122
0.15600001 601154.59861563 21235.78719832
0.15700001 593205.61887531 18276.66598015
0.15800001 585303.68278093 13959.49349320
0.15900001 577457.50459173 19402.57307010
0.16000001 569661.94897713 15133.07038890
0.16100001 561923.17169910 17751.15383190
0.16200001 554236.61699688 16261.30311032
0.16300001 546606.06461058 16135.81178904
0.16400001 539030.62862071 17343.31129464
0.16500001 531511.70759654 15881.57057277
0.16600001 524049.04181859 14440.17202908
0.16700001 516642.81870500 15623.27957529
0.16800001 509293.14231224 23239.04718097
0.16900001 502003.73985218 16641.42476188
0.17000001 494771.75904439 16498.16508437
0.17100001 487598.67558434 17612.06499377
0.17200001 480484.94802740 16209.16048715
0.17300001 473430.86072985 14827.85525830
0.17400001 466437.58195281 14692.78452540
0.17500001 459504.02583782 13343.99754053
0.17600001 452629.22892356 12017.30659549
0.17700001 445818.02436419 15474.34435654
0.17800001 439066.89169637 14146.73591864
0.17900001 432377.29840802 12841.60636927
0.18000001 425750.20214036 11559.11853411
0.18100001 419186.17125316 13732.53961893
0.18200001 412681.47770149 15859.34993723
0.18300001 406241.84419486 12333.50297238
0.18400001 399863.36863218 12205.82990411
0.18500001 393548.64001244 12078.00833257
0.18600001 387296.41196399 11950.03135571
0.18700001 381106.96665570 13971.38205767
0.18800001 374980.30862278 13819.89992723
0.18900001 368919.05446746 16822.70967855
0.19000001 362916.92373234 15596.35553431
0.19100001 356983.20144062 11309.22835600
0.19200001 351109.23785394 10164.61291616
0.19300001 345301.30094808 12057.92199888
0.19400001 339555.68427795 11918.40508135
0.19500001 333874.15368868 12760.67075699
0.19600001 328254.92573455 10669.92686522
0.19700001 322700.15925713 12459.45373772
0.19800001 317208.67537954 9468.67940756
0.19900001 311781.29305253 10288.78315698
0.20000001 306415.39438375 9238.42457729
0.20100001 301114.41732270 13685.65091413
0.20200001 295875.40660142 11712.22852388
0.20300001 290700.26932551 11564.05726034
0.20400001 285587.82656962 13172.73912314
0.20500001 280537.42222448 10402.32810777
0.20600001 275550.20946087 10267.00128981
0.20700001 270625.34482706 9287.86227349
0.20800001 265762.53947643 9997.98720771
0.20900001 260963.91958758 9864.43662672
0.21000001 256224.83055565 9731.41952453
0.21100001 251547.68431500 10398.98176118
0.21200001 246931.83997764 9467.36719231
0.21300001 242377.31969746 9336.37479613
0.21400001 237884.55481551 9973.31043214
0.21500001 233453.16116163 8320.27105716
0.21600001 229080.53940068 10439.20067404
0.21700001 224769.18601730 8084.94800330
0.21800001 220517.50980408 9417.20070143
0.21900001 216324.51727593 9994.19317069
0.22000001 212190.70918623 9144.35904475
0.22100001 208118.20987110 6930.33671640
0.22200001 204103.18833102 10240.87795874
0.22300001 200146.36351059 6724.91813195
0.22400001 196246.11474153 8610.29869143
0.22500001 192406.66544567 9783.87940057
0.22600001 188622.53740790 7707.11724294
0.22700001 184896.73822897 8220.50937040
0.22800001 181226.64223008 9960.21672798
0.22900001 177612.51338612 9191.44800240
0.23000001 174054.39517307 6634.08358576
0.23100001 170553.48022990 8902.89208904
0.23200001 167105.54204584 9344.54235314
0.23300001 163713.58881615 5746.34723922
0.23400001 160375.91547078 7349.22667403
0.23500001 157090.91795744 5561.01875871
0.23600001 153860.25881888 7110.65219763
0.23700001 150682.68455699 6993.18372105
0.23800001 147557.67024570 5289.94272852
0.23900001 144485.02713696 8322.33795673
0.24000001 141463.85670386 6648.09426025
0.24100001 138495.26630955 5530.11624532
0.24200001 135576.88490124 5930.13322609
0.24300001 132709.20990114 6800.02023699
0.24400001 129890.82361583 6682.88319116
0.24500001 127122.58278862 5159.90587948
0.24600001 124403.55485515 5530.98231050
0.24700001 121733.84742147 5887.04913979
0.24800001 119111.37969970 4893.69126647
0.24900001 116536.67416700 5681.16313440
0.25000001 114009.79521255 6009.45658995
0.25100001 111529.07731365 6323.69898285
0.25200001 109095.87352120 6624.30175360
0.25300001 106708.67989121 5285.28116506
0.25400001 104365.98388194 4391.19897959
0.25500001 102068.65568962 5095.26753309
0.25600001 99816.01687124  3847.90763244
0.25700001 97607.26833919  4155.14160979
0.25800001 95441.87821518  3707.91714410
0.25900001 93320.09248951  4367.38053515
0.26000001 91241.10790816  4643.71640671
0.26100001 89202.38467963  3856.21927216
0.26200001 87207.83626003  4472.45409422
0.26300001 85252.86811382  4388.81785817
0.26400001 83338.58222597  3643.97968026
0.26500001 81465.47396068  3900.56707781
0.26600001 79630.92587870  3827.06247883
0.26700001 77836.92622129  4067.75795681
0.26800001 76081.40356493  3683.86173494
0.26900001 74363.53079658  4517.58470967
0.27000001 72684.17103635  3840.99520018
0.27100001 71041.93897383  2898.51124730
0.27200001 69437.07097472  3696.48264827
0.27300001 67868.03316803  3905.12681330
0.27400001 66333.96819119  3009.90394912
0.27500001 64837.46702319  3221.12551415
0.27600001 63373.93051503  2896.50563127
0.27700001 61946.64595953  3099.81031052
0.27800001 60552.26252132  3294.34599838
0.27900001 59192.25594289  2983.28984071
0.28000001 57864.77242715  2926.80032789
0.28100001 56569.95274768  3350.07276027
0.28200001 55307.77574581  3521.72278730
0.28300001 54077.17760066  2303.68787482
0.28400001 52878.13358853  2712.64838148
0.28500001 51710.09744352  3105.70859945
0.28600001 50571.78662504  2394.82706898
0.28700001 49463.79567326  2991.57050392
0.28800001 48384.71171802  2516.97282271
0.28900001 47336.07812884  2470.94339528
0.29000001 46314.87428679  2425.97322997
0.29100001 45322.88597501  3573.25649941
0.29200001 44358.14518194  1949.54057303
0.29300001 43420.57399633  3063.75584621
0.29400001 42509.78043595  2445.37523533
0.29500001 41626.61914263  2033.04417516
0.29600001 40768.24121807  2542.71532514
0.29700001 39935.37142189  2499.15566189
0.29800001 39128.31808108  1930.39566391
0.29900001 38345.96139397  2070.68201330
0.30000001 37587.76172199  2206.21377871
0.30100001 36854.46665112  2838.16261116
0.30200001 36143.40554167  1971.26143156
0.30300001 35456.06781020  1940.15612242
0.30400001 34792.25925935  1591.74593647
0.30500001 34149.54235490  2507.94250928
0.30600001 33529.02501153  2470.41867981
0.30700001 32930.65660903  1825.67568884
0.30800001 32353.20651030  2099.39966985
0.30900001 31796.54374870  1922.10116061
0.31000001 31261.08185460  1604.16249132
0.31100001 30743.96585278  1726.58120404
0.31200001 30247.85493763  1704.16422787
0.31300001 29770.31969198  1542.40033627
0.31400001 29313.05585881  2077.56293236
0.31500001 28873.60189538  1368.60879464
0.31600002 28452.32592829  1488.19897814
0.31700002 28048.58852772  1605.50128334
0.31800002 27662.73530708  2117.85911539
0.31900002 27294.30579833  1703.16476246
0.32000002 26942.34685722  1556.72887512
0.32100002 26607.39299375  1413.65085669
0.32200002 26288.59961479  1655.78752514
0.32300002 25985.04001405  1641.73490583
0.32400002 25697.24922642  1503.28915093
0.32500002 25424.18976504  1616.21581989
0.32600002 25166.63268319  1604.75040903
0.32700002 24923.20556977  1716.71048094
0.32800002 24694.87053248  1828.03787773
0.32900002 24479.05126782  1332.88440465
0.33000002 24278.56092069  1567.05978883
0.33100002 24088.95401424  2039.37094342
0.33200002 23914.78588469  1313.99797266
0.33300002 23751.95334301  1546.96479449
0.33400002 23602.36898248  1423.22291704
0.33500002 23464.25346539  1773.89764599
0.33600002 23338.07666086  1415.68779729
0.33700002 23222.60057655  1648.34026698
0.33800002 23119.86454743  1293.20968470
0.33900002 23026.77789875  1174.36572845
0.34000002 22945.17883170  1291.01054811
0.34100002 22873.71827548  1408.10616372
0.34200002 22813.43895941  1173.75149005
0.34300002 22761.59499613  1291.94819317
0.34400002 22720.22719356  1528.50335684
0.34500002 22687.89202398  1884.00264290
0.34600002 22665.90218374  1297.73629099
0.34700002 22650.61363340  1537.07071396
0.34800002 22645.68934672  1659.70265083
0.34900002 22648.63811107  1307.95891286
0.35000002 22659.76848035  1431.64424039
0.35100002 22678.96498407  1915.91905260
0.35200002 22705.10284897  1562.90582863
0.35300002 22739.13148800  1690.42711488
0.35400002 22780.74597549  1455.68973678
0.35500002 22829.07800410  1706.70195242
0.35600002 22883.68030018  1225.42113812
0.35700002 22945.21847307  1725.02160651
0.35800002 23013.51956212  1487.13370454
0.35900002 23087.55119974  1745.41895337
0.36000002 23168.21817455  1630.92679565
0.36100002 23253.63119186  1894.00835029
0.36200002 23345.90217818  1398.30287719
0.36300002 23441.70646801  2047.86757405
0.36400002 23543.49717726  1289.00653151
0.36500002 23649.66708486  1428.20346291
0.36600002 23761.28154976  1569.67033353
0.36700002 23876.93588755  1845.20969279
0.36800002 23998.33919026  1328.30813710
0.36900002 24122.95967837  1472.70675813
0.37000002 24250.71975607  1754.41840386
0.37100002 24382.86691368  1768.73324970
0.37200002 24519.11947716  1509.02927970
0.37300002 24658.14736197  1521.65434579
0.37400002 24801.56896294  2092.63248038
0.37500002 24947.09750212  1969.82291208
0.37600002 25096.69235706  1986.90522803
0.37700002 25247.90924023  1717.86782608
0.37800002 25402.66440846  2455.04061806
0.37900002 25559.77191416  1748.28848175
0.38000002 25719.37626805  1910.82115036
0.38100002 25880.72689503  2372.74515414
0.38200002 26044.46633613  1795.50559427
0.38300002 26209.89611399  1509.69008769
0.38400002 26377.69722370  2132.63692157
0.38500002 26546.13163589  2305.53164180
0.38600002 26717.30980285  2481.50385205
0.38700002 26888.77786125  1564.92694566
0.38800002 27061.58213738  1894.85207103
0.38900002 27235.70335754  1593.28872190
0.39000002 27411.35366988  1607.67596890
0.39100002 27587.11067866  1946.54662171
0.39200002 27764.13898824  1800.36567799
0.39300002 27941.44630972  1981.60746617
0.39400002 28120.18393921  1666.12097733
0.39500002 28298.32143968  2521.38055973
0.39600002 28476.91329511  2543.70040060
0.39700002 28655.22870908  2052.86068198
0.39800002 28834.73465804  2761.21432168
0.39900002 29013.30769818  2437.11796211
0.40000002 29191.77131874  2107.06215362
0.40100002 29369.81589202  2479.39997508
0.40200002 29548.61001009  2322.07762766
0.40300002 29725.96535488  2341.81166161
0.40400002 29902.78729913  1998.25385594
0.40500002 30079.18016983  2198.18659096
0.40600002 30255.01025591  2031.77531000
0.40700002 30430.00211159  2048.54783921
0.40800002 30604.17535225  2065.32287150
0.40900002 30776.61946443  1892.76218674
0.41000002 30948.94768495  2480.40352974
0.41100002 31119.77835527  4038.72502631
0.41200002 31288.81393053  2519.84474929
0.41300002 31456.99921567  2539.52366701
0.41400002 31623.70022454  2756.00560516
0.41500002 31789.38276172  2182.02333616
0.41600002 31952.37620372  1998.62122624
0.41700002 32114.62687456  3423.09824076
0.41800002 32276.10146051  2637.11899479
0.41900002 32433.73657425  2451.99060120
0.42000002 32590.47852840  2675.51546157
0.42100002 32745.91132157  3523.78768429
0.42200002 32899.28156781  2504.95141727
0.42300002 33050.07536607  2101.98489289
0.42400002 33199.00077283  2116.43639956
0.42500002 33346.31103181  2556.99525108
0.42600002 33490.03015998  3003.05114675
0.42700002 33632.91860711  3670.69691072
0.42800002 33772.93945374  4129.24863798
0.42900002 33911.40086440  3280.92818910
0.43000002 34047.38936728  3521.86212304
0.43100002 34179.66250329  2436.32645869
0.43200002 34310.43341746  2451.30903167
0.43300002 34438.29953012  2914.51342735
0.43400002 34564.10150229  3608.49236784
0.43500002 34686.91737753  2495.37695439
0.43600002 34808.05039341  2509.83459255
0.43700002 34925.48432846  3441.90664368
0.43800002 35039.72378609  2538.10251272
0.43900002 35152.27272872  3480.07516506
0.44000002 35261.35076063  2565.79230969
0.44100002 35368.33701311  2813.90502611
0.44200002 35472.31564618  2828.56258367
0.44300002 35573.65216506  4027.64908900
0.44400002 35671.49069461  2619.17932838
0.44500002 35765.77260163  3110.54939058
0.44600002 35857.93130161  3365.98417080
0.44700002 35947.43846690  3381.93517124
0.44800002 36032.87149095  3397.53961390
0.44900002 36116.73424908  3169.24358055
0.45000002 36197.16400797  3428.23356567
0.45100002 36273.48027827  2459.34207942
0.45200002 36347.60403821  3704.72971717
0.45300002 36418.13510453  3224.09765360
0.45400002 36486.15987606  2739.19858251
0.45500002 36550.97991724  3000.10457379
0.45600002 36612.39182540  2509.77957858
0.45700002 36670.77186803  3023.13857608
0.45800002 36725.27790308  2781.38905381
0.45900002 36777.10474778  4313.95459137
0.46000002 36826.48790109  3565.17246267
0.46100002 36871.44846339  4343.82554935
0.46200002 36914.06351791  2820.05001611
0.46300002 36953.12213807  2829.13116498
0.46400002 36988.54333784  3353.93632612
0.46500002 37021.72488279  2587.81869196
0.46600002 37050.93103949  2854.95962656
0.46700002 37076.86493865  3643.91445888
0.46800002 37100.41365711  3393.01849183
0.46900002 37119.84545834  3402.03399750
0.47000002 37135.91018230  3673.11305022
0.47100002 37149.32592990  3419.22412065
0.47200002 37159.16095182  3427.37537284
0.47300002 37166.51557676  3435.30119758
0.47400002 37169.22521795  2913.13816453
0.47500002 37169.84968135  4246.28382886
0.47600002 37167.55180780  4520.87537842
0.47700002 37161.05013201  2930.89216283
