# SAXS profile: number of points = 501, q_min = 0, q_max = 0.5, delta_q = 0.001
#    q    intensity    error
0.00000000 1664650.74656091 399.51617917
0.00100000 1664582.11495733 798.99943415
0.00200000 1664376.15814550 1048.55701283
0.00300000 1664033.06718656 1198.10385105
0.00400000 1663552.68310889 1497.19747169
0.00500000 1662935.48123767 1795.97039082
0.00600000 1662181.17365764 1919.81933373
0.00700000 1661290.45481386 2790.96808008
0.00800000 1660262.72444725 2465.49024990
0.00900000 1659099.39787750 2986.37904384
0.01000000 1657799.55692140 3008.90632574
0.01100000 1656364.51779753 4472.18439277
0.01200000 1654793.71419527 4194.90224941
0.01300000 1653088.52187702 4165.78325886
0.01400000 1651248.20671496 4829.90121876
0.01500000 1649274.54424465 4354.08499069
0.01600000 1647166.40701981 7140.46669363
0.01700000 1644925.88357820 7994.34015281
0.01800000 1642552.53126792 7490.03987962
0.01900000 1640047.10595542 6888.19815583
0.02000000 1637410.24072684 6705.19523909
0.02100000 1634643.53308093 6473.18868448
0.02200000 1631745.26548833 7318.37784821
0.02300000 1628718.17677951 8208.73998462
0.02400000 1625562.33775469 6705.44494899
0.02500000 1622278.96970386 10755.71006036
0.02600000 1618868.25758246 11801.55013756
0.02700000 1615331.30026929 10855.02683498
0.02800000 1611667.88195312 7711.83116881
0.02900000 1607880.64407147 8682.55587664
0.03000000 1603969.93587876 9695.99870807
0.03100000 1599935.87505997 7679.69255365
0.03200000 1595779.59090818 9478.93120658
0.03300000 1591503.74041718 12175.00417546
0.03400000 1587106.51054661 8332.30956483
0.03500000 1582591.14345326 9400.59182621
0.03600000 1577957.34089202 14012.26183468
0.03700000 1573207.02966887 13450.92072574
0.03800000 1568341.30940575 16514.63475233
0.03900000 1563361.81074116 13132.23981838
0.04000000 1558267.10172158 13416.68036754
0.04100000 1553061.37610669 11741.14454776
0.04200000 1547744.73511058 10981.24940506
0.04300000 1542317.37780896 11197.22468265
0.04400000 1536782.98538280 10373.28563309
0.04500000 1531141.08267605 12677.84875363
0.04600000 1525392.12065126 12904.81794061
0.04700000 1519539.27193538 13128.81992012
0.04800000 1513582.69985228 11124.83336153
0.04900000 1507525.20564516 11306.43956863
0.05000000 1501366.22987483 17228.17829006
0.05100000 1495109.09005238 13994.22173480
0.05200000 1488752.12452869 15386.25392402
0.05300000 1482300.86416182 13207.30131538
0.05400000 1475753.28689923 13392.46170315
0.05500000 1469113.65150045 16042.72182277
0.05600000 1462380.35090682 16254.35835883
0.05700000 1455558.57518340 15196.03223424
0.05800000 1448646.50356176 14102.57437066
0.05900000 1441646.55234566 14272.30153482
0.06000000 1434561.25255560 13126.23607413
0.06100000 1427392.27789571 14602.22368525
0.06200000 1420140.00274843 16104.38838394
0.06300000 1412807.64109090 20344.43098292
0.06400000 1405393.07308262 19183.61634473
0.06500000 1397903.05961063 16607.08912502
0.06600000 1390335.00662601 16767.44096443
0.06700000 1382692.10489275 21155.19019490
0.06800000 1374977.15001796 14231.01416883
0.06900000 1367191.02616056 17226.60773615
0.07000000 1359333.26830320 21715.34997804
0.07100000 1351408.79442814 18973.78036246
0.07200000 1343416.41791253 14710.41046528
0.07300000 1335360.96172070 17787.00884354
0.07400000 1327241.52837001 19410.90826209
0.07500000 1319060.82588980 15037.29411998
0.07600000 1310818.97949145 18167.95190748
0.07700000 1302521.04356794 18287.39630916
0.07800000 1294165.66627392 26070.96856972
0.07900000 1285754.86346934 18514.87090238
0.08000000 1277292.57806241 18622.92666177
0.08100000 1268778.73754916 21848.37088568
0.08200000 1260214.51017387 17258.63852670
0.08300000 1251602.84069512 17347.21618617
0.08400000 1242944.32647110 22186.55726892
0.08500000 1234242.83833489 17513.90669817
0.08600000 1225497.90663866 23989.12264878
0.08700000 1216712.61438493 24090.91089608
0.08800000 1207885.78622399 19350.33120407
0.08900000 1199023.82517690 16186.82240018
0.09000000 1190125.12697219 16245.20874630
0.09100000 1181192.49429651 17930.50290582
0.09200000 1172226.72726304 22893.58905914
0.09300000 1163231.34159065 21322.03149332
0.09400000 1154204.72910747 21381.64361160
0.09500000 1145151.24429672 21437.23230084
0.09600000 1136071.93062957 19835.81684123
0.09700000 1126969.59056791 18223.09913620
0.09800000 1117845.17596714 19920.00197233
0.09900000 1108700.42562830 18293.55788308
0.10000000 1099535.20022909 21655.34678690
0.10100000 1090352.30187589 28360.06470562
0.10200000 1081154.15468895 25055.74871345
0.10300000 1071941.18766228 23411.19663982
0.10400000 1062716.50596628 21759.12148332
0.10500000 1053482.56189713 35175.78439674
0.10600001 1044235.54150857 20111.97747580
0.10700001 1034983.73400040 21796.75846375
0.10800001 1025723.77646423 20124.70144133
0.10900001 1016460.08848920 26834.54759910
0.11000001 1007192.99758641 18446.74061907
0.11100001 997924.35623321 20118.15596869
0.11200001 988656.71913877 20109.27861397
0.11300001 979388.80297470 16747.54931936
0.11400001 970125.05939320 18408.12386872
0.11500001 960866.14805732 18390.97893981
0.11600001 951612.39661264 23381.11768582
0.11700001 942367.61355205 16679.90754541
0.11800001 933129.31970145 24984.53871174
0.11900001 923902.28682097 21619.31452992
0.12000001 914686.46741056 21582.02821517
0.12100001 905485.21857172 19884.45633655
0.12200001 896297.19217371 18190.35237214
0.12300001 887125.60732268 24750.80561042
0.12400001 877970.41345991 21400.52983642
0.12500001 868833.83979104 26273.53655330
0.12600001 859718.52801593 22928.69422266
0.12700001 850624.05922197 22864.77578942
0.12800001 841550.84060120 16284.00953309
0.12900001 832502.01345984 16233.79002760
0.13000001 823478.01335937 19417.61247026
0.13100001 814479.27252638 17739.35939182
0.13200001 805508.84404657 17676.89241590
0.13300001 796567.87802825 17612.11661349
0.13400001 787655.20706662 23925.02804261
0.13500001 778774.31583824 20653.09582979
0.13600001 769924.45228916 22150.72753678
0.13700001 761108.45733113 18905.93497158
0.13800001 752325.23190243 17254.58000733
0.13900001 743579.79888922 17176.69416436
0.14000001 734869.04531805 20205.22535391
0.14100001 726196.30450749 20108.37662018
0.14200001 717560.67249557 21548.34801138
0.14300001 708967.30323103 15313.69447210
0.14400001 700409.92168408 19804.09146977
0.14500001 691897.67419464 18183.07173557
0.14600001 683425.24498413 18083.43283535
0.14700001 674999.01350842 22477.46821024
0.14800001 666614.22283825 20858.36001668
0.14900001 658274.11304463 14811.16824231
0.15000001 649980.52718417 16194.26559889
0.15100001 641733.57753475 24873.59463891
0.15200001 633534.77830731 21809.43577235
0.15300001 625384.16008248 17335.64973554
0.15400001 617280.49275665 21527.65820080
0.15500001 609228.39144671 21383.91754895
0.15600001 601224.74696059 24070.03388055
0.15700001 593275.91885146 18278.83192252
0.15800001 585374.25788221 15357.29438038
0.15900001 577528.17092587 18018.87978339
0.16000001 569732.66896363 22014.47136789
0.16100001 561994.12506013 17753.39524869
0.16200001 554307.60134135 25750.36083589
0.16300001 546677.30506842 16137.91480746
0.16400001 539101.92135997 18679.88245699
0.16500001 531583.06426329 14560.06081757
0.16600001 524120.38806882 21006.74614559
0.16700001 516714.32735887 13021.20166424
0.16800001 509364.69503131 14203.63519159
0.16900001 502075.23426066 14083.21098599
0.17000001 494843.52129750 13962.01061269
0.17100001 487670.34931989 17614.65384922
0.17200001 480556.52080200 14964.53076444
0.17300001 473502.49797005 13594.25735870
0.17400001 466509.19496565 12245.86694617
0.17500001 459575.56887387 16985.91382778
0.17600001 452700.67153582 15624.96441601
0.17700001 445889.48855719 15476.82487880
0.17800001 439138.25398659 18865.38028232
0.17900001 432448.58764704 15178.94614337
0.18000001 425821.43639614 15029.36830751
0.18100001 419257.21307713 11445.72245766
0.18200001 412752.46266163 11330.05563527
0.18300001 406312.61084999 15699.92002490
0.18400001 399933.87696214 11098.16560998
0.18500001 393619.04369438 15374.76057304
0.18600001 387366.72220250 14125.32819244
0.18700001 381177.10619119 12899.03388292
0.18800001 375050.28162603 13822.47878239
0.18900001 368988.70575980 12619.41433322
0.19000001 362986.33931689 15599.33866919
0.19100001 357052.34284280 11311.41875573
0.19200001 351178.15796557 10166.60815349
0.19300001 345369.89394078 15075.39658287
0.19400001 339624.03218039 12914.20443391
0.19500001 333942.21624258 16690.43275651
0.19600001 328322.72712961 13582.71186322
0.19700001 322767.52699689 10544.81560531
0.19800001 317275.67873738 10417.74740367
0.19900001 311848.09929678 9355.44342104
0.20000001 306481.77318193 14784.68143704
0.20100001 301180.49457313 11863.50024193
0.20200001 295941.12380712 9011.40764584
0.20300001 290765.45909906 9787.16581586
0.20400001 285652.70143149 10540.58518103
0.20500001 280601.78888916 10404.71482381
0.20600001 275614.27857314 9413.60612963
0.20700001 270688.86155828 8445.49287983
0.20800001 265825.55639394 13333.81053901
0.20900001 261026.49810855 11511.26911074
0.21000001 256286.94161661 10544.92671130
0.21100001 251609.28692128 8801.29327257
0.21200001 246993.02938697 7891.42766198
0.21300001 242437.86730409 12451.60945339
0.21400001 237944.70243046 11510.57552425
0.21500001 233512.67170574 11348.71638144
0.21600001 229139.57671028 8950.19228946
0.21700001 224827.53040111 8822.23271005
0.21800001 220575.45841592 7970.49456671
0.21900001 216381.77212293 7854.65869944
0.22000001 212247.37297918 9146.80097102
0.22100001 208174.16442319 7625.42000338
0.22200001 204158.54128026 10243.65529310
0.22300001 200201.17405400 8072.11171955
0.22400001 196300.31099827 7950.16297136
0.22500001 192460.23820111 7829.28286025
0.22600001 188675.46548322 7066.83989385
0.22700001 184948.83815177 6957.77562030
0.22800001 181278.10438822 6849.59349823
0.22900001 177663.18412141 6742.31815626
0.23000001 174104.50573552 6032.72140903
0.23100001 170602.82064572 10092.86334672
0.23200001 167154.24717117 5842.04121492
0.23300001 163761.61244945 8047.24601636
0.23400001 160423.14167483 6785.89921379
0.23500001 157137.39960196 7787.72989260
0.23600001 153906.12720407 5471.36308088
0.23700001 150727.66175045 8071.46666850
0.23800001 147601.85564508 9524.74819529
0.23900001 144528.44467019 5723.32667965
0.24000001 141506.57710703 6650.10190570
0.24100001 138537.18013925 5028.89987693
0.24200001 135618.00997542 5437.60436717
0.24300001 132749.46068870 4858.63049103
0.24400001 129930.30699712 5252.43290882
0.24500001 127161.20727162 5161.47364732
0.24600001 124441.45476415 5532.66734054
0.24700001 121770.85332436 5888.83874534
0.24800001 119147.53288129 4895.17662000
0.24900001 116571.97855085 5245.73928295
0.25000001 114044.31850947 5152.52255401
0.25100001 111562.62932084 5060.48110540
0.25200001 109128.61728409 4969.71746623
0.25300001 106740.56291191 4880.17876722
0.25400001 104397.05038920 4791.82483957
0.25500001 102098.78580952 4704.71227269
0.25600001 99845.34602785  4618.84592578
0.25700001 97635.64432700  5667.74942134
0.25800001 95469.37317823  4450.78238815
0.25900001 93346.70073851  4368.62580126
0.26000001 91266.88483747  3930.40858149
0.26100001 89227.20054264  4558.61789142
0.26200001 87231.73085452  3785.42113955
0.26300001 85275.84555054  3714.61600795
0.26400001 83360.69907853  3976.30553420
0.26500001 81486.58405928  3901.57782938
0.26600001 79651.22537012  3828.03807243
0.26700001 77856.25469729  3129.82158693
0.26800001 76099.81813166  3377.69058761
0.26900001 74380.92530157  4217.39866417
0.27000001 72700.68866670  3250.81144757
0.27100001 71057.60630134  2899.15047429
0.27200001 69451.80347532  3981.67208167
0.27300001 67881.79580789  3347.93032768
0.27400001 66346.73789837  3284.16368139
0.27500001 64849.34824565  3490.19208776
0.27600001 63384.94096435  3687.10219039
0.27700001 61956.67660586  3617.03095143
0.27800001 60561.33262107  2787.94107916
0.27900001 59200.33997152  3978.26303437
0.28000001 57871.92725957  2683.23203438
0.28100001 56576.16428314  2632.48904869
0.28200001 55313.10701953  3522.06225617
0.28300001 54081.63898720  2534.26572289
0.28400001 52881.59917569  2260.68847176
0.28500001 51712.66469336  2884.01544645
0.28600001 50573.31447412  2612.61754939
0.28700001 49464.46365012  2350.55142391
0.28800001 48384.55533296  2726.71174485
0.28900001 47334.91109728  2882.69622227
0.29000001 46312.77696704  2021.55281030
0.29100001 45319.88539435  2183.51218166
0.29200001 44354.14810409  2534.17437188
0.29300001 43415.71692567  2489.02316917
0.29400001 42504.02811018  2068.88366620
0.29500001 41619.91757866  2217.50931356
0.29600001 40760.67151966  2179.06560259
0.29700001 39926.87496535  2677.09709316
0.29800001 39118.94442848  1754.48474067
0.29900001 38335.68386414  2070.12702666
0.30000001 37576.56325935  1866.24010262
0.30100001 36842.34613136  2169.64586639
0.30200001 36130.42830723  2463.19206645
0.30300001 35442.25139227  2262.63343600
0.30400001 34777.56552506  1750.18106791
0.30500001 34133.90661378  1566.74638775
0.30600001 33512.60696134  2314.88343545
0.30700001 32913.42828476  1824.72055050
0.30800001 32335.13055830  1948.35338403
0.30900001 31777.52336037  1920.95137808
0.31000001 31241.26912933  1603.14580127
0.31100001 30723.34426834  2156.77886975
0.31200001 30226.39020098  1561.04199584
0.31300001 29747.99068540  1541.24347038
0.31400001 29290.03163551  1522.34946633
0.31500001 28849.65851134  1504.22126600
0.31600002 28427.59154180  1757.25165436
0.31700002 28023.06454878  2138.72038763
0.31800002 27636.46803090  1586.88606947
0.31900002 27267.31554041  1308.83120791
0.32000002 26914.57409601  1555.12416490
0.32100002 26578.75463326  1668.88008244
0.32200002 26259.28156681  1272.26225215
0.32300002 25954.94178223  1513.69227641
0.32400002 25666.47811402  2001.98538769
0.32500002 25392.62979800  1614.20955269
0.32600002 25134.37602443  1479.40944285
0.32700002 24890.23745512  1469.51968894
0.32800002 24661.21217252  1217.03087834
0.32900002 24444.69937849  1452.01521184
0.33000002 24243.57909168  1203.69375890
0.33100002 24053.23626905  1796.77683438
0.33200002 23878.37753807  1431.27001741
0.33300002 23715.00084179  1544.55807797
0.33400002 23564.76030006  1184.12926115
0.33500002 23425.93913000  1652.93434329
0.33600002 23299.18332166  1413.32852722
0.33700002 23183.05953459  1292.91929147
0.33800002 23079.76507543  1643.04855353
0.33900002 22986.08379105  1289.51936175
0.34000002 22903.89944734  1288.68796343
0.34100002 22831.82373591  1288.39987443
0.34200002 22771.04047146  1523.04111406
0.34300002 22718.61826311  1289.50883368
0.34400002 22676.73956413  1408.22559363
0.34500002 22643.89280033  1410.26171039
0.34600002 22621.40659566  1412.93312288
0.34700002 22605.64485586  2006.02501952
0.34800002 22600.15096865  1419.74155109
0.34900002 22602.65689237  1423.96745166
0.35000002 22613.34129520  1666.82946581
0.35100002 22632.05811887  1792.45908791
0.35200002 22657.75883873  1559.64690353
0.35300002 22691.31906066  1325.40000911
0.35400002 22732.52113625  1573.65885019
0.35500002 22780.46654875  1459.77236558
0.35600002 22834.72950358  1345.07980512
0.35700002 22895.81314944  1475.40626923
0.35800002 22963.77494306  1483.91920711
0.35900002 23037.42450634  1368.42308049
0.36000002 23117.76090320  1627.37485586
0.36100002 23202.87251954  1385.90764124
0.36200002 23294.79339663  1395.24171658
0.36300002 23390.29786406  1532.53238864
0.36400002 23491.80508357  1672.02930602
0.36500002 23597.70074390  1425.06521543
0.36600002 23709.06282755  2218.81274982
0.36700002 23824.44050632  1446.62009607
0.36800002 23945.58276948  1723.00448979
0.36900002 24069.96865300  1736.64832058
0.37000002 24197.54895315  1750.57176194
0.37100002 24329.47469453  1629.10170272
0.37200002 24465.53562722  1916.38549646
0.37300002 24604.40750847  1656.36879193
0.37400002 24747.66541595  1948.87874383
0.37500002 24893.00001452  1825.15484752
0.37600002 25042.44404215  1699.38033320
0.37700002 25193.50812982  2142.70796794
0.37800002 25348.19338946  1729.25383495
0.37900002 25505.23881073  1599.17854919
0.38000002 25664.73670071  1760.08772631
0.38100002 25825.99850260  1627.81276273
0.38200002 25989.64156674  1642.41547662
0.38300002 26155.03551124  2561.10119859
0.38400002 26322.86572878  1672.16012464
0.38500002 26491.23764713  1687.22700568
0.38600002 26662.42233841  1857.30442808
0.38700002 26833.83172400  2030.24780442
0.38800002 27006.68007503  2363.75978555
0.38900002 27180.82386624  2703.13306156
0.39000002 27356.59123699  2085.80339768
0.39100002 27532.40156143  2590.24846162
0.39200002 27709.52996222  1960.17224239
0.39300002 27886.88021153  1977.73763830
0.39400002 28065.66141969  2161.75767327
0.39500002 28243.95114587  2348.76708857
0.39600002 28422.58640383  1692.56510054
0.39700002 28601.10254808  1878.23449332
0.39800002 28780.75239555  1894.78092373
0.39900002 28959.43098244  2432.59231778
0.40000002 29138.08445797  1927.92144950
0.40100002 29316.36127849  2651.66500327
0.40200002 29495.35389452  2496.19191836
0.40300002 29672.88077556  2337.62965825
0.40400002 29849.87357038  3626.75981064
0.40500002 30026.54246697  1828.61652288
0.40600002 30202.59195886  2397.02882439
0.40700002 30377.83287942  2788.68519046
0.40800002 30552.27381248  2061.82029593
0.40900002 30725.03535973  2078.54874057
0.41000002 30897.59917050  2476.28820285
0.41100002 31068.78028933  2880.07606928
0.41200002 31238.09465975  2128.72006145
0.41300002 31406.60825160  1950.35046484
0.41400002 31573.68318280  2162.00805838
0.41500002 31739.70703812  1980.55781302
0.41600002 31903.03542539  2394.64195250
0.41700002 32065.63558076  2412.61853542
0.41800002 32227.48691856  2430.59717857
0.41900002 32385.53883505  2448.34685194
0.42000002 32542.68332455  2466.08465919
0.42100002 32698.51516050  2690.76094006
0.42200002 32852.29226603  2084.47804305
0.42300002 33003.55467573  2308.92879452
0.42400002 33152.89760063  2958.89625107
0.42500002 33300.61664383  2340.70045481
0.42600002 33444.82740167  2570.56955590
0.42700002 33588.16770862  2371.99651598
0.42800002 33728.69852382  2170.44185286
0.42900002 33867.62660780  3713.58543352
0.43000002 34004.13325975  3737.22444301
0.43100002 34136.92229803  2212.07266974
0.43200002 34268.18432630  2670.86241296
0.43300002 34396.64076414  3134.90998780
0.43400002 34522.93610067  3378.93253097
0.43500002 34646.27930156  2719.04012844
0.43600002 34767.97304471  2962.75296341
0.43700002 34886.01180467  3208.81551786
0.43800002 35000.75434628  2765.75973951
0.43900002 35113.91271712  3012.77385390
0.44000002 35223.54833394  3029.04918252
0.44100002 35331.14308752  2810.94587725
0.44200002 35435.71023386  2590.17336229
0.44300002 35537.64109423  2366.80700904
0.44400002 35636.08124239  2854.45024279
0.44500002 35731.02706187  2868.48698847
0.44600002 35823.82046844  3843.17964199
0.44700002 35913.96215931  3378.78572007
0.44800002 36000.06975805  3394.44673835
0.44900002 36084.52191466  2679.27587914
0.45000002 36165.57999563  2935.92192319
0.45100002 36242.59592183  2948.69774395
0.45200002 36317.38658184  2961.31984223
0.45300002 36388.61842648  2478.06503229
0.45400002 36457.27970387  3234.67229503
0.45500002 36522.79597933  3247.60717240
0.45600002 36584.82985625  3761.83530826
0.45700002 36643.92873862  3272.66943075
0.45800002 36699.15167549  3790.10506891
0.45900002 36751.69689362  2789.45392643
0.46000002 36801.79203379  2799.32844372
0.46100002 36847.43669172  2808.88023214
0.46200002 36890.78208705  2818.27143111
0.46300002 36930.54090078  3341.47549907
0.46400002 36966.69792597  4125.48368407
0.46500002 37000.61626054  2844.97751911
0.46600002 37030.48703637  3890.97860976
0.46700002 37057.20421711  2601.41585934
0.46800002 37081.42853429  2608.67862103
0.46900002 37101.63952217  3923.49856543
0.47000002 37118.44418684  3933.62730914
0.47100002 37132.58111901  4995.07504888
0.47200002 37143.16891172  3952.96193879
0.47300002 37151.28502326  2905.60213939
0.47400002 37154.71296850  2647.27342448
0.47500002 37156.14783156  3183.53889710
0.47600002 37154.61442516  3190.09534575
0.47700002 37148.78992073  2663.56836356
