# SAXS profile: number of points = 501, q_min = 0, q_max = 0.5, delta_q = 0.001
#    q    intensity    error
0.00000000 1646666.22097351 395.19989303
0.00100000 1646598.27337751 642.17334187
0.00200000 1646394.37225396 963.14073827
0.00300000 1646054.70422384 1678.97585812
0.00400000 1645579.10493127 1604.43968827
0.00500000 1644968.06439394 2072.65984317
0.00600000 1644221.29080632 2589.64863845
0.00700000 1643339.43856785 2563.60963071
0.00800000 1642321.97563053 2217.13476071
0.00900000 1641170.24164567 4431.15984187
0.01000000 1639883.37233423 3517.54998554
0.01100000 1638462.67310528 3834.00282200
0.01200000 1636907.50090669 4149.56069673
0.01300000 1635219.38054430 3433.96085060
0.01400000 1633397.42763769 4777.68768764
0.01500000 1631443.45169058 5481.65024177
0.01600000 1629356.33070459 7063.26000936
0.01700000 1627138.19701261 6589.90999352
0.01800000 1624788.57169802 5093.71240148
0.01900000 1622308.14819368 5353.61713061
0.02000000 1619697.61373043 5102.04771405
0.02100000 1616958.57486636 8003.94530848
0.02200000 1614089.18338148 8352.91190349
0.02300000 1611092.45402363 7539.91302804
0.02400000 1607968.17089762 6029.88091581
0.02500000 1604717.51153725 6258.39858082
0.02600000 1601340.94443439 7782.51734591
0.02700000 1597839.30759020 10066.38809887
0.02800000 1594212.52683065 13176.16713851
0.02900000 1590463.14005624 7872.79290475
0.03000000 1586591.60218168 9590.94667604
0.03100000 1582597.94575159 8356.11753806
0.03200000 1578483.22113676 9376.19076540
0.03300000 1574250.22824823 8831.54418761
0.03400000 1569896.95284942 8241.95938275
0.03500000 1565426.81952499 13525.28834527
0.03600000 1560839.43297212 8662.65925333
0.03700000 1556136.70598904 11530.97352466
0.03800000 1551319.87827977 9075.22170793
0.03900000 1546390.21062452 12989.67837080
0.04000000 1541346.64674522 12323.06701177
0.04100000 1536193.06372351 11613.62010023
0.04200000 1530929.74722803 9874.49732773
0.04300000 1525556.87148937 11075.54340112
0.04400000 1520078.09986153 13338.68594576
0.04500000 1514492.96517687 11495.00213981
0.04600000 1508801.61563496 15955.57782706
0.04700000 1503007.71162767 15150.31843782
0.04800000 1497110.87444163 15405.27161478
0.04900000 1491114.36484573 13420.02990828
0.05000000 1485017.33337326 15904.53638104
0.05100000 1478823.12737148 17302.23139625
0.05200000 1472530.12528745 16389.26105821
0.05300000 1466143.85133255 14250.91889930
0.05400000 1459662.21459776 14450.65659841
0.05500000 1453089.50961512 12205.95245017
0.05600000 1446424.05513485 13603.61887334
0.05700000 1439670.97019183 13777.65182786
0.05800000 1432828.73291718 12680.53487840
0.05900000 1425899.38441297 12833.09505910
0.06000000 1418885.59958866 12982.80384278
0.06100000 1411788.98611895 14442.60200292
0.06200000 1404610.05778585 17255.63536649
0.06300000 1397351.78864598 17438.95113767
0.06400000 1390012.32077333 18973.66906589
0.06500000 1382598.03610207 13687.72119769
0.06600000 1375106.54116392 17965.76780090
0.06700000 1367540.98886818 19528.48623495
0.06800000 1359904.14736787 15482.50944251
0.06900000 1352196.99917927 15617.87607173
0.07000000 1344418.96657190 21477.09399673
0.07100000 1336574.76634982 20209.01141375
0.07200000 1328663.52808389 16003.75294550
0.07300000 1320689.87265076 16125.62410064
0.07400000 1312652.91510102 17720.81518433
0.07500000 1304555.39319235 19333.51183332
0.07600000 1296397.18588667 19465.40465864
0.07700000 1288183.74655062 16578.92559547
0.07800000 1279913.43748954 15166.97494552
0.07900000 1271588.22872045 15259.05946035
0.08000000 1263212.05714853 15348.02721435
0.08100000 1254785.02310821 15433.85650836
0.08200000 1246308.19595293 17068.19154450
0.08300000 1237784.20196881 18715.29801211
0.08400000 1229214.12082453 23508.72116424
0.08500000 1220601.53892950 17320.33665052
0.08600000 1211945.86530038 18979.07314170
0.08700000 1203250.39114306 17471.19649980
0.08800000 1194513.88421257 23920.14165474
0.08900000 1185742.78737411 16007.52838142
0.09000000 1176935.00175207 16065.16352858
0.09100000 1168093.96697894 16119.69750163
0.09200000 1159220.11770141 17788.23354194
0.09300000 1150317.07643894 24329.20730997
0.09400000 1141382.92669257 21144.11971070
0.09500000 1132422.44777357 24460.32602161
0.09600000 1123436.48939719 19615.20202694
0.09700000 1114427.63829947 19658.50446380
0.09800000 1105397.02621922 19698.17593339
0.09900000 1096346.59889985 23023.27965951
0.10000000 1087275.77521490 16472.22876915
0.10100000 1078187.31963081 24744.40014930
0.10200000 1069083.98154909 18169.08312103
0.10300000 1059966.10364012 24803.20799194
0.10400000 1050836.61072912 23170.94835666
0.10500000 1041698.08351224 26500.80049140
0.10600001 1032546.63865210 18229.61176317
0.10700001 1023390.74492458 19894.71701753
0.10800001 1014226.52529922 16582.60446905
0.10900001 1005058.75622263 18241.81728400
0.11000001 995887.57666773 16581.52893200
0.11100001 986714.85291707 16576.81030933
0.11200001 977543.46302505 21540.17122181
0.11300001 968371.84239004 23182.82299828
0.11400001 959204.35431580 19855.53106922
0.11500001 950041.71783236 19836.87200242
0.11600001 940884.28512288 19815.02397781
0.11700001 931735.57861513 16491.72051816
0.11800001 922593.45937024 18115.12342793
0.11900001 913462.55834269 23019.25755448
0.12000001 904342.86880034 27903.50053123
0.12100001 895237.50384915 21297.70121987
0.12200001 886145.42745694 21254.19907887
0.12300001 877069.46658767 27732.93784012
0.12400001 868010.02787263 19530.22654735
0.12500001 858969.18743718 21104.87392980
0.12600001 849949.31319621 16191.53517939
0.12700001 840950.00494569 20990.11311263
0.12800001 831971.87607431 22538.11918506
0.12900001 823018.02392196 19258.62266747
0.13000001 814088.58304316 28794.31453945
0.13100001 805184.32933175 23913.97570840
0.13200001 796308.26114991 17474.98561471
0.13300001 787461.28342356 18993.56705159
0.13400001 778642.38645720 20497.76178987
0.13500001 769855.04945982 15705.04374944
0.13600001 761098.41818982 20332.74520065
0.13700001 752375.30772038 21803.83744586
0.13800001 743684.75462543 20157.57622467
0.13900001 735031.76263713 23153.50161495
0.14000001 726412.92604241 24581.81457657
0.14100001 717831.80288961 16818.79993493
0.14200001 709287.70049109 21299.91065036
0.14300001 700785.09209310 19678.04631414
0.14400001 692318.46446428 15057.92731238
0.14500001 683896.48274018 16475.06704637
0.14600001 675513.76671678 16384.58718465
0.14700001 667177.07767515 17773.59818776
0.14800001 658881.39814616 17671.19993198
0.14900001 650629.96638060 19030.92741453
0.15000001 642424.45111612 17461.09740520
0.15100001 634265.39933805 14461.25178726
0.15200001 626153.71891632 15807.25137994
0.15300001 618090.06986935 14277.88128774
0.15400001 610072.87216864 19857.87292620
0.15500001 602106.66324850 14089.29658493
0.15600001 594188.33261093 18191.07666141
0.15700001 586324.75972337 20843.84619193
0.15800001 578507.43931072 13797.40307878
0.15900001 570745.34053064 15067.67770121
0.16000001 563033.29788887 19036.15670018
0.16100001 555377.74383904 13495.67981234
0.16200001 547773.54450271 13393.06379533
0.16300001 540225.11548089 19934.30770230
0.16400001 532731.13363649 18459.13465195
0.16500001 525292.91359316 20927.67066557
0.16600001 517910.60136045 18163.12564725
0.16700001 510584.08118050 16726.73528922
0.16800001 503313.58054007 17862.59981677
0.16900001 496102.75350802 13915.68289297
0.17000001 488948.73721488 13795.68927195
0.17100001 481852.91730873 17404.52819506
0.17200001 474816.20162896 13553.62911554
0.17300001 467838.23613972 15873.75210185
0.17400001 460920.38162251 13309.07664788
0.17500001 454061.76743821 13185.95434915
0.17600001 447261.24264691 15437.22251904
0.17700001 440523.81935234 14114.38383868
0.17800001 433845.74362462 18638.01402643
0.17900001 427228.60931350 13842.20759557
0.18000001 420673.27460012 14847.66392834
0.18100001 414180.34824578 12437.83644534
0.18200001 407746.29313440 12311.89990278
0.18300001 401376.52201828 12185.79178412
0.18400001 395067.23595744 12059.42794730
0.18500001 388820.86205093 11932.91282008
0.18600001 382636.74678170 10732.96125429
0.18700001 376514.45219444 12741.24966422
0.18800001 370454.55984977 14703.34217511
0.18900001 364459.17556377 13503.21309263
0.19000001 358522.25394756 10271.66306092
0.19100001 352653.16394582 13203.33508199
0.19200001 346843.01712096 10041.10582011
0.19300001 341098.37046298 11911.15565940
0.19400001 335415.32073827 14716.34789280
0.19500001 329795.83565517 10665.59782909
0.19600001 324237.86935926 11497.47539081
0.19700001 318743.63502693 10413.35504844
0.19800001 313312.01877248 11222.83704281
0.19900001 307943.94647298 9238.31883079
0.20000001 302636.63835656 13686.74261653
0.20100001 297393.56382625 11714.33303276
0.20200001 292211.84769194 10677.42141932
0.20300001 287093.12271100 9663.55496720
0.20400001 282036.64346351 8672.62719642
0.20500001 277041.36609184 12840.86792530
0.20600001 272108.81919643 12673.46885312
0.20700001 267237.65101955 11672.94114830
0.20800001 262428.10914045 9049.83377150
0.20900001 257682.12669257 11363.78232432
0.21000001 252994.83291350 8007.28684024
0.21100001 248368.94134102 11057.38579122
0.21200001 243803.65871427 11684.29089625
0.21300001 239298.98365255 8449.64751223
0.21400001 234855.46192621 8331.49790572
0.21500001 230472.62168606 11947.70127306
0.21600001 226147.96315754 9569.45151344
0.21700001 221883.93654457 9432.28658846
0.21800001 217678.96768686 8580.90531193
0.21900001 213531.92079256 7751.20909126
0.22000001 209443.47246211 8331.66172848
0.22100001 205415.48904534 8208.40333037
0.22200001 201444.73291779 6738.32663472
0.22300001 197531.27977432 7300.75644568
0.22400001 193673.82952903 6536.49205569
0.22500001 189876.71685748 8367.86730760
0.22600001 186133.97863025 6971.64849927
0.22700001 182448.99247154 9359.63375640
0.22800001 178819.31467360 7370.93249942
0.22900001 175244.84956374 6650.54235545
0.23000001 171725.86836494 8330.42226834
0.23100001 168263.45082679 7612.23887541
0.23200001 164853.35127388 6337.78738946
0.23300001 161498.74418721 6235.46680797
0.23400001 158197.71936947 6691.76384582
0.23500001 154948.88412463 7679.26706042
0.23600001 151753.79789599 7552.78687851
0.23700001 148611.23670663 5835.96354150
0.23800001 145520.38532706 5216.90606073
0.23900001 142481.66649875 7694.01035486
0.24000001 139493.68917666 5042.69710226
0.24100001 136557.90973003 6444.16806498
0.24200001 133671.55747035 5846.79420032
0.24300001 130835.41992769 5267.43425545
0.24400001 128048.06897484 5176.34343317
0.24500001 125310.24371541 5086.34303301
0.24600001 122621.25437428 5451.74122738
0.24700001 119980.91783549 5802.27746101
0.24800001 117387.17554497 6576.61682102
0.24900001 114840.90650764 4737.18761754
0.25000001 112341.96261424 6767.48014804
0.25100001 109888.45860360 5815.29750442
0.25200001 107482.09793601 4486.84039061
0.25300001 105121.27984923 4005.12095174
0.25400001 102804.33421740 4718.71916383
0.25500001 100532.32368785 4246.48555348
0.25600001 98304.51274179  5305.49480369
0.25700001 96120.00892913  6695.72013880
0.25800001 93978.49474547  4016.17116297
0.25900001 91880.05895851  3941.65471582
0.26000001 89824.22299671  3868.28034638
0.26100001 87807.86675594  3450.84932679
0.26200001 85835.32425583  4063.44444254
0.26300001 83901.87847417  4983.77181719
0.26400001 82008.82303685  3259.85086997
0.26500001 80156.40129577  3198.24056304
0.26600001 78342.03785635  3451.35864108
0.26700001 76567.90968416  4924.84818393
0.26800001 74831.74328373  3925.29927970
0.26900001 73132.83170965  2961.87982440
0.27000001 71472.14122170  4358.01401722
0.27100001 69848.03915706  3419.76015896
0.27200001 68260.96972692  3913.40157964
0.27300001 66709.30361349  3290.10300992
0.27400001 65192.21385391  3764.85052823
0.27500001 63712.28984667  3165.22670938
0.27600001 62264.92414556  3363.24003689
0.27700001 60853.62584651  3045.11558147
0.27800001 59474.58955664  2986.81402889
0.27900001 58129.79012546  2929.74156098
0.28000001 56816.94363598  3113.28457388
0.28100001 55536.64984909  2349.20039980
0.28200001 54288.56038579  2535.00444720
0.28300001 53071.68791006  2486.93941317
0.28400001 51886.13453457  3327.19853451
0.28500001 50731.13466097  3482.18524795
0.28600001 49605.38313589  2989.71658311
0.28700001 48510.00107184  2305.19536004
0.28800001 47442.99129373  2673.64990091
0.28900001 46406.07601630  2422.39728271
0.29000001 45396.38706401  2774.17334480
0.29100001 44415.70130613  2334.48937115
0.29200001 43461.61945279  2292.16591844
0.29300001 42534.76706558  1875.78331638
0.29400001 41634.28383438  2026.54886157
0.29500001 40761.27568205  1990.78079855
0.29600001 39912.56263129  1955.91522433
0.29700001 39089.34025179  2271.48166956
0.29800001 38291.41285019  1889.10694239
0.29900001 37518.11445338  2025.97827639
0.30000001 36768.70280585  2324.14981438
0.30100001 36043.78323789  2122.61849536
0.30200001 35340.89900135  2248.74150991
0.30300001 34661.63666772  1580.57070687
0.30400001 34005.53900542  2178.05487641
0.30500001 33370.34997495  2144.37879091
0.30600001 32757.27064541  2413.55581542
0.30700001 32166.05806659  2526.32232015
0.30800001 31595.36041908  2343.11203961
0.30900001 31045.34255342  1732.33019650
0.31000001 30516.36750157  1565.94747248
0.31100001 30005.49327871  1404.25715193
0.31200001 29515.50023212  1940.05392211
0.31300001 29043.65573894  1915.13875010
0.31400001 28592.09892735  2161.56278125
0.31500001 28158.22326110  1468.16983035
0.31600002 27742.07502292  1714.87644874
0.31700002 27343.50782209  1434.71392336
0.31800002 26962.63196542  2709.34020133
0.31900002 26598.97971003  1787.45152115
0.32000002 26251.56493609  1516.81549383
0.32100002 25920.95822143  1877.97351206
0.32200002 25606.53512009  1736.89135944
0.32300002 25307.10440091  1475.91039855
0.32400002 25023.32139320  1463.86437082
0.32500002 24754.15147274  1815.71709650
0.32600002 24500.31336654  1201.74042753
0.32700002 24260.40429964  1312.97314287
0.32800002 24035.46871148  1304.76548079
0.32900002 23823.03084205  1297.16409077
0.33000002 23625.56867690  1173.00954035
0.33100002 23439.08550843  1634.17311903
0.33200002 23267.81675224  1394.67300217
0.33300002 23107.81234555  1273.47159867
0.33400002 22960.83899715  1615.29509994
0.33500002 22825.35498694  1610.55712415
0.33600002 22701.63872780  1377.08147044
0.33700002 22588.56824113  1374.28855687
0.33800002 22488.07779415  1715.27821498
0.33900002 22397.08158482  1256.47633641
0.34000002 22317.57380662  1369.85274512
0.34100002 22248.18853281  1597.86497610
0.34200002 22189.65795210  1255.82375127
0.34300002 22139.76292975  1256.65300341
0.34400002 22100.02719322  1372.41175370
0.34500002 22069.30594321  1259.93673597
0.34600002 22048.89484411  1262.40953409
0.34700002 22035.08482231  1955.39351974
0.34800002 22031.54543755  1384.02174994
0.34900002 22035.88073206  1619.63731052
0.35000002 22048.26114754  1625.17740616
0.35100002 22068.75065077  1631.32212537
0.35200002 22096.04884467  1286.98442591
0.35300002 22131.11440563  1645.22712284
0.35400002 22173.82080392  1416.90721648
0.35500002 22223.18550853  1542.73361107
0.35600002 22278.69161299  1312.32639162
0.35700002 22341.09679476  1799.57543205
0.35800002 22410.19456428  1448.14684134
0.35900002 22485.06912466  1578.45192732
0.36000002 22566.51648778  1344.17461826
0.36100002 22652.73582507  1476.05233628
0.36200002 22745.59087644  1733.89647464
0.36300002 22842.04888099  1371.89352077
0.36400002 22944.37785116  1381.82522154
0.36500002 23051.28903081  1645.17057606
0.36600002 23163.38752331  1530.17345227
0.36700002 23279.53872575  1670.53977809
0.36800002 23401.48880041  1424.79971310
0.36900002 23526.67550870  1566.87666310
0.37000002 23654.83018238  1448.03049821
0.37100002 23787.51408247  1592.81201841
0.37200002 23924.09742848  2007.82997180
0.37300002 24063.58691074  1889.95420550
0.37400002 24207.43015587  1497.83481185
0.37500002 24353.35270819  1510.88207359
0.37600002 24503.29594960  1939.92603223
0.37700002 24654.90868653  1677.52006650
0.37800002 24810.15543201  2256.73184500
0.37900002 24967.58997182  1423.15269581
0.38000002 25127.57883662  1579.64531840
0.38100002 25289.30915676  1883.80072833
0.38200002 25453.37304176  1754.75562063
0.38300002 25619.21784410  1623.23371950
0.38400002 25787.38696523  1787.06600135
0.38500002 25956.13026911  1803.43201653
0.38600002 26127.75016721  1516.71596906
0.38700002 26299.68058034  1683.70563052
0.38800002 26472.90538377  1699.16351256
0.38900002 26647.36192631  2182.41904516
0.39000002 26823.60692281  1887.84554467
0.39100002 26999.80097889  1746.34721005
0.39200002 27177.22475789  1762.30722292
0.39300002 27355.10194388  1778.35526162
0.39400002 27534.28189923  2447.10941973
0.39500002 27713.02792990  2140.00011813
0.39600002 27892.11347795  1660.97543631
0.39700002 28071.01764349  2011.00779926
0.39800002 28251.09685560  2198.07669499
0.39900002 28430.29402795  2217.56303925
0.40000002 28609.49364003  1720.86112398
0.40100002 28788.13904705  1735.92486678
0.40200002 28967.73952153  2976.86989297
0.40300002 29145.79899986  2119.48260369
0.40400002 29323.39950178  2672.09490620
0.40500002 29500.51439595  2694.87211775
0.40600002 29677.23087882  2355.33354029
0.40700002 29853.00503627  2740.50599218
0.40800002 30028.24403618  2394.90271658
0.40900002 30201.53267111  2414.61265146
0.41000002 30374.87895117  2434.39478889
0.41100002 30546.67782691  2454.12021290
0.41200002 30716.79294703  3234.93920250
0.41300002 30886.06252992  1918.02457399
0.41400002 31053.90165146  2513.03711022
0.41500002 31220.85184247  2142.99937201
0.41600002 31384.99559106  2159.44472397
0.41700002 31548.47527445  2175.89844278
0.41800002 31711.21997257  2192.35529669
0.41900002 31870.25219427  2007.82598338
0.42000002 32028.32651261  2224.84780662
0.42100002 32185.23127238  2444.79028330
0.42200002 32340.10093770  2051.97950173
0.42300002 32492.39102207  2893.12263370
0.42400002 32642.91538027  2913.38033574
0.42500002 32791.75504620  2933.55054544
0.42600002 32937.29452576  2109.63381434
0.42700002 33081.86782245  2123.85601484
0.42800002 33223.66988641  2565.53191020
0.42900002 33363.97084419  2797.56908785
0.43000002 33501.81561428  2599.07097852
0.43100002 33635.97316836  2833.49451397
0.43200002 33768.75329139  2851.26481927
0.43300002 33898.73360965  2427.48842882
0.43400002 34026.56294268  2664.28000467
0.43500002 34151.59491179  2680.21729569
0.43600002 34274.86822822  2920.73303448
0.43700002 34394.55041504  2937.63869016
0.43800002 34511.11252872  2727.06824125
0.43900002 34626.02172454  3885.03982160
0.44000002 34737.46673840  2297.88353364
0.44100002 34846.98716014  2772.42642985
0.44200002 34953.46469557  2322.65783909
0.44300002 35057.35588050  3502.23001843
0.44400002 35157.93901509  2816.15104857
0.44500002 35254.88336226  2594.40698958
0.44600002 35349.82566290  3081.26769993
0.44700002 35441.99544534  2381.70220680
0.44800002 35530.43948186  2871.57025501
0.44900002 35617.19317877  3365.82491491
0.45000002 35700.63236341  2656.66268323
0.45100002 35779.88931495  2911.05193263
0.45200002 35857.13925743  3411.08981922
0.45300002 35930.85794245  3915.02646695
0.45400002 36002.09681954  2948.57186926
0.45500002 36070.22042711  2960.64383297
0.45600002 36134.88552603  2972.45582425
0.45700002 36196.65924370  3481.39485106
0.45800002 36254.65909093  2995.36007605
0.45900002 36309.91339630  2755.92255739
0.46000002 36362.93634955  2765.94688452
0.46100002 36411.57450589  3532.65112599
0.46200002 36457.82882342  2785.19596497
0.46300002 36500.58333018  2794.48479220
0.46400002 36539.78033672  3568.10971899
0.46500002 36576.78532250  4090.74786435
0.46600002 36609.87438845  3846.78273369
0.46700002 36639.79670511  3600.95939085
0.46800002 36667.33986852  2837.50223021
0.46900002 36690.84797261  3362.71637607
0.47000002 36711.10232841  3890.45925365
0.47100002 36728.62850279  3640.54182975
0.47200002 36742.73474557  4171.03544601
0.47300002 36754.20288096  2874.54634357
0.47400002 36761.32116741  2881.16868306
0.47500002 36766.31101989  2625.11473124
0.47600002 36768.50586457  3156.94406316
0.47700002 36766.47775181  2636.15657975
