# SAXS profile: number of points = 501, q_min = 0, q_max = 0.5, delta_q = 0.001
#    q    intensity    error
0.00000000 1682732.95097188 302.89193117
0.00100000 1682663.81179263 555.27907108
0.00200000 1682456.33251448 832.81591097
0.00300000 1682110.69967800 1412.97303806
0.00400000 1681626.75771107 1513.46413945
0.00500000 1681004.99266236 1664.19500861
0.00600000 1680245.09470185 2469.96038977
0.00700000 1679347.77890301 2418.26090212
0.00800000 1678312.45171637 2492.29409602
0.00900000 1677140.50434838 3270.42412328
0.01000000 1675831.02216939 3041.63343657
0.01100000 1674385.34655269 3013.89375502
0.01200000 1672802.89998455 3588.16237779
0.01300000 1671085.05713039 4562.06240717
0.01400000 1669231.06845857 4131.34707758
0.01500000 1667242.72354778 4801.65925763
0.01600000 1665118.91140042 5944.47477944
0.01700000 1662861.74761672 6285.61768796
0.01800000 1660470.67492739 6152.04412743
0.01900000 1657946.59223370 5968.60800136
0.02000000 1655290.04858982 8342.66222228
0.02100000 1652502.71395901 7634.56288463
0.02200000 1649582.77861897 6260.16692927
0.02300000 1646533.07604105 8298.52708098
0.02400000 1643353.57180213 7395.09141031
0.02500000 1640045.59532474 7035.79592527
0.02600000 1636609.23830832 7291.09449015
0.02700000 1633045.73168070 7544.67162592
0.02800000 1629354.81654565 10631.54066552
0.02900000 1625538.98815707 7314.92578257
0.03000000 1621598.82619428 7540.43488840
0.03100000 1617534.26684021 10869.83077332
0.03200000 1613346.60343008 10381.88587124
0.03300000 1609038.41509295 9026.70592481
0.03400000 1604607.78965470 9266.61041282
0.03500000 1600058.09860447 10368.37695775
0.03600000 1595389.09375973 14167.05580730
0.03700000 1590602.63308908 9973.07897070
0.03800000 1585699.82924445 11131.61331646
0.03900000 1580682.22839995 14226.14071441
0.04000000 1575548.49658292 10658.58607329
0.04100000 1570302.77892439 18796.52513526
0.04200000 1564945.40439770 15140.84748997
0.04300000 1559476.26075560 14409.56131824
0.04400000 1553899.21404179 13635.46623647
0.04500000 1548213.64986089 11750.94214845
0.04600000 1542420.11386271 10874.06230823
0.04700000 1536521.99359393 17700.73418943
0.04800000 1530519.07963756 13499.17891049
0.04900000 1524414.47858582 20579.59641884
0.05000000 1518207.43345173 13937.14488809
0.05100000 1511901.30548341 21227.09531783
0.05200000 1505494.70838161 15559.28853621
0.05300000 1498992.58632033 21855.31292740
0.05400000 1492393.51002009 13543.47173502
0.05500000 1485701.45171294 14975.87133188
0.05600000 1478914.89289799 15173.66750920
0.05700000 1472038.92197326 15368.08706276
0.05800000 1465072.00177274 16855.65416743
0.05900000 1458016.07408251 13122.14527962
0.06000000 1450874.16770677 14603.04918021
0.06100000 1443647.88709978 16111.11117293
0.06200000 1436337.42789546 16288.06719370
0.06300000 1428945.98316903 20576.82311971
0.06400000 1421471.70247670 13859.34974730
0.06500000 1413920.96548815 18197.16367706
0.06600000 1406291.49121345 31093.10632553
0.06700000 1398586.30655080 17118.69719332
0.06800000 1390808.45228093 17273.84178590
0.06900000 1382958.69304659 15973.17365253
0.07000000 1375036.44329786 17572.96656826
0.07100000 1367046.62967290 14764.10429198
0.07200000 1358988.19660017 23809.47431983
0.07300000 1350866.14086475 17993.53783942
0.07400000 1342679.12816063 15105.14089970
0.07500000 1334430.32474995 15212.50641520
0.07600000 1326119.48937347 26038.35739454
0.07700000 1317752.07418558 21584.77998724
0.07800000 1309326.24314844 20170.17172161
0.07900000 1300844.56151248 21854.18965845
0.08000000 1292310.69916095 18841.89087766
0.08100000 1283724.54842740 23684.71902973
0.08200000 1275087.30103376 19049.80517136
0.08300000 1266402.00550077 15956.66601819
0.08400000 1257669.20431278 20845.86803996
0.08500000 1248892.73128762 24166.07548490
0.08600000 1240072.34311225 24274.41725614
0.08700000 1231210.66721981 22752.77419864
0.08800000 1222307.21280327 21213.14267445
0.08900000 1213368.02502228 22932.65675006
0.09000000 1204391.12673715 21371.92154791
0.09100000 1195379.91161048 28043.61404390
0.09200000 1186335.13355737 21514.18865794
0.09300000 1177260.00895484 18259.30359693
0.09400000 1168153.22912215 18310.80272705
0.09500000 1159018.90257014 23365.82217407
0.09600000 1149858.23306312 25095.65711629
0.09700000 1140673.96935642 18444.69895163
0.09800000 1131467.27657084 26883.66375533
0.09900000 1122239.77932268 18516.95722954
0.10000000 1112991.13610077 18547.99815538
0.10100000 1103724.25463506 27019.17102423
0.10200000 1094441.73726917 23672.77589061
0.10300000 1085144.01970877 18621.07225415
0.10400000 1075834.15795040 23722.14429882
0.10500000 1066514.36557849 23740.61089476
0.10600001 1057181.43771116 18664.53916102
0.10700001 1047842.79100445 18672.55941439
0.10800001 1038496.12657421 22073.23620914
0.10900001 1029145.03893754 18678.98333585
0.11000001 1019790.10558756 20375.40726870
0.11100001 1010433.46405934 22067.86789386
0.11200001 1001077.13629626 22058.73573675
0.11300001 991720.28313547 18654.25940404
0.11400001 982367.34320145 22029.58870854
0.11500001 973018.90634631 20316.63572118
0.11600001 963675.55685076 25368.76022875
0.11700001 954340.34571628 21959.37238911
0.11800001 945011.48293760 21928.99249439
0.11900001 935693.63405888 23579.48068892
0.12000001 926386.63920946 16813.91829367
0.12100001 917094.11379993 18461.10538046
0.12200001 907814.43721464 20099.01258682
0.12300001 898551.00513661 23398.26927615
0.12400001 889303.65633020 23344.22207859
0.12500001 880074.88093400 21623.44084346
0.12600001 870867.03202407 16590.01774184
0.12700001 861679.66477998 31434.07565255
0.12800001 852513.30331142 23094.58647514
0.12900001 843371.47567713 18090.31900591
0.13000001 834254.09134821 26228.94986829
0.13100001 825161.83667891 17972.02565003
0.13200001 816097.81912512 24421.72838857
0.13300001 807062.92510571 24332.94833907
0.13400001 798056.50838321 21008.83857366
0.13500001 789081.43226039 20926.44057019
0.13600001 780137.42457179 25650.91972938
0.13700001 771227.18371532 22350.16483795
0.13800001 762349.55463863 23842.48344563
0.13900001 753509.84152450 18988.44890188
0.14000001 744704.64065242 20475.65506038
0.14100001 735937.51883122 15675.46989041
0.14200001 727207.41603724 18718.31977165
0.14300001 718519.60871463 17072.02670831
0.14400001 709867.50749335 16983.58091789
0.14500001 701260.68431194 21500.65359524
0.14600001 692693.83064804 18328.67962359
0.14700001 684173.00946686 19745.23398473
0.14800001 675693.90193683 16611.93536285
0.14900001 667259.17536858 18015.99858496
0.15000001 658871.22227596 17908.12066642
0.15100001 650529.79819404 16315.28810854
0.15200001 642236.94587965 14739.33860344
0.15300001 633992.14964490 16109.74128268
0.15400001 625794.36015308 18914.63542823
0.15500001 617648.11504753 20234.15320387
0.15600001 609551.06635596 20096.89960623
0.15700001 601508.53048600 17106.90341441
0.15800001 593513.11902225 19817.40397951
0.15900001 585573.55202140 15459.14250305
0.16000001 577684.96768396 20926.63894214
0.16100001 569853.71740829 16616.93518402
0.16200001 562074.16508142 19239.79957897
0.16300001 554351.06718990 17728.14796564
0.16400001 546683.30499213 17589.53616852
0.16500001 539072.32553051 14765.19169336
0.16600001 531517.35017161 15977.41230050
0.16700001 524019.79045333 17166.88914578
0.16800001 516578.61279958 15714.32214334
0.16900001 509198.00056415 19476.82444124
0.17000001 501875.30941704 20596.96367106
0.17100001 494611.46163670 16589.26920666
0.17200001 487407.31935350 15177.86464141
0.17300001 480263.20824726 16295.33142537
0.17400001 473180.21893127 13663.07946689
0.17500001 466157.11201670 13537.20317229
0.17600001 459193.17488178 15849.05317958
0.17700001 452293.00350408 13283.84614032
0.17800001 445453.57553327 16744.60069518
0.17900001 438675.87709703 13028.67416517
0.18000001 431961.03609368 18764.38829425
0.18100001 425309.60011591 19738.61947376
0.18200001 418718.00759184 18390.09576214
0.18300001 412191.77514688 13651.79223777
0.18400001 405726.99047483 13510.70942107
0.18500001 399326.40113953 11141.20711813
0.18600001 392988.91480832 12125.67353927
0.18700001 386714.46914647 14176.95310870
0.18800001 380503.29422230 16180.90335129
0.18900001 374357.84614686 16003.79867892
0.19000001 368272.16741659 12661.19771401
0.19100001 362255.00118909 11476.23897992
0.19200001 356298.74647848 10314.84919794
0.19300001 350408.36858395 12236.26080915
0.19400001 344581.02209100 11086.89490968
0.19500001 338818.28923961 14941.88726155
0.19600001 333118.34552101 13781.10660545
0.19700001 327483.10964091 10698.87369757
0.19800001 321912.00480000 11530.88855687
0.19900001 316405.47154761 9492.16459503
0.20000001 310960.90906810 11250.56622180
0.20100001 305581.73877918 11110.95254714
0.20200001 300265.17636625 10971.69006298
0.20300001 295012.97553308 9027.39747799
0.20400001 289824.18421347 11585.72231154
0.20500001 284697.81153402 10556.59535066
0.20600001 279635.14212928 9550.93873088
0.20700001 274635.46897770 11139.21514828
0.20800001 269698.40997311 12682.56832849
0.20900001 264826.32048993 10010.43538773
0.21000001 260014.34968597 9875.34546790
0.21100001 255264.71477438 12987.86930170
0.21200001 250577.21999586 9607.13106881
0.21300001 245951.42289897 11053.05746762
0.21400001 241388.38307006 13234.11872748
0.21500001 236886.97578460 11512.70756742
0.21600001 232444.91504983 8322.69057684
0.21700001 228064.93849862 8949.26860980
0.21800001 223745.29956456 7350.03343821
0.21900001 219484.92724903 10140.20411835
0.22000001 215284.39867040 7136.67815336
0.22100001 211145.91007011 7031.15913779
0.22200001 207065.60183127 11774.78600490
0.22300001 203044.04462644 6822.28022204
0.22400001 199079.62171788 6718.93755069
0.22500001 195176.75695556 6616.49237367
0.22600001 191330.06067013 6514.78887389
0.22700001 187542.03468950 7055.33167866
0.22800001 183810.73442139 7576.67883115
0.22900001 180135.83586554 6214.68663126
0.23000001 176517.75875997 7339.60875634
0.23100001 172957.65379880 7222.71196422
0.23200001 169451.05989300 8291.24075269
0.23300001 166001.34883405 7574.64190554
0.23400001 162606.31448483 6878.24742802
0.23500001 159264.96297141 8456.96993376
0.23600001 155978.56239744 6654.04578659
0.23700001 152745.79272095 6543.63006967
0.23800001 149566.47575206 7506.74177305
0.23900001 146440.15586103 7380.58420449
0.24000001 143366.12473237 6737.49135048
0.24100001 140345.20244980 7132.34352587
0.24200001 137375.37075054 5508.06575079
0.24300001 134456.84814726 7873.79339996
0.24400001 131588.35142057 6770.22100084
0.24500001 128770.70606849 5701.96713444
0.24600001 126003.01303521 6535.77659531
0.24700001 123285.36739903 6879.32382630
0.24800001 120615.72796025 5856.49694816
0.24900001 117994.55789609 4867.27574347
0.25000001 115421.82712264 6518.44799513
0.25100001 112896.14411204 4694.22189426
0.25200001 110418.52586461 5028.45990577
0.25300001 107987.67942336 5348.63001489
0.25400001 105602.13653181 4443.21010479
0.25500001 103262.59892806 6344.45437831
0.25600001 100968.51826578 4670.80387596
0.25700001 98718.98362131  5348.59478566
0.25800001 96513.59934105  5249.37491653
0.25900001 94352.38000689  4415.69159325
0.26000001 92234.81273712  5777.58894322
0.26100001 90158.02046075  3897.53140893
0.26200001 88126.40054316  3824.24533252
0.26300001 86135.03030809  4434.23157008
0.26400001 84184.83942703  3680.98227812
0.26500001 82276.51095370  4595.96611935
0.26600001 80407.73324819  4508.46181656
0.26700001 78579.90718612  4422.47738571
0.26800001 76791.29840388  3408.38194094
0.26900001 75041.10242290  4862.66366711
0.27000001 73330.08129795  3875.12832957
0.27100001 71656.98058923  3215.96544103
0.27200001 70021.85089536  3154.13442285
0.27300001 68423.19808992  4218.29036187
0.27400001 66860.07524389  3585.37170463
0.27500001 65335.38067021  4598.30430919
0.27600001 63844.36403631  2918.00679638
0.27700001 62390.02716944  2861.83068170
0.27800001 60969.32893756  2806.72319048
0.27900001 59583.59158690  3753.76644763
0.28000001 58231.16357028  2945.33239278
0.28100001 56912.00467132  2888.85349384
0.28200001 55626.22415163  2597.46665970
0.28300001 54372.61445374  3474.41022804
0.28400001 53151.12427512  2953.87387140
0.28500001 51961.33734964  2452.05562559
0.28600001 50801.69542641  2405.71440078
0.28700001 49673.23293835  3004.23727031
0.28800001 48574.26689248  2526.83348335
0.28900001 47506.48134024  2686.49164695
0.29000001 46466.38829551  2839.56112315
0.29100001 45456.25055035  1990.98386835
0.29200001 44474.00093041  2150.09567676
0.29300001 43519.54885291  2686.89707337
0.29400001 42592.39119145  2073.18473938
0.29500001 41693.32190550  2036.30193826
0.29600001 40819.82432650  2909.63721573
0.29700001 39972.34983204  3037.49900753
0.29800001 39151.08140553  2633.88912624
0.29900001 38355.24800648  2588.97936300
0.30000001 37584.03904466  2545.37916480
0.30100001 36838.38104234  2002.53448826
0.30200001 36115.37748325  1805.58838275
0.30300001 35416.65020284  2422.49898856
0.30400001 34741.97459562  1907.33449560
0.30500001 34088.85528885  1877.61423820
0.30600001 33458.49676624  1848.91661884
0.30700001 32850.84572010  1973.02188736
0.30800001 32264.48184210  1944.09644544
0.30900001 31699.51720389  2211.04142965
0.31000001 31156.08726583  2034.80415567
0.31100001 30631.65148065  2006.98590003
0.31200001 30128.49514349  1555.98620535
0.31300001 29644.54009653  1815.13527605
0.31400001 29181.36439011  1792.46539253
0.31500001 28736.20009599  1906.93432866
0.31600002 28309.81234819  1615.35796907
0.31700002 27901.43331339  1330.89843206
0.31800002 27511.30071733  1448.05738182
0.31900002 27139.01417271  1823.74183876
0.32000002 26783.64918458  1289.63276930
0.32100002 26445.61945327  1915.98522011
0.32200002 26124.22229173  1392.29049296
0.32300002 25818.43096233  1505.73096502
0.32400002 25528.81438669  1368.98273631
0.32500002 25254.26338027  1358.42689155
0.32600002 24995.57587831  1839.04958233
0.32700002 24751.32555845  1583.09485768
0.32800002 24522.62554882  1331.21079095
0.32900002 24306.82661352  1443.82556921
0.33000002 24106.66257184  1675.65419472
0.33100002 23917.62873622  1191.09796747
0.33200002 23744.39076981  2134.85827521
0.33300002 23582.90446929  1535.95464082
0.33400002 23434.84753090  1530.88148745
0.33500002 23298.56199380  1291.67233810
0.33600002 23174.57190285  1288.62213168
0.33700002 23061.68828686  1753.84147727
0.33800002 22961.59225565  1517.87612794
0.33900002 22871.68337730  1399.74708898
0.34000002 22793.18077969  1399.04550251
0.34100002 22725.37595630  1515.55539430
0.34200002 22668.94909085  1399.58098315
0.34300002 22621.11427331  1400.69946214
0.34400002 22584.08852505  1285.59930017
0.34500002 22556.22214240  1287.73478310
0.34600002 22539.00985225  1525.10217388
0.34700002 22528.70362703  1411.19806203
0.34800002 22528.87240064  1769.07978905
0.34900002 22537.27282463  1301.52756727
0.35000002 22554.05037819  1187.47080865
0.35100002 22579.05582149  1907.47872614
0.35200002 22611.06058778  1795.88357224
0.35300002 22651.21475671  1202.77956055
0.35400002 22699.14415444  1813.09422521
0.35500002 22753.92605661  1336.56567987
0.35600002 22815.16836062  2076.97895008
0.35700002 22883.45378241  1351.72567895
0.35800002 22958.66019443  1236.32391003
0.35900002 23039.71398007  1368.55907524
0.36000002 23127.51332707  1252.35490598
0.36100002 23220.36715049  1765.21239439
0.36200002 23319.96371247  1523.72650115
0.36300002 23423.38039073  1662.59161889
0.36400002 23532.77043842  2061.47078805
0.36500002 23646.70999884  1557.84532851
0.36600002 23766.08251209  1700.81977554
0.36700002 23889.70653135  1450.58304930
0.36800002 24019.07885464  1595.34729309
0.36900002 24151.75944491  1340.42271269
0.37000002 24287.57612731  1621.92441061
0.37100002 24427.87063513  1499.38277061
0.37200002 24572.41340191  1649.79191395
0.37300002 24719.71799795  1525.45386991
0.37400002 24871.51851351  1678.82757919
0.37500002 25025.36210996  1411.43048986
0.37600002 25183.39211610  1566.53298079
0.37700002 25343.01083287  2011.72829521
0.37800002 25506.23480765  1885.03837276
0.37900002 25671.85057964  1902.28421807
0.38000002 25839.92156959  2067.45222272
0.38100002 26009.77601858  2235.54035470
0.38200002 26181.90658488  1654.56566501
0.38300002 26355.89888548  1669.90983249
0.38400002 26532.28465463  2145.13531595
0.38500002 26709.20280002  2010.40179000
0.38600002 26888.67694644  2029.15410189
0.38700002 27068.63444680  2520.63135910
0.38800002 27249.84558160  1749.03142152
0.38900002 27432.28731145  1604.78888375
0.39000002 27616.36923657  2591.52021194
0.39100002 27800.38179214  2125.06128487
0.39200002 27985.69404867  1649.75674233
0.39300002 28171.17550437  1831.40820631
0.39400002 28358.06672784  1848.23708655
0.39500002 28544.26826734  2204.18850003
0.39600002 28730.75692412  2053.09998707
0.39700002 28917.09200682  1898.98552206
0.39800002 29104.54490847  1741.90709530
0.39900002 29290.93640069  2636.18440096
0.40000002 29477.01717699  2304.95546736
0.40100002 29662.84176501  2146.40333181
0.40200002 29849.20938283  2345.70023049
0.40300002 30034.01490796  2184.07366759
0.40400002 30218.27376824  3120.79237128
0.40500002 30401.95244043  3147.51428529
0.40600002 30585.06294745  2427.38363584
0.40700002 30767.09101553  2636.12448311
0.40800002 30948.29742562  2468.28157813
0.40900002 31127.74310763  2680.09880855
0.41000002 31306.81393593  2895.09775590
0.41100002 31484.38798369  2334.88232350
0.41200002 31659.91209504  2157.46481194
0.41300002 31834.55440361  2570.00369878
0.41400002 32007.59261550  2789.46182861
0.41500002 32179.51923585  2610.40272410
0.41600002 32348.61912314  3237.44995525
0.41700002 32516.84044540  3058.20898880
0.41800002 32684.13009643  4108.39534779
0.41900002 32847.61533544  2690.21982345
0.42000002 33009.93200282  3335.32368761
0.42100002 33170.75998768  2939.59288940
0.42200002 33329.46468445  2114.75463444
0.42300002 33485.46888133  3407.48147483
0.42400002 33639.45428592  2573.41837482
0.42500002 33791.58845713  2375.21086520
0.42600002 33940.16863267  2608.64148472
0.42700002 34087.63976358  2407.26923418
0.42800002 34232.19792843  2863.69465340
0.42900002 34374.97135235  2882.34148448
0.43000002 34515.21825783  3123.97255255
0.43100002 34651.57417086  3143.59095775
0.43200002 34786.15893247  4066.85003351
0.43300002 34917.87131275  3864.36100131
0.43400002 35047.28274069  2744.20236864
0.43500002 35173.47893272  2530.38019433
0.43600002 35297.92746016  3007.91303106
0.43700002 35418.64959002  2327.00538834
0.43800002 35535.77397417  2340.03082709
0.43900002 35651.17339862  2823.57306698
0.44000002 35762.96358398  3785.15224511
0.44100002 35872.58911755  3091.85860256
0.44200002 35978.91964456  4064.35885026
0.44300002 36082.48460508  2883.71230630
0.44400002 36182.39399392  3381.24487897
0.44500002 36278.61122223  2669.74312637
0.44600002 36372.61422831  2682.66228954
0.44700002 36463.78208221  3430.51278087
0.44800002 36550.62839478  2954.02192686
0.44900002 36635.83143053  3462.08623426
0.45000002 36717.46174805  3477.51096696
0.45100002 36794.79376049  3742.03070279
0.45200002 36869.79081589  2755.83264514
0.45300002 36941.02406037  2515.68385774
0.45400002 37009.62174436  3536.26952527
0.45500002 37074.84951683  2789.51180985
0.45600002 37136.60634562  3309.42883134
0.45700002 37195.03222840  2810.82871872
0.45800002 37249.57377399  3590.48658624
0.45900002 37301.22528015  3088.54159958
0.46000002 37350.28103458  3874.15808393
0.46100002 37394.68676629  3368.88749044
0.46200002 37436.70960085  3119.97552601
0.46300002 37475.06674025  3912.39715311
0.46400002 37509.58483496  3139.55239949
0.46500002 37541.74616883  3673.83545421
0.46600002 37569.69756137  3684.46041447
0.46700002 37594.33642849  2903.03479660
0.46800002 37616.39089085  2910.94454706
0.46900002 37634.23968611  2653.21402362
0.47000002 37648.55821683  3457.83199331
0.47100002 37660.10053722  3732.86934218
0.47200002 37667.95461295  3207.04980775
0.47300002 37673.24211441  3482.13793368
0.47400002 37673.57066432  2952.66624077
0.47500002 37671.85626966  3765.67893120
0.47600002 37667.09218051  4312.12891721
0.47700002 37657.82689589  4320.10610626
