# SAXS profile: number of points = 501, q_min = 0, q_max = 0.5, delta_q = 0.001
#    q    intensity    error
0.00000000 1664650.74656091 299.63713438
0.00100000 1664582.21172631 499.37467538
0.00200000 1664376.54678984 1198.35115163
0.00300000 1664033.94084162 998.42040007
0.00400000 1663554.23762622 2495.33145126
0.00500000 1662937.90742256 1646.30859351
0.00600000 1662184.66919340 1745.29397371
0.00700000 1661295.20275886 2392.26519140
0.00800000 1660268.93054027 3137.90841120
0.00900000 1659107.23333478 2986.39314766
0.01000000 1657809.22058060 3008.92386528
0.01100000 1656376.19029984 2981.47727235
0.01200000 1654807.61085471 3872.24997917
0.01300000 1653104.84165342 4860.12844882
0.01400000 1651267.09314974 5573.02668644
0.01500000 1649296.17984024 5145.80431024
0.01600000 1647190.99232171 4620.37094001
0.01700000 1644953.61781981 5329.64996082
0.01800000 1642583.57655240 5149.49974421
0.01900000 1640081.60620361 5904.29404875
0.02000000 1637448.38822967 8768.53651562
0.02100000 1634685.58704684 5933.90895001
0.02200000 1631791.26481284 6755.61614325
0.02300000 1628768.33716489 7036.27953683
0.02400000 1625616.88487625 6096.06359625
0.02500000 1622337.96568333 6959.83019064
0.02600000 1618931.89271731 7868.00935848
0.02700000 1615399.80878909 7463.14745843
0.02800000 1611741.37849706 7712.18284979
0.02900000 1607959.21147160 7959.39846223
0.03000000 1604053.80976255 8950.62066989
0.03100000 1600025.18303911 9216.14547837
0.03200000 1595874.48046015 10269.45275475
0.03300000 1591604.35490998 8928.90084267
0.03400000 1587212.94626235 8332.86835236
0.03500000 1582703.54242285 9401.25947612
0.03600000 1578075.83955481 9634.15344571
0.03700000 1573331.83657793 10761.59025989
0.03800000 1568472.52067973 11928.23407180
0.03900000 1563499.48755785 11257.19683174
0.04000000 1558411.43714888 15334.76925214
0.04100000 1553212.33466395 10763.76197830
0.04200000 1547902.56621492 14975.95802291
0.04300000 1542482.13506707 15270.57384599
0.04400000 1536954.82556419 11411.89010980
0.04500000 1531320.11426220 14792.55299111
0.04600000 1525578.26142447 15057.45814023
0.04700000 1519732.83342744 12036.28460053
0.04800000 1513783.63976278 16689.46540491
0.04900000 1507733.68517301 20354.40569728
0.05000000 1501582.23558226 14933.23602825
0.05100000 1495332.76773394 13996.31535799
0.05200000 1488983.46562438 14204.90292402
0.05300000 1482539.94539957 12008.57411755
0.05400000 1476000.26875124 13394.70306356
0.05500000 1469368.47980592 13576.96538676
0.05600000 1462643.19659136 18758.39987163
0.05700000 1455829.26575589 12665.71520329
0.05800000 1448925.30867118 20516.78332876
0.05900000 1441933.35501717 16870.62104166
0.06000000 1434856.21308285 14441.82845938
0.06100000 1427695.37268101 14605.32434505
0.06200000 1420451.35032160 14765.59247679
0.06300000 1413127.04739043 14922.62231815
0.06400000 1405720.67175701 15076.35490967
0.06500000 1398238.92498788 16611.07920589
0.06600000 1390679.03395529 19566.85492326
0.06700000 1383044.29808858 18339.16825091
0.06800000 1375337.57635721 19928.64241426
0.06900000 1367559.60506194 20103.12713562
0.07000000 1359710.09229992 20273.27842556
0.07100000 1351793.67774404 14599.37240344
0.07200000 1343809.49198894 20600.60047726
0.07300000 1335762.15087241 16309.65662635
0.07400000 1327650.74967137 16429.67879715
0.07500000 1319478.15880084 19554.66723000
0.07600000 1311244.24349589 18173.84606685
0.07700000 1302954.29063588 18293.47909828
0.07800000 1294606.73711038 21477.52677588
0.07900000 1286203.92689513 21608.22698534
0.08000000 1277749.30387219 17077.12024736
0.08100000 1269243.13811408 15611.69133128
0.08200000 1260686.75759582 17265.10595544
0.08300000 1252082.52537859 18931.48867222
0.08400000 1243431.52378937 19024.50320696
0.08500000 1234737.42933728 17520.92494482
0.08600000 1225999.94220508 17599.22999666
0.08700000 1217221.74579092 20887.52613860
0.08800000 1208402.20710559 19358.60426698
0.08900000 1199547.28492596 19432.66692855
0.09000000 1190655.45479680 17877.69249359
0.09100000 1181729.61437072 22831.01722227
0.09200000 1172770.57687100 19632.18037927
0.09300000 1163781.81858360 19691.18929577
0.09400000 1154761.74344720 18100.89117923
0.09500000 1145714.57189114 24747.43591604
0.09600000 1136641.54713958 18191.94881713
0.09700000 1127545.23676518 21547.39048759
0.09800000 1118426.71998267 21591.22884443
0.09900000 1109287.92954719 28286.84353357
0.10000000 1100128.53018147 20000.33761926
0.10100000 1090950.98858661 21699.01618353
0.10200000 1081758.14457730 26741.06259175
0.10300000 1072550.58406082 25097.68484764
0.10400000 1063331.01534160 21771.70356337
0.10500000 1054101.83416873 21788.28593739
0.10600001 1044859.73564118 18446.99950074
0.10700001 1035612.49858370 18454.61559319
0.10800001 1026356.99079618 25171.40638389
0.10900001 1017097.76867872 16782.11397306
0.11000001 1007834.55183423 18458.49068568
0.11100001 998569.79457270 21808.76534008
0.11200001 989305.87316572 18445.60887354
0.11300001 980041.57020771 16758.71163957
0.11400001 970781.16186794 23444.36616298
0.11500001 961525.57270526 18403.60032817
0.11600001 952274.89817578 21726.15282500
0.11700001 943032.86892559 16691.68256608
0.11800001 933797.22518211 21668.76563091
0.11900001 924572.52605480 18306.53687815
0.12000001 915359.03750645 23259.27423866
0.12100001 906159.64407444 21557.53894807
0.12200001 896973.40798774 24823.74023554
0.12300001 887803.37461413 24769.71531874
0.12400001 878649.73785085 18122.15169704
0.12500001 869514.41843708 18077.20561111
0.12600001 860400.15651564 24585.93563101
0.12700001 851306.36425141 21248.60785309
0.12800001 842233.76860375 17926.94660961
0.12900001 833185.34388739 19496.53796588
0.13000001 824161.51524449 19433.72944547
0.13100001 815162.58514021 19368.26393591
0.13200001 806192.04111495 19300.23837411
0.13300001 797250.65495751 25639.58227216
0.13400001 788337.24057870 17560.21286178
0.13500001 779455.52344902 17490.98277086
0.13600001 770604.54310732 19003.10892904
0.13700001 761787.02098544 17345.89128575
0.13800001 753002.36636424 15700.10007904
0.13900001 744255.28086577 15629.36163523
0.14000001 735542.47010158 26446.43075973
0.14100001 726867.62368305 18578.73733757
0.14200001 718229.65180418 18487.23210940
0.14300001 709633.69382005 18393.70621140
0.14400001 701073.43001783 19822.85216880
0.14500001 692558.15388211 21233.83399967
0.14600001 684082.38229652 19609.22241358
0.14700001 675652.80789895 19499.34095587
0.14800001 667264.50404135 16404.69860581
0.14900001 658920.42327894 20755.99431257
0.15000001 650622.68083766 17683.92529955
0.15100001 642371.39600760 16110.67537205
0.15200001 634168.12904409 16009.57517316
0.15300001 626012.91301960 23137.43835704
0.15400001 617904.42883738 18676.16224296
0.15500001 609847.02552862 15697.46317792
0.15600001 601838.21571625 18425.27784373
0.15700001 593884.00949513 21112.57753400
0.15800001 585976.47485935 13975.53958502
0.15900001 578124.52359924 15262.48814342
0.16000001 570323.14825362 13773.30468046
0.16100001 562578.37420168 20505.98270762
0.16200001 554885.41370830 18993.72860785
0.16300001 547248.30788093 24232.15621692
0.16400001 539666.20519162 14692.41312996
0.16500001 532140.37588618 13250.29598513
0.16600001 524670.62573633 14457.29977474
0.16700001 517257.20733074 15641.85868821
0.16800001 509900.06003981 15511.16055879
0.16900001 502602.88746404 16661.28650615
0.17000001 495363.32987494 15247.28401352
0.17100001 488182.11727207 16373.62898649
0.17200001 481060.25469587 17476.91987841
0.17300001 473998.04304631 14845.61940929
0.17400001 466996.14238022 14710.37917969
0.17500001 460053.85385135 18218.13347291
0.17600001 453170.31515956 13234.83967930
0.17700001 446350.19437976 11917.55075281
0.17800001 439589.95768441 15343.88819770
0.17900001 432891.17011545 18700.89943230
0.18000001 426254.65694725 15044.65882759
0.18100001 419680.99161605 13748.74993478
0.18200001 413166.66962984 13609.71074050
0.18300001 406717.22781000 17960.63362854
0.18400001 400328.65736977 14441.85699686
0.18500001 394004.00330038 13191.25465368
0.18600001 387741.60370201 11963.76774744
0.18700001 381541.67094147 11835.42319177
0.18800001 375404.74027979 19156.90480157
0.18900001 369332.79002078 14736.37901809
0.19000001 363320.14101155 13531.85929134
0.19100001 357375.59370512 10292.41758502
0.19200001 351490.84786952 11193.22657930
0.19300001 345671.88183877 14082.67313155
0.19400001 339915.19836251 10936.77202412
0.19500001 334222.73652177 11791.37870169
0.19600001 328592.32745021 10680.89410851
0.19700001 323026.12268223 14390.81444557
0.19800001 317523.32269013 11373.68595627
0.19900001 312084.53984500 11235.04396539
0.20000001 306707.12042018 9247.22011770
0.20100001 301394.63261414 13698.38669973
0.20200001 296144.18830763 11722.86824822
0.20300001 290957.28373233 12464.61062423
0.20400001 285833.07902167 9668.30435489
0.20500001 280770.87679092 13881.31280467
0.20600001 275771.88006585 10275.26073694
0.20700001 270835.17334284 10140.06936927
0.20800001 265960.53851002 11673.00858699
0.20900001 261150.05973826 11516.71817887
0.21000001 256399.16033155 9738.04056973
0.21100001 251709.98949142 12006.56706633
0.21200001 247082.31931273 10262.56461781
0.21300001 242515.87354812 8563.23589982
0.21400001 238011.41227163 8443.45524951
0.21500001 233567.92934538 9837.88164914
0.21600001 229183.26666588 10443.88195574
0.21700001 224860.02597384 11029.38479548
0.21800001 220596.54048751 8695.91603717
0.21900001 216391.61221762 7855.01589490
0.22000001 212245.92281882 8443.14320895
0.22100001 208161.58607734 6931.78114413
0.22200001 204134.83356377 7511.14155614
0.22300001 200166.21530039 7398.14366733
0.22400001 196254.26559988 9273.01448808
0.22500001 192403.23297024 7174.71689673
0.22600001 188607.48517898 10275.33627845
0.22700001 184870.03708273 8851.57779410
0.22800001 181188.43127841 6846.20519961
0.22900001 177562.79104750 6125.91658084
0.23000001 173993.24397801 7234.63942674
0.23100001 170481.09286214 7712.56500583
0.23200001 167021.87963360 7588.63946005
0.23300001 163618.93395015 6891.62982392
0.23400001 160269.99647662 7344.37293590
0.23500001 156974.07861193 7779.63570395
0.23600001 153732.47500166 5465.18974480
0.23700001 150544.14883453 5911.86900435
0.23800001 147408.37885355 6869.96782141
0.23900001 144325.15086030 5715.27624440
0.24000001 141293.35793775 5618.53064415
0.24100001 138314.41316905 6527.05746619
0.24200001 135385.67860270 5921.76986219
0.24300001 132507.82744429 4849.78671387
0.24400001 129679.36008522 5242.28837942
0.24500001 126901.08988914 5150.91548226
0.24600001 124172.31639629 5060.64299413
0.24700001 121492.85327941 5423.44122695
0.24800001 118860.74721900 5327.33894237
0.24900001 116276.64968372 4796.41202636
0.25000001 113740.44544748 5995.25916316
0.25100001 111250.53721544 4625.79755626
0.25200001 108808.20660887 4955.12596339
0.25300001 106412.17907593 4865.16505752
0.25400001 104060.72700708 5572.45219487
0.25500001 101754.77635427 4298.12195656
0.25600001 99493.72985824  4986.12850775
0.25700001 97276.62302312  5646.90823367
0.25800001 95103.07714309  4433.70566619
0.25900001 92973.20766781  3625.95527061
0.26000001 90886.43389713  4269.84486652
0.26100001 88839.98990715  4189.69412226
0.26200001 86837.95990273  3768.33344828
0.26300001 84875.67581164  6049.93845812
0.26400001 82954.13556868  4946.14056732
0.26500001 81074.01727343  3881.82413074
0.26600001 79232.64189822  4125.24769564
0.26700001 77431.92149265  3735.31606956
0.26800001 75669.78205360  3358.60343538
0.26900001 73945.62032076  3294.27754118
0.27000001 72260.13343178  4112.32438821
0.27100001 70611.96803234  3169.06527526
0.27200001 69001.20759118  3390.71950149
0.27300001 67426.60917869  3602.60389891
0.27400001 65887.03731412  3804.97658496
0.27500001 64385.26649759  2665.55015915
0.27600001 62916.64360108  4182.69866455
0.27700001 61484.47282496  3589.46369340
0.27800001 60085.30218164  3520.39802143
0.27900001 58720.76289304  3206.15380570
0.28000001 57388.80334953  2660.83199323
0.28100001 56089.88820405  2847.12285999
0.28200001 54823.71299448  2327.26672676
0.28300001 53589.35115979  2511.19711420
0.28400001 52386.67701634  2463.48360329
0.28500001 51215.20299380  2197.13231243
0.28600001 50073.53238639  2586.79880552
0.28700001 48962.57674588  2749.73844020
0.28800001 47880.61673580  2490.74980049
0.28900001 46829.32424490  2240.78327118
0.29000001 45805.49277396  2999.11478134
0.29100001 44811.24849999  2747.82588809
0.29200001 43844.21404920  2890.42994801
0.29300001 42904.73499708  2459.72857382
0.29400001 41992.18250803  2787.23124591
0.29500001 41107.44999643  1825.17086624
0.29600001 40247.57231106  1972.33237447
0.29700001 39413.49150788  2466.49641532
0.29800001 38605.36583359  1731.45073960
0.29900001 37822.13378852  2042.39532127
0.30000001 37063.24698470  2510.10852087
0.30100001 36329.43113300  2139.44030070
0.30200001 35617.93260331  1780.71862480
0.30300001 34930.51799891  1752.11486577
0.30400001 34266.63223417  2821.85729808
0.30500001 33624.08943254  1697.68035582
0.30600001 33003.88843711  1519.82913448
0.30700001 32406.11111749  1796.59488541
0.30800001 31829.19533750  1770.33992849
0.30900001 31273.39908055  2181.31968914
0.31000001 30738.88188198  1864.15957999
0.31100001 30222.97789035  1838.76606191
0.31200001 29728.09049847  1535.30730648
0.31300001 29252.05315901  1791.10329973
0.31400001 28796.46416957  1496.69629608
0.31500001 28358.77418842  1747.46774823
0.31600002 27939.38560194  1328.51784827
0.31700002 27537.72693558  1838.96949183
0.31800002 27154.11140349  1429.25672140
0.31900002 26788.12364170  1414.41299525
0.32000002 26438.62211712  1400.32168674
0.32100002 26106.29743452  1891.40133869
0.32200002 25790.38625530  1499.45312788
0.32300002 25489.75571240  1486.56262354
0.32400002 25205.01770604  1474.49360562
0.32500002 24935.12377347  1219.32761026
0.32600002 24680.94781155  1331.66060223
0.32700002 24440.96919966  1563.24446403
0.32800002 24216.17899273  1314.57533887
0.32900002 24004.14271501  1663.48716892
0.33000002 23807.46351612  1418.44874346
0.33100002 23621.84971333  1529.27862286
0.33200002 23451.66906721  1288.55201792
0.33300002 23293.09660933  1283.68261493
0.33400002 23147.67981980  1395.80515923
0.33500002 23014.01578586  1855.85032086
0.33600002 22892.27960977  1735.80718361
0.33700002 22781.46985981  1155.02057659
0.33800002 22683.38718844  1384.14035179
0.33900002 22595.15197701  1267.58808594
0.34000002 22518.31900397  1382.17448592
0.34100002 22451.89605668  1382.13878671
0.34200002 22396.67061446  1152.30875769
0.34300002 22350.00009548  1383.91207145
0.34400002 22313.80413902  1616.63518644
0.34500002 22286.80180417  1156.68506842
0.34600002 22270.13263606  1506.90859619
0.34700002 22260.33290548  1626.78520578
0.34800002 22260.87153055  1514.96368376
0.34900002 22269.48843209  1636.80747728
0.35000002 22286.25975500  1877.39461068
0.35100002 22311.26181841  1649.24855173
0.35200002 22343.07498015  1892.90540197
0.35300002 22382.93173178  1901.65397000
0.35400002 22430.41252446  1194.41952350
0.35500002 22484.73004854  1560.89003390
0.35600002 22545.37318196  1328.03527019
0.35700002 22612.87883964  1335.74281632
0.35800002 22687.19682534  1343.87616760
0.35900002 22767.37745874  1352.38228511
0.36000002 22854.11731857  1237.55051142
0.36100002 22945.85517805  1744.34399326
0.36200002 23044.22776546  1380.23408739
0.36300002 23146.32612251  1642.92630600
0.36400002 23254.33811871  1400.49257954
0.36500002 23366.85943956  1795.97690160
0.36600002 23484.69438068  1551.39898427
0.36700002 23606.68685926  2084.94268217
0.36800002 23734.40669561  1576.43936740
0.36900002 23865.44605660  1854.34524644
0.37000002 23999.53017044  1869.80348415
0.37100002 24138.02962739  2424.42381062
0.37200002 24280.62722540  1901.90162066
0.37300002 24426.03437869  1918.42083098
0.37400002 24575.86675026  1658.87108422
0.37500002 24727.69411170  1534.10621536
0.37600002 24883.60186517  1547.88452735
0.37700002 25041.20530558  1987.77097132
0.37800002 25202.24756175  1576.02262593
0.37900002 25365.72252557  1735.01550294
0.38000002 25531.65860739  1605.04779439
0.38100002 25699.29276622  1914.34040884
0.38200002 25869.21746199  1932.04259768
0.38300002 26040.99693057  1799.95379311
0.38400002 26214.98128730  1968.08981338
0.38500002 26389.58083725  1680.75248315
0.38600002 26566.87667887  2004.86944355
0.38700002 26744.51566321  2023.49015094
0.38800002 26923.45641141  2042.27888284
0.38900002 27103.54889854  2536.89229709
0.39000002 27285.34689037  2400.42850640
0.39100002 27467.06301128  2099.58239605
0.39200002 27649.98735948  2281.95356489
0.39300002 27833.23599891  2302.92205565
0.39400002 28017.74993826  2490.07764374
0.39500002 28201.78412819  2010.22326790
0.39600002 28386.01596607  2197.50353013
0.39700002 28570.03659833  1876.19439230
0.39800002 28755.20650773  2925.69862474
0.39900002 28939.43328808  2257.27590342
0.40000002 29123.34783625  1926.94640088
0.40100002 29306.93189571  2297.37050015
0.40200002 29491.22082704  2317.56769850
0.40300002 29673.92549340  2517.53595814
0.40400002 29856.08192868  1995.13276941
0.40500002 30037.65414168  2012.22254629
0.40600002 30218.67095703  1844.84994934
0.40700002 30398.72817877  2232.48270323
0.40800002 30578.03342532  2063.55868348
0.40900002 30755.45527151  2080.60664770
0.41000002 30932.67090214  2288.39910177
0.41100002 31108.36921832  2499.24650142
0.41200002 31282.13847210  1937.92857017
0.41300002 31455.02987222  2148.69319238
0.41400002 31626.36616168  2362.48966422
0.41500002 31796.63808217  2380.93237241
0.41600002 31964.07398194  1999.35292231
0.41700002 32130.70308336  2820.43325030
0.41800002 32296.48991518  2435.80138482
0.41900002 32458.43139368  2044.88127470
0.42000002 32619.31853893  2265.90106968
0.42100002 32778.82675631  2489.87979839
0.42200002 32936.29811982  2298.78903620
0.42300002 33090.97535691  2525.50335891
0.42400002 33243.79444316  2331.22119579
0.42500002 33394.78933105  3414.28342300
0.42600002 33542.30250134  3007.73840782
0.42700002 33688.73069303  3027.94325817
0.42800002 33832.34926245  2830.24531167
0.42900002 33974.22723763  3287.00664100
0.43000002 34113.63224219  3087.62500055
0.43100002 34249.13393632  2663.21278109
0.43200002 34383.10737828  2679.81951605
0.43300002 34514.20669645  2920.93745114
0.43400002 34642.99946797  2712.54698688
0.43500002 34768.76321921  3638.20355567
0.43600002 34892.75480657  2973.38624175
0.43700002 35013.05128934  2990.46485234
0.43800002 35129.96639422  3238.63175536
0.43900002 35245.09110867  2558.79373575
0.44000002 35356.67229935  2338.84398344
0.44100002 35466.20924798  3527.11467686
0.44200002 35572.52715120  3545.69181183
0.44300002 35676.11166367  2851.23497928
0.44400002 35776.24204970  3104.48355099
0.44500002 35872.60554386  2639.86516708
0.44600002 35966.89233846  3135.05431926
0.44700002 36058.31045077  2907.74229255
0.44800002 36145.65681762  3895.05616326
0.44900002 36231.31662695  2445.61398822
0.45000002 36313.48977020  2947.92923925
0.45100002 36391.39042266  2960.80366511
0.45200002 36467.15540752  3469.12065833
0.45300002 36539.16264753  3981.30735076
0.45400002 36608.57787805  3248.09622617
0.45500002 36674.77001828  3010.26526577
0.45600002 36737.47705148  3525.69583973
0.45700002 36796.98815996  2780.74852704
0.45800002 36852.66288422  2791.03655581
0.45900002 36905.51200696  3819.72067375
0.46000002 36955.89142204  4344.35002202
0.46100002 37001.70882837  3333.48410634
0.46200002 37045.17135045  3601.90218112
0.46300002 37084.94382421  2839.22343375
0.46400002 37121.06955517  2589.19472419
0.46500002 37154.86318680  2856.83756583
0.46600002 37184.58590827  2604.78036633
0.46700002 37210.98205778  2612.21106426
0.46800002 37234.93759961  2881.42578271
0.46900002 37254.70768822  2889.10271815
0.47000002 37271.07543263  2896.52176453
0.47100002 37284.63950744  2639.75260224
0.47200002 37294.65528551  3175.26710151
0.47300002 37302.09325140  2917.39685147
0.47400002 37304.78527410  3721.15250746
0.47500002 37305.39681325  3729.04764220
0.47600002 37303.05463394  3736.64715979
0.47700002 37296.30329637  2941.55958041
