# SAXS profile: number of points = 501, q_min = 0, q_max = 0.5, delta_q = 0.001
#    q    intensity    error
0.00000000 1646666.22097351 321.09991309
0.00100000 1646598.25686058 592.77538655
0.00200000 1646394.30424552 1259.49168263
0.00300000 1646054.54897835 1185.15931748
0.00400000 1645578.83179247 1727.85783904
0.00500000 1644967.63606233 1924.61221037
0.00600000 1644220.67344408 2071.71813288
0.00700000 1643338.60875849 3352.41090119
0.00800000 1642320.87098506 3103.98657721
0.00900000 1641168.85746154 2954.10406971
0.01000000 1639881.66005262 3517.54631270
0.01100000 1638460.58770491 3833.99794216
0.01200000 1636905.05576549 3830.35799843
0.01300000 1635216.49239398 5150.93217822
0.01400000 1633394.07610520 4042.65051757
0.01500000 1631439.61168362 5090.09181511
0.01600000 1629351.99527102 5401.30210578
0.01700000 1627133.28665038 5271.91208524
0.01800000 1624783.05918520 7409.01108327
0.01900000 1622302.02043157 5353.59690899
0.02000000 1619690.81654150 8673.44471493
0.02100000 1616951.11974283 5869.53283078
0.02200000 1614081.02081444 6125.43775228
0.02300000 1611083.46614269 6959.88089054
0.02400000 1607958.43841894 6029.84441902
0.02500000 1604706.99829011 11890.87940039
0.02600000 1601329.55754429 9079.53900656
0.02700000 1597827.09404897 12079.57338427
0.02800000 1594199.41397817 7628.24454571
0.02900000 1590449.09040634 7872.72335898
0.03000000 1586576.57774592 11804.13028101
0.03100000 1582581.93322866 10634.95108064
0.03200000 1578466.21209281 9376.08973168
0.03300000 1574232.16009408 11240.01814124
0.03400000 1569877.80676339 12362.78829869
0.03500000 1565406.54297399 10143.83486689
0.03600000 1560818.04787954 12127.55679248
0.03700000 1556114.20871538 9756.83653987
0.03800000 1551296.14366075 12705.11600457
0.03900000 1546365.27445863 13917.28811464
0.04000000 1541320.47551592 10427.03350004
0.04100000 1536165.66507844 12581.19738034
0.04200000 1530901.09019711 11849.17498784
0.04300000 1525526.88356875 12082.17347869
0.04400000 1520046.84730325 11286.34836539
0.04500000 1514460.28647193 10449.77646220
0.04600000 1508767.57088911 11700.49305616
0.04700000 1502972.23164702 15149.96079960
0.04800000 1497074.02787899 12103.84407857
0.04900000 1491076.10710211 13419.68558857
0.05000000 1484977.52086395 19312.13355813
0.05100000 1478781.91526332 11534.49947638
0.05200000 1472487.33780016 18730.03980966
0.05300000 1466099.59220958 14250.48870060
0.05400000 1459616.42781575 18062.75413656
0.05500000 1453042.11612244 13426.10977929
0.05600000 1446375.11564412 14839.80937900
0.05700000 1439620.47554252 16282.10833841
0.05800000 1432776.59172246 13948.08077169
0.05900000 1425845.71319967 15399.13442179
0.06000000 1418830.22037689 12982.29712297
0.06100000 1411731.95102355 14442.01853387
0.06200000 1404551.42870305 17254.91510817
0.06300000 1397291.41209347 20120.99727491
0.06400000 1389950.12130463 18972.82004310
0.06500000 1382534.27524361 21899.34394426
0.06600000 1375040.99574416 20728.74398071
0.06700000 1367473.80206940 15343.05677726
0.06800000 1359835.21753647 19704.01322443
0.06900000 1352126.23882083 15617.05878955
0.07000000 1344346.45425581 14317.29040828
0.07100000 1336500.51630026 20207.88875295
0.07200000 1328587.52762691 17457.64093085
0.07300000 1320612.07063022 20522.31253918
0.07400000 1312573.29083137 17719.74025664
0.07500000 1304473.90917667 20819.40456632
0.07600000 1296314.06373559 16469.67095187
0.07700000 1288098.75028636 22606.13412749
0.07800000 1279826.58582871 16682.54032863
0.07900000 1271499.63019340 18309.59553357
0.08000000 1263121.74761351 18416.31594413
0.08100000 1254692.66817666 23149.08081397
0.08200000 1246214.20276811 17066.90430778
0.08300000 1237688.39092868 21832.82424064
0.08400000 1229116.46698953 15671.23568970
0.08500000 1220501.97150046 17318.92378863
0.08600000 1211844.55929818 17396.02946550
0.08700000 1203147.28893262 19057.85395161
0.08800000 1194408.91437934 19134.43170698
0.08900000 1185635.92589566 16006.08575139
0.09000000 1176826.48450553 30520.99630939
0.09100000 1167983.61472863 16118.17464051
0.09200000 1159107.96906017 16169.55692814
0.09300000 1150203.06844649 19461.43683265
0.09400000 1141267.18880668 21141.97566626
0.09500000 1132304.99257790 26088.30825522
0.09600000 1123317.29483736 17978.69414901
0.09700000 1114306.64550321 16380.30845898
0.09800000 1105274.16152223 26261.31531251
0.09900000 1096221.99015796 18087.66368813
0.10000000 1087149.57930646 27999.53873178
0.10100000 1078059.28381468 16494.30781812
0.10200000 1068954.21387203 21469.94639549
0.10300000 1059834.66127633 19840.10579239
0.10400000 1050703.55285738 16548.58173603
0.10500000 1041563.25206221 18216.94213566
0.10600001 1032410.18326164 19884.22106524
0.10700001 1023252.54115397 23207.36872546
0.10800001 1014086.72062385 21554.41426125
0.10900001 1004917.38144540 19897.36508910
0.11000001 995744.55066019 23210.80656841
0.11100001 986570.41631882 21546.69890668
0.11200001 977397.33206319 19880.26267007
0.11300001 968224.25278065 26490.61680328
0.11400001 959055.12143203 26469.92259785
0.11500001 949890.95907692 18180.91381283
0.11600001 940732.03030142 18160.83270019
0.11700001 931581.93890925 18137.90120477
0.11800001 922438.29924961 18112.07685881
0.11900001 913305.94291735 27947.16316963
0.12000001 904184.94415522 16410.95750945
0.12100001 895078.09174099 24569.89477573
0.12200001 885984.73952043 22884.98689995
0.12300001 876907.40315273 22834.66985394
0.12400001 867846.62659736 19526.55001848
0.12500001 858804.46461840 19477.68617534
0.12600001 849783.34645757 17807.21086416
0.12700001 840782.74789519 17757.33247239
0.12800001 831803.45382292 19314.47710804
0.12900001 822848.40638219 19254.65361686
0.13000001 813917.75664904 15993.48467200
0.13100001 805012.39522005 19127.09541203
0.13200001 796135.22667824 20647.76807724
0.13300001 787287.19874573 17406.92078488
0.13400001 778467.15978863 18916.75287471
0.13500001 769678.93705280 17271.59616179
0.13600001 760921.23401605 17200.62530596
0.13700001 752197.14872747 21798.67439800
0.13800001 743505.64029825 15502.09333123
0.13900001 734851.68028442 24691.01762194
0.14000001 726232.06946242 15359.80899351
0.14100001 717650.14901950 15285.94889505
0.14200001 709105.11546111 16731.33598844
0.14300001 700601.82042426 16646.30003845
0.14400001 692134.33318682 15053.92245690
0.14500001 683711.64269902 17967.94281772
0.14600001 675328.19020968 22336.48094489
0.14700001 666990.91800512 19249.35880175
0.14800001 658694.57411027 16194.00686851
0.14900001 650442.47095965 21952.43443062
0.15000001 642236.45908633 17455.98778159
0.15100001 634076.81772747 18794.03776424
0.15200001 625964.74125330 15802.48063861
0.15300001 617900.60039770 17128.20545129
0.15400001 609882.95702946 14179.77942009
0.15500001 601916.28088110 15493.32580106
0.15600001 593997.68210281 18185.23989583
0.15700001 586133.65394447 19447.91555576
0.15800001 578316.12441377 20689.26032741
0.15900001 570553.82368553 16431.95089774
0.16000001 562841.52319941 14951.88576956
0.16100001 555185.72001088 18887.41908634
0.16200001 547581.49207487 16066.04173589
0.16300001 540032.80267696 15941.76908760
0.16400001 532538.79662315 14498.36942253
0.16500001 525100.60628937 16997.50742806
0.16600001 517718.32056250 15562.61345087
0.16700001 510391.88956019 12861.87622419
0.16800001 503121.36319680 15304.95259109
0.16900001 495910.49066948 16439.43354193
0.17000001 488756.75423844 12536.61133819
0.17100001 481661.11963596 18640.28621013
0.17200001 474624.51691052 13548.15747499
0.17300001 467646.95482476 18308.37914599
0.17400001 460729.36841995 16931.80508906
0.17500001 453871.02331874 13180.41513966
0.17600001 447070.87598234 16617.62524510
0.17700001 440333.95754005 15283.99238809
0.17800001 433656.12410682 15136.76772689
0.17900001 427039.52577285 18448.10838476
0.18000001 420484.66455869 14841.00693661
0.18100001 413992.33231260 11301.99120600
0.18200001 407558.84299777 12306.23984564
0.18300001 401189.55445932 15501.96511661
0.18400001 394880.95012141 14245.33094859
0.18500001 388635.40429741 18432.97809664
0.18600001 382452.02272918 15018.89164212
0.18700001 376330.34834697 14857.52285468
0.18800001 370271.36824697 11546.91316433
0.18900001 364276.67834489 12458.26298802
0.19000001 358340.64913556 11293.10609109
0.19100001 352472.51047661 11166.32965951
0.19200001 346663.30907865 15053.85490806
0.19300001 340919.45288463 11904.90785727
0.19400001 335237.50163845 16669.68555668
0.19500001 329619.04621387 12598.04054162
0.19600001 324062.16788871 11491.24501637
0.19700001 318569.00976827 10407.65004097
0.19800001 313138.47670470 12151.33916278
0.19900001 307771.57707463 10156.46252346
0.20000001 302465.40762274 10031.26571790
0.20100001 297223.61683528 10807.05121890
0.20200001 292043.21684791 13339.07455998
0.20300001 286925.80878670 8779.93016385
0.20400001 281870.51888461 11267.77452499
0.20500001 276876.62242903 9411.03684119
0.20600001 271945.37440149 14354.63726630
0.20700001 267075.68082394 9166.03779915
0.20800001 262267.65978688 13977.55558906
0.20900001 257523.01264810 11356.76539463
0.21000001 252837.32340833 12803.68266266
0.21100001 248212.84364534 9471.80256127
0.21200001 243649.14929678 10898.42696326
0.21300001 239146.04791855 7676.58850110
0.21400001 234704.33065813 9839.97952804
0.21500001 230323.05414827 9701.20749937
0.21600001 226000.00645134 8827.56066934
0.21700001 221737.60557575 7975.90204966
0.21800001 217534.42052677 7860.60665739
0.21900001 213389.04080148 7041.83867940
0.22000001 209302.36257475 9019.88574164
0.22100001 205276.22172589 7519.26835736
0.22200001 201307.23190701 7407.09994826
0.22300001 197395.53172775 7958.98821561
0.22400001 193540.06687808 6531.97756601
0.22500001 189744.78951930 10291.75787020
0.22600001 186004.05006517 8233.46966548
0.22700001 182321.01907523 6235.37914724
0.22800001 178693.26547586 6751.92535530
0.22900001 175120.74943950 9666.66582621
0.23000001 171603.66526913 5946.06728278
0.23100001 168143.33194291 8191.94351968
0.23200001 164735.35006434 8060.50105986
0.23300001 161382.76275401 6797.44228868
0.23400001 158083.76999342 9473.17036489
0.23500001 154837.08443069 8769.97287694
0.23600001 151644.05871871 6469.13585091
0.23700001 148503.57835602 6361.89359768
0.23800001 145414.95692584 5734.43909760
0.23900001 142378.35315458 7175.86933841
0.24000001 139392.50040635 6550.75086645
0.24100001 136458.87495572 4953.45739520
0.24200001 133574.80072987 5355.68188860
0.24300001 130740.84387523 5263.62662340
0.24400001 127955.69259412 5172.60911780
0.24500001 125220.12141316 5082.68496859
0.24600001 122533.51981352 5447.84054862
0.24700001 119895.32698165 4906.11701218
0.24800001 117303.94954675 6133.82381197
0.24900001 114759.98992929 4733.84980853
0.25000001 112263.25488385 5917.39644487
0.25100001 109812.09032608 4565.98693177
0.25200001 107407.95984907 4891.35872294
0.25300001 105049.52917445 4802.86470108
0.25400001 102734.89952654 4322.57110209
0.25500001 100465.25213876 3857.86586465
0.25600001 98239.78388946  4923.28700255
0.25700001 96057.67066450  4460.91843672
0.25800001 93918.47531666  5837.97270190
0.25900001 91822.44150135  3939.18292679
0.26000001 89768.90658323  5271.67928853
0.26100001 87754.96728594  4483.40149078
0.26200001 85784.77851607  5076.31450888
0.26300001 83853.73157807  3320.60792761
0.26400001 81963.05119556  3909.63772703
0.26500001 80112.99309350  3516.15943325
0.26600001 78301.11286474  3449.55569049
0.26700001 76529.27939500  3076.47717726
0.26800001 74795.47905873  3621.59726740
0.26900001 73098.97454405  4144.71205278
0.27000001 71440.65715295  3775.28170590
0.27100001 69818.94081342  3418.33550399
0.27200001 68234.28535430  2794.19411749
0.27300001 66684.98593289  3014.82835670
0.27400001 65170.23117245  3763.58102832
0.27500001 63692.71971589  3164.25446523
0.27600001 62247.79728951  2845.03570976
0.27700001 60838.82322299  3044.37485816
0.27800001 59462.12875038  3981.58432956
0.27900001 58119.67234102  3905.64216616
0.28000001 56809.15046903  2633.95638616
0.28100001 55531.15806282  2818.76171668
0.28200001 54285.39910314  3456.62295149
0.28300001 53070.93674168  2939.06861586
0.28400001 51887.60900534  2440.01492896
0.28500001 50734.92544051  3700.09828751
0.28600001 49611.52641159  2776.50920704
0.28700001 48518.35810499  2724.79112015
0.28800001 47453.68498183  2262.82907547
0.28900001 46418.99462344  2019.22636170
0.29000001 45411.55218688  2378.65721614
0.29100001 44433.11566478  2530.02172571
0.29200001 43481.28430476  2866.50380348
0.29300001 42556.64128902  2064.42276665
0.29400001 41658.37795437  2212.05997409
0.29500001 40787.59171900  2173.16298966
0.29600001 39941.03830641  2491.12267709
0.29700001 39119.91356608  2273.25828494
0.29800001 38324.20912035  2062.60903250
0.29900001 37553.06631772  2703.82090287
0.30000001 36805.62272570  1994.12873368
0.30100001 36082.82141601  1798.00707628
0.30200001 35382.06712787  1608.11502709
0.30300001 34704.92863657  2215.56274905
0.30400001 34050.82851953  2180.95566993
0.30500001 33417.63407166  1994.03031946
0.30600001 32806.54580168  1812.88980683
0.30700001 32217.32893799  1786.12880088
0.30800001 31648.60305252  1760.29538512
0.30900001 31100.54823840  1880.02823002
0.31000001 30573.53912927  2139.38350186
0.31100001 30064.52977602  1969.82808419
0.31200001 29576.38801683  1666.33377976
0.31300001 29106.47535670  1370.91505421
0.31400001 28656.74225425  1895.64358987
0.31500001 28224.70024783  1471.63594060
0.31600002 27810.36871762  1454.62140465
0.31700002 27413.55912191  1699.91488164
0.31800002 27034.43604317  1811.03695628
0.31900002 26672.54722469  1920.42349111
0.32000002 26326.79830094  1267.63539821
0.32100002 25997.88135429  1381.26750176
0.32200002 25685.17573905  1244.44682348
0.32300002 25387.37478816  1357.20912044
0.32400002 25105.21849411  1346.26740549
0.32500002 24837.55935879  1700.37939422
0.32600002 24585.29315087  1326.49955477
0.32700002 24346.94116669  1796.80434318
0.32800002 24123.53236609  2023.84384369
0.32900002 23912.54080814  1420.40499126
0.33000002 23716.60064689  1295.28220567
0.33100002 23531.55836297  1757.80749295
0.33200002 23361.55151008  1400.29146382
0.33300002 23203.05101149  1394.96749287
0.33400002 23057.39389101  1158.63409789
0.33500002 22923.21008668  1270.86282739
0.33600002 22800.80557388  1498.35500924
0.33700002 22689.01750134  1380.39989015
0.33800002 22589.73247294  1493.29433584
0.33900002 22500.00297696  1262.25022678
0.34000002 22421.66743882  1490.92884695
0.34100002 22353.36614632  1605.41883266
0.34200002 22296.07521853  1376.55974918
0.34300002 22247.18527946  1262.75029626
0.34400002 22208.53386918  1379.15001859
0.34500002 22178.83919040  1381.29817020
0.34600002 22159.42937449  1384.07802428
0.34700002 22146.64022659  1156.05467458
0.34800002 22144.02689620  1391.08783550
0.34900002 22149.35070539  1395.40916053
0.35000002 22162.60882967  1283.54755116
0.35100002 22183.92717624  1288.44255142
0.35200002 22212.04276648  1176.12772019
0.35300002 22247.87607251  1535.77095802
0.35400002 22291.35306176  1187.01460676
0.35500002 22341.49035161  1431.64276954
0.35600002 22397.79881723  1439.28262017
0.35700002 22460.80517482  1688.60341302
0.35800002 22530.59005500  1334.59956512
0.35900002 22606.06190624  1342.80014083
0.36000002 22688.10048899  1474.27283960
0.36100002 22774.87686101  1607.67863377
0.36200002 22868.28659915  1618.73174359
0.36300002 22965.23518311  1504.68228047
0.36400002 23068.04735323  1515.57078290
0.36500002 23175.39185521  1654.02779505
0.36600002 23287.90046341  1794.79857373
0.36700002 23404.43851012  2196.27261382
0.36800002 23526.66766405  1823.08156364
0.36900002 23652.22831068  1575.23848011
0.37000002 23780.67109310  1323.39440902
0.37100002 23913.62121436  1467.81813967
0.37200002 24050.47032304  1480.18626615
0.37300002 24190.11648400  1764.18527875
0.37400002 24334.16248257  2190.07472718
0.37500002 24480.21722156  1794.88961171
0.37600002 24630.22717965  1671.40729559
0.37700002 24781.96812533  1405.13765927
0.37800002 24937.21139595  1984.75274903
0.37900002 25094.70249101  1573.43792072
0.38000002 25254.69982646  2164.95924518
0.38100002 25416.43487843  2184.54268129
0.38200002 25580.33330800  1616.54923998
0.38300002 25746.16618129  2076.17093921
0.38400002 25914.23858032  1646.20208380
0.38500002 26082.80326300  1963.25269461
0.38600002 26254.19820410  1828.86753354
0.38700002 26425.94901401  2153.18642767
0.38800002 26598.96654150  1707.25474835
0.38900002 26773.15128615  2192.72119422
0.39000002 26949.10928901  1896.67840162
0.39100002 27124.99945202  2392.42506501
0.39200002 27302.12846316  1770.40660407
0.39300002 27479.58382301  1948.85217706
0.39400002 27658.34405531  2294.25974808
0.39500002 27836.70653696  2149.55058062
0.39600002 28015.29055236  1835.14169458
0.39700002 28193.75321969  1851.48386166
0.39800002 28373.27117121  2547.21054008
0.39900002 28551.99442296  1884.43172120
0.40000002 28730.61937741  2937.84962363
0.40100002 28908.70886187  2440.47331775
0.40200002 29087.69050629  2813.36155906
0.40300002 29265.16053124  2482.85633711
0.40400002 29442.03666591  3040.62648074
0.40500002 29618.54436223  1984.14638084
0.40600002 29794.50217521  2364.64077717
0.40700002 29969.57702953  2934.62112178
0.40800002 30144.04238063  2034.27079644
0.40900002 30316.58494565  2237.36407500
0.41000002 30489.06523751  2443.54624924
0.41100002 30660.11187272  2273.75400422
0.41200002 30829.37861368  2291.85611474
0.41300002 30997.77482615  1924.96190791
0.41400002 31164.73436062  2522.00624763
0.41500002 31330.72254705  2541.54833344
0.41600002 31493.94150911  2363.93536169
0.41700002 31656.50695433  2977.29462013
0.41800002 31818.27514589  2399.73442521
0.41900002 31976.33684606  3021.76397514
0.42000002 32133.39383087  3043.83587486
0.42100002 32289.24249867  2657.08189112
0.42200002 32443.10464685  2676.06961360
0.42300002 32594.30045398  2072.99760710
0.42400002 32743.75291363  2296.15578187
0.42500002 32891.47779052  2311.94208345
0.42600002 33035.87940814  2962.32744690
0.42700002 33179.27891929  2130.10980756
0.42800002 33319.94848401  2787.38042251
0.42900002 33459.03146175  2589.72915786
0.43000002 33595.73113358  2606.35694485
0.43100002 33728.67140867  2841.30341411
0.43200002 33860.21714082  3078.90969052
0.43300002 33988.98269036  2655.21945360
0.43400002 34115.55498208  2226.04006807
0.43500002 34239.29395143  2463.17492359
0.43600002 34361.29400282  3378.57439293
0.43700002 34479.69934990  4757.16434474
0.43800002 34594.91479037  3644.92039504
0.43900002 34708.47306636  3207.06306331
0.44000002 34818.54892155  2303.24712031
0.44100002 34926.76276064  3010.33782500
0.44200002 35031.86553661  2793.44109027
0.44300002 35134.34570168  2807.93704155
0.44400002 35233.54960822  2587.02350258
0.44500002 35329.07435184  2599.86670476
0.44600002 35422.57658161  2375.08387235
0.44700002 35513.38733164  3102.44966432
0.44800002 35600.38495996  3116.99185289
0.44900002 35685.65620299  2649.66009864
0.45000002 35767.60417469  2419.67853709
0.45100002 35845.47327085  2673.35552324
0.45200002 35921.21770341  3661.27028794
0.45300002 35993.45547346  2696.26987730
0.45400002 36063.17237038  3199.70512021
0.45500002 36129.80202835  3954.04572138
0.45600002 36192.98564715  3225.33806881
0.45700002 36253.22505532  2490.59667934
0.45800002 36309.70066206  2499.92300906
0.45900002 36363.47683504  3512.71202875
0.46000002 36414.93324131  2518.09275298
0.46100002 36462.03155148  3537.54646879
0.46200002 36506.76533727  2788.93447012
0.46300002 36547.91752887  2798.10869863
0.46400002 36585.57947100  3572.58200467
0.46500002 36621.04784372  3071.77363872
0.46600002 36652.56102541  2824.26322367
0.46700002 36680.89531021  2832.49887010
0.46800002 36706.85658054  2582.32748283
0.46900002 36728.77656920  3107.25464503
0.47000002 36747.46403605  3115.45014864
0.47100002 36763.42112272  2863.13537274
0.47200002 36775.94669598  3913.88031263
0.47300002 36785.92144818  3923.21870840
0.47400002 36791.38448858  3932.07940359
0.47500002 36794.83112724  2627.15106701
0.47600002 36795.44953697  2632.71453916
0.47700002 36791.78996809  3429.36290547
