# SAXS profile: number of points = 501, q_min = 0, q_max = 0.5, delta_q = 0.001
#    q    intensity    error
0.00000000 1664650.74656091 399.51617917
0.00100000 1664582.20422012 499.37467313
0.00200000 1664376.51545075 1048.55723794
0.00300000 1664033.86836508 1198.10442790
0.00400000 1663554.11125821 1372.43219394
0.00500000 1662937.71084059 1496.64399900
0.00600000 1662184.37593893 1919.82303237
0.00700000 1661294.81487803 2192.90924678
0.00800000 1660268.41707251 2913.77119498
0.00900000 1659106.59035502 2737.52599111
0.01000000 1657808.43630889 3282.46084563
0.01100000 1656375.24008108 4472.21334294
0.01200000 1654806.47872139 4194.93460748
0.01300000 1653103.49457930 3818.66924090
0.01400000 1651265.55113503 3715.34765476
0.01500000 1649294.39043605 3958.30671331
0.01600000 1647188.97113605 5460.43168342
0.01700000 1644951.31782982 6217.91626032
0.01800000 1642580.98412550 6553.89842157
0.01900000 1640078.75123060 5904.28377085
0.02000000 1637445.24308675 5673.74802395
0.02100000 1634682.07641863 7552.23153546
0.02200000 1631787.46501438 6192.63371108
0.02300000 1628764.18638435 6449.90647167
0.02400000 1625612.33800218 7315.25585457
0.02500000 1622333.04170242 6327.09915160
0.02600000 1618926.57926538 7867.98353510
0.02700000 1615394.03930551 7463.12080341
0.02800000 1611735.20958284 9114.36302817
0.02900000 1607952.61556711 7959.36581251
0.03000000 1604046.76222887 8950.58134465
0.03100000 1600017.64120597 9984.11054053
0.03200000 1595866.49250663 8689.49345192
0.03300000 1591595.83562791 10552.28087668
0.03400000 1587203.91894379 11665.94934251
0.03500000 1582693.98105917 9401.20268162
0.03600000 1578065.78275372 10509.91859884
0.03700000 1573321.15295433 9864.72408524
0.03800000 1568461.28397062 12845.69851021
0.03900000 1563487.64474813 9380.92630292
0.04000000 1558398.94425829 17251.47711236
0.04100000 1553199.27820115 12720.70267828
0.04200000 1547888.90956588 15974.21428781
0.04300000 1542467.78762453 14252.40301922
0.04400000 1536939.82758152 11411.77874978
0.04500000 1531304.39148832 14792.40110910
0.04600000 1525561.88557074 11830.73297257
0.04700000 1519715.73481392 14224.53993941
0.04800000 1513765.83615555 11126.17941342
0.04900000 1507715.16879926 13569.43715082
0.05000000 1501562.95661239 17230.43572948
0.05100000 1495312.70308502 12829.78359013
0.05200000 1488962.74107372 11837.25434317
0.05300000 1482518.43278063 16811.75981146
0.05400000 1475977.91927423 17047.54576261
0.05500000 1469345.33815526 13576.75155790
0.05600000 1462619.22537831 15006.47395265
0.05700000 1455804.45947186 13932.04932747
0.05800000 1448899.66106772 15387.31511901
0.05900000 1441906.84468541 12977.16220828
0.06000000 1434828.81115559 14441.55265897
0.06100000 1427667.10982943 17260.49616444
0.06200000 1420422.19313253 20134.48552881
0.06300000 1413097.02988790 16278.87854543
0.06400000 1405689.72080458 19187.66558633
0.06500000 1398207.05682600 13842.25051009
0.06600000 1390646.25275725 16771.19459295
0.06700000 1383010.56419406 18338.72093945
0.06800000 1375302.91374018 14234.38582351
0.06900000 1367523.98392216 14359.00250346
0.07000000 1359673.45948573 18824.67992811
0.07100000 1351756.12221811 18978.65684486
0.07200000 1343770.86869568 17657.15004184
0.07300000 1335722.58263681 14826.52136197
0.07400000 1327610.13261003 26884.10644525
0.07500000 1319436.41805487 16545.73345795
0.07600000 1311201.53361443 18173.25410787
0.07700000 1302910.59435163 27439.29840363
0.07800000 1294561.94281935 18408.67169019
0.07900000 1286157.98619740 23150.84483741
0.08000000 1277702.42445574 20181.31074101
0.08100000 1269195.13024003 18733.32100128
0.08200000 1260637.57987490 15694.93860593
0.08300000 1252032.31245175 15775.60787727
0.08400000 1243380.24591996 19023.71865552
0.08500000 1234684.95543474 15927.43667282
0.08600000 1225946.30837318 23997.90011314
0.08700000 1217167.02647006 17673.26605424
0.08800000 1208346.35638905 20970.85200000
0.08900000 1199490.33724904 17812.43234479
0.09000000 1190597.33303008 19501.98523115
0.09100000 1181670.33971342 21199.16689042
0.09200000 1172710.20297572 19631.16972022
0.09300000 1163720.23779999 18049.30173645
0.09400000 1154698.96410003 19745.35321409
0.09500000 1145650.66061408 18147.10731709
0.09600000 1136576.50007840 18190.90773887
0.09700000 1127478.93930827 19888.72942442
0.09800000 1118359.28458978 23250.69061981
0.09900000 1109219.34134520 24957.43635383
0.10000000 1100058.71820438 18332.47940100
0.10100000 1090879.89738533 21697.60217947
0.10200000 1081685.89538974 16712.04786984
0.10300000 1072476.99608231 18403.70611850
0.10400000 1063256.32068911 25119.43175803
0.10500000 1054025.91687931 18434.91415357
0.10600001 1044782.59285432 20122.51368521
0.10700001 1035534.08131806 20130.78348813
0.10800001 1026277.48532016 23491.49274453
0.10900001 1017016.84304018 21815.01230995
0.11000001 1007752.47680981 21812.80338727
0.11100001 998486.60954437 20129.49099598
0.11200001 989221.40139766 18444.03389735
0.11300001 979955.97579985 16757.24797512
0.11400001 970694.21817448 16744.47605191
0.11500001 961437.39678378 18401.91264095
0.11600001 952185.62021432 26737.37347472
0.11700001 942942.30157857 23366.11133354
0.11800001 933705.33807538 16666.64106962
0.11900001 924479.50719136 23296.88467854
0.12000001 915264.70588903 16612.05519440
0.12100001 906064.15399376 16580.97479918
0.12200001 896876.81116072 24821.06691823
0.12300001 887705.53660231 18162.45613460
0.12400001 878550.55618960 23061.95318660
0.12500001 869414.09402494 21361.50529676
0.12600001 860298.55237213 21305.29465347
0.12700001 851203.62053120 22880.35439815
0.12800001 842129.65934430 22813.29354681
0.12900001 833080.25080255 19494.07878758
0.13000001 824055.07366482 16192.68296075
0.13100001 815055.13750233 17751.90173158
0.13200001 806083.37503914 17689.50049912
0.13300001 797140.76519709 20829.28917655
0.13400001 788226.18879963 25538.52972114
0.13500001 779343.27831748 28617.48652908
0.13600001 770491.12593489 17416.95272298
0.13700001 761672.46007292 18919.94480035
0.13800001 752886.62397681 15697.68685015
0.13900001 744138.34297625 20314.97772127
0.14000001 735424.51244894 20220.49792339
0.14100001 726748.55361296 21671.64289084
0.14200001 718109.53727784 20024.48539145
0.14300001 709512.37631864 16858.01485648
0.14400001 700951.04397600 15245.68592562
0.14500001 692434.67359867 21230.04809400
0.14600001 683957.89776452 15081.27235716
0.14700001 675527.18532998 20995.38591055
0.14800001 667137.81792455 16401.58402748
0.14900001 658792.72504842 16305.12071424
0.15000001 650493.98953551 19153.79642560
0.15100001 642241.61963710 19036.04250426
0.15200001 634037.46126358 18916.50854941
0.15300001 625881.15375783 15903.64086746
0.15400001 617771.62013426 20108.46718431
0.15500001 609713.27815900 18547.47879691
0.15600001 601703.56052636 17004.14342298
0.15700001 593748.36856275 14071.83699908
0.15800001 585839.96422347 13972.28380620
0.15900001 577987.06399378 13871.69019060
0.16000001 570184.75403401 15146.95870589
0.16100001 562439.16054435 16400.72669566
0.16200001 554745.34503341 16276.22919162
0.16300001 547107.31767390 16150.60878017
0.16400001 539524.47322724 17359.20074561
0.16500001 531997.82406274 14571.42108901
0.16600001 524527.18878363 19709.11004907
0.16700001 517113.00116423 19546.87236691
0.16800001 509755.02250928 23260.12277536
0.16900001 502457.16074870 19218.98730612
0.17000001 495216.86522798 17783.23847006
0.17100001 488034.97508673 17627.82413254
0.17200001 480912.44426903 16223.58207354
0.17300001 473849.45383803 12367.47132922
0.17400001 466846.95894581 15931.15322639
0.17500001 459904.06712128 13355.61473996
0.17600001 453019.81238344 15635.97956289
0.17700001 446199.08048336 11913.51601159
0.17800001 439438.23565853 11798.91718472
0.17900001 432738.90216317 14020.74109234
0.18000001 426101.90054712 20823.60086334
0.18100001 419527.69764842 12598.41735549
0.18200001 413012.97709168 14738.36878373
0.18300001 406563.01596832 12343.25374789
0.18400001 400173.99719400 13325.79473608
0.18500001 393848.78112549 17581.41042002
0.18600001 387586.13170762 14133.32896043
0.18700001 381385.82363553 17208.12917543
0.18800001 375248.55932812 15957.44573936
0.18900001 369176.26771209 10521.52412691
0.19000001 363163.21160260 13526.01445523
0.19100001 357218.37182449 12345.46751358
0.19200001 351333.47575295 15256.65690547
0.19300001 345514.18215793 11059.90949348
0.19400001 339757.34185556 14906.85407832
0.19500001 334064.60319577 15714.39967691
0.19600001 328434.09020138 11646.27338890
0.19700001 322867.69086834 13424.83922073
0.19800001 317364.78000803 10420.67304403
0.19900001 311925.96679316 11229.33533525
0.20000001 306548.47772979 13863.65556054
0.20100001 301235.90110543 9127.44823488
0.20200001 295985.40456461 10815.30719396
0.20300001 290798.58593558 8898.43715021
0.20400001 285674.49973407 11419.83866664
0.20500001 280612.40240884 11272.20073756
0.20600001 275613.42548084 9413.57699226
0.20700001 270676.81330461 15201.21055373
0.20800001 265802.32781751 9166.19370807
0.20900001 260992.07157442 9043.37570755
0.21000001 256241.40153525 9732.04889037
0.21100001 251552.41837341 9599.24073892
0.21200001 246925.07109166 7889.25639434
0.21300001 242358.85252672 10113.63539407
0.21400001 237854.72102371 10739.14116193
0.21500001 233411.61987045 8318.79052547
0.21600001 229027.31950276 8200.32356250
0.21700001 224704.49809409 7347.83743508
0.21800001 220441.44428385 7965.65196582
0.21900001 216236.96567845 9276.56626622
0.22000001 212091.82636288 8437.01325164
0.22100001 208007.96779970 9697.33191735
0.22200001 203981.86221862 8187.83233661
0.22300001 200013.77167245 9408.64826436
0.22400001 196102.43245328 9927.68611239
0.22500001 192251.98883998 7169.07700285
0.22600001 188456.98319158 8342.04875546
0.22700001 184720.18781804 9476.14608318
0.22800001 181039.37358579 6840.57305443
0.22900001 177414.52518327 10405.36239408
0.23000001 173845.70807634 8433.25569761
0.23100001 170334.44581744 7705.93069322
0.23200001 166876.05741430 5832.31848246
0.23300001 163473.90913423 5737.93448198
0.23400001 160125.92235058 6773.32683578
0.23500001 156830.93625299 6106.99694653
0.23600001 153590.33960603 7098.17788062
0.23700001 150402.97208815 6443.26362901
0.23800001 147268.21112163 5807.52218027
0.23900001 144186.07985008 5709.76903213
0.24000001 141155.41619125 7143.87595135
0.24100001 138177.55418359 6520.59909036
0.24200001 135250.06012703 5422.85141731
0.24300001 132373.35286360 6298.32442718
0.24400001 129546.03346385 6189.06204150
0.24500001 126769.02568186 5145.55499583
0.24600001 124041.49059217 5514.88493261
0.24700001 121363.33474387 4966.18789265
0.24800001 118732.54816918 4878.12697230
0.24900001 116149.86751082 5226.74428525
0.25000001 113615.04798795 5133.12811093
0.25100001 111126.56792302 5460.75980608
0.25200001 108685.68801668 4537.08426090
0.25300001 106291.11933982 4859.63020613
0.25400001 103941.17239297 5566.05004498
0.25500001 101636.69204548 5073.70390696
0.25600001 99377.18432904  4980.28782828
0.25700001 97161.66366029  4888.20353003
0.25800001 94989.72160473  4059.38594484
0.25900001 92861.53942622  4345.92025077
0.26000001 90776.44267684  3909.28768885
0.26100001 88731.64004775  3835.86898076
0.26200001 86731.35062325  5474.48311037
0.26300001 84770.80993530  3692.61665551
0.26400001 82851.04702067  4939.99391236
0.26500001 80972.70530266  4200.05442279
0.26600001 79133.20918250  3803.14221327
0.26700001 77334.24879658  3108.83694873
0.26800001 75573.99998430  3659.29325240
0.26900001 73851.73378662  3290.09489589
0.27000001 72168.20202208  3227.00130613
0.27100001 70521.92934178  4891.40125062
0.27200001 68913.19421372  3950.79361124
0.27300001 67340.54443077  3044.46615779
0.27400001 65803.01412496  4071.56169167
0.27500001 64303.29390799  2928.37214316
0.27600001 62836.74105396  3916.30007153
0.27700001 61406.59033096  2816.72043179
0.27800001 60009.52574845  3515.95828000
0.27900001 58647.14131125  2709.49805681
0.28000001 57317.33011593  3140.70325235
0.28100001 56020.59648271  2606.63847771
0.28200001 54756.63586918  3021.74509346
0.28300001 53524.48205744  2508.15734792
0.28400001 52323.97946917  3131.59031945
0.28500001 51154.75553054  2852.90085097
0.28600001 50015.35094844  3014.42534434
0.28700001 48906.66176351  2112.76788819
0.28800001 47827.03758909  2902.62304867
0.28900001 46778.02462623  2034.84416756
0.29000001 45756.56637008  2596.45648157
0.29100001 44764.67995936  2156.76238253
0.29200001 43800.03583632  1925.01166613
0.29300001 42862.93997453  2268.30689082
0.29400001 41952.76266650  2598.97377022
0.29500001 41070.47181926  2005.88193860
0.29600001 40213.02407405  1970.63933803
0.29700001 39381.36607912  1760.34714707
0.29800001 38575.66939559  1903.13073972
0.29900001 37794.98870391  2211.00694385
0.30000001 37038.54541861  2173.97752626
0.30100001 36307.17045622  2138.12936939
0.30200001 35598.20356838  2265.11380029
0.30300001 34913.26532865  1910.45396923
0.30400001 34251.93052207  2037.13366424
0.30500001 33611.92960539  1851.34517031
0.30600001 32994.29960407  1671.32632557
0.30700001 32399.07610109  1945.88860276
0.30800001 31824.69411876  1622.58210646
0.30900001 31271.47932308  2326.59817179
0.31000001 30739.58197206  1434.00156689
0.31100001 30226.22688627  1414.58748525
0.31200001 29733.92131219  1675.20920604
0.31300001 29260.49031868  1653.80299111
0.31400001 28807.47979332  1633.38418162
0.31500001 28372.41648468  1613.82312606
0.31600002 27955.60307446  1329.28898913
0.31700002 27556.56199829  1840.22729738
0.31800002 27175.61042688  1560.42362460
0.31900002 26812.21271124  1544.38352529
0.32000002 26465.30427823  1401.73490747
0.32100002 26135.61332520  1767.29025673
0.32200002 25822.28865924  1251.08994478
0.32300002 25524.31665777  1364.53003314
0.32400002 25242.16614567  1353.61122366
0.32500002 24974.92377125  1587.65597932
0.32600002 24723.35270726  1455.21660926
0.32700002 24486.01509194  1686.59679940
0.32800002 24263.84589326  1197.42085153
0.32900002 24054.40696424  1428.83184134
0.33000002 23860.33000881  1658.53161745
0.33100002 23677.26469766  1768.69175667
0.33200002 23509.67993232  2231.18627963
0.33300002 23353.66771174  1404.02256932
0.33400002 23210.85777236  1749.51848744
0.33500002 23079.74683172  1279.54122494
0.33600002 22960.58556063  1857.05224809
0.33700002 22852.34679193  1506.19824838
0.33800002 22756.81753344  1388.62107165
0.33900002 22671.09378726  1271.84842170
0.34000002 22596.77636595  1502.57271561
0.34100002 22532.88562836  1387.12450497
0.34200002 22480.16838855  1156.60471837
0.34300002 22435.98090347  1620.77533723
0.34400002 22402.28208103  1391.18178312
0.34500002 22377.70027590  1277.54296926
0.34600002 22363.52652643  1280.42377191
0.34700002 22356.15353094  1283.69039654
0.34800002 22359.13694151  1638.70122405
0.34900002 22370.14096515  1174.43245629
0.35000002 22389.30777254  1650.31595408
0.35100002 22416.69859196  1420.32209006
0.35200002 22450.88880066  1307.65208013
0.35300002 22493.06649821  1313.82007639
0.35400002 22542.87423229  1800.61216459
0.35500002 22599.50323117  1810.22029456
0.35600002 22662.38018893  1456.28461992
0.35700002 22732.20253464  1464.86320072
0.35800002 22808.75933826  1719.55244796
0.35900002 22891.09064523  1483.34274407
0.36000002 22980.09220892  1742.12087288
0.36100002 23073.98483330  1628.79266653
0.36200002 23174.50182874  1766.59235808
0.36300002 23278.76634676  2033.63312438
0.36400002 23388.88489201  1408.59565934
0.36500002 23503.48436649  2451.64857040
0.36600002 23623.38582579  1430.51419644
0.36700002 23747.40365174  1441.94241804
0.36800002 23877.13773176  1585.91956327
0.36900002 24010.16190883  1599.07685887
0.37000002 24146.17710330  1478.10830140
0.37100002 24286.63233143  1490.71356312
0.37200002 24431.09338310  1503.61171349
0.37300002 24578.38917245  1654.61723747
0.37400002 24730.04876245  1391.06530878
0.37500002 24883.72405198  1543.78631332
0.37600002 25041.43298740  1699.31172302
0.37700002 25200.79144530  1714.66193116
0.37800002 25363.56848513  1730.30272402
0.37900002 25528.72039420  1746.16455768
0.38000002 25696.30134220  2055.96116779
0.38100002 25865.61071794  1926.72943365
0.38200002 26037.10457892  1944.58124760
0.38300002 26210.48531111  1811.66883053
0.38400002 26386.02646691  1523.79310065
0.38500002 26562.11963449  2460.71487951
0.38600002 26740.81911483  1862.76554779
0.38700002 26919.93890744  1566.74051864
0.38800002 27100.29102646  1897.56246757
0.38900002 27281.71800421  2234.37281040
0.39000002 27464.85239739  1771.89503636
0.39100002 27647.86311965  2113.40275699
0.39200002 27832.04006613  1968.83860755
0.39300002 28016.46670552  2152.50523896
0.39400002 28202.23127836  2506.47342361
0.39500002 28387.39861257  2360.69618047
0.39600002 28572.76402327  1871.65899602
0.39700002 28757.86595284  1716.84467873
0.39800002 28944.04301964  2078.76126816
0.39900002 29129.31504519  2097.31078262
0.40000002 29314.23992563  2292.22709959
0.40100002 29498.69544791  1778.77141979
0.40200002 29683.87937019  2332.70777083
0.40300002 29867.42004705  1990.96231467
0.40400002 30050.36601061  2190.67178597
0.40500002 30232.70427959  2209.40613343
0.40600002 30414.52870377  2228.16847841
0.40700002 30595.25634261  2059.67275457
0.40800002 30775.22364644  2265.67207220
0.40900002 30953.22428217  2093.98572191
0.41000002 31131.04268422  2686.92042139
0.41100002 31307.31635663  2321.75069102
0.41200002 31481.55980634  2340.33926689
0.41300002 31654.87964330  3145.22899039
0.41400002 31826.62220870  3169.93172219
0.41500002 31997.24377106  2595.61653770
0.41600002 32165.01830247  2011.92199015
0.41700002 32332.00170167  2432.65992330
0.41800002 32498.03395010  2246.75168360
0.41900002 32660.20165120  2674.87064198
0.42000002 32821.26776433  2694.46210479
0.42100002 32980.88717481  3340.30441135
0.42200002 33138.45090312  2733.42525227
0.42300002 33293.11342190  2752.67474816
0.42400002 33446.00460905  2345.40118435
0.42500002 33596.95374668  2576.21453537
0.42600002 33744.41606768  3241.99492733
0.42700002 33890.73601344  2828.52096172
0.42800002 34034.17191234  2409.10897297
0.42900002 34175.88173267  3086.08226670
0.43000002 34315.04893609  2440.31482073
0.43100002 34450.30974268  3125.33224796
0.43200002 34583.93145201  2695.47174510
0.43300002 34714.69232530  2711.91189296
0.43400002 34843.10604428  3182.91788798
0.43500002 34968.42716303  2515.62876932
0.43600002 35091.94173821  3220.38764593
0.43700002 35211.69396574  2544.74924350
0.43800002 35328.08975152  3024.26126650
0.43900002 35442.60052583  2573.13292012
0.44000002 35553.55623112  3057.42821299
0.44100002 35662.46450165  2600.86365936
0.44200002 35768.05346576  2852.14471852
0.44300002 35870.89067054  3344.60200462
0.44400002 35970.26284439  3121.31970624
0.44500002 36065.75270275  2895.35876419
0.44600002 36159.17650612  2666.92018960
0.44700002 36249.73326455  2679.58040990
0.44800002 36336.12525346  3181.40959734
0.44900002 36420.80906484  3687.60709258
0.45000002 36501.99886893  2963.23240861
0.45100002 36578.88841265  3720.07312787
0.45200002 36653.52052782  3237.78888927
0.45300002 36724.39146588  3001.11741282
0.45400002 36792.66702245  2762.20960762
0.45500002 36857.66215116  2773.17063168
0.45600002 36919.17689730  4049.29551401
0.45700002 36977.42853252  3556.48924481
0.45800002 37031.81856691  3314.53307792
0.45900002 37083.33911166  3070.50062397
0.46000002 37132.34644339  3594.78262956
0.46100002 37176.80978194  3091.62364799
0.46200002 37218.77136279  3618.78131112
0.46300002 37257.13985892  3111.71646850
0.46400002 37291.74940784  3121.31957337
0.46500002 37324.04737649  2869.84613880
0.46600002 37352.21957033  3924.78465737
0.46700002 37377.00956615  2886.25281550
0.46800002 37399.37084689  2894.15045016
0.46900002 37417.47165520  4220.69100275
0.47000002 37432.15656768  3173.49838422
0.47100002 37444.07944553  2916.14504543
0.47200002 37452.40015901  2922.97270895
0.47300002 37458.03376073  2929.59295928
0.47400002 37458.90591607  4003.42075953
0.47500002 37457.71476126  3209.37715286
0.47600002 37453.53699340  3751.72097845
0.47700002 37444.94117267  2684.80240934
