# SAXS profile: number of points = 501, q_min = 0, q_max = 0.5, delta_q = 0.001
#    q    intensity    error
0.00000000 1646666.22097350 419.89988635
0.00100000 1646598.37474411 592.77542899
0.00200000 1646394.77296008 1185.40427407
0.00300000 1646055.61117462 1777.74012340
0.00400000 1645580.72149431 1234.18558802
0.00500000 1644970.56344819 1776.56827884
0.00600000 1644224.90401165 2071.72346340
0.00700000 1643344.35969845 2563.61730767
0.00800000 1642328.41531067 3769.14387227
0.00900000 1641178.35404736 2707.94439994
0.01000000 1639893.40499588 3246.98908210
0.01100000 1638474.77871746 5308.65851418
0.01200000 1636921.91557493 4149.59723792
0.01300000 1635236.24825818 4120.79552736
0.01400000 1633416.98206417 5512.78255885
0.01500000 1631465.85911921 4307.07005986
0.01600000 1629381.81629162 5401.40096247
0.01700000 1627166.89890885 6590.02623620
0.01800000 1624820.71049532 6019.96100327
0.01900000 1622343.95682967 8273.95455317
0.02000000 1619737.21278764 5102.17245108
0.02100000 1617002.10222032 6936.93933304
0.02200000 1614136.91939170 6682.52714988
0.02300000 1611144.51023326 8120.16870119
0.02400000 1608024.72495847 6633.10229291
0.02500000 1604778.79990883 6884.50136603
0.02600000 1601407.02984507 7782.83852102
0.02700000 1597910.45892683 7382.34665836
0.02800000 1594288.83844602 10402.73514793
0.02900000 1590544.94514743 10736.17887269
0.03000000 1586678.85215818 9591.47410217
0.03100000 1582690.86274719 7596.91649074
0.03200000 1578581.90338168 7813.98078164
0.03300000 1574354.97634303 10437.97397435
0.03400000 1570007.84531944 11539.55819554
0.03500000 1565544.01283272 11835.51328356
0.03600000 1560963.06039436 10396.01446267
0.03700000 1556266.88141924 10644.86596121
0.03800000 1551456.84800432 9076.02298086
0.03900000 1546534.00425540 10207.12490078
0.04000000 1541497.31546609 9480.20892942
0.04100000 1536350.86315145 11614.81306396
0.04200000 1531094.75498597 12838.23011616
0.04300000 1525729.32002605 20139.62795918
0.04400000 1520257.91242912 12314.08966257
0.04500000 1514680.27429511 11496.42381608
0.04600000 1508996.77620285 13829.95609681
0.04700000 1503210.58892595 11905.42841799
0.04800000 1497321.71159017 13206.37811069
0.04900000 1491333.13337991 12303.49892308
0.05000000 1485244.08705530 15906.96491309
0.05100000 1479058.14239555 16151.31566735
0.05200000 1472773.45023884 11708.54947503
0.05300000 1466395.48575900 14253.36478604
0.05400000 1459922.14349610 14453.22989462
0.05500000 1453358.02313927 12208.20796387
0.05600000 1446701.13394470 13606.22479967
0.05700000 1439956.70761439 13780.38633512
0.05800000 1433123.12776576 12683.14027293
0.05900000 1426202.63353931 20537.31888218
0.06000000 1419197.62787641 15582.79068209
0.06100000 1412109.83880053 19698.93317183
0.06200000 1404939.66433830 17259.68458317
0.06300000 1397690.29500003 13417.82745935
0.06400000 1390359.82875737 14911.60986079
0.06500000 1382954.62934570 19167.75205936
0.06600000 1375472.13718348 16588.19475057
0.06700000 1367915.64848749 16743.28832106
0.06800000 1360287.99893595 21118.47217202
0.06900000 1352589.75801026 18462.85106125
0.07000000 1344820.86801384 20051.28008106
0.07100000 1336985.81899570 15883.39227361
0.07200000 1329083.68269516 14553.46700730
0.07300000 1321119.05186842 19063.74881170
0.07400000 1313091.26215530 14772.27739154
0.07500000 1305002.73048223 17852.43818978
0.07600000 1296853.53181495 17974.39079361
0.07700000 1288649.12579293 16584.91502660
0.07800000 1280387.83386125 18207.11585135
0.07900000 1272071.75832482 15264.86181588
0.08000000 1263704.49302069 19960.21340362
0.08100000 1255286.45186062 18528.02889876
0.08200000 1246818.24183725 17075.17662322
0.08300000 1238303.13372402 23403.93032578
0.08400000 1229741.87133023 17247.13055496
0.08500000 1221138.07386088 20478.48646001
0.08600000 1212490.97732099 17405.30879665
0.08700000 1203804.16844864 19068.25892363
0.08800000 1195076.07718857 15954.26637974
0.08900000 1186313.16145745 17616.75127510
0.09000000 1177514.04334518 16073.06744670
0.09100000 1168681.14275741 17740.58058053
0.09200000 1159815.51060553 17797.36984648
0.09300000 1150920.52483053 19473.57619524
0.09400000 1141994.40792825 17900.76318557
0.09500000 1133041.80106508 27736.86459378
0.09600000 1124063.52147072 21261.66250808
0.09700000 1115062.62759930 19669.70567558
0.09800000 1106039.48771032 18067.15588122
0.09900000 1096996.51544708 21391.43305710
0.10000000 1087932.90108486 16482.18422655
0.10100000 1078852.12514863 16506.43829110
0.10200000 1069755.72639760 18180.49942527
0.10300000 1060644.72079260 23164.48179178
0.10400000 1051522.08212607 18217.62092988
0.10500000 1042390.30107663 18231.40722361
0.10600001 1033245.50158904 26533.74572931
0.10700001 1024095.83849781 21567.45937368
0.10800001 1014938.02085794 19913.08490638
0.10900001 1005776.37792561 26552.49762695
0.11000001 996611.21088899 26549.72390777
0.11100001 987444.37596067 16589.06629704
0.11200001 978278.76926788 26530.92147154
0.11300001 969112.50189207 24857.73684385
0.11400001 959950.50611493 26494.63521626
0.11500001 950792.75849496 19852.55373219
0.11600001 941640.48735499 21483.52873070
0.11700001 932496.52485024 28058.82175417
0.11800001 923359.20861445 19778.35518005
0.11900001 914232.68125666 23038.66465283
0.12000001 905117.31290141 16427.88000299
0.12100001 896016.10752885 19676.51464826
0.12200001 886928.04431490 19636.58782624
0.12300001 877856.09067640 16328.12405587
0.12400001 868800.19693254 21177.00579804
0.12500001 859762.64114511 24374.27202499
0.12600001 850745.94196482 16206.71095815
0.12700001 841749.93662985 27474.71922638
0.12800001 832774.62599025 20948.44670407
0.12900001 823823.37183163 19277.46780945
0.13000001 814896.21434719 17613.98250335
0.13100001 805994.31473450 22342.16345760
0.13200001 797120.01257833 25444.07200094
0.13300001 788275.17381110 22182.06443677
0.13400001 779457.83442266 18940.82626945
0.13500001 770671.85716577 18866.04795292
0.13600001 761916.32948165 18788.85757093
0.13700001 753194.38943961 24945.79935452
0.13800001 744504.77883150 20179.80298182
0.13900001 735852.06343446 21634.05168520
0.14000001 727233.85483550 19995.29578169
0.14100001 718652.93475290 18368.76987861
0.14200001 710108.58041143 27417.29358283
0.14300001 701605.78461716 15154.68566254
0.14400001 693138.86787330 21106.07952231
0.14500001 684716.27673959 16494.81588475
0.14600001 676332.71547895 19387.07820378
0.14700001 667994.89860990 19278.33368337
0.14800001 659697.93649467 25065.22427966
0.14900001 651444.94617948 19054.76557477
0.15000001 643237.77408916 17483.20352465
0.15100001 635076.75381923 15927.72573734
0.15200001 626963.14877488 14388.80494335
0.15300001 618897.02655175 17155.82638558
0.15400001 610877.21133025 26985.50208399
0.15500001 602908.44442328 14108.05826531
0.15600001 594987.11522910 15413.14194743
0.15700001 587120.14168718 20872.12202208
0.15800001 579299.61559567 15197.92613248
0.15900001 571533.96217841 13716.81573972
0.16000001 563818.14843505 25870.79696211
0.16100001 556158.48042355 17569.04722591
0.16200001 548550.19403022 16094.46345260
0.16300001 540997.44766049 18631.95297700
0.16400001 533498.99272158 15844.92083186
0.16500001 526055.91141260 14408.67209384
0.16600001 518668.65362080 20788.24061860
0.16700001 511336.90470228 15462.82872827
0.16800001 504061.18677321 15333.54202564
0.16900001 496844.75683487 17737.35865653
0.17000001 489684.94231926 18840.62904538
0.17100001 482583.41128021 18675.97889845
0.17200001 475540.23004929 16042.35041828
0.17300001 468555.94138405 14675.17277718
0.17400001 461631.80963309 13329.61913266
0.17500001 454766.54343592 18008.75597057
0.17600001 447959.26376176 14271.98281750
0.17700001 441214.78688975 14136.52243962
0.17800001 434529.57290187 11667.11958348
0.17900001 427904.97796990 11553.43495090
0.18000001 421342.34826524 14871.27888447
0.18100001 414841.68631389 12457.69642846
0.18200001 408399.64538517 13452.68495446
0.18300001 402021.84064026 13314.96399100
0.18400001 395704.38750723 13176.95672648
0.18500001 389449.75637869 11952.21358791
0.18600001 383257.19100484 15050.51060180
0.18700001 377126.34021984 10634.96329665
0.18800001 371057.68121672 11571.43433545
0.18900001 365053.21387243 12484.82050431
0.19000001 359107.40718140 13374.95601242
0.19100001 353229.11219606 12207.59869431
0.19200001 347409.42767987 10057.50340656
0.19300001 341655.45687177 11930.60911771
0.19400001 335962.94728868 10809.60833981
0.19500001 330333.85065442 13596.54193544
0.19600001 324765.84862202 12475.88066438
0.19700001 319261.71648941 10430.28077062
0.19800001 313820.00300608 13114.53854540
0.19900001 308441.85582886 13879.88416826
0.20000001 303124.26385596 10967.03638462
0.20100001 297870.94147645 11733.13693929
0.20200001 292678.52844704 9803.26777367
0.20300001 287549.22690347 9678.90743504
0.20400001 282482.08324024 11292.22181126
0.20500001 277476.17032204 9431.41547504
0.20600001 272532.77995414 9308.35753932
0.20700001 267650.65756978 9185.77100200
0.20800001 262830.04638681 10711.63904684
0.20900001 258073.02050701 8942.23058328
0.21000001 253374.55381807 9623.16600892
0.21100001 248737.31721691 10282.80117985
0.21200001 244160.83904736 11701.40876452
0.21300001 239644.71798080 10000.37455411
0.21400001 235189.71515264 10618.81614116
0.21500001 230795.28426461 8973.32107644
0.21600001 226459.40368982 8108.37933247
0.21700001 222183.53715393 10171.56281181
0.21800001 217967.12134815 9308.28635727
0.21900001 213808.35893679 10583.51426778
0.22000001 209708.14247757 9732.55535256
0.22100001 205668.45503752 10273.13981487
0.22200001 201685.69101895 6746.38668358
0.22300001 197760.46322271 7309.22706633
0.22400001 193891.29185087 9161.36397316
0.22500001 190082.23167115 10310.06073338
0.22600001 186327.69575873 8247.79584278
0.22700001 182630.82586922 8744.36435613
0.22800001 178989.19230677 7377.93485579
0.22900001 175402.89433513 9682.24022518
0.23000001 171872.04604239 6550.90334471
0.23100001 168397.60445446 7618.30798581
0.23200001 164975.71342105 6919.08174811
0.23300001 161609.13008207 7941.47302782
0.23400001 158296.24104904 6695.93131306
0.23500001 155035.44497142 6037.08051272
0.23600001 151828.66637631 7556.51308295
0.23700001 148674.14550140 6899.96741907
0.23800001 145571.58227597 7306.23806001
0.23900001 142520.93313893 8722.28152066
0.24000001 139521.24067795 6052.43170689
0.24100001 136573.73012121 5949.15196548
0.24200001 133675.76420095 5359.73001916
0.24300001 130827.95475382 5267.13370754
0.24400001 128029.02195726 6587.09349129
0.24500001 125279.62383877 5547.38200600
0.24600001 122579.09514732 5449.86682806
0.24700001 119927.31014288 5799.68499287
0.24800001 117322.28319839 4820.18623323
0.24900001 114764.55917334 5594.77252437
0.25000001 112254.33003481 5071.65087090
0.25100001 109789.55541224 4565.04993001
0.25200001 107372.14973450 4482.25060272
0.25300001 105000.15399452 5200.65787339
0.25400001 102672.26438410 4712.65715819
0.25500001 100389.27095467 5396.92746186
0.25600001 98150.63217222  4162.07775418
0.25700001 95955.31675495  4084.81802752
0.25800001 93803.22063806  4008.68082363
0.25900001 91694.04069771  3933.67453205
0.26000001 89627.75840235  3859.81959823
0.26100001 87601.06221652  3786.99409881
0.26200001 85617.92331248  5404.20357519
0.26300001 83674.36364493  3976.20594855
0.26400001 81771.09189309  3900.48126786
0.26500001 79908.51657446  4463.68994707
0.26600001 78084.26071670  4065.45722659
0.26700001 76300.28207642  3680.72578154
0.26800001 74554.41368711  3609.92488155
0.26900001 72845.86149067  3245.28328298
0.27000001 71175.68057153  3471.94986258
0.27100001 69542.18086656  3972.24955908
0.27200001 67945.72554181  3338.85311113
0.27300001 66384.87021250  3274.10195382
0.27400001 64858.72654853  3210.50711609
0.27500001 63369.79347495  3148.21148883
0.27600001 61913.56221346  3344.26122123
0.27700001 60493.45642438  4036.12360365
0.27800001 59105.99809270  4205.09643332
0.27900001 57752.59449663  2425.60908366
0.28000001 56431.52907586  3805.74250100
0.28100001 55142.93108514  3032.30992389
0.28200001 53886.77221451  2287.49358877
0.28300001 52661.96413787  2467.73975630
0.28400001 51468.50834043  2860.36248640
0.28500001 50305.77672303  3021.36509299
0.28600001 49172.59880313  2540.25657440
0.28700001 48069.70825738  2284.27264451
0.28800001 46995.34772817  2240.97326249
0.28900001 45951.26734236  1998.88022401
0.29000001 44934.50896159  2745.94797262
0.29100001 43946.96730676  2309.85271098
0.29200001 42986.18557200  2078.16723985
0.29300001 42052.58775085  2039.97112836
0.29400001 41145.73004967  2002.76850497
0.29500001 40266.30869881  2324.17144811
0.29600001 39411.47106304  2458.09356656
0.29700001 38582.09488573  2069.54366764
0.29800001 37778.30090284  2033.22825084
0.29900001 36999.17587749  2330.94819063
0.30000001 36244.18344162  2781.92243176
0.30100001 35513.70675124  1608.77099199
0.30200001 34805.59158169  1898.29705473
0.30300001 34121.09217330  1555.92187676
0.30400001 33459.90590719  1990.02799804
0.30500001 32819.87568251  1657.07560166
0.30600001 32201.99629234  1631.19219941
0.30700001 31606.05969039  2044.28003756
0.30800001 31031.00354142  1725.94449869
0.30900001 30476.56134741  1417.16016975
0.31000001 29943.41864981  1676.23265538
0.31100001 29428.51525286  2479.05824227
0.31200001 28934.58461305  1494.32669309
0.31300001 28458.97955600  1340.41800055
0.31400001 28003.84390087  1720.13619305
0.31500001 27566.41702205  1437.31305158
0.31600002 27147.02572177  1419.92524761
0.31700002 26745.20717011  1786.04501939
0.31800002 26361.32232342  1387.52826619
0.31900002 25994.78425021  1622.07461402
0.32000002 25644.59156490  1605.22328501
0.32100002 25311.40602572  1833.81145339
0.32200002 24994.53425711  1332.08376631
0.32300002 24692.70848941  1320.07225835
0.32400002 24406.74796571  1189.82901967
0.32500002 24135.49362379  1298.24826350
0.32600002 23879.69168862  1874.07829246
0.32700002 23638.04809002  1628.18882954
0.32800002 23411.39108161  1501.95786596
0.32900002 23197.43908134  1722.40993335
0.33000002 22998.56467119  1370.25454800
0.33100002 22810.88122123  1135.98193861
0.33200002 22638.45740057  1243.87010078
0.33300002 22477.51123131  1463.96037582
0.33400002 22329.75728462  1234.27739236
0.33500002 22193.50550850  1118.55273060
0.33600002 22069.21808617  1561.83863792
0.33700002 21955.67350319  1781.04431892
0.33800002 21854.86141915  1222.45173137
0.33900002 21763.69763242  1442.93322136
0.34000002 21684.14122403  1220.05826375
0.34100002 21614.66442423  1552.36527247
0.34200002 21556.38374663  1109.07599629
0.34300002 21506.67627054  1109.74454812
0.34400002 21467.43905507  1333.12802846
0.34500002 21437.26065996  1557.63143332
0.34600002 21417.46819705  1560.69098143
0.34700002 21404.49529677  1675.97206111
0.34800002 21401.77120901  1568.53588620
0.34900002 21407.10908278  1461.03526410
0.35000002 21420.66031063  1240.57760065
0.35100002 21442.33470203  1698.23298883
0.35200002 21471.02656637  1136.89091054
0.35300002 21507.51519384  1256.25402197
0.35400002 21551.79118530  2065.73928295
0.35500002 21602.86983330  1499.67129486
0.35600002 21660.16954007  1739.85320071
0.35700002 21724.42487291  1516.58217221
0.35800002 21795.58101969  1760.53814025
0.35900002 21872.44620972  1771.66822690
0.36000002 21956.15914910  1783.38911136
0.36100002 22044.58443821  1316.72309086
0.36200002 22139.98677959  1205.52233725
0.36300002 22238.88566240  1699.94050055
0.36400002 22343.89734942  1590.32696917
0.36500002 22453.38966331  1479.22938109
0.36600002 22568.30973544  1987.81681566
0.36700002 22687.34757431  1878.51246813
0.36800002 22812.27072071  1388.92516862
0.36900002 22940.49018975  1782.47617218
0.37000002 23071.86809012  1412.34447204
0.37100002 23207.67705233  1683.48497312
0.37200002 23347.64431293  1306.30076119
0.37300002 23490.54355698  2108.51128956
0.37400002 23637.89058275  1462.59454909
0.37500002 23787.38194437  1609.93008626
0.37600002 23941.01628942  1760.02389589
0.37700002 24096.27833056  1502.88495067
0.37800002 24255.39169745  1516.81099165
0.37900002 24416.75704122  2226.80834765
0.38000002 24580.66733189  2247.65632731
0.38100002 24746.44789651  1843.36299114
0.38200002 24914.63364488  2147.01865606
0.38300002 25084.59269900  1589.35986870
0.38400002 25257.13851813  1458.59981852
0.38500002 25430.19306841  2503.09402231
0.38600002 25606.21061366  2081.01683516
0.38700002 25782.59950172  2400.87577934
0.38800002 25960.34658943  1666.26492478
0.38900002 26139.42702129  1682.07220851
0.39000002 26320.26844929  1852.42058122
0.39100002 26501.20376531  2649.06045388
0.39200002 26683.45685961  1730.28884204
0.39300002 26866.17927359  1746.57039732
0.39400002 27050.21969389  2083.54327063
0.39500002 27233.93271428  2426.54351981
0.39600002 27417.99717780  2285.83853301
0.39700002 27601.99423706  1977.40696083
0.39800002 27787.15846306  2161.97996665
0.39900002 27971.52581996  2181.77911733
0.40000002 28155.94261244  2371.01203973
0.40100002 28339.86082390  3417.78737729
0.40200002 28524.78512877  2414.05267982
0.40300002 28708.18359245  1913.68760894
0.40400002 28891.17973530  1930.65317729
0.40500002 29073.80291029  2124.71361735
0.40600002 29255.96284816  1964.68427816
0.40700002 29437.29625727  2702.34392446
0.40800002 29618.11113090  2907.31392636
0.40900002 29797.07567014  1832.52024054
0.41000002 29975.96254658  2402.42363213
0.41100002 30153.49684215  2236.18343177
0.41200002 30329.35480826  2630.46506716
0.41300002 30504.35714837  1894.32066867
0.41400002 30678.01378381  2482.61838309
0.41500002 30850.74832143  2502.61282242
0.41600002 31020.76532057  2328.41875529
0.41700002 31190.20074469  2542.31338316
0.41800002 31358.82949095  2167.99277958
0.41900002 31523.84945981  2184.60287108
0.42000002 31687.84950470  2201.19657015
0.42100002 31850.75765325  2620.99897148
0.42200002 32011.63990295  2234.25251290
0.42300002 32170.05352398  2864.42170151
0.42400002 32326.65012653  2060.82404322
0.42500002 32481.59584189  3320.91851624
0.42600002 32633.23577616  3135.23827576
0.42700002 32783.99698148  2525.67924714
0.42800002 32931.92022749  2331.08608377
0.42900002 33078.40045538  2346.91262352
0.43000002 33222.45723388  2792.18155054
0.43100002 33362.79174931  2378.09990858
0.43200002 33501.84465415  3481.51186144
0.43300002 33638.04140534  2189.83659926
0.43400002 33772.09692750  2423.99237184
0.43500002 33903.31636171  2882.46009367
0.43600002 34032.94262117  3569.37519126
0.43700002 34158.93340040  3141.93884306
0.43800002 34281.76522511  3611.92695528
0.43900002 34403.02832586  3178.83996795
0.44000002 34520.78284724  3653.67982970
0.44100002 34636.57872614  3674.24844539
0.44200002 34749.32756106  3001.82080362
0.44300002 34859.63372844  3018.14723124
0.44400002 34966.47695682  2567.41369223
0.44500002 35069.79013878  3050.01979291
0.44600002 35171.06132171  2829.86372806
0.44700002 35269.64543569  2844.14434272
0.44800002 35364.37764583  3096.32823152
0.44900002 35457.42816201  2872.05181723
0.45000002 35547.21394782  3366.67679255
0.45100002 35632.78437332  2415.90289501
0.45200002 35716.35868879  3155.00469430
0.45300002 35796.45894501  2437.73896969
0.45400002 35873.98337444  3672.59922201
0.45500002 35948.37764473  3688.30372115
0.45600002 36019.28374585  2469.12201780
0.45700002 36087.36996918  2479.20243438
0.45800002 36151.67968601  4480.27787583
0.45900002 36213.25093937  2748.58587657
0.46000002 36272.54355297  3511.54510779
0.46100002 36327.34564422  2769.23368971
0.46200002 36379.89860440  3537.21770895
0.46300002 36428.82288453  3296.08005081
0.46400002 36474.25700215  2798.48750113
0.46500002 36517.39088105  2552.56574357
0.46600002 36556.68658334  3585.11442315
0.46700002 36592.79934430  3339.45902644
0.46800002 36626.39254141  4380.33362360
0.46900002 36656.07821353  3359.52972750
0.47000002 36682.39133263  2850.77217753
0.47100002 36706.01255601  3898.17871821
0.47200002 36726.18076631  2866.29491376
0.47300002 36743.65859323  3134.96909976
0.47400002 36756.79660322  3928.38282316
0.47500002 36767.82405360  2887.74503804
0.47600002 36775.90013183  4210.10524664
0.47700002 36779.85844810  3164.53917087
