# SAXS profile: number of points = 501, q_min = 0, q_max = 0.5, delta_q = 0.001
#    q    intensity    error
0.00000000 1682732.95097189 353.37391970
0.00100000 1682663.89733934 504.79918119
0.00200000 1682456.67693768 832.81608146
0.00300000 1682111.47027497 1715.75376080
0.00400000 1681628.12988448 2017.95383254
0.00500000 1681007.12870551 1815.48777086
0.00600000 1680248.19579017 2117.11281289
0.00700000 1679351.96614401 2216.74468744
0.00800000 1678317.93498470 2265.72930789
0.00900000 1677147.41624738 2515.72123191
0.01000000 1675839.55048740 2765.13537770
0.01100000 1674395.66418390 3616.69479211
0.01200000 1672815.15825462 5219.18352258
0.01300000 1671099.41856430 3860.23982714
0.01400000 1669247.72585451 4131.38830464
0.01500000 1667261.83059182 4401.57142876
0.01600000 1665140.60871679 5519.94136466
0.01700000 1662886.20655128 8530.60662228
0.01800000 1660498.09944793 6625.38771492
0.01900000 1657977.03549437 5471.32446401
0.02000000 1655323.75580369 6778.55108665
0.02100000 1652539.75540897 8725.41030416
0.02200000 1649623.36130674 5691.20085507
0.02300000 1646577.37559050 7113.21458633
0.02400000 1643401.68913984 6162.75661528
0.02500000 1640097.71163035 7036.01950423
0.02600000 1636665.47801306 8617.04413587
0.02700000 1633106.22746838 7544.95111647
0.02800000 1629419.69205572 11340.76157679
0.02900000 1625608.48580292 8046.76237419
0.03000000 1621672.91134169 9048.93526122
0.03100000 1617613.26052017 9317.45280932
0.03200000 1613430.39054181 7986.48080102
0.03300000 1609127.33508653 10668.51472345
0.03400000 1604701.90855742 10109.62249037
0.03500000 1600157.51649488 11233.10628452
0.03600000 1595493.91086619 10625.98993744
0.03700000 1590713.00507025 9067.06454823
0.03800000 1585815.88597785 9277.02336231
0.03900000 1580804.05727156 10433.30726116
0.04000000 1575676.21853650 9690.40919304
0.04100000 1570436.52184672 14840.62581956
0.04200000 1565085.01240120 13123.23843781
0.04300000 1559622.20282670 14410.90982304
0.04400000 1554051.37545771 11538.83199866
0.04500000 1548372.16375915 11752.14526899
0.04600000 1542585.18543463 16312.83909430
0.04700000 1536693.46329795 14383.45148541
0.04800000 1530697.16888497 11250.62471477
0.04900000 1524599.17789764 20582.08985966
0.05000000 1518398.86830820 12777.32707180
0.05100000 1512099.71927099 14153.25403169
0.05200000 1505699.83519408 14364.37709715
0.05300000 1499204.72088001 14572.27056628
0.05400000 1492612.60438785 14776.86547254
0.05500000 1485927.73440436 13729.97290639
0.05600000 1479148.18962922 15176.06113377
0.05700000 1472279.37621276 16651.48052223
0.05800000 1465319.64027213 14264.88736411
0.05900000 1458271.03653872 15749.32793020
0.06000000 1451136.48917857 14605.68944594
0.06100000 1443917.43490522 14771.27604936
0.06200000 1436614.16838566 13576.00452583
0.06300000 1429230.04951123 20580.91367523
0.06400000 1421763.22611434 16634.63052348
0.06500000 1414219.83647468 15400.85473963
0.06600000 1406597.65745051 16963.56854255
0.06700000 1398899.92426511 18549.41386385
0.06800000 1391129.69754555 15838.01234792
0.06900000 1383287.05087828 17429.41765709
0.07000000 1375372.31362133 19042.03057380
0.07100000 1367390.01017290 22151.71920234
0.07200000 1359338.88372807 17861.71376895
0.07300000 1351224.03652536 17998.30500984
0.07400000 1343044.58484672 18131.10274513
0.07500000 1334803.02115404 19781.78170072
0.07600000 1326499.44852290 18385.28321844
0.07700000 1318139.26289702 23133.34514853
0.07800000 1309720.79537997 18624.23058371
0.07900000 1301246.21709082 18737.94640499
0.08000000 1292719.42150877 20418.50422058
0.08100000 1284140.41075251 15794.92779333
0.08200000 1275510.16413170 17468.11251748
0.08300000 1266831.88457041 19154.49899366
0.08400000 1258105.98716491 16040.85208929
0.08500000 1249336.55396761 24174.66345416
0.08600000 1240522.72151354 19426.58673101
0.08700000 1231667.82859163 21135.42093110
0.08800000 1222770.97154941 19588.79188419
0.08900000 1213838.20770633 19664.17988846
0.09000000 1204867.94051714 19735.73779277
0.09100000 1195863.06912650 18153.20224220
0.09200000 1186824.54064001 18211.82343183
0.09300000 1177755.62291534 23248.89708886
0.09400000 1168654.96099180 21649.33416984
0.09500000 1159526.64797382 21706.33987033
0.09600000 1150371.79252909 26780.65658898
0.09700000 1141193.55103858 20130.65518672
0.09800000 1131992.34987144 21853.11334175
0.09900000 1122770.34626141 20209.86718302
0.10000000 1113527.14008238 20243.92435871
0.10100000 1104265.80478073 30411.48169397
0.10200000 1094988.39984257 27068.11451729
0.10300000 1085695.78202523 22017.91149521
0.10400000 1076390.74829276 25429.73262476
0.10500000 1067076.00901773 18663.16027581
0.10600001 1057747.82905292 20372.22414614
0.10700001 1048413.63467309 18682.73184904
0.10800001 1039071.16066358 22085.45855928
0.10900001 1029724.43244606 23786.63550904
0.11000001 1020373.66371382 16989.22230051
0.11100001 1011020.86082592 22080.69663985
0.11200001 1001668.45671550 32258.73416717
0.11300001 992315.07674847 23756.02405581
0.11400001 982965.82845617 18651.77747316
0.11500001 973620.58159307 18635.09880918
0.11600001 964280.51729967 16923.12387554
0.11700001 954948.14864923 18592.84132983
0.11800001 945622.36991727 25319.04014702
0.11900001 936307.23887091 20224.23731221
0.12000001 927002.69992712 23555.13971471
0.12100001 917712.62185068 26870.62683361
0.12200001 908434.91279507 21788.81240989
0.12300001 899173.62513712 18397.09323707
0.12400001 889928.04907887 28366.45790094
0.12500001 880700.96529881 18309.77393133
0.12600001 871494.54281034 21582.56336974
0.12700001 862308.62606336 18211.95904072
0.12800001 853143.50962047 19809.99322702
0.12900001 844002.36065884 21395.46085111
0.13000001 834885.90024043 18046.05958430
0.13100001 825793.96450212 17985.79339466
0.13200001 816730.48131377 17923.15125733
0.13300001 807696.00110407 17858.15942630
0.13400001 798689.38324347 21025.49900514
0.13500001 789714.22319098 24165.25636899
0.13600001 780769.83473673 24067.23129055
0.13700001 771859.16838004 22368.47975440
0.13800001 762980.97931543 17498.96958578
0.13900001 754140.19281923 19004.33375525
0.14000001 745333.83700335 17340.19253566
0.14100001 736565.27949369 20395.49355109
0.14200001 727833.64171516 17173.23558625
0.14300001 719144.08418127 21746.91813139
0.14400001 710490.36065746 18543.79928787
0.14500001 701881.60912874 15371.20796501
0.14600001 693312.44566253 15287.54014804
0.14700001 684789.04626275 28884.40333403
0.14800001 676307.33503141 16627.01661619
0.14900001 667870.01531052 22540.61408021
0.15000001 659479.04273703 19418.36132961
0.15100001 651134.49903318 20784.21418984
0.15200001 642838.19865177 22129.70603282
0.15300001 634589.95012741 14659.02853969
0.15400001 626388.35521835 16019.88294070
0.15500001 618238.47205094 17360.13711447
0.15600001 610137.05570756 15805.60117405
0.15700001 602090.13345325 15696.49051995
0.15800001 594090.30825575 21253.58178099
0.15900001 586146.27972942 19694.51592850
0.16000001 578252.87203624 18154.24977450
0.16100001 570416.40176699 16633.34306069
0.16200001 562631.89537041 15131.98554031
0.16300001 554903.70648813 15015.69500643
0.16400001 547230.39043711 16252.74336327
0.16500001 539613.67231270 18810.93350491
0.16600001 532053.09029361 14660.72359522
0.16700001 524549.25970142 19827.96295289
0.16800001 517102.06980340 17041.09951499
0.16900001 509715.29158291 18196.83676873
0.17000001 502385.83845656 14174.81710138
0.17100001 495115.60555038 16606.17819432
0.17200001 487904.59478943 13927.23731595
0.17300001 480753.38798761 13802.43042094
0.17400001 473663.46406483 16163.76647456
0.17500001 466633.14040254 12319.11548843
0.17600001 459661.90543950 17085.63383213
0.17700001 452754.34226897 16923.95811334
0.17800001 445907.31252645 19156.17905092
0.17900001 439121.78208976 15413.17527937
0.18000001 432398.99724905 15261.52332878
0.18100001 425739.47760623 11622.68828766
0.18200001 419139.58642668 14956.99684817
0.18300001 412605.07940893 13665.48087557
0.18400001 406131.88048602 12397.17623749
0.18500001 399722.91717655 15613.17788252
0.18600001 393376.58816264 14344.47796503
0.18700001 387093.53091379 10916.03808749
0.18800001 380873.20726027 12957.30712318
0.18900001 374718.76001578 18155.12478055
0.19000001 368624.16088030 12673.29924986
0.19100001 362597.84352277 13575.66390294
0.19200001 356631.83680243 15486.73824491
0.19300001 350732.43250367 11226.94569495
0.19400001 344895.37856998 10088.19029988
0.19500001 339123.14964370 10967.24317774
0.19600001 333413.60648301 15763.79605946
0.19700001 327768.60588437 12655.14647125
0.19800001 322187.60077230 10579.03037131
0.19900001 316671.22885257 20900.30209202
0.20000001 311216.63559954 13136.45480950
0.20100001 305827.49399500 11119.88820721
0.20200001 300500.71893740 10065.27205653
0.20300001 295238.24135982 11744.57779640
0.20400001 290039.23050133 8918.70675947
0.20500001 284902.72984110 9683.84424502
0.20600001 279829.79033481 9557.58694065
0.20700001 274819.62787443 9431.81007448
0.20800001 269872.13679197 10998.63945486
0.20900001 264989.44301471 10016.60141945
0.21000001 260166.84231914 10704.56523325
0.21100001 255406.77518981 8934.12941849
0.21200001 250708.68207252 8811.15704798
0.21300001 246072.29228584 12638.27352928
0.21400001 241498.47420286 8567.15877737
0.21500001 236986.39288592 9214.03139102
0.21600001 232533.84786635 8325.87481649
0.21700001 228143.02660812 8206.30505508
0.21800001 223812.76915713 8087.47479587
0.21900001 219541.51095313 9418.33126520
0.22000001 215330.31486986 9993.48038563
0.22100001 211181.00369438 7735.56053109
0.22200001 207089.84262479 9698.01778868
0.22300001 203057.69495040 7505.01276024
0.22400001 199082.59627329 8062.84553033
0.22500001 195168.90486236 9262.71666278
0.22600001 191311.63306937 8468.40983827
0.22700001 187512.98204845 8978.12200505
0.22800001 183770.83158942 6943.78119998
0.22900001 180085.37397303 8076.82940465
0.23000001 176456.82896521 6725.65235408
0.23100001 172885.87961843 7219.71467431
0.23200001 169368.88964631 7103.33156771
0.23300001 165908.57027238 7570.40841957
0.23400001 162503.32446579 6301.06670417
0.23500001 159151.39120722 7887.54332128
0.23600001 155854.65835896 6648.76004006
0.23700001 152611.55528259 7082.70261566
0.23800001 149422.00740452 5892.45714070
0.23900001 146285.44246644 7899.41426683
0.24000001 143201.19703781 6212.06822133
0.24100001 140170.32996696 7123.45650587
0.24200001 137190.34721351 5500.64723172
0.24300001 134261.81735634 5896.77929722
0.24400001 131383.53832493 7242.51789276
0.24500001 128556.07101887 5218.09116949
0.24600001 125778.56185221 5126.10553078
0.24700001 123051.34943979 5493.01249884
0.24800001 120372.15892226 4945.49038328
0.24900001 117741.29840225 5298.35867875
0.25000001 115159.20973862 6070.04223249
0.25100001 112624.12799110 5960.06913525
0.25200001 110137.44725120 4597.68795302
0.25300001 107697.37587418 4513.59723643
0.25400001 105302.82274411 4833.39979263
0.25500001 102954.24311756 4348.78743504
0.25600001 100651.32280560 5432.15214883
0.25700001 98392.97621957  4569.37003183
0.25800001 96179.02383538  4857.52182863
0.25900001 94009.10382207  4766.26178929
0.26000001 91883.19091936  3956.94980417
0.26100001 89798.26385654  3529.07193654
0.26200001 87758.13501584  4154.47030823
0.26300001 85758.64847070  4754.45969618
0.26400001 83800.46729457  3664.17560584
0.26500001 81884.26497050  4247.33702500
0.26600001 80007.68029484  3845.16929692
0.26700001 78172.22192010  3771.02816387
0.26800001 76376.15982612  3081.77819482
0.26900001 74618.53772296  3324.25601287
0.27000001 72900.25645179  3556.07467800
0.27100001 71220.03778880  3196.35544722
0.27200001 69577.77073852  4558.73575452
0.27300001 67972.23207056  3911.12241843
0.27400001 66402.33900418  3560.82559761
0.27500001 64871.01932011  3491.35842504
0.27600001 63373.34033150  2896.47865693
0.27700001 61912.65578401  4130.81258941
0.27800001 60485.79834266  2784.46385849
0.27900001 59093.92948332  3474.72321807
0.28000001 57735.62831123  2433.55684849
0.28100001 56410.53698579  3340.63215841
0.28200001 55118.97136937  3041.74057898
0.28300001 53859.81527325  3441.64235885
0.28400001 52632.91705268  2250.05731050
0.28500001 51437.79210284  3310.02207849
0.28600001 50273.16598120  2813.53786731
0.28700001 49139.56668416  2759.67819561
0.28800001 48035.68236010  2290.58162176
0.28900001 46963.09754263  2655.76329174
0.29000001 45918.49506786  2204.77664504
0.29100001 44903.93779421  2360.15108218
0.29200001 43917.32030196  2702.23284609
0.29300001 42958.67289571  2462.82083369
0.29400001 42027.48663125  2231.65964576
0.29500001 41124.51430454  2373.70707802
0.29600001 40247.32556783  3048.13134617
0.29700001 39396.14194832  2289.30991699
0.29800001 38571.51117848  2594.89853737
0.29900001 37772.22855726  2039.70043865
0.30000001 36997.92128616  2171.59309269
0.30100001 36249.09191144  1806.29233546
0.30200001 35523.29208779  1614.53370182
0.30300001 34821.80454247  1746.66179854
0.30400001 34144.44490704  1874.53011414
0.30500001 33488.86573092  1844.56681179
0.30600001 32856.19819871  1815.63359842
0.30700001 32246.22293235  2085.68579801
0.30800001 31657.94437044  1907.54952835
0.30900001 31090.97893480  1590.30364781
0.31000001 30545.79417732  1852.44977559
0.31100001 30019.64613034  2107.37925812
0.31200001 29515.00140499  1385.72938157
0.31300001 29029.59199123  1640.75261703
0.31400001 28565.30807631  1484.68195756
0.31500001 28118.90937321  1732.68727761
0.31600002 27691.61728206  1580.08375693
0.31700002 27282.25329761  1691.77260709
0.31800002 26891.43533197  1415.43076572
0.31900002 26518.58120087  1400.18115370
0.32000002 26162.84707300  1259.74114621
0.32100002 25824.53053386  1496.78986062
0.32200002 25502.90094948  1235.61560951
0.32300002 25196.90261602  1469.48343015
0.32400002 24907.42478571  1335.66071738
0.32500002 24633.05143963  1686.37878141
0.32600002 24374.62086755  1554.24777322
0.32700002 24130.92254305  1187.24144534
0.32800002 23902.68958398  1769.39668024
0.32900002 23687.53531654  1407.03966443
0.33000002 23488.10804147  1399.42154338
0.33100002 23300.03472989  1508.44431984
0.33200002 23127.82969919  1270.75866300
0.33300002 22967.46677028  1380.80416762
0.33400002 22820.64194235  1490.75850548
0.33500002 22685.77100648  2172.38953446
0.33600002 22563.23795997  1254.62890618
0.33700002 22451.90602023  1252.14285805
0.33800002 22353.61770959  1364.01781724
0.33900002 22265.42215185  1249.09024187
0.34000002 22188.94091829  1134.96438172
0.34100002 22123.03190812  1134.91159063
0.34200002 22068.71170106  1248.97879787
0.34300002 22023.12355720  1477.31119818
0.34400002 21988.45379579  1365.48304539
0.34500002 21963.03481474  1481.84602913
0.34600002 21948.30065638  1370.89092392
0.34700002 21940.59635448  1603.41885752
0.34800002 21943.55453861  1608.24318830
0.34900002 21954.64503696  1728.92837855
0.35000002 21974.40642165  1156.95255290
0.35100002 22002.25900948  1277.89126379
0.35200002 22037.40037985  1516.94452699
0.35300002 22080.77500171  1289.73812894
0.35400002 22131.93575915  1532.08332549
0.35500002 22190.10219634  1184.95151341
0.35600002 22254.84070609  1430.09613151
0.35700002 22326.55244773  1198.93592323
0.35800002 22405.43003284  1327.18571086
0.35900002 22490.17550252  1214.46953466
0.36000002 22581.74157698  1467.36163717
0.36100002 22678.25696180  1600.85823476
0.36200002 22781.89338006  1736.66381462
0.36300002 22889.19197944  1624.67492366
0.36400002 23002.67130495  1385.33594496
0.36500002 23120.74321848  1777.06040795
0.36600002 23244.31762815  1663.47966985
0.36700002 23372.14195238  1935.21344533
0.36800002 23505.93281076  1561.26413125
0.36900002 23642.86667406  1312.17916257
0.37000002 23783.30699577  2382.37397462
0.37100002 23928.04638507  2403.33309276
0.37200002 24077.17555406  2020.67705409
0.37300002 24229.15109023  1495.18098461
0.37400002 24385.65462657  1371.69313772
0.37500002 24544.18685321  1938.00908574
0.37600002 24707.08591365  1676.62292952
0.37700002 24871.45971191  1974.29656546
0.37800002 25039.69809082  1565.85759429
0.37900002 25210.30206603  2155.48092876
0.38000002 25383.37527108  2030.92395165
0.38100002 25558.25290239  2196.73194103
0.38200002 25735.56396161  1922.06068553
0.38300002 25914.65263898  1791.22087526
0.38400002 26096.23045824  1657.76311839
0.38500002 26278.43732888  1825.82591211
0.38600002 26463.37916655  1997.05900341
0.38700002 26648.50649781  1706.03746681
0.38800002 26835.11125194  1878.99457888
0.38900002 27023.05139099  1897.01829752
0.39000002 27212.51858259  2234.42000667
0.39100002 27402.03499563  2577.98357452
0.39200002 27592.91695932  1626.60253181
0.39300002 27783.97167542  2298.84592534
0.39400002 27976.41963550  1989.12353032
0.39500002 28168.25774825  2175.15296637
0.39600002 28360.48368713  1688.86688358
0.39700002 28552.43108540  1875.03823821
0.39800002 28745.68237892  2064.51500627
0.39900002 28937.78341555  1909.89379591
0.40000002 29129.65751651  2277.79367742
0.40100002 29321.28809317  1944.88113137
0.40200002 29513.49226025  1962.49976083
0.40300002 29704.16500138  1800.07248437
0.40400002 29894.33123439  1816.08070854
0.40500002 30083.90965773  2198.53222195
0.40600002 30272.86988011  3141.86994937
0.40700002 30460.89599404  2237.04830780
0.40800002 30647.99919660  1880.25483980
0.40900002 30833.44076943  2275.50803660
0.41000002 31018.54647321  2294.75217682
0.41100002 31202.06519958  2506.77403691
0.41200002 31383.68297629  2138.64117775
0.41300002 31564.36445978  2156.16183841
0.41400002 31743.43786210  2173.63201060
0.41500002 31921.40131262  2788.65375081
0.41600002 32096.62984772  2007.64429210
0.41700002 32270.92622997  2023.38717049
0.41800002 32444.31777358  2243.03801556
0.41900002 32613.83098696  2671.07288440
0.42000002 32782.31063969  2898.28422099
0.42100002 32949.31382907  2502.82999705
0.42200002 33114.13822861  2521.31060420
0.42300002 33276.33871254  2116.37524240
0.42400002 33436.41153313  2984.19987074
0.42500002 33594.77831537  2146.70643608
0.42600002 33749.41973316  3458.64069815
0.42700002 33903.06419391  3482.52291902
0.42800002 34053.83504045  2191.36438869
0.42900002 34202.71626883  2647.29036465
0.43000002 34349.08351257  2886.86886062
0.43100002 34491.61386392  2682.06802115
0.43200002 34632.41827650  2249.37567365
0.43300002 34770.26126649  3395.31617357
0.43400002 34905.82045076  2960.88636005
0.43500002 35038.11522072  2978.94069723
0.43600002 35168.80560232  2766.37837977
0.43700002 35295.62569747  2550.81499004
0.43800002 35418.94866858  3498.50682053
0.43900002 35540.45637821  2580.23725533
0.44000002 35658.42976719  2358.80524088
0.44100002 35774.05421404  4743.63981358
0.44200002 35886.52384722  2623.12558492
0.44300002 35996.24389298  2397.34995688
0.44400002 36102.22252124  2891.78816100
0.44500002 36204.59040536  2664.29593419
0.44600002 36304.76344108  2921.08140490
0.44700002 36401.89775804  3424.69070338
0.44800002 36494.80856164  3195.30311505
0.44900002 36586.04323079  2716.51383863
0.45000002 36673.74022041  2729.07650784
0.45100002 36757.08938511  3987.40924547
0.45200002 36838.10315910  2753.46415112
0.45300002 36915.32911922  3016.72083859
0.45400002 36989.92012452  3029.47460177
0.45500002 37061.11181043  3295.47421837
0.45600002 37128.75779107  2799.69411392
0.45700002 37193.15524613  3066.20386381
0.45800002 37253.55789624  3077.88909926
0.45900002 37311.16664912  3089.36474496
0.46000002 37366.10966997  2842.25326675
0.46100002 37416.35614449  3111.54432445
0.46200002 37464.23531616  3642.64777243
0.46300002 37508.38373970  3393.75872162
0.46400002 37548.75440319  2880.92831813
0.46500002 37586.63812862  2627.30612971
0.46600002 37620.35806880  3162.36744915
0.46700002 37650.74582078  4228.93197102
0.46800002 37678.49671199  3976.02355398
0.46900002 37702.11046852  3721.19847961
0.47000002 37722.01697539  3464.57881331
0.47100002 37739.17173487  3206.32018256
0.47200002 37752.63790930  3214.25974394
0.47300002 37763.51251391  4295.97738720
0.47400002 37769.46086404  2960.18163552
0.47500002 37773.30743328  2966.71570643
0.47600002 37773.98888739  2702.72903300
0.47700002 37770.18442286  3791.37129207
