# SAXS profile: number of points = 501, q_min = 0, q_max = 0.5, delta_q = 0.001
#    q    intensity    error
0.00000000 1664650.74656091 374.54641798
0.00100000 1664582.28725390 499.37469804
0.00200000 1664376.84858475 1048.55744781
0.00300000 1664034.61670945 1397.78912783
0.00400000 1663555.43060399 1247.66662036
0.00500000 1662939.76547385 1496.64584817
0.00600000 1662187.35765223 1919.82647625
0.00700000 1661298.86458540 2192.91459239
0.00800000 1660273.72290222 2913.78050671
0.00900000 1659113.27008078 3235.27101496
0.01000000 1657816.69308342 3829.55672638
0.01100000 1656385.22371203 2981.49353249
0.01200000 1654818.33995009 3226.89590438
0.01300000 1653117.40842724 4165.85605297
0.01400000 1651281.64481121 4458.46063864
0.01500000 1649312.88180798 4750.02131112
0.01600000 1647209.98036690 5460.50132902
0.01700000 1644974.99213413 4885.57594580
0.01800000 1642607.52116420 4681.43164597
0.01900000 1640108.32422534 5412.35771416
0.02000000 1637477.91057492 6705.47234713
0.02100000 1634718.01068474 7552.39755178
0.02200000 1631826.81123041 6192.78302997
0.02300000 1628807.21333735 10554.67122286
0.02400000 1625659.07962641 7315.46619189
0.02500000 1622383.73419450 8225.48590803
0.02600000 1618981.22463222 6556.87425966
0.02700000 1615452.91761054 7463.39282119
0.02800000 1611798.35058198 7011.32314657
0.02900000 1608020.33684050 7959.70103282
0.03000000 1604119.02119690 8205.06917057
0.03100000 1600094.70818358 8448.50044795
0.03200000 1595948.23300222 12639.91058755
0.03300000 1591682.78224529 8929.34082004
0.03400000 1587295.94547921 13333.28655723
0.03500000 1582791.32682368 10256.48827144
0.03600000 1578168.48193337 8758.83547951
0.03700000 1573429.38570403 10762.25749594
0.03800000 1568575.24363393 12846.63183990
0.03900000 1563607.31925711 10319.80878501
0.04000000 1558524.49363693 9584.92608002
0.04100000 1553330.79948483 11743.18138860
0.04200000 1548026.44565462 9984.77103769
0.04300000 1542611.73571956 14253.73309968
0.04400000 1537090.05218507 13487.96583433
0.04500000 1531461.01005323 12680.49775244
0.04600000 1525725.18205643 16134.54455029
0.04700000 1519885.61824692 13131.81235239
0.04800000 1513942.46956331 14465.72096974
0.04900000 1507898.58702826 16963.85989369
0.05000000 1501753.28447275 13786.09579342
0.05100000 1495510.14121317 16330.97150281
0.05200000 1489167.29153150 15390.54467520
0.05300000 1482730.18651205 14412.13808476
0.05400000 1476196.88897342 13396.48739216
0.05500000 1469571.75999258 12344.40335980
0.05600000 1462852.91619159 17510.35022392
0.05700000 1456045.84022817 19001.39910193
0.05800000 1449148.59028022 14107.46218509
0.05900000 1442163.55891141 15575.36716370
0.06000000 1435093.14096385 14444.21313862
0.06100000 1427939.25456028 17263.78639439
0.06200000 1420702.00649258 16110.76150670
0.06300000 1413384.73653615 16282.19292618
0.06400000 1405985.52793409 16450.03144614
0.06500000 1398510.77394251 22152.41169549
0.06600000 1390957.99313224 19570.77987906
0.06700000 1383330.41306437 15520.96796095
0.06800000 1375631.00605906 15661.55973709
0.06900000 1367860.10591847 17235.03814150
0.07000000 1360017.93001933 15932.61079628
0.07100000 1352108.76511467 20443.88548608
0.07200000 1344131.81847220 17661.89292213
0.07300000 1336091.78156949 20762.86725845
0.07400000 1327987.77173061 14939.86313211
0.07500000 1319822.38351854 22568.96381603
0.07600000 1311595.74354763 16663.82470298
0.07700000 1303313.10957843 18298.51691647
0.07800000 1294972.92562851 19949.05885484
0.07900000 1286577.48916572 21614.50283178
0.08000000 1278130.26693340 18635.14016608
0.08100000 1269631.51871292 17178.11525415
0.08200000 1261082.08598132 18840.56724866
0.08300000 1252485.27765477 23671.97285865
0.08400000 1243841.56933202 19030.77690406
0.08500000 1235154.79829685 23900.24646904
0.08600000 1226424.36038794 19205.80638542
0.08700000 1217653.52877886 17680.33006810
0.08800000 1208840.96120287 17751.83034896
0.08900000 1199993.11405587 19439.88936079
0.09000000 1191108.54696506 24387.94864475
0.09100000 1182189.70112892 19577.06237045
0.09200000 1173237.76337378 21276.66783850
0.09300000 1164256.00968288 18057.61155875
0.09400000 1155242.79606995 19754.65274121
0.09500000 1146202.51818156 21456.91214889
0.09600000 1137136.13249711 24817.99725839
0.09700000 1128046.91546080 19898.74852422
0.09800000 1118935.04891163 18277.80488335
0.09900000 1109802.96556640 18311.74979291
0.10000000 1100649.81158681 18342.32997268
0.10100000 1091479.30560804 21709.52440958
0.10200000 1082292.89669128 28426.42426867
0.10300000 1073091.53905292 25110.34319505
0.10400000 1063878.24752800 21782.90814291
0.10500000 1054655.47397249 16769.02282513
0.10600001 1045419.65412391 23490.58073348
0.10700001 1036178.30590839 21821.91614932
0.10800001 1026928.86785869 26864.46044747
0.10900001 1017675.34727424 20149.97282440
0.11000001 1008418.22306920 23506.22988617
0.11100001 999159.24802878 20143.05138846
0.11200001 989901.10717770 18456.70701222
0.11300001 980642.10892456 20122.77702253
0.11400001 971387.32503435 18432.07536039
0.11500001 962136.75904554 26785.88863312
0.11600001 952891.52679095 25084.87062406
0.11700001 943654.37451930 18372.95153716
0.11800001 934424.00492490 25019.20391023
0.11900001 925204.15176984 26645.88082604
0.12000001 915995.49874818 18287.85099396
0.12100001 906801.02185111 24891.68922241
0.12200001 897619.30979738 21529.40015977
0.12300001 888454.09343634 19830.29629979
0.12400001 879304.66952830 19784.35599658
0.12500001 870173.69610014 26314.05381000
0.12600001 861063.52539097 24604.89139751
0.12700001 851974.05183264 22901.06359251
0.12800001 842905.28062796 21203.28333349
0.12900001 833860.60335706 21138.36729140
0.13000001 824840.38151360 17828.92568678
0.13100001 815845.12686750 17769.10770077
0.13200001 806877.61920168 25755.53481904
0.13300001 797939.73627365 19246.30734625
0.13400001 789029.54487302 17575.63394066
0.13500001 780150.66191496 25464.11880549
0.13600001 771302.49312447 19020.32037727
0.13700001 762488.08468821 17361.85450702
0.13800001 753706.02360660 17286.24846656
0.13900001 744961.14044641 17208.60315584
0.14000001 736250.85681549 15571.70635602
0.14100001 727578.10420445 20146.63865560
0.14200001 718942.08098870 16963.43920101
0.14300001 710348.10290932 21480.92764518
0.14400001 701789.83824706 15263.92970187
0.14500001 693276.14622783 16701.02315045
0.14600001 684801.92049355 15099.88305921
0.14700001 676373.67334390 18018.59550794
0.14800001 667986.45137359 29858.99578511
0.14900001 659643.49702897 17810.37526009
0.15000001 651346.82141823 17703.60744146
0.15100001 643096.28179910 16128.85550856
0.15200001 634893.65805865 17484.97216800
0.15300001 626738.85101890 17373.20177007
0.15400001 618630.54693948 20136.42525314
0.15500001 610573.79688697 18573.65577785
0.15600001 602564.85594592 21285.60454086
0.15700001 594610.29661916 21138.39704248
0.15800001 586702.80779209 15392.14888892
0.15900001 578850.47342852 20838.61802702
0.16000001 571048.34414361 16548.98179443
0.16100001 563302.93960037 21901.21932549
0.16200001 555609.15441844 19018.50225353
0.16300001 547971.25266055 14828.10279700
0.16400001 540388.03001376 13374.60437425
0.16500001 532860.92584361 15921.88521590
0.16600001 525389.56639907 13161.00925967
0.16700001 517974.53214121 14358.25470888
0.16800001 510615.85145720 16827.34617930
0.16900001 503316.98966964 20535.33414816
0.17000001 496075.08724372 17814.05722410
0.17100001 488892.05839046 17658.78198293
0.17200001 481767.73000901 17502.62245775
0.17300001 474702.71222033 14867.68964886
0.17400001 467698.65200659 13504.79921447
0.17500001 460753.69346312 18245.84712285
0.17600001 453867.28182624 14460.21228193
0.17700001 447044.04518379 15516.89954120
0.17800001 440280.77238688 15368.00108603
0.17900001 433578.55255653 14047.94576637
0.18000001 426938.74635433 13909.66501325
0.18100001 420361.62350836 11475.87286386
0.18200001 413843.50308409 12496.00516591
0.18300001 407390.20194411 11243.97010481
0.18400001 400997.76729310 15578.76399529
0.18500001 394668.82829665 16516.89124451
0.18600001 388402.34995786 11984.15507412
0.18700001 382198.20850516 15089.18598467
0.18800001 376056.71042885 12793.44989323
0.18900001 369980.08142716 11598.87610076
0.19000001 363962.68550641 12513.03771894
0.19100001 358013.25264393 14435.09502866
0.19200001 352123.31828063 13252.16170967
0.19300001 346299.41065689 13100.50732418
0.19400001 340537.59678814 13945.01524743
0.19500001 334839.73005781 11813.14623467
0.19600001 329203.65247320 9727.96839029
0.19700001 323631.87695696 9611.86719986
0.19800001 318123.36056934 12344.77759029
0.19900001 312678.96463786 11256.44325894
0.20000001 307295.56975097 12044.45042562
0.20100001 301977.07082246 10064.89624620
0.20200001 296720.16841094 14456.20728823
0.20300001 291527.02348714 9812.80007438
0.20400001 286396.55703304 10568.03345403
0.20500001 281327.97002628 8693.03468470
0.20600001 276322.45922435 8579.81276447
0.20700001 271378.92577037 9313.72517269
0.20800001 266497.43781921 9190.16457762
0.20900001 261680.15626059 9067.21784305
0.21000001 256922.16615168 10571.06302603
0.21100001 252225.97993442 8020.78654108
0.21200001 247591.15707407 8701.59162673
0.21300001 243017.25508871 10921.19595999
0.21400001 238505.26784797 9230.15430209
0.21500001 234054.34322830 11375.04161868
0.21600001 229662.47229547 7475.51382665
0.21700001 225331.43635266 8105.17214881
0.21800001 221060.35050820 8714.19942905
0.21900001 216847.56982515 9302.76118535
0.22000001 212694.00127840 7050.80647576
0.22100001 208601.72370886 9030.36904634
0.22200001 204566.78639338 7527.03526126
0.22300001 200590.10093078 7413.81048097
0.22400001 196669.96476191 6637.61162458
0.22500001 192810.57618194 8497.16249415
0.22600001 189006.54957845 7079.24064923
0.22700001 185260.71126648 6969.50828743
0.22800001 181570.63653243 10602.81782172
0.22900001 177936.54072401 6752.69203982
0.23000001 174358.48549399 7249.82616970
0.23100001 170837.57007327 5945.14771971
0.23200001 167369.62359129 9359.30979386
0.23300001 163957.75766372 6905.90107941
0.23400001 160600.20815001 6793.38912604
0.23500001 157295.27442898 7238.72887159
0.23600001 154044.99430520 6023.92978722
0.23700001 150847.45266765 5923.77974644
0.23800001 147702.75533154 5824.65843200
0.23900001 144610.35274864 7288.36212327
0.24000001 141569.54465623 6653.06106581
0.24100001 138581.37613920 7545.75628770
0.24200001 135643.48144753 5438.62564590
0.24300001 132756.33319800 5830.65842986
0.24400001 129918.75014041 5729.41715221
0.24500001 127131.16748091 5629.36836235
0.24600001 124392.96395445 5069.63548578
0.24700001 121704.15950386 4527.39494772
0.24800001 119062.69810969 5336.39038172
0.24900001 116469.08600431 5241.10911814
0.25000001 113923.48346202 4718.14129079
0.25100001 111424.08360578 4211.83055956
0.25200001 108972.43610703 6616.80663346
0.25300001 106566.75010440 4060.19337107
0.25400001 104205.80369470 3985.87217990
0.25500001 101890.22467325 4695.10177508
0.25600001 99619.67714756  4224.37260931
0.25700001 97392.87897335  6030.56735136
0.25800001 95209.92494898  5548.35863892
0.25900001 93070.31667515  3629.74252207
0.26000001 90974.11402032  4630.12775214
0.26100001 88918.07098451  4892.27249705
0.26200001 86906.25971313  3771.29731870
0.26300001 84934.44000622  4036.08478007
0.26400001 83003.31546701  3299.38194593
0.26500001 81113.47850421  3883.71353455
0.26600001 79262.51991203  4126.80329450
0.26700001 77452.21095469  4047.65273603
0.26800001 75680.59417895  3969.82575551
0.26900001 73946.73648521  3893.29586018
0.27000001 72251.73856918  3818.14330537
0.27100001 70594.00341751  3168.25902331
0.27200001 68973.71449207  3106.92111633
0.27300001 67389.58190211  3323.65433670
0.27400001 65840.42612805  3530.69301821
0.27500001 64329.16639991  3462.19589949
0.27600001 62851.04982974  3133.75349282
0.27700001 61409.34247299  3329.00061301
0.27800001 60000.82562787  4268.75894132
0.27900001 58626.74020495  2954.78784617
0.28000001 57285.54689746  2656.04450761
0.28100001 55977.23844671  2604.62102820
0.28200001 54701.75277511  2322.08951521
0.28300001 53458.03540665  3415.96862416
0.28400001 52246.12561644  3126.93076614
0.28500001 51065.36925745  2628.84533380
0.28600001 49914.53087570  2578.58478709
0.28700001 48794.37132888  3372.66710589
0.28800001 47703.20332600  2895.10754689
0.28900001 46642.84916950  2231.86043840
0.29000001 45610.03363895  2588.14148135
0.29100001 44606.73420540  3126.04008109
0.29200001 43630.78124263  2684.60209694
0.29300001 42682.28849831  2070.51791306
0.29400001 41760.87615651  2032.71074314
0.29500001 40867.20977339  1995.95461982
0.29600001 39998.68922109  2494.71836481
0.29700001 39155.81857625  1925.29169053
0.29800001 38338.94530567  2579.25266754
0.29900001 37547.04458073  2027.54050334
0.30000001 36779.65656591  2158.78204433
0.30100001 36037.25232510  1632.48760761
0.30200001 35317.39438752  2086.72834617
0.30300001 34621.45372343  1736.61220098
0.30400001 33949.18467907  1708.49279986
0.30500001 33298.36481353  2292.59252595
0.30600001 32669.98056453  2256.67901433
0.30700001 32063.92539382  2073.89479266
0.30800001 31479.05728834  1604.95981183
0.30900001 30915.12416017  1581.30867566
0.31000001 30372.67872774  1841.95118865
0.31100001 29848.80084692  2235.07831324
0.31200001 29346.13649910  1653.36140864
0.31300001 28862.20974924  1631.29217226
0.31400001 28398.97650598  1744.40721447
0.31500001 27953.60092415  1457.50082119
0.31600002 27526.68779820  1832.45169349
0.31700002 27117.48571574  1293.50412989
0.31800002 26726.53953801  1278.86497745
0.31900002 26353.12168930  1644.43487127
0.32000002 25996.42720054  1877.59204346
0.32100002 25656.91347762  1610.99767354
0.32200002 25333.84436236  1350.16729922
0.32300002 25026.10613584  1337.89569737
0.32400002 24734.52396126  1567.55053027
0.32500002 24457.77428780  1554.78078510
0.32600002 24196.77599229  1898.96306979
0.32700002 23950.10579514  1178.34526092
0.32800002 23718.67392791  1521.67159790
0.32900002 23500.08245808  1512.23037779
0.33000002 23296.92222437  1272.36146754
0.33100002 23104.96165031  1150.62714467
0.33200002 22928.56709117  1374.33837653
0.33300002 22763.74703328  1368.55653645
0.33400002 22612.36559977  1249.89856772
0.33500002 22472.65038634  1245.88379642
0.33600002 22345.05732054  2033.17686188
0.33700002 22228.38791974  1577.77104926
0.33800002 22124.60273589  1687.55415360
0.33900002 22030.71592351  2022.41981756
0.34000002 21948.41827781  1459.46014250
0.34100002 21876.50429298  1795.62355741
0.34200002 21815.94093470  1795.88834280
0.34300002 21764.00996984  1235.32526439
0.34400002 21722.76667266  1461.39919711
0.34500002 21690.68848308  1238.32146415
0.34600002 21669.10890154  1127.87717174
0.34700002 21654.46301174  1582.50823185
0.34800002 21650.25366286  1133.39083293
0.34900002 21654.19355767  1364.21425874
0.35000002 21666.46064582  1482.96096914
0.35100002 21686.94559625  1259.57785989
0.35200002 21714.55770832  1379.74306214
0.35300002 21750.14295147  1270.42590997
0.35400002 21793.60974262  1392.61172851
0.35500002 21843.91748210  1166.46524879
0.35600002 21900.61470259  1524.61136473
0.35700002 21964.36916534  1297.43534805
0.35800002 22035.06210335  1305.24696551
0.35900002 22111.57977783  1194.02536456
0.36000002 22194.94985928  1682.59922853
0.36100002 22283.24947441  1451.97660453
0.36200002 22378.52000077  1340.36151893
0.36300002 22477.43865139  1349.99502935
0.36400002 22582.46370056  1607.30693002
0.36500002 22692.08064795  1370.37481524
0.36600002 22807.16925487  1506.64167234
0.36700002 22926.48104756  1518.65017653
0.36800002 23051.70502137  1275.91193337
0.36900002 23180.26256957  1929.75695033
0.37000002 23312.03146568  1427.04607377
0.37100002 23448.31097759  1962.62372179
0.37200002 23588.83985810  1847.71391361
0.37300002 23732.30237198  1464.52044875
0.37400002 23880.27237480  1611.91846166
0.37500002 24030.39142886  1761.90838303
0.37600002 24184.77765863  1777.94401380
0.37700002 24340.73922720  1518.13197752
0.37800002 24500.57897338  1392.85798062
0.37900002 24662.79897692  1546.35756911
0.38000002 24827.53661746  1844.56192038
0.38100002 24994.17155257  1861.81592715
0.38200002 25163.24654929  1879.31715756
0.38300002 25334.11445459  2042.94308640
0.38400002 25507.56485550  1473.06194019
0.38500002 25681.71201108  1784.36543506
0.38600002 25858.60567755  1651.20134377
0.38700002 26035.98088111  2121.41182269
0.38800002 26214.67378270  1988.51417399
0.38900002 26394.86030812  1544.09940118
0.39000002 26576.66768380  1870.46596020
0.39100002 26758.61151064  1730.74707450
0.39200002 26941.93772925  1905.87276526
0.39300002 27125.64886353  2565.00147806
0.39400002 27310.74776849  1618.16188195
0.39500002 27495.48392741  1633.23182267
0.39600002 27680.52900358  2142.88825434
0.39700002 27865.54142476  2329.00206263
0.39800002 28051.81448100  2014.68141148
0.39900002 28237.16841244  1694.23018502
0.40000002 28422.52911592  2735.38433172
0.40100002 28607.51982301  2070.04023247
0.40200002 28793.41327285  1914.61810629
0.40300002 28977.78516038  2282.87002310
0.40400002 29161.76207137  2303.05026871
0.40500002 29345.32790821  2323.26972057
0.40600002 29528.43446721  2163.25321156
0.40700002 29710.63139455  2000.11980025
0.40800002 29892.28552315  2384.05934486
0.40900002 30072.16013214  2404.26931648
0.41000002 30251.94648464  2984.05214263
0.41100002 30430.26385275  2068.64943473
0.41200002 30606.88311827  2085.70614892
0.41300002 30782.66710299  3058.56594828
0.41400002 30957.11313954  2505.20449952
0.41500002 31130.50308095  2525.30652958
0.41600002 31301.26800625  2741.05216919
0.41700002 31471.31599413  2170.57676697
0.41800002 31640.59012527  2187.47230196
0.41900002 31806.19194540  2404.54822501
0.42000002 31970.83466074  2422.74996539
0.42100002 32134.25227675  2237.50809205
0.42200002 32295.59053279  2254.07084805
0.42300002 32454.48168335  2270.51564616
0.42400002 32611.50076984  2702.67825437
0.42500002 32766.84761143  2721.94216006
0.42600002 32918.75879693  2951.82524120
0.42700002 33069.86670587  3821.55397762
0.42800002 33218.10177756  2778.86043588
0.42900002 33364.74448513  3228.03918190
0.43000002 33509.01140005  2382.99345864
0.43100002 33649.55533430  2398.54041789
0.43200002 33788.66353514  2194.57380060
0.43300002 33924.89124545  3091.91473463
0.43400002 34059.07068738  2889.06080796
0.43500002 34190.17606661  3354.05643108
0.43600002 34319.80172150  2924.56204229
0.43700002 34445.71067778  2715.69995853
0.43800002 34568.33952517  2731.59031873
0.43900002 34689.40960171  3205.30159910
0.44000002 34806.95173107  2762.97595935
0.44100002 34922.47611606  2546.89630384
0.44200002 35034.92109663  2793.68474064
0.44300002 35144.79516471  2574.70781578
0.44400002 35251.19297093  2588.31896655
0.44500002 35354.03578516  3547.77765917
0.44600002 35454.81558247  2614.97004721
0.44700002 35552.87683234  2389.15343636
0.44800002 35646.94814489  3121.06869274
0.44900002 35739.38692397  3618.61309754
0.45000002 35828.47515802  2908.55575117
0.45100002 35913.29907790  2678.41397217
0.45200002 35996.11044354  3424.31014878
0.45300002 36075.27991156  2456.72667841
0.45400002 36151.93984496  3207.58101476
0.45500002 36225.39650721  3468.94413393
0.45600002 36295.40020142  3483.26972241
0.45700002 36362.37075317  2747.90448805
0.45800002 36425.59773996  2507.90252326
0.45900002 36486.05102942  2517.53764035
0.46000002 36544.14023898  2779.73015902
0.46100002 36597.64903335  2789.83891804
0.46200002 36648.98082796  3817.90775870
0.46300002 36696.64619623  2809.49536594
0.46400002 36740.68209094  3587.72777622
0.46500002 36782.44773461  2828.20254036
0.46600002 36820.22834093  3353.03425279
0.46700002 36854.83769398  3363.37264736
0.46800002 36886.95258890  4670.99502772
0.46900002 36914.99989981  2862.75837791
0.47000002 36939.62451384  2870.76305516
0.47100002 36961.56032765  2616.87859523
0.47200002 36979.97965724  3148.47561725
0.47300002 36995.81225736  2893.44261379
0.47400002 37007.01550216  3427.77497336
0.47500002 37016.20706882  2642.95730998
0.47600002 37022.41315114  3973.43067978
0.47700002 37024.33250156  3716.50267266
