# SAXS profile: number of points = 501, q_min = 0, q_max = 0.5, delta_q = 0.001
#    q    intensity    error
0.00000000 1664650.74656091 349.57665678
0.00100000 1664582.31032658 549.31217545
0.00200000 1664376.93311803 898.76357234
0.00300000 1664034.81420249 998.42092409
0.00400000 1663555.78704201 1746.73364277
0.00500000 1662940.31821609 2394.63415301
0.00600000 1662188.14707453 2268.88691313
0.00700000 1661299.93717738 2990.34001120
0.00800000 1660275.11984816 2913.78295835
0.00900000 1659115.04093801 3484.14173491
0.01000000 1657818.85857262 2735.40123476
0.01100000 1656387.85359684 3279.64809292
0.01200000 1654821.46594480 4517.66280010
0.01300000 1653121.08467421 4513.02076021
0.01400000 1651285.90149618 5944.62950892
0.01500000 1649317.74992999 5541.70788653
0.01600000 1647215.51209787 5460.51966671
0.01700000 1644981.21337561 6662.17421303
0.01800000 1642614.49639334 5617.74183045
0.01900000 1640116.03075385 5412.38314571
0.02000000 1637486.48943045 7737.12401255
0.02100000 1634727.42113559 7552.44102806
0.02200000 1631837.15427484 7881.77381323
0.02300000 1628818.38688968 7622.87039762
0.02400000 1625671.23910206 6096.26742461
0.02500000 1622396.87783544 6327.34811253
0.02600000 1618995.41204389 7868.31806242
0.02700000 1615468.17884620 8820.45666049
0.02800000 1611814.70140501 11218.23083624
0.02900000 1608037.76194349 10854.25539148
0.03000000 1604137.59815446 8951.08820914
0.03100000 1600114.46349260 10752.76968944
0.03200000 1595969.25638756 9480.05781958
0.03300000 1591704.93736326 10553.00422122
0.03400000 1587319.39200339 10000.11263103
0.03500000 1582816.02589286 10256.64832142
0.03600000 1578194.54764461 8758.98014421
0.03700000 1573456.76549723 11659.31517155
0.03800000 1568603.93826890 11929.23350261
0.03900000 1563637.40868556 11258.18986390
0.04000000 1558555.96780577 13419.16750464
0.04100000 1553363.71282619 10764.81102901
0.04200000 1548060.70767143 17972.98564988
0.04300000 1542647.40109875 12217.76798383
0.04400000 1537127.11739986 10375.60852431
0.04500000 1531499.61954363 11624.08265245
0.04600000 1525765.21652344 16134.96791480
0.04700000 1519927.15920381 16415.21408284
0.04800000 1513985.56703296 12240.57387899
0.04900000 1507943.18042443 16964.36156942
0.05000000 1501799.33250525 18382.02468584
0.05100000 1495557.66033799 11665.35029406
0.05200000 1489216.28822437 15391.05105604
0.05300000 1482780.73086343 14412.62937588
0.05400000 1476248.90778043 14614.86486857
0.05500000 1469625.23910771 12344.85258438
0.05600000 1462908.04739279 17511.01014443
0.05700000 1456102.31297466 13934.89978563
0.05800000 1449206.60222545 14108.02693140
0.05900000 1442223.02182963 16874.01014352
0.06000000 1435154.13939007 17071.15928559
0.06100000 1428001.69020256 15936.49960739
0.06200000 1420765.87958827 13426.23818970
0.06300000 1413450.07925574 13569.12139528
0.06400000 1406052.25568792 21934.41621453
0.06500000 1398578.94857751 16615.11868632
0.06600000 1391027.66736783 19571.76019560
0.06700000 1383401.34887454 16932.83330266
0.06800000 1375703.28174773 17086.23555910
0.06900000 1367933.71707464 18672.29611229
0.07000000 1360092.71535110 21727.48214520
0.07100000 1352185.04000024 17524.31893920
0.07200000 1344209.20700212 20606.72810870
0.07300000 1336170.37750802 20764.08863939
0.07400000 1328067.68476715 22411.14323072
0.07500000 1319903.39282465 16551.58932184
0.07600000 1311677.90241118 16664.86853139
0.07700000 1303396.42780285 16774.71281236
0.07800000 1295057.24996265 21485.00078445
0.07900000 1286662.72021517 16983.94870345
0.08000000 1278216.54412806 17083.36491367
0.08100000 1269718.70589539 18741.04897831
0.08200000 1261170.31100690 17271.72821972
0.08300000 1252574.46483591 15782.43899763
0.08400000 1243931.43308171 19032.15181949
0.08500000 1235245.44225944 17528.13364852
0.08600000 1226515.73034036 17606.63413569
0.08700000 1217745.48314962 22503.93758534
0.08800000 1208933.77026430 24208.89988648
0.08900000 1200086.43037738 21061.51784238
0.09000000 1191202.41356998 17885.90507995
0.09100000 1182284.09863101 19578.62559316
0.09200000 1173332.51004587 21278.38606948
0.09300000 1164351.09650045 27909.49709464
0.09400000 1155338.19612568 18109.92707539
0.09500000 1146298.26160247 16506.69574293
0.09600000 1137232.06587732 26474.76373814
0.09700000 1128142.90970245 16583.70155227
0.09800000 1119031.22419082 16617.61446056
0.09900000 1109899.20633932 18313.33776574
0.10000000 1100746.10848892 18343.93476063
0.10100000 1091575.29233624 20041.32330987
0.10200000 1082388.78027099 18395.19818595
0.10300000 1073187.16868255 23438.40886659
0.10400000 1063973.69160663 16757.58643117
0.10500000 1054750.55023653 21801.69489914
0.10600001 1045514.27094121 23492.70677346
0.10700001 1036272.38237049 18466.37472283
0.10800001 1027022.41239823 20150.18067955
0.10900001 1017768.34383135 16793.17846360
0.11000001 1008510.46535934 16791.70003861
0.11100001 999250.61696329 18466.15227075
0.11200001 989991.61563476 25170.53801247
0.11300001 980731.86319682 21801.67034531
0.11400001 971476.06783492 16757.96295919
0.11500001 962224.49818409 25114.06058518
0.11600001 952978.07471330 18397.24259869
0.11700001 943739.95792630 18374.61784618
0.11800001 934508.16327790 18349.06865017
0.11900001 925287.02864980 21651.71749024
0.12000001 916076.98979673 24940.19722202
0.12100001 906881.04798444 18255.51635591
0.12200001 897697.67049842 23187.53192137
0.12300001 888530.79391663 19832.00825459
0.12400001 879379.66274641 19786.04334406
0.12500001 870246.82037052 19737.19881603
0.12600001 861134.81104043 21326.00460037
0.12700001 852043.44952575 22902.92900258
0.12800001 842972.43046098 24467.27594725
0.12900001 833925.89512204 27644.64472625
0.13000001 824903.48524027 19451.22509880
0.13100001 815905.88269513 22616.91213442
0.13200001 806936.20792436 20927.89153907
0.13300001 797996.03518227 20851.63738232
0.13400001 789083.15475677 17576.82810088
0.13500001 780201.89596590 30240.62691343
0.13600001 771351.14861545 20606.64690688
0.13700001 762533.93383569 18941.34380962
0.13800001 753749.10106896 15715.66949837
0.13900001 745001.49397274 15645.03211122
0.14000001 736288.37745600 15572.49991760
0.14100001 727612.71874128 23247.22746019
0.14200001 718973.64213448 18506.38242140
0.14300001 710376.46431926 15344.13235304
0.14400001 701815.03734132 19843.82111686
0.14500001 693298.03064193 21256.51862220
0.14600001 684820.58125310 18120.35343477
0.14700001 676389.01535127 16517.42053411
0.14800001 667998.32642276 22394.64494987
0.14900001 659651.85708497 16326.38423314
0.15000001 651351.60179800 17703.73737218
0.15100001 643097.45907624 16128.88503467
0.15200001 634891.25917602 16027.83059420
0.15300001 626732.66604121 17373.03032248
0.15400001 618620.61147346 23012.68783280
0.15500001 610559.83137091 14287.10072833
0.15600001 602546.96972225 18446.97634865
0.15700001 594588.63066169 16910.10145412
0.15800001 586676.98920195 22387.59496461
0.15900001 578820.55035668 16670.03263711
0.16000001 571014.42896861 19305.99875472
0.16100001 563264.65189942 16424.79802471
0.16200001 555566.80949269 16300.33095999
0.16300001 547924.59199282 14826.84015927
0.16400001 540337.06347479 18722.68013329
0.16500001 532805.52053904 14593.54389654
0.16600001 525329.86988748 18423.31940677
0.16700001 517910.39452338 18271.87958149
0.16800001 510547.21304212 18119.32144639
0.16900001 503243.70311451 12832.71503536
0.17000001 495997.31439370 17811.26440092
0.17100001 488809.75197721 17655.80907515
0.17200001 481680.81165623 18749.42647912
0.17300001 474611.21604416 17342.29465323
0.17400001 467602.28369194 14729.47263191
0.17500001 460652.69412380 14593.47803906
0.17600001 453761.41671610 12047.36618280
0.17700001 446933.57664496 20286.31600205
0.17800001 440165.46469806 15363.97627096
0.17900001 433458.50469092 11703.38017945
0.18000001 426813.70203333 15064.39032483
0.18100001 420231.77467564 18355.72478489
0.18200001 413708.73123656 14763.19677156
0.18300001 407250.73372746 14612.15701641
0.18400001 400853.37309213 16685.52244320
0.18500001 394519.54723157 12107.80547653
0.18600001 388248.14737318 11979.39715315
0.18700001 382039.10190756 11850.85350106
0.18800001 375892.59899433 12787.86682196
0.18900001 369811.25954820 11593.58353460
0.19000001 363788.83108299 13549.31565387
0.19100001 357834.47906755 13397.32352931
0.19200001 351939.74801340 10188.65618642
0.19300001 346110.91940242 12086.19387664
0.19400001 340344.25831305 12941.59103389
0.19500001 334641.48154742 11806.15202689
0.19600001 329000.62231303 12638.55950341
0.19700001 323424.02983109 15369.11062388
0.19800001 317910.67637539 13285.48779358
0.19900001 312461.34861337 9373.84090141
0.20000001 307073.22111808 12961.56127597
0.20100001 301749.95051084 10971.62871912
0.20200001 296488.42636207 9930.88031037
0.20300001 291290.57485552 9804.84121306
0.20400001 286155.38530593 13198.91777109
0.20500001 281082.26086522 10422.53072552
0.20600001 276072.01180442 8572.03637171
0.20700001 271124.02255970 9304.97689409
0.20800001 266237.97727139 10015.87317840
0.20900001 261416.18139033 9058.07111336
0.21000001 256653.82903085 10560.02229467
0.21100001 251953.32579254 8012.11613896
0.21200001 247314.01082101 8691.85132121
0.21300001 242735.96641439 8571.00737929
0.21400001 238219.69837372 9219.10276291
0.21500001 233764.60539831 10603.56300218
0.21600001 229368.45400593 8212.53788396
0.21700001 225033.56740501 10302.03720288
0.21800001 220758.30876818 8702.29294309
0.21900001 216541.59947730 7860.46043268
0.22000001 212384.19350240 8448.64361700
0.22100001 208288.01219114 7629.59024732
0.22200001 204249.49032733 6832.14577450
0.22300001 200269.08853578 9420.65837018
0.22400001 196345.37273055 8614.65363591
0.22500001 192482.37786175 8482.69879349
0.22600001 188674.93914298 8351.69657610
0.22700001 184925.68474388 7589.35046078
0.22800001 181232.34329761 6225.33128667
0.22900001 177595.03040575 7352.43460650
0.23000001 174013.85688721 9044.37063944
0.23100001 170489.79848454 8306.26337499
0.23200001 167018.90105345 7588.50412825
0.23300001 163604.22419946 8613.76281149
0.23400001 160243.89915592 10732.33565356
0.23500001 156936.29213311 7222.20850555
0.23600001 153683.25923035 6009.78413645
0.23700001 150483.25292839 5372.25238364
0.23800001 147336.16425771 6866.60226001
0.23900001 144241.50121670 6750.50257624
0.24000001 141198.48334390 6125.19049718
0.24100001 138208.26119294 5518.65613047
0.24200001 135268.35005678 5423.58475207
0.24300001 132379.27140414 6298.60603135
0.24400001 129539.73524116 5712.70259437
0.24500001 126750.59764817 5612.51672936
0.24600001 124010.70645918 5054.05658083
0.24700001 121320.47898947 6318.37084467
0.24800001 118677.62755149 4432.60959874
0.24900001 116082.78326148 6094.34640954
0.25000001 113536.00939633 5557.02024280
0.25100001 111035.58004484 5036.57414911
0.25200001 108583.01753445 5356.94342350
0.25300001 106176.45751193 4045.32322259
0.25400001 103814.93500735 3970.92145190
0.25500001 101498.78210246 6236.08546742
0.25600001 99227.67893357  5355.31808542
0.25700001 97000.59299237  5255.49237698
0.25800001 94817.35576433  5157.11622403
0.25900001 92677.74531794  5060.20513378
0.26000001 90581.41769880  3546.26267070
0.26100001 88525.50443779  5218.57873353
0.26200001 86514.00403648  5119.46643110
0.26300001 84542.50185756  3347.88323197
0.26400001 82611.94973112  4268.97270436
0.26500001 80722.75956068  3542.92208477
0.26600001 78872.47367761  4422.37980837
0.26700001 77063.06411355  3097.93532396
0.26800001 75292.45484493  3949.46590578
0.26900001 73559.77397794  3575.00518450
0.27000001 71865.92860343  3505.62016317
0.27100001 70209.56199788  3437.46031809
0.27200001 68590.75477506  3089.67069506
0.27300001 67008.12862830  4131.05132543
0.27400001 65460.85848746  2970.28659444
0.27500001 63951.44580553  2912.34897981
0.27600001 62475.17534992  2595.84365864
0.27700001 61035.64438187  2799.70514030
0.27800001 59629.39935209  2994.58857719
0.27900001 58257.79908358  2936.19321278
0.28000001 56919.03740181  3838.62006405
0.28100001 55613.30849517  3058.17597889
0.28200001 54340.51688143  3690.80808127
0.28300001 53099.61928727  2488.24827757
0.28400001 51890.64525671  3105.65526561
0.28500001 50712.99631917  2393.14640957
0.28600001 49565.49218050  3200.69180905
0.28700001 48448.57494440  2302.27639033
0.28800001 47360.88260363  2258.40379385
0.28900001 46304.00584914  2618.49165471
0.29000001 45274.93921270  2173.87630920
0.29100001 44275.42169506  1939.26356204
0.29200001 43303.46389503  2283.82479393
0.29300001 42358.98089839  2428.44048986
0.29400001 41441.72810190  2567.31517744
0.29500001 40552.31810541  2340.67991184
0.29600001 39688.13864752  2121.72799253
0.29700001 38849.75385982  2083.90089569
0.29800001 38037.52526404  1876.58139774
0.29900001 37250.25888503  2179.14024793
0.30000001 36487.67708358  2141.64430781
0.30100001 35750.17905168  2105.32814402
0.30200001 35035.32778368  1751.59129547
0.30300001 34344.53489840  2505.77738481
0.30400001 33677.56813723  1848.89857826
0.30500001 33032.03592928  1971.02167721
0.30600001 32409.05938110  1641.68098067
0.30700001 31808.53903935  1616.51003051
0.30800001 31229.26328960  1592.22406420
0.30900001 30671.10657910  1996.68913283
0.31000001 30134.35047824  1546.34426800
0.31100001 29616.43854760  1524.65432862
0.31200001 29119.79194264  2050.76144466
0.31300001 28641.95909279  1618.84360457
0.31400001 28184.87543246  1731.25605541
0.31500001 27745.75386172  1841.20831344
0.31600002 27325.17796101  1689.10595563
0.31700002 26922.35815976  1541.03585403
0.31800002 26537.92751481  1396.82388088
0.31900002 26171.04375783  1633.07320781
0.32000002 25820.96311227  1864.91914909
0.32100002 25488.22183289  1846.62175923
0.32200002 25171.91896301  1463.49543781
0.32300002 24871.02185077  1208.73171918
0.32400002 24586.34393262  1318.44275582
0.32500002 24316.66696909  1664.71909953
0.32600002 24062.66138670  1416.32831629
0.32700002 23823.15249570  1289.30907412
0.32800002 23598.84694721  1164.60315199
0.32900002 23387.47843923  1389.21628507
0.33000002 23191.60039351  1266.60931547
0.33100002 23006.98257205  1260.32256498
0.33200002 22837.99595996  1368.90954266
0.33300002 22680.53756528  1136.29498583
0.33400002 22536.57643538  1358.95562341
0.33500002 22404.36253948  1580.85189565
0.33600002 22284.33027446  1239.12024359
0.33700002 22175.35774945  2023.72324405
0.33800002 22079.18863149  1459.54483360
0.33900002 21992.96693366  1345.96964008
0.34000002 21918.29527200  1681.68128439
0.34100002 21854.12035734  1681.67464114
0.34200002 21801.25436754  1346.00950840
0.34300002 21757.14178304  1234.93542609
0.34400002 21723.69029723  1349.04123135
0.34500002 21699.37088344  1464.05662284
0.34600002 21685.64665747  1241.61175818
0.34700002 21678.82903239  1357.96191490
0.34800002 21682.51278142  1362.09551744
0.34900002 21694.24140352  1366.73727315
0.35000002 21714.44784684  1714.89859993
0.35100002 21742.76362475  1607.22516326
0.35200002 21778.20565499  1383.78725286
0.35300002 21821.78471454  1390.48418787
0.35400002 21873.01131317  1164.73790759
0.35500002 21931.23906494  1756.69233231
0.35600002 21995.73495947  1177.87166287
0.35700002 22067.32974183  1303.51722959
0.35800002 22145.82726108  1311.80813994
0.35900002 22230.23038253  1800.64874627
0.36000002 22321.37910945  1329.57300963
0.36100002 22417.41521019  1217.26570357
0.36200002 22520.41603190  1348.86038212
0.36300002 22627.06937059  1976.70087385
0.36400002 22739.83452406  1369.50659908
0.36500002 22857.02740047  1254.85086373
0.36600002 22979.81478778  2024.06218238
0.36700002 23106.73929888  1403.04127669
0.36800002 23239.50574342  1414.93737421
0.36900002 23375.57143862  1686.54755919
0.37000002 23514.87770632  1308.60300634
0.37100002 23658.55185646  1980.22088419
0.37200002 23806.41310440  1731.55953917
0.37300002 23957.25402896  1747.20261910
0.37400002 24112.51973098  2034.49394868
0.37500002 24269.85509110  1916.34784877
0.37600002 24431.38397063  1657.91379478
0.37700002 24594.53451330  1394.51017296
0.37800002 24761.38429838  1689.22171686
0.37900002 24930.56259935  1421.04213548
0.38000002 25102.32203788  1578.05754967
0.38100002 25275.74726713  1882.79050312
0.38200002 25451.70034631  1608.42027958
0.38300002 25629.28650428  1476.24697258
0.38400002 25809.33670023  1490.48926505
0.38500002 25990.03806357  2558.19956779
0.38600002 26173.48192071  1975.18190672
0.38700002 26357.20945793  1840.78759575
0.38800002 26542.36827978  2013.37144125
0.38900002 26728.76461921  1876.35936516
0.39000002 26916.76132241  1894.40175162
0.39100002 27104.75280791  2071.88740280
0.39200002 27294.09083011  1608.98673066
0.39300002 27483.72061316  1786.71676171
0.39400002 27674.67155413  1803.69680399
0.39500002 27865.09978920  1655.18700590
0.39600002 28055.86660133  2339.01770937
0.39700002 28246.40554384  2866.72783446
0.39800002 28438.09722442  2042.42423942
0.39900002 28628.83901510  2404.82259121
0.40000002 28819.40384632  2253.53339053
0.40100002 29009.53327047  1924.20243300
0.40200002 29200.44938590  3000.78432332
0.40300002 29389.71059584  2493.42316509
0.40400002 29578.57560371  2695.34782959
0.40500002 29766.86042715  2537.92264027
0.40600002 29954.57944433  2743.09074258
0.40700002 30141.34304916  2951.44045122
0.40800002 30327.30006454  2046.63794183
0.40900002 30511.40805004  1876.45168399
0.41000002 30695.38452851  2838.55581877
0.41100002 30877.81854093  2289.89913150
0.41200002 31058.33010524  2501.28273354
0.41300002 31237.94328425  1939.87636987
0.41400002 31416.04220302  2346.77846376
0.41500002 31592.99102427  2759.96382666
0.41600002 31767.23395689  2185.74463597
0.41700002 31940.66617768  2002.67986424
0.41800002 32113.15738219  3431.13046308
0.41900002 32281.87051435  2033.75793877
0.42000002 32449.44250914  4508.20126141
0.42100002 32615.64905032  2064.57068271
0.42200002 32779.84084596  2495.85720028
0.42300002 32941.26750106  2304.57118358
0.42400002 33100.80021639  3165.26417068
0.42500002 33258.50267671  2125.21842175
0.42600002 33412.64629973  2140.08009691
0.42700002 33565.79938847  2801.40174971
0.42800002 33716.02172787  2820.51393130
0.42900002 33864.51098016  3713.24380493
0.43000002 34010.52077310  2638.53632661
0.43100002 34152.67784368  2655.71235497
0.43200002 34293.28250279  3341.02320616
0.43300002 34430.82547090  3586.31495100
0.43400002 34566.15127642  2706.52977320
0.43500002 34698.39424173  2269.27509095
0.43600002 34828.97680568  2739.64744536
0.43700002 34955.69226047  3215.22472648
0.43800002 35079.08385772  2540.95355965
0.43900002 35200.66911828  4414.16411662
0.44000002 35318.70054917  3037.23179766
0.44100002 35434.43775583  3054.09433491
0.44200002 35547.14771723  2834.52969330
0.44300002 35657.13061151  2612.24151239
0.44400002 35763.45920677  3342.09542126
0.44500002 35866.10862190  3119.27561467
0.44600002 35966.57071158  2411.55868050
0.44700002 36064.17635449  2423.51276588
0.44800002 36157.64751910  2922.26121098
0.44900002 36249.42657759  2936.20369194
0.45000002 36337.73352667  2458.24778958
0.45100002 36421.67836139  2716.32890093
0.45200002 36503.39517854  3720.60872990
0.45300002 36581.37613508  2491.19183286
0.45400002 36656.79354317  2752.00890568
0.45500002 36728.78918889  3265.92408946
0.45600002 36797.30356990  3531.43739097
0.45700002 36862.68148779  2532.46633823
0.45800002 36924.07996075  3304.88993352
0.45900002 36982.66173128  4593.24680472
0.46000002 37038.74724672  2561.22949350
0.46100002 37090.17817706  2827.38441644
0.46200002 37139.24012182  4126.91255793
0.46300002 37184.58379181  2846.85187003
0.46400002 37226.17532221  3375.48360732
0.46500002 37265.37724538  3125.81999149
0.46600002 37300.56234284  3135.48541915
0.46700002 37332.33714670  3669.02226867
0.46800002 37361.56541427  3942.57937720
0.46900002 37386.65299500  4480.79057382
0.47000002 37408.16725529  3171.46457022
0.47100002 37426.93082284  2914.80951064
0.47200002 37442.04348271  2922.16442211
0.47300002 37454.45924882  3195.61461457
0.47400002 37462.20991859  4003.77387482
0.47500002 37467.78558849  3210.24002138
0.47600002 37470.31151711  3217.20109935
0.47700002 37468.46070815  2955.13763612
