# SAXS profile: number of points = 501, q_min = 0, q_max = 0.5, delta_q = 0.001
#    q    intensity    error
0.00000000 1682732.95097188 378.61491397
0.00100000 1682663.78085690 656.23889012
0.00200000 1682456.21154310 832.81585108
0.00300000 1682110.42481173 1513.89943626
0.00400000 1681626.26501501 1513.46369602
0.00500000 1681004.22074090 2118.06540197
0.00600000 1680243.98481129 2469.95875823
0.00700000 1679346.27532543 2216.73717556
0.00800000 1678310.49694039 2945.43504649
0.00900000 1677138.01501782 3521.98998209
0.01000000 1675827.95836757 3318.13950084
0.01100000 1674381.63779616 3616.66449511
0.01200000 1672798.45566996 3588.15284473
0.01300000 1671079.87867907 4912.97506000
0.01400000 1669225.02290714 3755.75646804
0.01500000 1667235.84915981 5201.77608101
0.01600000 1665111.06401895 4670.63674337
0.01700000 1662852.88413259 5387.64358627
0.01800000 1660460.77909086 4732.31343335
0.01900000 1657935.53217923 4973.80682097
0.02000000 1655277.86237128 6778.36315303
0.02100000 1652489.25515747 5998.53626819
0.02200000 1649568.02616400 5691.00994882
0.02300000 1646516.98604454 10669.43055522
0.02400000 1643336.09459078 6162.51063571
0.02500000 1640026.63669820 7035.71459276
0.02600000 1636588.79882389 8616.64041992
0.02700000 1633023.72161256 7544.56993940
0.02800000 1629331.13258594 8505.10890214
0.02900000 1625513.67373991 7314.81186768
0.03000000 1621571.71740599 9048.37059904
0.03100000 1617505.39315016 8540.42886880
0.03200000 1613315.86268389 8784.50527691
0.03300000 1609005.84603921 13129.48830896
0.03400000 1604573.31094933 11793.61437964
0.03500000 1600021.62084158 12096.16401214
0.03600000 1595350.52257530 9739.61539043
0.03700000 1590561.96840752 13599.30545882
0.03800000 1585657.08622380 10203.70382207
0.03900000 1580637.34185387 12328.97183742
0.04000000 1575501.30821881 14534.00024181
0.04100000 1570253.36001823 11871.11595216
0.04200000 1564893.53963663 12112.27655871
0.04300000 1559422.07151982 13379.84199471
0.04400000 1553842.52446610 11537.28127997
0.04500000 1548154.61403999 16023.40099984
0.04600000 1542358.66692238 16310.44366093
0.04700000 1536457.94412683 15487.49679709
0.04800000 1530452.46914280 11248.82617159
0.04900000 1524345.15300901 16005.62485162
0.05000000 1518135.53130667 12775.11109083
0.05100000 1511826.69462306 12971.47364413
0.05200000 1505417.22490818 13164.87424532
0.05300000 1498912.43646197 13355.31043147
0.05400000 1492310.48348597 14773.87447547
0.05500000 1485615.61771807 14975.00612517
0.05600000 1478826.28568053 12643.96533259
0.05700000 1471947.30313059 12805.94213500
0.05800000 1464977.47970118 14261.55643080
0.05900000 1457918.66488268 17057.64917582
0.06000000 1450773.74917258 15929.49651012
0.06100000 1443544.41029488 13424.96364311
0.06200000 1436230.84821141 17644.09679502
0.06300000 1428836.31611897 16460.19513129
0.06400000 1421358.98082541 15244.07578227
0.06500000 1413805.02064988 16796.00443100
0.06600000 1406172.39377945 21198.04982805
0.06700000 1398464.15998184 17117.20211924
0.06800000 1390683.09236924 23029.71308763
0.06900000 1382830.04043225 15971.68771477
0.07000000 1374904.55978385 16107.00767213
0.07100000 1366911.55508024 19191.43913221
0.07200000 1358849.85917630 16367.34732054
0.07300000 1350724.45125439 16492.34632257
0.07400000 1342534.30067167 18124.21390844
0.07500000 1334282.14601955 18252.98061311
0.07600000 1325967.76104092 19909.40686539
0.07700000 1317597.02009764 16957.47444377
0.07800000 1309167.92907342 17065.00475576
0.07900000 1300682.81642829 17169.01398214
0.08000000 1292145.47535027 26689.26604538
0.08100000 1283556.07249049 17366.51447560
0.08200000 1274915.28115549 19047.23519426
0.08300000 1266226.66653599 15954.45674713
0.08400000 1257490.40325026 17636.30373341
0.08500000 1248710.74410326 22551.71709720
0.08600000 1239886.85647433 19416.62908403
0.08700000 1231021.73697828 25999.18030584
0.08800000 1222114.87291058 17946.75775154
0.08900000 1213172.05535685 18015.60586824
0.09000000 1204191.96061029 18080.94313792
0.09100000 1195177.22601399 16493.44649387
0.09200000 1186129.04571408 21510.45125473
0.09300000 1177050.48261063 18256.05384318
0.09400000 1167940.18826899 21636.09300452
0.09500000 1158802.46035207 23361.45869875
0.09600000 1149638.27576719 18399.96146860
0.09700000 1140450.84899852 18441.09109527
0.09800000 1131240.72240215 35277.74358679
0.09900000 1122009.80620838 28611.25140369
0.10000000 1112757.82998201 20229.93830043
0.10100000 1103487.78817406 20260.03674374
0.10200000 1094201.83889905 18595.96112677
0.10300000 1084900.81446792 25386.68025276
0.10400000 1075587.61016536 16940.50565707
0.10500000 1066264.64973187 23735.05221975
0.10600001 1056928.31679024 20356.44033922
0.10700001 1047586.48496753 18667.99204059
0.10800001 1038236.35726394 22067.71481219
0.10900001 1028882.02773976 20371.86510806
0.11000001 1019524.10085576 28857.63103304
0.11100001 1010164.09286158 20364.90907073
0.11200001 1000804.65085701 22052.73151981
0.11300001 991444.57510031 23735.18424537
0.11400001 982088.68645546 18635.13370292
0.11500001 972736.94583880 18618.18602005
0.11600001 963390.34066083 23670.50178472
0.11700001 954052.34186163 20264.07269548
0.11800001 944720.45868691 18549.58707997
0.11900001 935399.59182600 23572.07082430
0.12000001 926089.70133364 20170.23464516
0.12100001 916794.29171983 25166.00449323
0.12200001 907511.61318129 18417.94905721
0.12300001 898245.36612211 20048.83751643
0.12400001 888995.14116283 21669.25758684
0.12500001 879763.39181245 31592.30488863
0.12600001 870552.71609849 16584.03002317
0.12700001 861362.78076631 18191.98278711
0.12800001 852193.83852757 21436.93701847
0.12900001 843049.10106821 21371.29571935
0.13000001 833929.21467079 18025.38082473
0.13100001 824834.26906388 21231.23508649
0.13200001 815767.55668552 24411.84528460
0.13300001 806730.40636233 21079.86651202
0.13400001 797721.23797417 19384.62699667
0.13500001 788743.73430236 17699.41023224
0.13600001 779797.27186255 17627.31816159
0.13700001 770884.75291724 17553.04665161
0.13800001 762004.91875076 25420.48528825
0.13900001 753162.64264881 17398.05786565
0.14000001 744355.30806152 18891.73860955
0.14100001 735585.91270877 17234.77874761
0.14200001 726853.39396513 17150.10663950
0.14300001 718163.42591115 21717.26302390
0.14400001 709509.41267381 18518.19654429
0.14500001 700900.66454014 21489.61538851
0.14600001 692331.68575224 19845.68870830
0.14700001 683808.80110408 25806.94537115
0.14800001 675327.69290361 19621.64704304
0.14900001 666891.14013494 19506.56676928
0.15000001 658501.45909108 23864.09400344
0.15100001 650158.09648742 14823.60529936
0.15200001 641863.50782924 22096.15229967
0.15300001 633617.02890110 20491.17568162
0.15400001 625417.52474039 21811.43720463
0.15500001 617269.91415608 24554.99834395
0.15600001 609171.06345082 21518.96883199
0.15700001 601126.83286034 17096.04793343
0.15800001 593130.15624227 16975.38587287
0.15900001 585189.15450333 14044.54037099
0.16000001 577299.13963983 18124.30734450
0.16100001 569466.39043799 15221.83733494
0.16200001 561685.55907520 15106.53382445
0.16300001 553961.46697529 16352.94327710
0.16400001 546292.46851525 14872.81315747
0.16500001 538680.30296950 20119.71026579
0.16600001 531124.18219013 21287.45822723
0.16700001 523625.48146384 13195.36275590
0.16800001 516183.45199901 19627.87668902
0.16900001 508801.83373122 18164.22632188
0.17000001 501478.14436709 24439.53851976
0.17100001 494213.44488649 21676.20271630
0.17200001 487008.35443152 15165.44087315
0.17300001 479863.50627570 15029.32572631
0.17400001 472779.75598201 14892.56301675
0.17500001 465755.96361179 13525.55382207
0.17600001 458791.48028098 14617.09725210
0.17700001 451890.79155495 14478.58164525
0.17800001 445050.89064972 13144.57867619
0.17900001 438272.58965778 21300.04886345
0.18000001 431557.34331412 12888.46066686
0.18100001 424905.43400081 13919.90267539
0.18200001 418313.22985891 17224.04805307
0.18300001 411786.79786703 11365.31615802
0.18400001 405321.67869092 15746.74796103
0.18500001 398920.99679330 13355.87560360
0.18600001 392583.24844272 13214.35276687
0.18700001 386308.73691338 13072.68827477
0.18800001 380097.41897830 12930.91480458
0.18900001 373951.93517831 14920.68291858
0.19000001 367866.19208204 12647.24028135
0.19100001 361849.16162082 11463.38198179
0.19200001 355892.81145616 12363.71685419
0.19300001 350002.68510387 12222.09434135
0.19400001 344175.57706966 12080.56332600
0.19500001 338412.95374335 10944.27544123
0.19600001 332713.22421830 13764.34673636
0.19700001 327078.35135063 11657.07299302
0.19800001 321507.55673555 14395.50153315
0.19900001 316001.45405709 15168.07051158
0.20000001 310557.17982875 10299.62935579
0.20100001 305178.68451483 11096.29749340
0.20200001 299862.50379709 10956.97640661
0.20300001 294610.80904635 11719.61853779
0.20400001 289422.57115774 11569.66782888
0.20500001 284296.86554132 9663.25091650
0.20600001 279234.98519122 9537.27137001
0.20700001 274236.03461118 11978.63055804
0.20800001 269299.58199116 8442.54229450
0.20900001 264428.27150666 11661.28732469
0.21000001 259617.09804488 9038.56969571
0.21100001 254868.30542484 13778.18124261
0.21200001 250181.74023007 8792.63767605
0.21300001 245556.84146159 10247.08747863
0.21400001 240994.73098721 9326.49653013
0.21500001 236494.26989474 13026.10500164
0.21600001 232053.38916490 9819.33962676
0.21700001 227674.31796114 8933.94065919
0.21800001 223355.95635121 9538.41656696
0.21900001 219096.63987226 8676.22734917
0.22000001 214897.23139680 9260.99662493
0.22100001 210759.89442158 7018.30481609
0.22200001 206680.66490977 8296.16228176
0.22300001 202660.38709332 7490.32826115
0.22400001 198697.38503920 8047.24447461
0.22500001 194795.81604942 7924.29417161
0.22600001 190950.42828126 8452.42110757
0.22700001 187163.70094562 7681.19865005
0.22800001 183433.68024959 6931.04193600
0.22900001 179760.31083338 8682.42342385
0.23000001 176143.83378596 7934.39936812
0.23100001 172585.00997888 7807.74622069
0.23200001 169079.97231649 6500.27984313
0.23300001 165631.81614794 9883.25093697
0.23400001 162238.37612879 5718.90302902
0.23500001 158898.44830227 7312.50693672
0.23600001 155613.82951677 6085.27909107
0.23700001 152382.59676577 7616.08254658
0.23800001 149204.92616599 5883.89654166
0.23900001 146080.20254243 7362.44255638
0.24000001 143007.87360865 5686.70836303
0.24100001 139988.75468186 7114.22884944
0.24200001 137020.57722545 5493.84030372
0.24300001 134103.73828595 6871.47587481
0.24400001 131237.08037031 6752.14810445
0.24500001 128421.26600891 5212.61943388
0.24600001 125655.43490454 5121.08749179
0.24700001 122939.61768449 5488.02479305
0.24800001 120271.79604070 5390.58215355
0.24900001 117652.36614100 5735.55312071
0.25000001 115081.60492097 4766.10489328
0.25100001 112557.67031775 5531.08418108
0.25200001 110082.08056319 4595.37667052
0.25300001 107653.12507932 4921.90111148
0.25400001 105269.58590081 4429.21803633
0.25500001 102931.94808962 4743.10439238
0.25600001 100639.84087177 4655.59925900
0.25700001 98392.26144274  3807.78069799
0.25800001 96188.96108480  4110.63544645
0.25900001 94029.68938704  4400.58967153
0.26000001 91914.09458469  4318.12436790
0.26100001 89839.46895753  4589.89868622
0.26200001 87809.71202912  4156.91196415
0.26300001 85820.46209153  3738.33950560
0.26400001 83872.27024844  5000.88435020
0.26500001 81965.98911600  4578.62036868
0.26600001 80099.28188111  3528.77403025
0.26700001 78273.54851821  4405.23551906
0.26800001 76487.06813105  3703.50401416
0.26900001 74738.97213086  4540.39277181
0.27000001 73030.03052441  2968.67088130
0.27100001 71359.21791130  3493.74747427
0.27200001 69726.05894641  4853.97982326
0.27300001 68129.54891501  3080.13705221
0.27400001 66568.55187161  3844.33405252
0.27500001 65045.95895736  3231.48339393
0.27600001 63557.07208138  2904.87611696
0.27700001 62104.92409027  2848.75300284
0.27800001 60686.40941382  3555.61689583
0.27900001 59302.78038699  2988.86027296
0.28000001 57952.63213896  3664.05534040
0.28100001 56635.55439704  2874.82087726
0.28200001 55351.99944164  2584.66173626
0.28300001 54100.57097247  2535.15287576
0.28400001 52881.30210027  2938.87850332
0.28500001 51693.60958985  2439.42155201
0.28600001 50536.28336649  2828.26323247
0.28700001 49409.91012020  2774.86068369
0.28800001 48313.17382454  3141.56427664
0.28900001 47247.52101106  2466.32071352
0.29000001 46209.68594433  2420.46346433
0.29100001 45201.72047188  1979.83545038
0.29200001 44221.61077255  2137.89387400
0.29300001 43269.32152873  2098.99488672
0.29400001 42344.41150121  2435.86238691
0.29500001 41447.50005755  1840.26908967
0.29600001 40576.25242009  2530.74098324
0.29700001 39730.92394447  1953.56962283
0.29800001 38911.97511067  2443.28303286
0.29900001 38118.17607657  2058.38160558
0.30000001 37349.23302961  2360.84513156
0.30100001 36605.71047130  1824.06263914
0.30200001 35885.01078993  1957.16858114
0.30300001 35188.42607168  1925.51076580
0.30400001 34515.92780143  3316.11792051
0.30500001 33865.02821151  2331.60730275
0.30600001 33236.88698464  1989.72633353
0.30700001 32631.32672371  1959.83757581
0.30800001 32047.32606234  2525.16917663
0.30900001 31484.38121798  1756.82855514
0.31000001 30943.10504257  1587.84551044
0.31100001 30420.95250482  1423.70064463
0.31200001 29919.96904908  1685.69113604
0.31300001 29438.13481821  1525.18983714
0.31400001 28977.24625094  1506.09244520
0.31500001 28534.07366109  1623.01818669
0.31600002 28109.95642720  1470.29134054
0.31700002 27703.64547631  1453.61034697
0.31800002 27315.74397000  1829.88177519
0.31900002 26945.71174034  1681.41249221
0.32000002 26592.53418718  2048.68893078
0.32100002 26256.65658180  1902.29485943
0.32200002 25937.41633498  1382.33466903
0.32300002 25633.68649649  1245.79722272
0.32400002 25346.29816292  1359.19530335
0.32500002 25073.81958471  1839.16475363
0.32600002 24817.29545204  2069.39027926
0.32700002 24575.26135143  1330.01320732
0.32800002 24348.67113170  1321.76767497
0.32900002 24134.96931541  1194.68103769
0.33000002 23937.00248409  1545.01389850
0.33100002 23750.07769311  1182.75392513
0.33200002 23578.99563828  1884.43342065
0.33300002 23419.68473383  1525.32413895
0.33400002 23273.80245867  1286.45949182
0.33500002 23139.61034823  1399.48370014
0.33600002 23017.78945343  1279.90424317
0.33700002 22906.91961225  1393.65705521
0.33800002 22809.05684015  1623.77683335
0.33900002 22721.21149158  1738.17276142
0.34000002 22644.91394703  1505.77362422
0.34100002 22579.16224726  1158.31107814
0.34200002 22524.84187691  1274.79348640
0.34300002 22479.13510535  1507.90045428
0.34400002 22444.28589840  1277.64103528
0.34500002 22418.61561677  1512.58406730
0.34600002 22403.44492070  1399.31923602
0.34700002 22395.31102021  1636.64940687
0.34800002 22397.54811750  1641.51637928
0.34900002 22408.02871605  1882.27450130
0.35000002 22427.01020633  1298.86035762
0.35100002 22454.04526679  1659.80310473
0.35200002 22488.19890825  1428.90022631
0.35300002 22530.48940509  1555.27975730
0.35400002 22580.50884507  1563.13579884
0.35500002 22637.44900082  1450.60780068
0.35600002 22700.89140607  1458.75935085
0.35700002 22771.16414417  1711.93620144
0.35800002 22848.58866370  1599.51552516
0.35900002 22931.74730080  1362.14585419
0.36000002 23021.64799998  1620.60898772
0.36100002 23116.58610927  2133.89216482
0.36200002 23218.39380952  1769.93824394
0.36300002 23323.85699289  1273.48265213
0.36400002 23435.45332893  1283.09113054
0.36500002 23551.44057333  1939.46122308
0.36600002 23672.99586480  1694.15802931
0.36700002 23798.74012306  1445.05956872
0.36800002 23930.22006374  2119.26038923
0.36900002 24064.97497056  2003.40926120
0.37000002 24203.06684459  1481.59080707
0.37100002 24345.41620751  1494.32171760
0.37200002 24492.13680294  1644.40214284
0.37300002 24641.57753583  1382.39256524
0.37400002 24795.55024118  1673.69972056
0.37500002 24951.43039399  1407.26074088
0.37600002 25111.59488668  1704.07290973
0.37700002 25273.29270863  1862.89449380
0.37800002 25438.70789518  1735.42873482
0.37900002 25606.49418018  1605.52726116
0.38000002 25776.73062320  1620.45424739
0.38100002 25948.64726085  1635.54331433
0.38200002 26123.01124050  2101.07389361
0.38300002 26299.06739675  2120.75689534
0.38400002 26477.60542431  1681.98996426
0.38500002 26656.72152954  2006.45152458
0.38600002 26838.47610234  1869.56833386
0.38700002 27020.43093255  1729.84807025
0.38800002 27203.80498697  1746.07630581
0.38900002 27388.48626643  2082.89447924
0.39000002 27574.70878162  2102.43377066
0.39100002 27760.85409763  2285.27361758
0.39200002 27948.41083232  2306.58245527
0.39300002 28136.03790414  1829.12391081
0.39400002 28324.99529581  1846.08165587
0.39500002 28513.41145152  1863.06639251
0.39600002 28702.07701411  1709.20876717
0.39700002 28890.57328027  2414.67422917
0.39800002 29080.25594833  2784.72544155
0.39900002 29268.71991052  1931.73560562
0.40000002 29456.92938444  2657.75157963
0.40100002 29645.00726939  2502.63163225
0.40200002 29833.53471496  2344.46843665
0.40300002 30020.52640995  2183.09278397
0.40400002 30206.94211921  2752.60773103
0.40500002 30392.86207760  2221.11046587
0.40600002 30578.02343072  1866.78841890
0.40700002 30762.27026028  2070.91613204
0.40800002 30945.60946967  3227.47249256
0.40900002 31127.24461912  2105.75819826
0.41000002 31308.42883006  2316.19767459
0.41100002 31488.19228278  2724.35852539
0.41200002 31665.91352494  2550.21446657
0.41300002 31842.66038425  1977.42930356
0.41400002 32017.93171005  2790.36288075
0.41500002 32192.00634944  2209.65942053
0.41600002 32363.27493412  3036.48441457
0.41700002 32533.65680918  2243.84641645
0.41800002 32703.04057767  2466.46343724
0.41900002 32868.62443492  2484.86812502
0.42000002 33033.15576323  2711.85705088
0.42100002 33196.07924495  3362.09906524
0.42200002 33356.93203883  2328.14718197
0.42300002 33515.15519952  2771.03316320
0.42400002 33671.20164488  2361.19312723
0.42500002 33825.51374670  3026.03060317
0.42600002 33976.14813109  2829.02410819
0.42700002 34125.78340471  2409.96293824
0.42800002 34272.45357328  3308.14873792
0.42900002 34417.28163445  3107.88067886
0.43000002 34559.62092469  2904.56347825
0.43100002 34698.04190410  2473.27654413
0.43200002 34834.77099007  2715.02217962
0.43300002 34968.48417657  3187.02779888
0.43400002 35099.95777182  2748.32682377
0.43500002 35228.15330730  3225.48986967
0.43600002 35354.73612205  2317.50306262
0.43700002 35477.52766071  4894.83472331
0.43800002 35596.62775906  3047.24946372
0.43900002 35714.13900267  3771.41325741
0.44000002 35827.92715233  3555.02624016
0.44100002 35939.44230357  3574.17770647
0.44200002 36047.77934572  2634.91255614
0.44300002 36153.35522736  2407.81357225
0.44400002 36255.14416402  2662.03408640
0.44500002 36353.42493444  3648.06636506
0.44600002 36449.36545654  2932.71608362
0.44700002 36542.47216229  3437.91594396
0.44800002 36631.21990573  2713.82405533
0.44900002 36718.30466776  2478.48568253
0.45000002 36801.85118455  2738.60988569
0.45100002 36881.02143644  2750.58670909
0.45200002 36957.92435239  3264.67840239
0.45300002 37031.05673241  3782.72262449
0.45400002 37101.41154239  3038.60574933
0.45500002 37168.47762044  2796.55638870
0.45600002 37231.93027903  2552.24894159
0.45700002 37292.19231482  3842.96060017
0.45800002 37348.47340096  2828.58676708
0.45900002 37401.92747681  3096.87974185
0.46000002 37452.71523670  4402.75414832
0.46100002 37498.77833577  4417.73128511
0.46200002 37542.58105948  2868.06561597
0.46300002 37582.54838211  3138.89458964
0.46400002 37618.75980388  3148.69034482
0.46500002 37652.50471366  2895.10122465
0.46600002 37682.06379261  2903.59156316
0.46700002 37708.34169695  2911.83828385
0.46800002 37731.93706537  3450.77446787
0.46900002 37751.39600823  2661.47354472
0.47000002 37767.18016609  2668.25140520
0.47100002 37780.20329416  4012.25778001
0.47200002 37789.52345838  3753.63354303
0.47300002 37796.24702620  3493.50727821
0.47400002 37798.06749794  3501.04616794
0.47500002 37797.84297334  2968.64272783
0.47600002 37794.37197385  3515.44367577
0.47700002 37786.46492058  2980.21862954
