# SAXS profile: number of points = 501, q_min = 0, q_max = 0.5, delta_q = 0.001
#    q    intensity    error
0.00000000 1664650.74656090 299.63713438
0.00100000 1664582.15274052 599.24958922
0.00200000 1664376.31124603 1048.55710929
0.00300000 1664033.40788986 1198.10409636
0.00400000 1663553.28113413 1497.19800991
0.00500000 1662936.41214910 1945.63567923
0.00600000 1662182.52197907 2094.35006296
0.00700000 1661292.29646444 2192.90592247
0.00800000 1660265.14504933 3137.90125663
0.00900000 1659102.42741513 3235.24987176
0.01000000 1657803.30923378 3008.91313618
0.01100000 1656369.05583490 4174.05020244
0.01200000 1654799.07955409 3872.23001593
0.01300000 1653094.84834297 4512.94913502
0.01400000 1651255.49793468 4829.92254557
0.01500000 1649282.89548763 5145.76286306
0.01600000 1647175.87906526 5460.38828320
0.01700000 1644936.58397549 6217.86056635
0.01800000 1642564.49121466 6553.83261485
0.01900000 1640060.41077794 7872.29032695
0.02000000 1637424.98473698 5673.67782877
0.02100000 1634659.73468755 8091.56605356
0.02200000 1631762.96285255 5629.58247761
0.02300000 1628737.55172484 7036.14654373
0.02400000 1625583.36290720 7315.12546663
0.02500000 1622301.68150074 7592.37221617
0.02600000 1618892.74987636 7212.16753057
0.02700000 1615357.61688085 7462.95253180
0.02800000 1611696.11081674 7711.96624393
0.02900000 1607910.85333120 10129.83884109
0.03000000 1604002.14967755 10442.05447437
0.03100000 1599970.10534620 8447.84254494
0.03200000 1595815.92932982 8689.21813541
0.03300000 1591542.39037641 12986.98650418
0.03400000 1587147.31368811 9165.77615946
0.03500000 1582634.21046862 12819.33769677
0.03600000 1578002.68773099 9633.70685381
0.03700000 1573254.74590663 11657.81820631
0.03800000 1568391.54816806 10092.60007954
0.03900000 1563414.45920001 11256.58462753
0.04000000 1558322.12886069 13417.15415123
0.04100000 1553118.90256729 12720.04440181
0.04200000 1547804.81000713 13976.67808278
0.04300000 1542380.08631290 10179.70904219
0.04400000 1536848.33005441 11411.09938061
0.04500000 1531209.07231727 14791.48032587
0.04600000 1525462.82828424 12905.41612722
0.04700000 1519612.77349904 12035.33372585
0.04800000 1513658.81721414 12237.93210658
0.04900000 1507604.12572489 12437.73461618
0.05000000 1501447.92419912 16080.50801698
0.05100000 1495193.59115859 13995.01266519
0.05200000 1488839.49672743 18938.03928091
0.05300000 1482391.02722352 18011.05182040
0.05400000 1475846.25435224 15828.45181607
0.05500000 1469209.57280092 12341.36098724
0.05600000 1462479.15573174 12504.19736500
0.05700000 1455660.17104561 16463.51730302
0.05800000 1448751.08987647 14103.59251848
0.05900000 1441754.00402408 14273.36530649
0.06000000 1434671.53155296 18378.14317780
0.06100000 1427505.57013952 22568.86411858
0.06200000 1420256.11660930 13421.42092932
0.06300000 1412926.58108538 16276.91497514
0.06400000 1405515.15073732 19185.28270480
0.06500000 1398027.87572138 15224.52427878
0.06600000 1390462.63550162 18166.39518281
0.06700000 1382822.64745199 25388.62499538
0.06800000 1375110.63322743 15655.63529212
0.06900000 1367327.31518240 14356.93748159
0.07000000 1359472.41655214 24613.24925428
0.07100000 1351550.66503863 20435.44701253
0.07200000 1343561.09411215 16183.19413671
0.07300000 1335508.40252553 19271.38715142
0.07400000 1327391.69511803 23893.05163185
0.07500000 1319213.79281394 16542.94173730
0.07600000 1310974.34651159 16655.92985327
0.07700000 1302679.13435773 24386.15453861
0.07800000 1294326.38568145 18405.32206753
0.07900000 1285918.19974930 23146.52868115
0.08000000 1277458.30001307 17073.23098060
0.08100000 1268947.04533424 26533.68396285
0.08200000 1260385.10201623 17260.97478209
0.08300000 1251775.79096511 25235.80113022
0.08400000 1243119.75851946 17434.75543160
0.08500000 1234420.67258315 17516.43016627
0.08600000 1225677.92405098 20793.62695782
0.08700000 1216894.82391460 17669.31367295
0.08800000 1208070.12600150 22578.83171536
0.08900000 1199210.27495492 21046.14131399
0.09000000 1190313.60328785 16247.78144813
0.09100000 1181382.85940432 16303.08422572
0.09200000 1172419.18554681 17990.77324754
0.09300000 1163425.52964964 18044.73081283
0.09400000 1154400.71267618 18095.23202163
0.09500000 1145348.87782661 23090.23446229
0.09600000 1136271.25021071 21492.57170805
0.09700000 1127170.59316031 19883.29019812
0.09800000 1118047.65898010 19923.61021979
0.09900000 1108904.44979504 18296.92428198
0.10000000 1099740.59815037 18327.17793005
0.10100000 1090559.20579718 18354.11229679
0.10200000 1081362.10360323 21719.15887246
0.10300000 1072150.23570263 16725.54446374
0.10400000 1062926.68888480 20089.31536503
0.10500000 1053693.74002009 21779.85063094
0.10600001 1044447.70647409 20116.06377322
0.10700001 1035196.69005711 21801.24331852
0.10800001 1025937.52862273 18451.48732064
0.10900001 1016674.49510645 20130.15595055
0.11000001 1007408.00452297 21805.34728427
0.11100001 998139.92798894 18445.62673753
0.11200001 988872.61874048 30170.50501811
0.11300001 979604.99884246 21776.62014953
0.11400001 970341.63359185 18412.23336433
0.11500001 961082.75756027 18395.12484589
0.11600001 951829.16547681 25056.90396114
0.11700001 942584.36244687 18352.11840113
0.11800001 933345.93899291 18326.24837526
0.11900001 924118.68100832 19960.96444997
0.12000001 914902.52748563 18266.02982167
0.12100001 905700.97800550 23204.06014960
0.12200001 896512.47242576 21502.85266416
0.12300001 887340.35242134 21455.89073243
0.12400001 878184.44913555 21405.74695626
0.12500001 869047.23254131 16424.99346898
0.12600001 859930.93822161 18019.85365959
0.12700001 850835.62970502 17969.64934621
0.12800001 841761.40155289 17916.89227646
0.12900001 832711.34500874 19485.44639159
0.13000001 823686.11406260 29133.77922761
0.13100001 814686.12581121 17743.86465657
0.13200001 805714.08630717 19288.79613547
0.13300001 796771.74870350 16015.11290394
0.13400001 787857.45627280 23931.17136254
0.13500001 778974.73678441 20658.41099353
0.13600001 770122.99219567 15826.02823583
0.13700001 761305.21020842 22062.62603216
0.13800001 752520.00030533 18828.05129549
0.13900001 743772.36464956 20304.98651248
0.14000001 735059.52834959 17101.16073355
0.14100001 726384.54510542 18566.38984854
0.14200001 717746.41167700 18474.79350794
0.14300001 709150.50801518 19912.94720431
0.14400001 700590.63962630 16761.63184370
0.14500001 692076.00151981 16672.11166307
0.14600001 683600.78562838 16580.73783760
0.14700001 675171.61016633 17986.57254337
0.14800001 666783.97951274 16392.88490972
0.14900001 658440.83070780 20740.88714587
0.15000001 650144.17708285 14725.76630573
0.15100001 641893.93245358 24879.80999585
0.15200001 633691.90145009 14543.22982453
0.15300001 625537.98190909 17339.91367677
0.15400001 617430.79904882 17226.32010639
0.15500001 609375.30515331 22815.01250165
0.15600001 601368.04619352 15578.43997187
0.15700001 593415.49910891 14063.94799265
0.15800001 585510.08933493 19550.18280564
0.15900001 577660.12092944 16636.61226803
0.16000001 569860.76007807 17890.77940714
0.16100001 562118.26689285 16391.36943634
0.16200001 554427.57703643 23044.78332737
0.16300001 546793.23122280 14796.22553539
0.16400001 539213.79233924 17349.20458756
0.16500001 531690.55379109 17210.82403876
0.16600001 524223.37611155 14444.97581074
0.16700001 516812.98118887 16930.79406313
0.16800001 509458.94180604 12914.78478457
0.16900001 502165.02333300 14085.72956959
0.17000001 494928.53278133 12694.91746529
0.17100001 487750.69801228 15100.76232354
0.17200001 480632.12614530 14966.88511494
0.17300001 473573.30065985 13596.29010402
0.17400001 466575.19982795 13472.35953128
0.17500001 459636.66131481 20628.49433404
0.17600001 452756.85348332 13222.76453048
0.17700001 445940.56698889 14287.93644115
0.17800001 439184.46671076 14150.52418578
0.17900001 432489.57501932 12844.94098479
0.18000001 425857.38313101 15030.63704758
0.18100001 419287.91281514 14880.52872871
0.18200001 412777.82884739 11330.75193710
0.18300001 406332.80042503 12336.26440366
0.18400001 399948.74073714 16647.86711964
0.18500001 393628.40959873 12080.45646129
0.18600001 387370.74831063 14125.47500448
0.18700001 381175.76765025 12898.98858669
0.18800001 375043.51098866 14885.47765442
0.18900001 368976.39322987 11567.41047429
0.19000001 362968.57517464 11438.95518711
0.19100001 357029.01456028 13367.16693674
0.19200001 351149.21257545 11182.34720285
0.19300001 345335.46385247 11054.18872026
0.19400001 339583.99184840 12912.68190021
0.19500001 333896.62875330 9816.56134923
0.19600001 328271.31263049 10670.45952130
0.19700001 322710.57228641 11501.40533982
0.19800001 317213.10600296 17043.86099101
0.19900001 311779.83061719 10288.73489661
0.20000001 306407.85746745 12009.65654103
0.20100001 301100.91524275 13685.03724457
0.20200001 295855.74530661 9008.80787037
0.20300001 290674.44178721 9784.10217300
0.20400001 285556.04197641 9658.93357639
0.20500001 280499.47152221 10400.92089566
0.20600001 275506.26431163 12831.70486684
0.20700001 270575.19041148 9286.14097387
0.20800001 265706.18503850 11661.84501260
0.20900001 260901.50132537 9862.07721629
0.21000001 256156.37691069 13782.49451121
0.21100001 251472.92127460 12794.94283931
0.21200001 246851.13656264 9464.27302323
0.21300001 242290.37483482 7777.52139988
0.21400001 237791.63033610 11503.17066134
0.21500001 233354.03954103 8316.73836244
0.21600001 228975.47108822 8943.78232356
0.21700001 224657.84304396 8815.57417784
0.21800001 220400.42162170 10136.21586963
0.21900001 216201.29154491 9988.50014165
0.22000001 212061.38705167 8435.80237578
0.22100001 207982.86354150 9003.57858843
0.22200001 203961.84995783 8187.02904443
0.22300001 199999.07607693 8735.96005612
0.22400001 196092.94138892 9927.20562724
0.22500001 192247.66584931 7168.91579852
0.22600001 188457.70763438 8342.08082292
0.22700001 184725.77482544 8212.90833712
0.22800001 181049.98374332 8084.78740639
0.22900001 177430.13529824 7957.74194445
0.23000001 173866.38129101 6626.91743631
0.23100001 170359.67142113 6521.36853041
0.23200001 166906.19747529 7000.04625317
0.23300001 163508.66114903 6313.06970554
0.23400001 160165.33534234 6210.41117162
0.23500001 156874.91163447 6108.70934796
0.23600001 153638.98782549 6554.23953063
0.23700001 150455.79734988 6445.52666333
0.23800001 147325.41980565 5809.77820483
0.23900001 144247.35539953 8308.64806401
0.24000001 141220.99979961 7147.19513792
0.24100001 138247.27314547 6022.05150307
0.24200001 135323.77282245 5425.80692797
0.24300001 132450.84047180 7271.55148587
0.24400001 129627.48449755 5716.57233676
0.24500001 126854.25651877 6553.29120176
0.24600001 124130.45834774 5058.93706928
0.24700001 121455.84733191 5421.78928138
0.24800001 118828.60202391 4882.07334511
0.24900001 116249.04585592 5231.20731099
0.25000001 113717.61801292 4709.61537281
0.25100001 111232.21839550 5045.49366512
0.25200001 108794.52604769 6606.00393414
0.25300001 106402.86927506 5270.13436453
0.25400001 104055.85829147 4776.16412154
0.25500001 101754.14833227 4298.09542891
0.25600001 99497.30680468  3835.62135879
0.25700001 97284.33161434  4894.37495509
0.25800001 95114.96290305  5173.30307707
0.25900001 92989.00436665  5077.19987865
0.26000001 90906.19906744  4270.77343426
0.26100001 88863.58759006  5238.50873630
0.26200001 86865.08532464  3769.51055602
0.26300001 84906.56052623  3698.52995153
0.26400001 82988.58143415  4618.31477534
0.26500001 81111.78225023  4207.26834440
0.26600001 79273.88090979  3174.91908067
0.26700001 77476.41898525  3737.46262871
0.26800001 75717.50454383  3666.24174350
0.26900001 73996.33829964  2996.85184295
0.27000001 72313.89308718  3821.42786103
0.27100001 70668.71999780  4324.92586853
0.27200001 69060.74892776  3959.25292339
0.27300001 67488.75901696  3051.16693955
0.27400001 65951.74889389  3536.66270181
0.27500001 64452.47516926  3468.83237777
0.27600001 62986.38843491  3140.50147599
0.27700001 61556.45300592  2566.90421183
0.27800001 60159.48751837  2769.44213898
0.27900001 58796.91946786  2716.41780798
0.28000001 57467.17961350  2664.46590888
0.28100001 56169.99485718  2613.58998440
0.28200001 54905.75877922  3029.97444164
0.28300001 53673.13043728  2515.12301133
0.28400001 52472.04144280  2467.49786564
0.28500001 51302.01238409  2861.11336608
0.28600001 50161.78132570  2159.46478828
0.28700001 49052.05584787  2966.66847810
0.28800001 47971.32933179  2703.42439245
0.28900001 46921.08924028  2449.28097428
0.29000001 45898.25443390  3005.18835131
0.29100001 44904.81104818  2556.88006211
0.29200001 43938.62070784  1931.10247152
0.29300001 42999.79449472  2085.92012968
0.29400001 42087.88883428  1862.38916908
0.29500001 41203.46649684  2378.26419878
0.29600001 40344.08648440  1977.06205176
0.29700001 39510.27879356  1766.10954568
0.29800001 38702.30128159  2082.95795358
0.29900001 37919.09125140  2218.26694322
0.30000001 37160.20452436  2013.33997644
0.30100001 36426.20460982  1980.12857633
0.30200001 35714.60693714  1947.87475457
0.30300001 35026.77060237  2395.83122262
0.30400001 34362.51527329  1729.29366300
0.30500001 33719.40557455  2012.03702589
0.30600001 33098.71035508  1676.61525241
0.30700001 32500.05883913  1501.50278945
0.30800001 31922.58750775  1479.61200103
0.30900001 31365.71473359  1604.35638458
0.31000001 30830.23101555  2301.16855195
0.31100001 30313.32492292  1986.12914298
0.31200001 29817.32601744  1539.91587508
0.31300001 29339.92147653  1520.10140367
0.31400001 28883.09619720  1637.67163192
0.31500001 28443.83947669  2157.18088805
0.31600002 28023.00563043  1465.74337890
0.31700002 27619.76945148  1844.44829130
0.31800002 27234.53863649  1694.12455610
0.31900002 26866.79480111  1676.48807497
0.32000002 26515.49691166  1404.39336042
0.32100002 26181.20849287  1264.55243008
0.32200002 25863.34130281  1253.07894546
0.32300002 25560.56815762  1490.69240554
0.32400002 25273.84506220  1478.52000615
0.32500002 25001.70144600  1833.87488790
0.32600002 24745.19346454  1699.25251567
0.32700002 24502.87399468  1567.20389491
0.32800002 24275.70451249  1317.80668186
0.32900002 24061.14887106  1548.33500317
0.33000002 23861.93579289  2251.01581962
0.33100002 23673.67680617  1296.84407685
0.33200002 23500.82197738  1173.86611336
0.33300002 23339.61518593  2221.69807476
0.33400002 23191.51964737  1165.37391747
0.33500002 23054.87669070  1278.16242426
0.33600002 22930.33071780  1390.95392721
0.33700002 22816.49777159  1388.15579016
0.33800002 22715.51468601  1155.08397649
0.33900002 22624.15223585  1153.83181867
0.34000002 22544.35660933  1153.14389518
0.34100002 22474.69821754  1152.95207316
0.34200002 22416.31261322  1614.64707400
0.34300002 22366.38089089  1615.74743208
0.34400002 22327.06553818  1617.59597485
0.34500002 22296.74664835  1388.64144703
0.34600002 22276.76310341  1623.30780423
0.34700002 22263.66497517  1743.24505012
0.34800002 22260.73090783  1281.88425004
0.34900002 22265.92237440  1402.75317602
0.35000002 22279.38141766  1290.31043592
0.35100002 22300.79669077  1648.47496946
0.35200002 22329.21183254  1537.03136929
0.35300002 22365.52308649  1543.89213178
0.35400002 22409.51025384  1193.30647754
0.35500002 22460.27675681  1559.19248631
0.35600002 22517.38034351  1446.96692941
0.35700002 22581.21514225  1212.61131057
0.35800002 22652.13190652  1341.79909704
0.35900002 22728.60960319  1841.01746506
0.36000002 22811.86062497  1852.89346703
0.36100002 22899.88065787  1243.46357862
0.36200002 22994.81057031  1627.68774332
0.36300002 23093.18088296  1513.06528312
0.36400002 23197.69207361  1270.07370119
0.36500002 23306.53428745  1663.38743089
0.36600002 23420.85617421  1805.04547085
0.36700002 23539.24127157  1689.17603366
0.36800002 23663.41164955  1833.67785558
0.36900002 23790.79683382  1452.42821550
0.37000002 23921.43032288  1730.59595869
0.37100002 24056.33012569  1745.04626998
0.37200002 24195.47422085  1895.23158550
0.37300002 24337.34685087  1365.32522301
0.37400002 24483.72958046  1514.93083955
0.37500002 24632.07379489  1667.09883341
0.37600002 24784.57846337  1541.72477635
0.37700002 24938.66460600  1696.82682017
0.37800002 25096.45355930  1569.40679768
0.37900002 25256.56982813  1439.62454840
0.38000002 25419.11267186  2033.78330122
0.38100002 25583.47094887  1759.11954578
0.38200002 25750.13931585  2219.01836067
0.38300002 25918.59804255  1940.78471337
0.38400002 26089.59485857  2109.34384424
0.38500002 26261.04112633  1520.51435325
0.38600002 26435.32435034  1688.02771636
0.38700002 26609.81655785  1858.42967644
0.38800002 26785.69861220  1719.24014687
0.38900002 26962.89234246  2208.26098747
0.39000002 27141.75029010  1910.23647592
0.39100002 27320.62517107  2088.38868702
0.39200002 27500.82844077  2269.64347874
0.39300002 27681.27394084  2290.34871437
0.39400002 27863.05768426  1981.06349521
0.39500002 28044.41031313  1832.42185668
0.39600002 28226.03873815  1848.94675514
0.39700002 28407.62815715  2035.12257760
0.39800002 28590.30437821  2053.35575773
0.39900002 28771.95077330  2416.84397946
0.40000002 28953.56644578  1915.71281465
0.40100002 29134.91468347  1932.51898252
0.40200002 29316.89603609  2126.64773922
0.40300002 29497.42865461  2681.31639174
0.40400002 29677.42872682  2343.77504475
0.40500002 29857.04138617  1818.29390657
0.40600002 30036.01939780  2383.80879245
0.40700002 30214.19755984  2958.57436524
0.40800002 30391.66961008  2423.88772460
0.40900002 30567.41209612  2443.86471288
0.41000002 30742.81378969  2274.35347192
0.41100002 30916.90267545  1910.66467587
0.41200002 31089.14603552  2888.95903224
0.41300002 31260.49778083  2717.78780584
0.41400002 31430.47061397  3521.78439917
0.41500002 31599.40093741  3154.88433908
0.41600002 31765.60667254  2384.32654982
0.41700002 31931.05365653  2602.70030687
0.41800002 32095.68786815  2420.65689372
0.41900002 32256.63081825  2845.03497298
0.42000002 32416.54210334  2456.52567699
0.42100002 32575.13042744  3093.00878065
0.42200002 32731.75887728  2284.51321909
0.42300002 32885.82632117  2300.69251845
0.42400002 33037.88791449  2948.63163609
0.42500002 33188.36447949  3181.10488610
0.42600002 33335.38279277  3416.21019048
0.42700002 33481.45330574  2579.41128490
0.42800002 33624.67906093  3678.37194018
0.42900002 33766.28016695  2613.51020877
0.43000002 33905.50594150  2191.99106299
0.43100002 34040.92136787  4411.70361834
0.43200002 34174.87743478  2441.62423403
0.43300002 34306.00731060  2679.98541810
0.43400002 34434.89434541  2471.56465876
0.43500002 34560.82316107  2938.36132440
0.43600002 34685.12971092  2500.97139632
0.43700002 34805.86709006  2744.09469142
0.43800002 34923.12381110  2759.62537433
0.43900002 35038.91399752  3006.33896346
0.44000002 35151.11134208  3720.39380075
0.44100002 35261.22541830  2571.60129162
0.44200002 35368.29047307  2820.26761598
0.44300002 35472.76167191  2598.73464324
0.44400002 35573.65279743  3561.81215514
0.44500002 35671.14070859  3102.31925445
0.44600002 35766.42557839  2637.95284355
0.44700002 35859.00795656  3373.61562843
0.44800002 35947.53734716  2905.28010608
0.44900002 36034.46542194  3648.48979688
0.45000002 36117.95571678  2932.05578404
0.45100002 36197.30690953  2454.17752478
0.45200002 36274.50595613  2957.82335584
0.45300002 36348.16726871  3960.49649330
0.45400002 36419.17097496  2734.16939053
0.45500002 36487.03963111  2994.85635486
0.45600002 36551.35315727  3507.83352875
0.45700002 36612.76271039  3018.35630090
0.45800002 36670.35714753  3029.70505112
0.45900002 36725.19345100  3294.25000868
0.46000002 36777.55812357  2543.16826478
0.46100002 36825.44144925  2807.20353472
0.46200002 36871.09040342  2560.69734988
0.46300002 36913.05192145  2826.06338905
0.46400002 36951.45273938  3866.04592609
0.46500002 36987.51089857  3619.59798809
0.46600002 37019.58691770  3111.86662379
0.46700002 37048.49892142  3120.96569706
0.46800002 37074.81657030  3651.49885708
0.46900002 37097.20204734  3661.49401561
0.47000002 37116.15921209  3146.70812714
0.47100002 37132.39117541  3680.56278775
0.47200002 37145.08080643  4216.70977301
0.47300002 37155.20311077  2641.73506639
0.47400002 37160.75643863  3706.78563045
0.47500002 37164.25895817  3980.29232308
0.47600002 37164.71862206  2925.04931779
0.47700002 37160.93204560  2664.43895396
