# SAXS profile: number of points = 501, q_min = 0, q_max = 0.5, delta_q = 0.001
#    q    intensity    error
0.00000000 1682732.95097188 328.13292544
0.00100000 1682663.78842400 504.79914852
0.00200000 1682456.24562412 832.81586796
0.00300000 1682110.50194605 1110.19297083
0.00400000 1681626.40675198 1261.21985299
0.00500000 1681004.43396827 1664.19445550
0.00600000 1680244.30490660 2293.53356957
0.00700000 1679346.70199710 2418.25935138
0.00800000 1678311.05753561 2945.43603033
0.00900000 1677138.70466974 3270.42061391
0.01000000 1675828.82033604 3041.62944025
0.01100000 1674382.68494777 4219.44454978
0.01200000 1672799.70889076 3588.15553289
0.01300000 1671081.34238167 3860.19807115
0.01400000 1669226.74351211 5258.06447516
0.01500000 1667237.78965643 4801.64504802
0.01600000 1665113.26268574 4246.03900966
0.01700000 1662855.39343818 5387.65171642
0.01800000 1660463.61645541 6152.01797579
0.01900000 1657938.64526906 6465.96100831
0.02000000 1655281.35010120 6778.37743529
0.02100000 1652493.07322305 5453.22738888
0.02200000 1649572.21360539 6829.22927459
0.02300000 1646521.55371894 10669.46015376
0.02400000 1643341.07436041 7395.03517182
0.02500000 1640032.02333076 7035.73770142
0.02600000 1636594.64968427 6628.20863438
0.02700000 1633029.96774110 7544.59879651
0.02800000 1629337.89214363 8505.14418703
0.02900000 1625520.93703549 10240.78237352
0.03000000 1621579.45778439 7540.34482529
0.03100000 1617513.67813596 9316.87921476
0.03200000 1613324.66226898 13576.12765828
0.03300000 1609015.18900362 12308.96676333
0.03400000 1604583.18795024 10108.87455051
0.03500000 1600032.12633811 11232.22604558
0.03600000 1595361.58066991 11510.53433648
0.03700000 1590573.63321687 9972.89714149
0.03800000 1585669.42625257 13914.24985931
0.03900000 1580650.36058141 12329.07338349
0.04000000 1575514.97214637 9689.41752770
0.04100000 1570267.72083514 15828.29935992
0.04200000 1564908.57131651 12112.39290392
0.04300000 1559437.80739311 13379.97700850
0.04400000 1553859.02942683 13635.11361646
0.04500000 1548171.85291774 12818.86353779
0.04600000 1542376.64900052 13048.50705713
0.04700000 1536476.71529682 13275.15943756
0.04800000 1530471.93741298 16873.45389507
0.04900000 1524365.43039151 12576.01538611
0.05000000 1518156.66458371 11613.89902488
0.05100000 1511848.70517539 12971.66249468
0.05200000 1505440.01929091 15558.72332443
0.05300000 1498936.02247434 15783.79705246
0.05400000 1492335.05691626 18467.64719056
0.05500000 1485641.04219115 17471.13947118
0.05600000 1478852.57593527 16437.44714856
0.05700000 1471974.50987507 17928.65036716
0.05800000 1465005.65060396 18151.42085852
0.05900000 1457947.67965902 15745.83567574
0.06000000 1450803.87385733 21239.76970557
0.06100000 1443575.47828195 21480.40412064
0.06200000 1436262.80446918 17644.48937767
0.06300000 1428869.27544023 19204.00395981
0.06400000 1421392.95012860 16630.29829425
0.06500000 1413840.05394510 16796.42062657
0.06600000 1406208.36355280 18372.11312942
0.06700000 1398501.12834713 22823.53948274
0.06800000 1390721.22120360 15833.36184455
0.06900000 1382869.10431040 14520.12627508
0.07000000 1374944.77673181 20500.42758107
0.07100000 1366952.81142139 14763.09105482
0.07200000 1358892.22360092 14879.87054550
0.07300000 1350767.86460509 16492.87639961
0.07400000 1342578.87982304 16614.41441643
0.07500000 1334327.80479962 16732.47145648
0.07600000 1326014.72423284 19910.11201775
0.07700000 1317645.05358899 20041.38220480
0.07800000 1309217.15709281 17065.64644302
0.07900000 1300733.16113676 15608.79866575
0.08000000 1292196.91302510 20410.25119870
0.08100000 1283608.71993108 25261.42079346
0.08200000 1274969.25557229 17460.70477441
0.08300000 1266281.62757730 17550.66418191
0.08400000 1257546.76798461 19240.46645329
0.08500000 1248768.28181098 19330.93390993
0.08600000 1239945.54729369 22653.80621269
0.08700000 1231081.67396950 22750.39040326
0.08800000 1222176.08079325 22842.47202279
0.08900000 1213234.57832314 19654.40109200
0.09000000 1204255.75161944 26300.94685087
0.09100000 1195242.27213736 19793.21295650
0.09200000 1186195.32806271 19856.91072478
0.09300000 1177117.99260174 18257.10092319
0.09400000 1168009.04931639 21637.36865549
0.09500000 1158872.64477925 18356.54355611
0.09600000 1149709.82109690 16728.27868332
0.09700000 1140523.65597630 23471.97794348
0.09800000 1131314.82068575 21840.03364021
0.09900000 1122085.09725733 16831.27725031
0.10000000 1112834.42294964 21917.27499070
0.10100000 1103565.71105790 21949.92302529
0.10200000 1094281.13620375 18597.30878453
0.10300000 1084981.38111817 18618.28137581
0.10400000 1075669.52726637 16941.79585147
0.10500000 1066347.96102982 27127.89340495
0.10600001 1057013.02449173 25447.58976204
0.10700001 1047672.49227893 18669.52469095
0.10800001 1038323.66086474 18674.25191949
0.10900001 1028970.64909647 22071.42146193
0.11000001 1019614.09783763 18674.23308088
0.11100001 1010255.40883697 20366.75000088
0.11200001 1000897.36116250 20358.25328445
0.11300001 991538.56053692 27128.49629352
0.11400001 982184.10484649 23719.74724887
0.11500001 972833.72186977 22005.49982489
0.11600001 963488.58792343 18600.14806577
0.11700001 954151.82964750 20266.18581615
0.11800001 944821.44344671 18551.56991582
0.11900001 935501.86631140 21890.74470278
0.12000001 926193.19270214 21853.52941122
0.12100001 916899.18170434 16779.25581563
0.12200001 907617.81145184 20094.65929223
0.12300001 898352.94650969 18380.30215157
0.12400001 889104.04259962 26673.12253476
0.12500001 879873.71860657 16629.61406526
0.12600001 870664.35779289 24879.23519633
0.12700001 861475.65304433 19848.39998152
0.12800001 852308.19032996 16492.16426015
0.12900001 843164.58911193 19730.05231514
0.13000001 834046.22417482 18027.90998528
0.13100001 824952.37517238 17967.46357820
0.13200001 815887.10018097 22787.72778228
0.13300001 806851.23224893 21083.02369258
0.13400001 797843.49861581 17771.96476954
0.13500001 788867.11637105 25748.62389235
0.13600001 779921.94754800 19232.87613338
0.13700001 771010.67837287 19151.90615386
0.13800001 762132.18205934 17479.50241979
0.13900001 753291.24696974 20564.85201207
0.14000001 744485.03645818 25193.37482188
0.14100001 735716.86426078 23506.15492175
0.14200001 726985.75518487 15593.84518420
0.14300001 718296.81000070 20169.77537618
0.14400001 709643.95699091 18521.70815113
0.14500001 701036.46391453 16887.96921234
0.14600001 692468.78809831 16795.83124766
0.14700001 683947.04861916 18220.35023479
0.14800001 675467.14028378 27174.04433565
0.14900001 667031.88251280 18009.86167757
0.15000001 658643.25581537 16410.09749292
0.15100001 650301.09188713 14826.86559463
0.15200001 642007.44072651 16207.47860592
0.15300001 633762.19377498 16103.89810375
0.15400001 625563.82793860 15998.79565453
0.15500001 617417.23210687 15892.32030444
0.15600001 609319.48758049 14349.47460974
0.15700001 601276.34330771 15675.27500986
0.15800001 593280.63385332 19809.64129935
0.15900001 585340.61218461 15452.99289106
0.16000001 577451.79462637 19523.64609788
0.16100001 569619.86371409 16610.11600997
0.16200001 561840.10972472 19231.78786373
0.16300001 554116.89838525 17720.65924691
0.16400001 546448.90930758 16229.53337262
0.16500001 538837.65130114 16100.46978100
0.16600001 531282.63673736 14639.49374647
0.16700001 523784.69026137 15839.24978135
0.16800001 516343.46471966 18325.03042814
0.16900001 508962.80071240 16872.11764028
0.17000001 501639.89870366 15440.47681119
0.17100001 494376.05777192 14030.39318210
0.17200001 487171.86835993 20227.37692950
0.17300001 480027.73996192 12528.72460467
0.17400001 472944.80573701 14897.76208428
0.17500001 465921.63961666 13530.36505347
0.17600001 458957.94055729 17059.46745622
0.17700001 452058.00417654 15690.93406606
0.17800001 445218.78765442 15540.36251708
0.17900001 438441.18730673 16573.07766300
0.18000001 431726.59127963 14065.65300828
0.18100001 425075.21532561 18567.28628248
0.18200001 418483.70147864 13784.85377787
0.18300001 411957.83621199 13644.04417988
0.18400001 405493.29104546 12377.68329389
0.18500001 399093.13135589 14475.10855811
0.18600001 392755.80670045 12118.48098826
0.18700001 386481.80747458 10898.78748569
0.18800001 380270.99899302 14014.88833004
0.18900001 374125.90355682 11728.84763066
0.19000001 368040.61156370 15816.54602926
0.19100001 362024.03917946 13554.18066731
0.19200001 356067.88062170 11338.98219418
0.19300001 350178.19115538 11209.20442855
0.19400001 344351.27112379 13093.95770322
0.19500001 338589.08547983 11945.42350021
0.19600001 332889.59642010 11804.26564688
0.19700001 327255.02612166 13607.26462918
0.19800001 321684.39931793 11522.73572812
0.19900001 316178.36105740 12330.95666400
0.20000001 310734.38412104 9368.64212402
0.20100001 305355.90249811 12027.96956787
0.20200001 300039.77019656 10963.45372115
0.20300001 294788.13130281 9922.56896864
0.20400001 289600.05232258 9795.72223281
0.20500001 284474.40646696 9669.28553285
0.20600001 279412.47246946 13013.63652039
0.20700001 274413.45850883 10274.04037222
0.20800001 269477.06111519 10137.72751837
0.20900001 264605.58003920 10835.59901482
0.21000001 259794.23161828 9044.73660136
0.21100001 255045.27519831 8921.48414819
0.21200001 250358.52227838 10398.64171442
0.21300001 245733.48354727 12620.87231165
0.21400001 241170.97676857 11666.64655274
0.21500001 236670.23178019 11502.17380831
0.21600001 232229.13243710 9070.87034185
0.21700001 227849.75808601 8195.75618585
0.21800001 223531.02915888 8811.59358606
0.21900001 219271.29557438 8683.14371530
0.22000001 215071.46210405 8555.54316703
0.22100001 210933.63657810 8428.90851621
0.22200001 206853.95917975 7611.19178791
0.22300001 202833.19920410 8859.75456017
0.22400001 198869.56931498 8054.21793811
0.22500001 194967.41597079 11235.97271372
0.22600001 191121.56225745 10412.30320417
0.22700001 187334.12193974 6406.82727331
0.22800001 183603.42960897 10090.84496851
0.22900001 179929.35019354 6207.56287524
0.23000001 176312.12718697 7941.98014473
0.23100001 172752.40754680 7214.14088033
0.23200001 169246.70519958 7098.20715177
0.23300001 165797.66280671 5819.49823975
0.23400001 162403.45266566 5724.72197722
0.23500001 159062.76925849 6756.98675768
0.23600001 155777.04271981 5537.87413061
0.23700001 152544.86085398 7079.60732708
0.23800001 149366.25124070 9638.60464846
0.23900001 146240.47930975 5791.12325458
0.24000001 143167.14187378 5693.04166589
0.24100001 140146.98804185 5596.06949721
0.24200001 137177.73675977 7000.18023797
0.24300001 134259.73872985 5405.29733695
0.24400001 131391.91183545 6277.24888487
0.24500001 128574.79067371 4744.41000029
0.24600001 125807.70299293 5127.29317802
0.24700001 123090.71511765 7326.35971038
0.24800001 120421.68957450 4497.75031838
0.24900001 117800.76816162 5742.78771956
0.25000001 115228.76501410 5206.03584963
0.25100001 112703.51664540 4260.19313074
0.25200001 110226.51707420 4183.09652087
0.25300001 107796.07391037 6571.24897646
0.25400001 105411.05063868 4838.36745322
0.25500001 103071.91337730 5936.94249142
0.25600001 100778.35756475 3885.00586793
0.25700001 98529.16401845  4957.00247630
0.25800001 96324.28928216  4490.63857880
0.25900001 94163.35919931  5141.31965554
0.26000001 92046.26840509  6846.86199927
0.26100001 89969.90355545  5303.72606555
0.26200001 87938.49152890  4509.92575145
0.26300001 85947.41992595  3743.86978913
0.26400001 83997.64960501  4006.68807575
0.26500001 82089.55111903  3930.44789356
0.26600001 80221.02362280  3534.13736294
0.26700001 78393.45382311  3466.55869210
0.26800001 76605.14169482  4945.62818185
0.26900001 74855.15743484  3637.96082349
0.27000001 73144.46795067  3865.31959177
0.27100001 71471.58930692  3499.24917806
0.27200001 69836.49612296  3145.78511673
0.27300001 68238.00464491  3926.41497308
0.27400001 66675.02955770  4125.51764912
0.27500001 65150.38819707  3236.67143881
0.27600001 63659.48762316  2909.55701951
0.27700001 62205.19195232  3631.53927804
0.27800001 60784.74068794  2543.84151818
0.27900001 59398.92021372  3742.13215057
0.28000001 58046.60345719  2935.99734182
0.28100001 56727.44489465  2399.57103261
0.28200001 55441.60728967  3059.54524309
0.28300001 54188.01045644  2539.25029017
0.28400001 52966.52982527  3849.34273724
0.28500001 51776.60334137  2887.58130502
0.28600001 50617.03822005  3050.68903792
0.28700001 49488.41147228  2993.05926751
0.28800001 48389.35072700  2936.74983463
0.28900001 47321.35948705  2470.17508215
0.29000001 46281.07461330  2424.20280299
0.29100001 45270.85454665  2577.72257990
0.29200001 44288.37999057  2141.12183199
0.29300001 43333.72420828  2484.32252646
0.29400001 42406.42382333  2439.42964591
0.29500001 41507.03341850  2580.07731943
0.29600001 40633.30582437  1991.23524618
0.29700001 39785.54198197  2134.09657294
0.29800001 38964.19864301  1747.54439187
0.29900001 38167.85095791  1889.30871185
0.30000001 37396.49955474  1688.45203483
0.30100001 36650.48070261  1992.32022531
0.30200001 35927.29400260  1959.47470766
0.30300001 35228.14570426  1927.68422420
0.30400001 34553.13033656  1738.88636651
0.30500001 33899.68468741  2489.59296131
0.30600001 33268.94059268  1685.23826551
0.30700001 32660.80888896  1961.60827474
0.30800001 32074.17653463  1932.62959859
0.30900001 31508.75041090  2051.21974886
0.31000001 30964.92661265  1588.96528436
0.31100001 30440.08560687  2279.35371816
0.31200001 29936.51845495  2108.27941201
0.31300001 29452.10318587  2219.51060117
0.31400001 28988.51436004  2191.53178938
0.31500001 28542.86043699  1488.22481365
0.31600002 28116.01094757  1737.99129901
0.31700002 27707.16374242  1718.12130502
0.31800002 27316.57408218  1437.80794489
0.31900002 26943.82572915  1293.30369624
0.32000002 26588.03392933  1664.27806261
0.32100002 26249.57573027  1648.21093815
0.32200002 25927.66908786  1256.19562679
0.32300002 25621.29461520  1369.71447499
0.32400002 25331.27106328  1481.87942737
0.32500002 25056.18324808  1960.39587016
0.32600002 24797.02134299  1216.29395447
0.32700002 24552.33536091  1449.56994835
0.32800002 24323.12057052  1440.41526839
0.32900002 24106.78815432  1193.28607015
0.33000002 23906.11691384  1424.32651317
0.33100002 23716.61114360  1653.52220723
0.33200002 23542.92303310  1293.56596731
0.33300002 23380.92133130  1405.66105700
0.33400002 23232.49111182  1634.40582711
0.33500002 23095.71814734  1280.42667472
0.33600002 22971.24219757  1161.19634808
0.33700002 22857.85582380  1158.89334515
0.33800002 22757.39573375  1504.37771622
0.33900002 22666.92643206  1502.81729362
0.34000002 22588.12580174  1270.92095842
0.34100002 22519.83153043  1501.84763589
0.34200002 22462.90741596  1386.85996954
0.34300002 22414.74536233  1503.58119011
0.34400002 22377.38806214  1389.63586447
0.34500002 22349.16339036  1623.89028885
0.34600002 22331.50211731  1162.35474026
0.34700002 22320.86720391  1281.66425555
0.34800002 22320.69458407  1869.58146691
0.34900002 22328.71125842  1523.93461556
0.35000002 22345.23344464  1411.77191590
0.35100002 22369.91521868  2126.03684308
0.35200002 22401.63564409  1779.24999530
0.35300002 22441.58945861  1191.64845669
0.35400002 22489.23706478  2155.59347476
0.35500002 22543.85616969  1564.99456942
0.35600002 22604.90237732  1694.68961150
0.35700002 22672.90223123  1704.54887048
0.35800002 22748.02935440  1224.98143876
0.35900002 22828.95058084  1602.59240668
0.36000002 22916.58526982  1365.02646625
0.36100002 23009.31064024  1249.40562694
0.36200002 23108.88690889  1384.10684697
0.36300002 23212.22261321  1520.86489766
0.36400002 23321.60769103  1404.54388972
0.36500002 23435.52308910  1415.27130639
0.36600002 23554.91500061  1296.69813221
0.36700002 23678.56468242  1307.05683238
0.36800002 23808.09336621  1976.66704536
0.36900002 23940.82003709  1461.58713250
0.37000002 24076.87168981  1607.85356761
0.37100002 24217.24104348  2297.24759420
0.37200002 24361.94620819  1635.66114590
0.37300002 24509.51223162  1787.47881173
0.37400002 24661.56877489  2080.81996395
0.37500002 24815.65100648  1539.56306137
0.37600002 24973.98243404  1835.96240561
0.37700002 25133.91053306  2850.18558947
0.37800002 25297.50750561  1438.16336982
0.37900002 25463.54607678  1451.42219513
0.38000002 25632.03645394  1757.84514329
0.38100002 25802.35469733  2217.71249130
0.38200002 25975.03309653  1641.49229430
0.38300002 26149.43182878  1807.44881363
0.38400002 26326.38508361  1976.45345378
0.38500002 26503.98937646  1688.03916336
0.38600002 26684.23046852  2013.72554771
0.38700002 26864.74442746  1876.23383970
0.38800002 27046.64883346  1893.80644104
0.38900002 27229.85590806  2230.12530452
0.39000002 27414.67223413  1929.44472325
0.39100002 27599.50835293  2271.99163525
0.39200002 27785.73085735  1637.96891164
0.39300002 27972.13427609  1653.15321404
0.39400002 28159.87018353  2002.16686491
0.39500002 28347.05591558  2020.57824139
0.39600002 28534.56594680  2209.00352743
0.39700002 28721.88216134  2057.63573553
0.39800002 28910.49281142  1903.32238442
0.39900002 29097.94312323  2095.05200413
0.40000002 29285.15541404  2289.95283610
0.40100002 29472.17707228  2132.60683399
0.40200002 29659.79982538  2151.52198127
0.40300002 29845.84852586  1808.65850636
0.40400002 30031.46383295  2006.85266572
0.40500002 30216.46692490  2208.21950750
0.40600002 30400.89407004  1855.97467091
0.40700002 30584.35059832  2246.11481436
0.40800002 30767.04791967  2642.58187103
0.40900002 30947.99864863  2854.95301061
0.41000002 31128.53180329  2302.88889192
0.41100002 31307.71101113  2708.74328503
0.41200002 31484.86634039  2535.63383087
0.41300002 31661.19605212  3145.85658880
0.41400002 31835.86393727  1981.78262400
0.41500002 32009.61156445  3195.83977002
0.41600002 32180.47629219  2012.88888745
0.41700002 32350.46331938  2028.37414624
0.41800002 32519.60077567  2452.62840672
0.41900002 32684.91135115  2470.97941523
0.42000002 32849.10586962  2281.86324736
0.42100002 33011.94180529  2298.62161682
0.42200002 33172.65388386  2315.28548753
0.42300002 33330.72023838  2119.83390761
0.42400002 33486.69437876  2988.68761493
0.42500002 33640.98507930  2364.62495327
0.42600002 33791.67208316  2813.66370933
0.42700002 33941.28795121  2396.93386870
0.42800002 34088.09571653  2412.92596964
0.42900002 34233.10437922  3532.85653935
0.43000002 34375.60360832  2666.85945431
0.43100002 34514.20292923  2460.17250138
0.43200002 34651.19859285  4276.13136499
0.43300002 34785.27655148  2943.87809406
0.43400002 34917.01132217  2961.83562576
0.43500002 35045.61652659  3208.77680123
0.43600002 35172.56236413  3688.89851556
0.43700002 35295.79554477  2550.82726490
0.43800002 35415.44477621  2798.52857884
0.43900002 35533.47545788  3048.77233877
0.44000002 35647.84140131  3065.53626658
0.44100002 35759.94371669  2845.06125693
0.44200002 35868.94949309  2383.49180677
0.44300002 35975.20391874  3354.32817235
0.44400002 36077.77163837  3371.46791938
0.44500002 36176.78146917  3388.31751298
0.44600002 36273.52629634  3404.99607480
0.44700002 36367.46256040  2932.67231985
0.44800002 36457.04628657  3683.07327565
0.44900002 36545.09344564  3206.83210183
0.45000002 36629.60183023  3221.39048563
0.45100002 36709.73651130  2488.92025342
0.45200002 36787.65319754  3999.55384519
0.45300002 36861.80227825  3263.37551035
0.45400002 36933.29534470  2772.76727941
0.45500002 37001.50448165  2530.90302649
0.45600002 37066.13313864  3811.32532061
0.45700002 37127.56812135  2550.66405082
0.45800002 37185.07442848  3328.25024446
0.45900002 37239.75308754  3854.31462723
0.46000002 37291.83344718  2578.73040509
0.46100002 37339.30840076  2587.61419481
0.46200002 37384.43036790  3115.61857453
0.46300002 37425.75889733  4167.73270834
0.46400002 37463.45453639  3396.99890109
0.46500002 37498.60362026  3145.38302074
0.46600002 37529.66050663  3417.63869602
0.46700002 37557.48305349  4482.11024004
0.46800002 37582.58061599  2908.32813881
0.46900002 37603.65970504  2916.16394834
0.47000002 37621.06353496  4784.27087650
0.47100002 37635.68863426  2931.06756976
0.47200002 37646.68809917  2938.13591196
0.47300002 37655.04444049  3748.18330126
0.47400002 37658.63865622  2951.49594457
0.47500002 37660.13309703  3764.50708281
0.47600002 37658.44534192  2963.90808112
0.47700002 37652.36322175  3509.57694225
