# SAXS profile: number of points = 501, q_min = 0, q_max = 0.5, delta_q = 0.001
#    q    intensity    error
0.00000000 1700912.83420644 280.65061764
0.00100000 1700843.02923571 765.37938133
0.00200000 1700633.55524933 841.81363650
0.00300000 1700284.59097283 1530.25618639
0.00400000 1699795.98942644 2294.72467292
0.00500000 1699168.23532084 2140.95206125
0.00600000 1698401.02970895 2139.98538456
0.00700000 1697495.07078687 2851.79183744
0.00800000 1696449.77597095 2519.22802368
0.00900000 1695266.53072627 3305.76987623
0.01000000 1693944.42860153 2795.00842788
0.01100000 1692484.82161493 4265.06193617
0.01200000 1690887.12874322 4616.12206386
0.01300000 1689152.72889797 3901.94297585
0.01400000 1687280.84280942 4935.29668400
0.01500000 1685273.34584253 4853.58745215
0.01600000 1683129.04572331 6008.77096185
0.01700000 1680850.12774271 5445.95465818
0.01800000 1678435.98641202 6696.95988713
0.01900000 1675887.45737038 6535.96137866
0.02000000 1673205.33668569 5270.59704898
0.02100000 1670391.03209670 6614.74878701
0.02200000 1667442.90362598 7478.48176253
0.02300000 1664363.71166496 6590.88059820
0.02400000 1661153.46329580 7475.19092568
0.02500000 1657813.53584467 9051.66231911
0.02600000 1654343.94708733 6700.09329215
0.02700000 1650745.94709680 9013.07328396
0.02800000 1647019.31152793 8597.44120045
0.02900000 1643166.53073150 7394.24972779
0.03000000 1639188.13365204 7622.22517184
0.03100000 1635084.19197393 8633.24493087
0.03200000 1630855.86345001 9687.28427507
0.03300000 1626505.92094290 10783.73475299
0.03400000 1622032.27103301 11921.93774218
0.03500000 1617438.38994908 8734.16770905
0.03600000 1612723.97960252 10740.74220052
0.03700000 1607890.99214835 9164.97907910
0.03800000 1602940.47605578 10314.92244079
0.03900000 1597874.10563273 12463.41860112
0.04000000 1592690.32468774 11754.05514087
0.04100000 1587393.55647168 12000.69584336
0.04200000 1581983.81202901 11224.17566707
0.04300000 1576461.33378646 12485.57434314
0.04400000 1570829.84799874 11663.41216306
0.04500000 1565088.72787464 12958.93526894
0.04600000 1559238.64865624 15389.68617766
0.04700000 1553282.73803335 13420.36348076
0.04800000 1547221.02405773 17058.11258392
0.04900000 1541056.51929655 11557.92443272
0.05000000 1534788.72486552 12915.24772116
0.05100000 1528420.81284316 14306.01947464
0.05200000 1521951.16195885 15729.36599185
0.05300000 1515385.10589251 15957.00590893
0.05400000 1508721.21449882 14936.34072008
0.05500000 1501963.36526801 13878.14214248
0.05600000 1495109.91916404 19174.78560805
0.05700000 1488166.14404462 14241.75066329
0.05800000 1481130.50047319 19662.00831185
0.05900000 1474004.87377785 14592.64893196
0.06000000 1466792.53726244 22815.95898305
0.06100000 1459494.82276868 14930.63273465
0.06200000 1452111.86956259 17839.19515144
0.06300000 1444647.12519501 15255.47435533
0.06400000 1437098.84192123 14011.71436401
0.06500000 1429473.00038211 19812.49671208
0.06600000 1421767.61912160 18575.39481294
0.06700000 1413985.93521145 17307.18865695
0.06800000 1406130.86519120 17464.14616316
0.06900000 1398202.60278149 16149.24081822
0.07000000 1390201.46975715 16286.21098086
0.07100000 1382131.95362047 19405.13353772
0.07200000 1373992.89345052 16549.74517691
0.07300000 1365789.50189599 19708.34343581
0.07400000 1357520.68411046 21380.95177674
0.07500000 1349189.16562425 27685.36297629
0.07600000 1340794.93372116 20132.03687363
0.07700000 1332343.45460440 21823.78680970
0.07800000 1323832.97373800 20393.64791682
0.07900000 1315265.80342156 25253.10461016
0.08000000 1306645.81695733 15875.74742078
0.08100000 1297973.10747532 17561.57696810
0.08200000 1289248.61902036 17656.26066601
0.08300000 1280475.50657655 20974.18978208
0.08400000 1271654.35773426 17834.95320437
0.08500000 1262789.07162804 19547.97574648
0.08600000 1253879.00091141 17999.43390318
0.08700000 1244927.31568127 19719.64960638
0.08800000 1235933.37453453 18149.68245742
0.08900000 1226903.06095158 21532.14973106
0.09000000 1217834.68935226 24935.16643583
0.09100000 1208731.42916870 20016.59340744
0.09200000 1199594.19750027 18407.77382556
0.09300000 1190426.16518743 18463.51068970
0.09400000 1181226.14888953 18515.72075404
0.09500000 1171998.12854523 23627.48338203
0.09600000 1162743.28527064 16917.91559596
0.09700000 1153464.70125105 18651.52509609
0.09800000 1144163.15894059 20388.98845096
0.09900000 1134840.31720776 28938.42944955
0.10000000 1125496.27340156 17051.26934391
0.10100000 1116133.64890874 29030.63757348
0.10200000 1106754.95713789 27358.98382731
0.10300000 1097360.93205646 20542.59761444
0.10400000 1087954.38917151 23989.39540982
0.10500000 1078537.84091778 20578.50297292
0.10600001 1069107.86240488 20591.01839880
0.10700001 1059671.63067495 20600.01746971
0.10800001 1050227.31892459 24039.70446153
0.10900001 1040778.58418264 22324.70168144
0.11000001 1031325.82103706 20605.89087423
0.11100001 1021871.12968638 18884.17936555
0.11200001 1012416.56849335 22308.60013698
0.11300001 1002961.19683150 20580.76472794
0.11400001 993509.92184607 20565.65635054
0.11500001 984062.95447875 25684.04432131
0.11600001 974620.96102456 18815.05853861
0.11700001 965187.04299434 22208.95490523
0.11800001 955759.64722125 20472.37260769
0.11900001 946343.08382347 27254.68209786
0.12000001 936937.05826173 18705.94924934
0.12100001 927546.03846125 23763.73062484
0.12200001 918167.26786102 20328.22426813
0.12300001 908805.19902938 18594.15524819
0.12400001 899459.03307946 18551.34343136
0.12500001 890131.62166293 18505.83728638
0.12600001 880825.03792204 21813.63309207
0.12700001 871539.17690050 18406.90828359
0.12800001 862274.41666839 16685.01074889
0.12900001 853033.98970248 19960.99629984
0.13000001 843818.75654191 18239.14328235
0.13100001 834628.01055537 23135.88954317
0.13200001 825466.31448423 16468.05375027
0.13300001 816333.63814376 21330.79897029
0.13400001 807229.43409565 17981.03649221
0.13500001 798156.90529837 17910.64179935
0.13600001 789115.66117606 19459.59312214
0.13700001 780108.39996753 20992.71803300
0.13800001 771134.13428816 16078.14745809
0.13900001 762197.67958629 22408.61283659
0.14000001 753296.03256298 17525.43302409
0.14100001 744432.88428814 15856.42118317
0.14200001 735606.96326336 15778.77010621
0.14300001 726823.48912916 18839.26572683
0.14400001 718076.22791322 24989.05391011
0.14500001 709374.64452121 15535.30544785
0.14600001 700713.31817911 18540.87527367
0.14700001 692097.99703924 23046.86438868
0.14800001 683525.00533902 21387.49842609
0.14900001 674996.96487521 15187.43242625
0.15000001 666515.77487961 19625.55791732
0.15100001 658081.38675510 16504.68195859
0.15200001 649696.04333263 16401.57738787
0.15300001 641359.38464922 20741.56347833
0.15400001 633069.88802278 17662.65070935
0.15500001 624832.52249710 16083.18988809
0.15600001 616644.67453284 18878.57760180
0.15700001 608511.53584178 18748.24130414
0.15800001 600426.14065938 17184.19695674
0.15900001 592397.23866990 19904.54815881
0.16000001 584419.79376400 16936.48642272
0.16100001 576499.81712748 18211.63008272
0.16200001 568632.38409519 18073.98118167
0.16300001 560821.82884245 16555.46116898
0.16400001 553067.04190234 16426.09191997
0.16500001 545369.53857120 14937.67236669
0.16600001 537728.58389816 20205.15249392
0.16700001 530145.40922062 14695.63143745
0.16800001 522619.22796829 14573.23785999
0.16900001 515154.48745058 15763.72806032
0.17000001 507747.67166694 15628.47407188
0.17100001 500400.58226840 14201.36919538
0.17200001 493113.67999321 19194.45090015
0.17300001 485887.40996084 12681.66199886
0.17400001 478722.85391753 13823.12305968
0.17500001 471618.58882062 17431.02386604
0.17600001 464574.38082891 13567.89543291
0.17700001 457594.42488475 12217.77172148
0.17800001 450675.94536552 14520.77964552
0.17900001 443819.53572494 16776.37924281
0.18000001 437026.72191955 11865.27606057
0.18100001 430297.80576812 17620.69597854
0.18200001 423629.35960309 11628.62647042
0.18300001 417027.09741640 13811.93811890
0.18400001 410486.74740185 17086.51166778
0.18500001 404011.53280944 20289.46013621
0.18600001 397599.64610079 12267.93766002
0.18700001 391251.79230847 12136.63117080
0.18800001 384967.42571346 14187.97514500
0.18900001 378749.80624515 11873.80698679
0.19000001 372592.64022226 16012.16947011
0.19100001 366504.59444332 13721.93266432
0.19200001 360477.97146380 13566.58909708
0.19300001 354518.20474724 14443.07234388
0.19400001 348621.76090575 15295.78048252
0.19500001 342790.79658926 13101.46486475
0.19600001 337023.41633924 11950.85090814
0.19700001 331321.39817619 14760.36898629
0.19800001 325684.01627207 13610.33568322
0.19900001 320111.96317796 11524.03121903
0.20000001 314602.56247196 11382.32124818
0.20100001 309159.32857946 11241.03371843
0.20200001 303779.32866342 12025.10529349
0.20300001 298464.31559158 11872.91103540
0.20400001 293213.65876130 12622.84860630
0.20500001 288026.05666195 12460.00780014
0.20600001 282902.78368056 9662.54503334
0.20700001 277843.20953343 10402.45025665
0.20800001 272846.94129411 13686.00322225
0.20900001 267916.20717957 12659.04138764
0.21000001 263046.43177344 9157.96195511
0.21100001 258239.67885318 9033.22439332
0.21200001 253495.91888864 9719.03398965
0.21300001 248814.40696929 10383.02569369
0.21400001 244196.34518494 8662.86575499
0.21500001 239640.61221461 8540.79182312
0.21600001 235145.05409014 9950.16343425
0.21700001 230712.13327627 9807.57324927
0.21800001 226340.36073024 8178.80932169
0.21900001 222028.35758194 8792.32337596
0.22000001 217777.08992007 10828.96630830
0.22100001 213588.57655613 7823.74992919
0.22200001 209458.73578759 7707.03454773
0.22300001 205388.68224244 8281.27205960
0.22400001 201376.17401997 7476.09081401
0.22500001 197425.90674178 7362.01241053
0.22600001 193532.83818745 9225.71083266
0.22700001 189698.81862689 7136.46989422
0.22800001 185922.13258552 9579.63833449
0.22900001 182202.68502027 6914.59222352
0.23000001 178540.83489663 7423.72826608
0.23100001 174937.28185054 6087.81769631
0.23200001 171388.38789779 7188.02932838
0.23300001 167896.77041842 6482.49461244
0.23400001 164460.72215628 8695.86109529
0.23500001 161078.83266253 6272.41004054
0.23600001 157752.51237571 6168.91228822
0.23700001 154480.50382943 5514.95424756
0.23800001 151262.77173147 8134.15593459
0.23900001 148098.48806513 5864.70040478
0.24000001 144987.33335366 7861.93852298
0.24100001 141929.82898904 6697.66894680
0.24200001 138924.08619709 7595.67477212
0.24300001 135970.22427441 4976.51044385
0.24400001 133067.16433230 4890.21852054
0.24500001 130215.41801877 5285.44406741
0.24600001 127414.26854702 5192.76876028
0.24700001 124664.01188079 6492.50204589
0.24800001 121962.32566394 4555.29307904
0.24900001 119309.36104665 4474.10125091
0.25000001 116705.88935508 4393.97694209
0.25100001 114149.88550702 6040.81222682
0.25200001 111642.63570777 5507.88969322
0.25300001 109182.57333749 4991.82748916
0.25400001 106768.60422315 6125.84895712
0.25500001 104401.03022099 4409.89972518
0.25600001 102079.73757028 4722.20888342
0.25700001 99803.47126387  5407.35232892
0.25800001 97571.89789077  5306.93577737
0.25900001 95384.98206230  4836.01881937
0.26000001 93242.34536502  4015.48179314
0.26100001 91141.17411438  3940.03314339
0.26200001 89085.46761465  3514.42186369
0.26300001 87070.74703180  4137.60209473
0.26400001 85097.75329000  5073.95378001
0.26500001 83167.03622004  3650.20139242
0.26600001 81276.53220218  3906.15032247
0.26700001 79427.35404861  4789.46967577
0.26800001 77618.06973138  3131.88926186
0.26900001 75847.70036111  3686.19841199
0.27000001 74117.00673762  3615.42775975
0.27100001 72424.73437359  3250.42223251
0.27200001 70770.80992795  3477.67776444
0.27300001 69153.92892373  3979.11725858
0.27400001 67573.06203219  3066.12783481
0.27500001 66031.07990452  4100.53025613
0.27600001 64523.34178139  4021.41746684
0.27700001 63052.56720339  4732.72591827
0.27800001 61616.27414770  2836.50531463
0.27900001 60214.94198004  3034.83321943
0.28000001 58847.70810602  2976.51721688
0.28100001 57513.96295576  2919.40889781
0.28200001 56214.10589598  2863.54668987
0.28300001 54946.92122057  2808.88674574
0.28400001 53712.19521446  2296.19645410
0.28500001 52509.65057180  2703.19693938
0.28600001 51337.79150139  2431.10123162
0.28700001 50197.21204433  2602.22359555
0.28800001 49086.76660133  2127.91143289
0.28900001 48007.88058284  3341.34864672
0.29000001 46956.95002513  2869.53935186
0.29100001 45936.44649940  2012.01645191
0.29200001 44944.25470717  1975.30008788
0.29300001 43980.20349528  2133.47977255
0.29400001 43043.80468456  2285.62613694
0.29500001 42135.69688175  2244.99003613
0.29600001 41253.76186267  2205.42621358
0.29700001 40398.03667658  2166.95078991
0.29800001 39569.07449258  2307.07499750
0.29900001 38765.58547321  1918.89657176
0.30000001 37987.28789768  2229.66396871
0.30100001 37234.80610635  1855.41047612
0.30200001 36505.41672833  3816.09391835
0.30300001 35800.36774828  2122.24590059
0.30400001 35119.81602070  2249.42432262
0.30500001 34461.06828478  1898.11573099
0.30600001 33825.40502168  2336.48996249
0.30700001 33212.67988687  1687.86847176
0.30800001 32621.74919701  1663.21996155
0.30900001 32052.27239072  1937.55995775
0.31000001 31504.68983851  1910.60200571
0.31100001 30976.32561071  1594.66131794
0.31200001 30469.48980748  1573.59687561
0.31300001 29982.26544331  1694.59772309
0.31400001 29516.02956269  1534.09570916
0.31500001 29067.81269211  1515.59582553
0.31600002 28638.92256421  2042.67124861
0.31700002 28228.09548559  1615.77626210
0.31800002 27835.79114575  1465.13693633
0.31900002 27461.54488332  1318.15421681
0.32000002 27104.59423249  1696.61215632
0.32100002 26765.06874386  1680.57874600
0.32200002 26442.34936890  1409.24507634
0.32300002 26135.35093070  1778.24936153
0.32400002 25844.90497863  2015.90268379
0.32500002 25569.65336268  1250.35610864
0.32600002 25310.39720446  1862.21256250
0.32700002 25065.84729479  1356.56371983
0.32800002 24837.01889416  1593.41902261
0.32900002 24621.17829550  1340.62322167
0.33000002 24421.22233197  1940.02199392
0.33100002 24232.51473002  1448.13514884
0.33200002 24059.84384600  1682.50495983
0.33300002 23898.98026212  1317.07286462
0.33400002 23751.75317064  1312.87821868
0.33500002 23616.43286164  1547.34875437
0.33600002 23493.49882549  1425.11570624
0.33700002 23381.82444606  1659.64197778
0.33800002 23283.20006226  1539.13601301
0.33900002 23194.72845023  1419.51744838
0.34000002 23117.91555174  1418.97772377
0.34100002 23051.74401810  1300.80997655
0.34200002 22997.14290639  1419.84367028
0.34300002 22951.26475107  1184.28531724
0.34400002 22916.42001890  1423.10975057
0.34500002 22890.67206671  1425.63112383
0.34600002 22875.66907257  1190.67863162
0.34700002 22867.70379607  1313.06361416
0.34800002 22870.39424833  1436.71823472
0.34900002 22881.20527882  1801.89500105
0.35000002 22900.71660662  1446.86734373
0.35100002 22928.34839871  1331.67853807
0.35200002 22963.03817470  1215.89292894
0.35300002 23006.11840643  1221.62494524
0.35400002 23056.89770400  1596.11381916
0.35500002 23114.60504320  1728.04795488
0.35600002 23178.97111824  1489.48075461
0.35700002 23250.22854827  1498.24479861
0.35800002 23328.68331388  1758.74951834
0.35900002 23412.90175838  1643.58578129
0.36000002 23503.87582198  1400.00842965
0.36100002 23599.92187951  1794.06614626
0.36200002 23702.88427490  1419.68432089
0.36300002 23809.62516456  1560.00671467
0.36400002 23922.40237709  1571.70191062
0.36500002 24039.74772909  1451.76043413
0.36600002 24162.53207471  1596.17694446
0.36700002 24289.58205745  2547.49148686
0.36800002 24422.54058590  1622.14522255
0.36900002 24558.57489587  1908.20135980
0.37000002 24698.00583576  1374.44408987
0.37100002 24841.75507569  1524.78699877
0.37200002 24989.83742809  2097.27220550
0.37300002 25140.71051055  1974.55149703
0.37400002 25296.06796435  1849.77505752
0.37500002 25453.40394098  1579.12925530
0.37600002 25614.99447611  1448.52800624
0.37700002 25778.11898446  1900.10524036
0.37800002 25944.85170432  1769.95786712
0.37900002 26114.00763716  1935.04805758
0.38000002 26285.60659430  1502.22248803
0.38100002 26458.92114959  2577.36363128
0.38200002 26634.60743753  2448.25323164
0.38300002 26811.99776529  1853.24537333
0.38400002 26991.80970277  2494.04333469
0.38500002 27172.26333696  1730.60153392
0.38600002 27355.25474909  2064.36439744
0.38700002 27538.42172432  2404.10433043
0.38800002 27722.98042503  2426.45397665
0.38900002 27908.80672551  1795.93179787
0.39000002 28096.14085536  2306.97423493
0.39100002 28283.38407836  2328.28828764
0.39200002 28472.05924040  1846.27076891
0.39300002 28660.69640788  1693.84723795
0.39400002 28850.73623904  2222.22806410
0.39500002 29039.95962186  1724.97368326
0.39600002 29229.61508823  2262.81075926
0.39700002 29418.90328094  2107.57033090
0.39800002 29609.48631730  2126.55340806
0.39900002 29798.80428638  2324.30684446
0.40000002 29987.68049371  2344.88678730
0.40100002 30176.45675213  1819.64042837
0.40200002 30365.57640319  1835.59918054
0.40300002 30553.09656935  2221.82128779
0.40400002 30740.14004692  2240.95631560
0.40500002 30926.45645849  2260.10554507
0.40600002 31112.11954499  3039.03198115
0.40700002 31296.71261859  1915.35890301
0.40800002 31480.29958545  3862.63294215
0.40900002 31662.22877526  2531.39531052
0.41000002 31843.63755038  2552.10845240
0.41100002 32023.52970070  2374.86507513
0.41200002 32201.27045585  2194.35567919
0.41300002 32378.19131121  2211.75435327
0.41400002 32553.21381607  2431.72518728
0.41500002 32727.26004297  2859.05357283
0.41600002 32898.38837596  2263.57371946
0.41700002 33068.51721616  3317.43380432
0.41800002 33237.69116627  3133.48348318
0.41900002 33402.90624633  2104.38319323
0.42000002 33566.95313706  2331.72851015
0.42100002 33729.51000177  2348.58589271
0.42200002 33889.77265092  3225.45926489
0.42300002 34047.35383419  2381.95298711
0.42400002 34202.69347995  3488.67490027
0.42500002 34356.31087982  3073.51571695
0.42600002 34506.10876556  3094.16291963
0.42700002 34654.77753110  3337.25523439
0.42800002 34800.58905297  2687.30161401
0.42900002 34944.41505892  2704.69785373
0.43000002 35085.64815367  3175.60216487
0.43100002 35222.96566902  2967.18276857
0.43200002 35358.40520845  2755.83423254
0.43300002 35490.94272718  3003.59862534
0.43400002 35621.04980384  2789.12833181
0.43500002 35747.82658733  2571.69876656
0.43600002 35872.87491648  3056.90718087
0.43700002 35994.11401943  2364.81340314
0.43800002 36111.65816431  2853.54336337
0.43900002 36227.42486807  3108.31320098
0.44000002 36339.52237694  3125.01737490
0.44100002 36449.20726358  2899.89906732
0.44200002 36555.69006097  3157.86343557
0.44300002 36659.30304850  2685.66066861
0.44400002 36759.12688273  3435.14056999
0.44500002 36855.29469691  2712.18126528
0.44600002 36949.14241907  2725.18412827
0.44700002 37040.02862984  2986.90805026
0.44800002 37126.39697030  3500.64813623
0.44900002 37211.20656392  3014.10787452
0.45000002 37292.37724549  3027.39532826
0.45100002 37369.13965479  3547.07890414
0.45200002 37443.46651284  3307.56877117
0.45300002 37513.93182903  3321.10854222
0.45400002 37581.73201540  3590.93466426
0.45500002 37646.07729739  3089.99017101
0.45600002 37706.85997581  3101.76644861
0.45700002 37764.23745638  2853.84355983
0.45800002 37817.60140312  2603.74198001
0.45900002 37868.10690865  3135.47940064
0.46000002 37915.81863252  2621.87898270
0.46100002 37958.87641851  3419.71533862
0.46200002 37999.46644152  3694.68829722
0.46300002 38036.34628888  3970.99474076
0.46400002 38069.33932083  2655.33654348
0.46500002 38099.84030195  3195.81475599
0.46600002 38126.00374824  3471.94469589
0.46700002 38148.88371857  3481.46729316
0.46800002 38169.01728558  3490.74764130
0.46900002 38185.01773477  2692.04387789
0.47000002 38197.21695697  4047.95025887
0.47100002 38206.62213726  3516.53766819
0.47200002 38212.29855050  3253.39525279
0.47300002 38215.41641639  3260.53948319
0.47400002 38213.43153149  2722.70712567
0.47500002 38209.39312456  4365.04127744
0.47600002 38202.13964864  3553.37218784
0.47700002 38190.32327749  2738.24630878
