# SAXS profile: number of points = 501, q_min = 0, q_max = 0.5, delta_q = 0.001
#    q    intensity    error
0.00000000 1682732.95097188 277.65093691
0.00100000 1682663.72037794 656.23886653
0.00200000 1682455.96769519 1059.94729321
0.00300000 1682109.87019387 1211.11914968
0.00400000 1681625.28002560 1387.34090874
0.00500000 1681002.69228689 1512.90248294
0.00600000 1680241.80152375 2646.38094514
0.00700000 1679343.28283749 2216.73322547
0.00800000 1678306.58322085 3171.99957621
0.00900000 1677133.06751661 3270.40962146
0.01000000 1675821.85077849 2765.10617318
0.01100000 1674374.25824144 3315.26117566
0.01200000 1672789.68843294 4240.52204610
0.01300000 1671069.59882798 3860.17094354
0.01400000 1669213.11189097 4131.30263507
0.01500000 1667222.16573914 4001.33337595
0.01600000 1665095.55712907 5095.19263259
0.01700000 1662835.40279024 4938.62136783
0.01800000 1660441.20413858 5205.48340921
0.01900000 1657913.76234661 7460.61226720
0.02000000 1655253.71794709 6778.26428161
0.02100000 1652462.67225567 7634.37789195
0.02200000 1649538.90774502 8536.36423541
0.02300000 1646485.22318342 6520.08178059
0.02400000 1643301.57944765 10476.04804666
0.02500000 1639989.29316634 9593.93780318
0.02600000 1636548.47788849 7953.62596632
0.02700000 1632980.33865792 6858.51773649
0.02800000 1629284.60702357 8504.86603869
0.02900000 1625463.84418805 10971.88145203
0.03000000 1621518.57003121 12064.09871556
0.03100000 1617448.77517830 10092.88082152
0.03200000 1613255.61680567 8784.17723809
0.03300000 1608941.96064297 13128.96700410
0.03400000 1604505.61897631 9266.02037713
0.03500000 1599950.10317019 10367.67714730
0.03600000 1595275.11431197 11509.91048168
0.03700000 1590482.52423113 9065.75080739
0.03800000 1585573.47500415 11130.72630965
0.03900000 1580549.52854994 13276.61665466
0.04000000 1575409.29089968 12595.39786440
0.04100000 1570157.06042665 10881.18893328
0.04200000 1564792.82048933 12111.49699247
0.04300000 1559316.78229252 11320.64036492
0.04400000 1553732.82534063 15731.54558718
0.04500000 1548040.16830600 13885.92095491
0.04600000 1542239.51744500 13047.34692411
0.04700000 1536333.97332578 11061.60512240
0.04800000 1530323.65414418 12372.66731943
0.04900000 1524211.43417959 12574.74491730
0.05000000 1517996.79233148 18580.28160335
0.05100000 1511683.06725482 12970.24132125
0.05200000 1505268.49415565 13163.57359483
0.05300000 1498758.52163774 13353.93905032
0.05400000 1492151.53392692 18465.37609346
0.05500000 1485451.47922745 12477.79300759
0.05600000 1478656.66765501 18963.77264760
0.05700000 1471772.55043285 12804.42178646
0.05800000 1464797.24120010 12963.45618992
0.05900000 1457733.16176182 14431.55897548
0.06000000 1450582.78267300 21236.53293048
0.06100000 1443348.03368195 20134.70601079
0.06200000 1436028.99066502 13570.47459612
0.06300000 1428628.86936486 21943.74045943
0.06400000 1421146.03688585 15241.79195841
0.06500000 1413586.48430417 13994.50684924
0.06600000 1405948.14926058 16955.73547342
0.06700000 1398234.43020671 17114.39022667
0.06800000 1390447.84562531 15830.24946344
0.06900000 1382589.00829993 23227.49642692
0.07000000 1374658.09184672 14640.10936374
0.07100000 1366659.47974977 17711.90768714
0.07200000 1358592.02722364 17851.90007402
0.07300000 1350460.87643221 20986.16300308
0.07400000 1342265.18973445 22650.72613828
0.07500000 1334007.35257050 15207.68453213
0.07600000 1325687.52536808 15311.69163582
0.07700000 1317311.16428984 16953.79547935
0.07800000 1308876.53563206 15510.18767461
0.07900000 1300385.72183849 18725.55527277
0.08000000 1291842.81423751 15695.89092930
0.08100000 1283247.77375756 23675.92253666
0.08200000 1274601.66090351 19042.54970747
0.08300000 1265907.48224319 17545.47852734
0.08400000 1257165.83338825 22440.41117930
0.08500000 1248380.62960866 24156.16631694
0.08600000 1239551.21619135 22646.60178311
0.08700000 1230680.94692750 21118.48604095
0.08800000 1221768.76152765 21203.79785212
0.08900000 1212820.72667916 26196.92892673
0.09000000 1203835.28451781 19718.82288670
0.09100000 1194815.50502453 24732.68211598
0.09200000 1185762.10894662 19849.65863644
0.09300000 1176678.46686363 19909.40059492
0.09400000 1167563.23011818 18301.55449223
0.09500000 1158420.66238967 25021.88748371
0.09600000 1149251.59233801 20065.93374548
0.09700000 1140059.17355696 25138.30595875
0.09800000 1130844.24491572 21830.94917454
0.09900000 1121608.56214070 21871.36799019
0.10000000 1112352.06297232 20222.56145585
0.10100000 1103077.32734819 21940.20907284
0.10200000 1093786.84595081 23658.61059073
0.10300000 1084481.46699840 20301.49401721
0.10400000 1075163.89340643 27094.13138849
0.10500000 1065836.64328769 16946.80342561
0.10600001 1056496.26579419 25435.14879581
0.10700001 1047150.26052000 20356.60202244
0.10800001 1037796.11089736 20361.56065406
0.10900001 1028438.04395564 18666.15137633
0.11000001 1019076.07925926 20361.14102199
0.11100001 1009712.47409198 16963.17036326
0.11200001 1000349.56369123 23738.29626392
0.11300001 990985.74998802 22029.61425941
0.11400001 981626.31522811 18626.36020846
0.11500001 972271.48924584 23684.53459329
0.11600001 962921.65385494 18589.20340306
0.11700001 953580.29104850 16878.37194644
0.11800001 944245.56220867 20225.74089511
0.11900001 934921.88250154 18511.45414545
0.12000001 925608.95960469 26879.68545309
0.12100001 916310.98301577 16768.49177912
0.12200001 907025.58959053 20081.54749960
0.12300001 897756.92117194 20037.93542463
0.12400001 888504.36620702 19991.34918160
0.12500001 879270.55470146 19941.85712030
0.12600001 870057.67189842 23204.43920300
0.12700001 860865.63540838 26445.79356604
0.12800001 851694.77537055 28016.50095621
0.12900001 842548.28767057 18072.66162234
0.13000001 833426.88475750 22927.57468037
0.13100001 824330.35206401 17953.91591426
0.13200001 815262.57465001 24396.73369647
0.13300001 806223.85135241 21066.63022898
0.13400001 797213.60921277 16143.57634766
0.13500001 788235.12854569 16079.99738048
0.13600001 779287.97600905 24021.55299311
0.13700001 770374.53913980 23920.13056820
0.13800001 761494.07880130 20640.29797922
0.13900001 752651.41070045 18966.81644409
0.14000001 743843.45803325 17305.51886728
0.14100001 735073.89196659 20354.19702852
0.14200001 726341.51580785 17138.02887381
0.14300001 717651.38971296 20151.65197365
0.14400001 708997.46493605 20046.90426668
0.14500001 700389.04091421 16872.37279153
0.14600001 691820.62826868 19831.03924484
0.14700001 683298.23346312 16686.14364836
0.14800001 674817.76896920 16590.39563282
0.14900001 666382.28388061 25489.12356103
0.15000001 657993.39278686 16393.90615480
0.15100001 649651.29478413 25180.48537397
0.15200001 641357.76587169 30910.23898475
0.15300001 633112.76514680 23399.84890404
0.15400001 624914.82161743 17435.12434591
0.15500001 616768.79845623 25978.30301697
0.15600001 608671.74157800 18634.48624786
0.15700001 600629.29215904 18505.38936482
0.15800001 592634.55957698 14134.33491303
0.15900001 584695.94479210 16839.24400483
0.16000001 576808.21389038 15322.91092528
0.16100001 568977.80846894 20739.24209767
0.16200001 561199.72246058 17837.73402046
0.16300001 553478.11680025 14977.11854765
0.16400001 545811.98462925 13508.84725732
0.16500001 538202.71005480 16081.49773567
0.16600001 530649.84061611 17280.61287553
0.16700001 523154.12964504 13183.48468951
0.16800001 515715.34112249 15688.06141768
0.16900001 508337.40635206 19443.90671107
0.17000001 501017.11007810 15421.30737639
0.17100001 493756.09616222 12738.90788253
0.17200001 486555.07838343 13888.71536832
0.17300001 479414.02121049 15015.24785340
0.17400001 472334.24894074 16118.40700631
0.17500001 465314.61739566 17198.02907116
0.17600001 458354.45801778 12169.31143512
0.17700001 451458.18041727 14464.72078375
0.17800001 444622.84485992 15519.56113286
0.17900001 437849.06264497 14186.31029977
0.18000001 431138.57522616 15217.03673138
0.18100001 424491.49179001 11588.61827327
0.18200001 417904.30849151 16060.06333397
0.18300001 411382.86952328 12489.58450873
0.18400001 404922.94551240 11236.61226879
0.18500001 398527.53309448 13342.70243834
0.18600001 392195.24537195 13201.29258289
0.18700001 385926.14089799 14148.05299374
0.18800001 379720.18918146 12918.08144628
0.18900001 373580.47620916 14905.86170501
0.19000001 367500.48268032 13687.55612415
0.19100001 361489.37488682 10410.89448866
0.19200001 355538.91478116 13380.70769005
0.19300001 349654.80130830 13227.44175852
0.19400001 343833.64994752 12068.56168344
0.19500001 338077.20695863 11927.36442513
0.19600001 332383.91601057 12768.52873694
0.19700001 326755.46302219 10675.10148141
0.19800001 321190.89440556 15340.07784176
0.19900001 315691.24054133 9470.73766383
0.20000001 310253.66702268 10289.56335310
0.20100001 304881.61309989 16628.24396436
0.20200001 299572.21436237 10946.36923016
0.20300001 294327.19352247 9907.05380222
0.20400001 289145.88596394 8891.23641364
0.20500001 284026.93302871 11409.36243905
0.20600001 278972.11393535 10394.50145656
0.20700001 273980.10216806 13677.08734673
0.20800001 269050.81663860 11808.64090046
0.20900001 264186.49576892 9154.06251112
0.21000001 259382.46880652 11493.23773613
0.21100001 254640.76487068 12146.36505853
0.21200001 249961.61262683 14375.29302175
0.21300001 245343.99518215 11813.31392650
0.21400001 240789.11853959 8541.99438403
0.21500001 236296.04903545 8421.59158578
0.21600001 231862.50937355 11320.68755539
0.21700001 227491.02054841 8926.74806837
0.21800001 223179.92132247 8064.60683829
0.21900001 218927.99458885 10114.47382823
0.22000001 214736.18768217 10677.75743737
0.22100001 210606.40822090 8415.83247044
0.22200001 206534.74499497 6908.58754675
0.22300001 202522.12307767 7485.21802289
0.22400001 198566.51071710 8041.94406432
0.22500001 194672.51856828 10559.03790645
0.22600001 190834.83938193 9746.88988235
0.22700001 187055.66839686 7037.03457786
0.22800001 183333.29611861 9446.24852922
0.22900001 179667.46150394 6818.38048652
0.23000001 176058.44478787 10370.72318068
0.23100001 172507.15336722 6603.57414320
0.23200001 169009.89043308 7088.27513999
0.23300001 165569.15469703 5811.47760472
0.23400001 162183.46221078 8003.75423864
0.23500001 158851.09364954 6747.99477739
0.23600001 155573.80602176 8295.97359849
0.23700001 152350.17345294 6526.68173942
0.23800001 149179.97156220 6952.53290350
0.23900001 146062.75035073 6309.91111361
0.24000001 142997.83678171 7237.12086184
0.24100001 139986.07604293 7114.09272101
0.24200001 137025.34420798 6992.40364569
0.24300001 134115.83950566 5890.36794972
0.24400001 131256.50858209 4823.67691857
0.24500001 128447.90024409 6161.64606618
0.24600001 125689.23024147 6053.82206096
0.24700001 122980.67600382 5032.36950014
0.24800001 120319.95124249 4943.34543065
0.24900001 117707.53520924 7503.85572458
0.25000001 115143.86575748 5635.71677612
0.25100001 112627.03783029 5960.22312395
0.25200001 110158.33164401 6270.76332550
0.25300001 107736.18958388 5746.64862428
0.25400001 105359.50977517 4836.00172748
0.25500001 103028.50225515 4351.92414116
0.25600001 100743.16096719 5048.74375074
0.25700001 98502.28105445  6861.66922290
0.25800001 96305.40300768  4115.61159226
0.25900001 94152.63083728  4406.34333167
0.26000001 92043.52309767  3963.85450975
0.26100001 89975.19369503  3889.62780748
0.26200001 87951.67184470  4510.60170398
0.26300001 85968.61759034  3744.79315943
0.26400001 84026.65503349  4342.07760431
0.26500001 82126.40542780  3604.52810479
0.26600001 80265.62485600  4179.02995588
0.26700001 78445.68847149  4099.57187351
0.26800001 76664.98586947  3093.43232622
0.26900001 74922.65737221  3641.24132060
0.27000001 73219.41299558  2976.36927912
0.27100001 71553.92393555  3211.34025820
0.27200001 69926.20933095  4581.56545218
0.27300001 68335.00147625  4493.70990974
0.27400001 66779.29566462  3856.50450714
0.27500001 65261.83367122  2972.02404604
0.27600001 63777.99558211  2649.97584185
0.27700001 62330.73867644  2859.11111840
0.27800001 60917.17781768  3569.13761726
0.27900001 59538.30726740  3000.73082830
0.28000001 58192.75721566  3433.95476582
0.28100001 56880.21662806  2646.63660497
0.28200001 55600.99353612  2596.28851605
0.28300001 54353.95491177  2778.57430660
0.28400001 53138.81614266  2726.02139714
0.28500001 51955.26084227  2451.76887519
0.28600001 50801.97741171  2405.72775420
0.28700001 49679.48395698  2575.38457023
0.28800001 48586.47394911  2527.46849447
0.28900001 47524.52180310  2274.04847592
0.29000001 46490.20663390  2232.22737719
0.29100001 45485.73732125  2191.50292787
0.29200001 44508.94351611  2738.63542418
0.29300001 43559.89661652  2689.38814441
0.29400001 42638.03250570  2075.40633046
0.29500001 41744.14157037  3336.19195223
0.29600001 40875.68646598  3277.82145287
0.29700001 40033.07463311  1968.42637289
0.29800001 39216.86290036  1934.76402278
0.29900001 38425.54166658  1902.06440254
0.30000001 37659.02572755  3060.54916576
0.30100001 36917.77685513  2006.85044485
0.30200001 36199.22176959  1809.78017805
0.30300001 35504.70681176  2104.71911944
0.30400001 34834.13109958  1593.66157325
0.30500001 34185.03258112  1882.91168371
0.30600001 33558.55453849  2318.05726449
0.30700001 32954.60251794  1674.75297925
0.30800001 32372.04598729  1650.48884280
0.30900001 31810.46098455  1922.94245756
0.31000001 31270.44425017  1604.64292267
0.31100001 30749.31219203  2014.69503021
0.31200001 30249.33678224  1420.20642917
0.31300001 29768.41079078  1962.92910048
0.31400001 29308.22007687  1938.73884988
0.31500001 28865.75296751  2052.35513316
0.31600002 28442.18393078  1352.42590994
0.31700002 28036.31064632  1872.26491361
0.31800002 27648.65380856  1852.18340633
0.31900002 27278.74577500  1571.25583104
0.32000002 26925.67595934  1685.41276648
0.32100002 26589.69990457  1541.13907944
0.32200002 26270.35740855  1654.63853973
0.32300002 25966.34753108  1640.55391470
0.32400002 25678.55632286  1502.19561602
0.32500002 25405.67569406  1242.33760027
0.32600002 25148.48795431  1233.53339257
0.32700002 24905.77671867  1715.50998162
0.32800002 24678.36286180  1705.02817086
0.32900002 24463.74128892  1574.24182649
0.33000002 24264.68073415  2048.06047435
0.33100002 24076.68419683  1798.52839467
0.33200002 23904.36036432  1552.22971376
0.33300002 23743.64933674  2141.20239858
0.33400002 23596.30757284  1304.28596285
0.33500002 23460.64485271  1300.65821223
0.33600002 23337.10233243  1651.56681028
0.33700002 23224.54821762  1177.48465040
0.33800002 23124.92709037  1881.44415717
0.33900002 23035.07314036  1409.74654295
0.34000002 22956.84845344  1878.78856641
0.34100002 22888.87797532  1174.19949574
0.34200002 22832.33484508  1762.08552512
0.34300002 22784.39026999  1881.07934978
0.34400002 22747.14314186  1412.59765601
0.34500002 22718.95690105  1532.84809471
0.34600002 22701.25315147  1536.08036724
0.34700002 22690.42736543  1539.77247394
0.34800002 22690.05401131  1425.38926050
0.34900002 22697.65811337  2144.92879330
0.35000002 22713.72464354  1793.81648868
0.35100002 22737.83592364  1200.55779363
0.35200002 22768.87608409  1326.17325033
0.35300002 22808.12468647  1695.55606950
0.35400002 22854.90684845  1825.53577098
0.35500002 22908.59088343  1957.31009779
0.35600002 22968.72234239  1352.97265366
0.35700002 23035.58984505  1608.11460325
0.35800002 23109.53314750  1617.78294462
0.35900002 23189.21254419  1502.66104404
0.36000002 23275.53241526  1890.55520998
0.36100002 23366.75886153  1522.57807954
0.36200002 23464.86586507  1405.42820756
0.36300002 23566.53640806  1801.42612836
0.36400002 23674.26744880  1944.24930633
0.36500002 23786.41489860  1958.81135968
0.36600002 23904.01470234  1315.91607170
0.36700002 24025.69756083  1724.08413863
0.36800002 24153.24846546  1470.57060248
0.36900002 24283.90521133  1347.75680307
0.37000002 24417.85706169  1494.73919084
0.37100002 24556.10883437  1644.27712544
0.37200002 24698.52563202  1658.25908949
0.37300002 24843.76780970  1393.73544015
0.37400002 24993.42239248  1546.46808379
0.37500002 25145.05357555  1701.81730661
0.37600002 25300.81662809  1573.83737291
0.37700002 25458.18430073  1587.82703005
0.37800002 25619.11447561  2039.02541771
0.37900002 25782.43290218  2351.35799207
0.38000002 25948.19964041  1482.93967970
0.38100002 26115.67109646  1496.42802472
0.38200002 26285.47743177  2416.16119999
0.38300002 26457.01854707  2438.27894481
0.38400002 26630.97518037  1691.73277848
0.38500002 26805.47615953  2017.64828611
0.38600002 26982.66841411  1566.34397564
0.38700002 27160.03306054  1580.71399901
0.38800002 27338.77581186  1914.26117304
0.38900002 27518.77154269  1770.83303267
0.39000002 27700.41393210  1787.09228949
0.39100002 27881.90311208  1803.40157873
0.39200002 28064.77824390  2150.74438262
0.39300002 28247.74080399  2003.32987273
0.39400002 28432.10483637  1853.06252050
0.39500002 28615.80861887  2379.69075749
0.39600002 28799.88678063  2058.04000685
0.39700002 28983.71702952  2076.39358637
0.39800002 29168.73244906  1920.32359177
0.39900002 29352.64625810  3874.54948964
0.40000002 29536.24902714  2309.58710210
0.40100002 29719.69342819  2150.51711835
0.40200002 29903.62713953  2530.74408472
0.40300002 30086.01477375  2187.85509801
0.40400002 30267.89795781  1838.77488806
0.40500002 30449.16506565  1854.35424036
0.40600002 30629.86322575  1869.95323853
0.40700002 30809.55976991  4148.19932397
0.40800002 30988.44669738  1901.14129496
0.40900002 31165.59297540  2491.68927644
0.41000002 31342.39279114  2125.48446784
0.41100002 31517.68524889  2921.68956101
0.41200002 31691.05122922  3141.21714668
0.41300002 31863.54358919  2770.21661090
0.41400002 32034.37945737  2592.38228042
0.41500002 32204.17414058  2813.35678623
0.41600002 32371.23635519  2429.78511595
0.41700002 32537.35710640  2244.10162596
0.41800002 32702.65467844  2877.50672150
0.41900002 32864.06246883  2277.47963701
0.42000002 33024.45068351  2711.14240733
0.42100002 33183.42131045  2940.71493588
0.42200002 33340.24233907  2538.52617199
0.42300002 33494.47832064  2769.32359878
0.42400002 33646.51289118  2359.46182830
0.42500002 33796.97953636  2591.55251365
0.42600002 33943.80607010  2608.92105818
0.42700002 34089.61022988  2407.40838851
0.42800002 34232.57256435  3304.29922335
0.42900002 34373.67884458  2660.52286864
0.43000002 34512.36222753  2454.34675612
0.43100002 34647.20507535  3367.70849291
0.43200002 34780.37971559  3388.47865436
0.43300002 34910.69265664  2727.22343957
0.43400002 35038.70203869  2743.53049964
0.43500002 35163.58077343  2529.66812072
0.43600002 35286.80047728  3006.96484517
0.43700002 35406.27704481  2558.81176329
0.43800002 35522.27470711  2573.05609034
0.43900002 35636.58611993  3057.61923399
0.44000002 35747.34025001  3074.09267048
0.44100002 35855.80922618  3565.86039653
0.44200002 35961.19650664  2867.54594533
0.44300002 36063.85538838  2401.85288269
0.44400002 36162.93723756  2655.26379250
0.44500002 36258.35719062  3638.52631651
0.44600002 36351.63336651  2681.11484601
0.44700002 36442.02535074  3428.46590748
0.44800002 36528.20695062  2706.19234019
0.44900002 36612.78719132  2718.49957779
0.45000002 36693.88324142  2978.80958271
0.45100002 36770.67989524  2742.35743655
0.45200002 36845.25552994  2753.99875510
0.45300002 36916.07142790  2765.38304172
0.45400002 36984.31644169  3786.26957516
0.45500002 37049.26249357  2787.58664213
0.45600002 37110.68267748  3561.51238535
0.45700002 37168.98440309  2808.86028446
0.45800002 37223.31851225  3075.39072124
0.45900002 37274.90006611  2571.96822646
0.46000002 37323.87365357  2839.04058401
0.46100002 37368.31114208  4402.36094430
0.46200002 37410.38884643  3377.59711708
0.46300002 37448.82855180  3127.72630889
0.46400002 37483.54260235  3660.26810860
0.46500002 37515.88753057  2622.36066267
0.46600002 37544.07564442  2892.95888590
0.46700002 37569.02675802  3956.01870512
0.46800002 37591.40340402  3437.92196126
0.46900002 37609.68211874  2916.63098655
0.47000002 37624.43117671  3189.79942635
0.47100002 37636.36746302  3730.51691975
0.47200002 37644.73998133  3472.16275675
0.47300002 37650.57249932  3747.73816421
0.47400002 37651.62452671  2950.94621215
0.47500002 37650.55642927  4570.02475599
0.47600002 37646.48019831  3771.04810020
