# SAXS profile: number of points = 501, q_min = 0, q_max = 0.5, delta_q = 0.001
#    q    intensity    error
0.00000000 1700912.83420644 408.21908021
0.00100000 1700843.02226046 612.30350256
0.00200000 1700633.52278954 1224.45617518
0.00300000 1700284.51934661 1122.18782274
0.00400000 1699795.85781535 1529.81633016
0.00500000 1699168.03886316 1988.02668416
0.00600000 1698400.72843540 1783.32083746
0.00700000 1697494.67119763 2240.69305910
0.00800000 1696449.25310631 2977.26856490
0.00900000 1695265.88512194 3305.76861730
0.01000000 1693943.61837180 3913.00992740
0.01100000 1692483.84050774 4265.05946378
0.01200000 1690885.95448447 3626.95053139
0.01300000 1689151.35790234 4966.10521126
0.01400000 1687279.22753529 4935.29195933
0.01500000 1685271.53060371 4449.11703891
0.01600000 1683126.98123672 4721.17139342
0.01700000 1680847.76992673 5899.77593710
0.01800000 1678433.32581272 4783.53519381
0.01900000 1675884.54283602 6033.18462644
0.02000000 1673202.06212381 6851.76275434
0.02100000 1670387.44748410 6063.50670928
0.02200000 1667438.97942930 6903.19768847
0.02300000 1664359.41634023 9586.71067449
0.02400000 1661148.79218154 9343.96238208
0.02500000 1657808.50150909 8405.08948652
0.02600000 1654338.45783067 7370.07816673
0.02700000 1650740.10127562 10399.66311435
0.02800000 1647012.98485036 7880.95749393
0.02900000 1643159.72482095 9612.48483155
0.03000000 1639180.88606832 9146.62976469
0.03100000 1635076.43151891 10987.71412539
0.03200000 1630847.61455038 8879.96567022
0.03300000 1626497.14958915 8295.13584531
0.03400000 1622023.01453787 9367.18334116
0.03500000 1617428.54225856 14847.99470359
0.03600000 1612713.63026307 10740.67327392
0.03700000 1607880.04766057 10997.90003462
0.03800000 1602928.91508345 12190.27496337
0.03900000 1597861.90987903 11504.60628391
0.04000000 1592677.52286371 12733.45738535
0.04100000 1587380.11780793 14000.69328823
0.04200000 1581969.73807346 11224.07581235
0.04300000 1576446.54944809 12485.45725118
0.04400000 1570814.38010104 10602.99755811
0.04500000 1565072.60049467 12958.80173423
0.04600000 1559221.80167815 10992.51421284
0.04700000 1553265.15873480 13420.21159561
0.04800000 1547202.78880202 13646.32923217
0.04900000 1541037.52981608 11557.78201161
0.05000000 1534768.92201527 14089.17936018
0.05100000 1528400.18790009 14305.82642517
0.05200000 1521929.83807309 14519.21133183
0.05300000 1515362.99495131 18411.66124697
0.05400000 1508698.20060828 13691.43680900
0.05500000 1501939.54040813 15139.55127356
0.05600000 1495085.27812343 15339.57566935
0.05700000 1488140.64335811 14241.50662171
0.05800000 1481104.12763481 14418.54935576
0.05900000 1473977.69455091 19898.69980582
0.06000000 1466764.29139600 17447.16206127
0.06100000 1459465.71237563 19002.24446313
0.06200000 1452081.94153142 15094.39248778
0.06300000 1444616.21637492 16641.97959074
0.06400000 1437067.00640228 18214.82515800
0.06500000 1429440.19266056 16981.75028318
0.06600000 1421733.93990537 14288.42676458
0.06700000 1413951.28882276 18748.99496722
0.06800000 1406095.13974128 24740.24514182
0.06900000 1398166.01301004 16148.81820634
0.07000000 1390163.79308184 16285.76959859
0.07100000 1382093.31473749 17911.93019795
0.07200000 1373953.18148242 18053.74565044
0.07300000 1365748.83038373 22739.71909137
0.07400000 1357478.94576702 16798.80274113
0.07500000 1349146.38826850 16918.29650189
0.07600000 1340750.96554467 17034.24181582
0.07700000 1332298.47733233 15587.89291568
0.07800000 1323786.85086583 26667.68736131
0.07900000 1315218.64350565 18939.14935480
0.08000000 1306597.61903929 17462.67799765
0.08100000 1297923.81465845 22350.24913705
0.08200000 1289198.06218481 27285.87826654
0.08300000 1280424.03904324 30653.35293332
0.08400000 1271601.60389410 16212.92121066
0.08500000 1262735.15528699 17918.21269470
0.08600000 1253824.05827260 17998.64520157
0.08700000 1244871.15144174 21361.98996185
0.08800000 1235876.09088096 18148.84124692
0.08900000 1226844.51339360 19874.88205049
0.09000000 1217774.97382294 19947.15500825
0.09100000 1208670.57362236 20015.58563954
0.09200000 1199532.17000307 18406.82201357
0.09300000 1190362.96502762 23497.76603386
0.09400000 1181161.68333674 25247.33216788
0.09500000 1171932.46022798 18563.41104254
0.09600000 1162676.29954620 23683.71733508
0.09700000 1153396.55404193 23736.90219812
0.09800000 1144093.80937407 25484.69080204
0.09900000 1134769.83505252 17021.54832618
0.10000000 1125424.51075522 23870.25499567
0.10100000 1116060.67179472 17075.72908156
0.10200000 1106680.72005859 20517.86151497
0.10300000 1097285.52774750 29100.01356475
0.10400000 1087877.73431415 23987.70517013
0.10500000 1078459.85595833 25721.26877478
0.10600001 1069028.60215502 22305.28283351
0.10700001 1059591.10652287 18881.91440678
0.10800001 1050145.63193370 24037.83464622
0.10900001 1040695.66545488 22322.92307465
0.11000001 1031241.60944390 18887.19096598
0.11100001 1021785.64945385 18882.59969077
0.11200001 1012329.82199581 17158.99129062
0.11300001 1002873.28057478 22293.87407679
0.11400001 993420.66919915 29132.06249593
0.11500001 983972.43917164 18833.23337256
0.11600001 974529.04434934 22233.88119386
0.11700001 965094.01939332 23915.03092684
0.11800001 955665.23777990 23882.07541693
0.11900001 946247.45008215 25548.68235560
0.12000001 936840.26844120 27205.84267706
0.12100001 927448.00949155 25458.44905984
0.12200001 918067.98668215 18632.19066750
0.12300001 908704.62614831 18592.09752695
0.12400001 899357.23917170 18549.24393191
0.12500001 890028.49372667 23550.15505370
0.12600001 880720.72137698 18455.50358614
0.12700001 871433.66665293 18404.67990706
0.12800001 862167.54209625 25024.41408873
0.12900001 852926.05162515 18295.26466965
0.13000001 843709.41682533 26526.22531530
0.13100001 834517.64844132 19828.14026162
0.13200001 825354.65368982 18112.40872905
0.13300001 816220.77567373 24609.05754671
0.13400001 807115.23607260 17978.49273112
0.13500001 798041.64509272 21164.06542571
0.13600001 788999.20860976 19456.72140172
0.13700001 779990.77889622 20989.55284982
0.13800001 771015.29299400 22505.93746378
0.13900001 762077.58994634 19204.35617229
0.14000001 753174.84539814 17522.61360456
0.14100001 744310.63436501 15853.81725969
0.14200001 735483.45483664 17353.73293536
0.14300001 726699.01992915 20405.70944210
0.14400001 717950.66969866 17176.97058278
0.14500001 709247.87971914 18639.03515826
0.14600001 700585.39128761 23171.86290995
0.14700001 691969.03013701 19970.22715188
0.14800001 683394.97551484 15273.87842336
0.14900001 674865.70385534 21258.27067443
0.15000001 666383.52397245 18112.30503616
0.15100001 657948.06478585 18001.45990194
0.15200001 649561.82997822 20870.42258201
0.15300001 641224.03255358 16293.50343606
0.15400001 632933.56064012 14715.70597933
0.15500001 624695.18728288 23388.58891565
0.15600001 616506.39796012 15970.59899289
0.15700001 608372.25074351 20185.79223238
0.15800001 600285.90642186 22906.91127024
0.15900001 592256.14107014 22742.63689056
0.16000001 584277.67976036 18343.39862193
0.16100001 576356.85972816 16806.56682301
0.16200001 568488.50811678 15289.49914756
0.16300001 560677.11774738 17930.45507202
0.16400001 552921.50167407 20527.21171873
0.16500001 545223.05330217 20364.08200225
0.16600001 537581.16105382 18852.97220826
0.16700001 529997.33737802 16027.12023903
0.16800001 522470.34585354 14569.08628203
0.16900001 515004.78077498 19698.93379479
0.17000001 507597.24789883 15623.84402808
0.17100001 500249.39249005 21940.93939069
0.17200001 492961.74475717 16630.06524470
0.17300001 485734.83654950 13945.44781590
0.17400001 478569.50530358 17587.43015049
0.17500001 471464.66357350 14936.00124740
0.17600001 464419.81149868 14796.41589317
0.17700001 457439.15093145 17099.07626942
0.17800001 450520.13056585 15725.40590015
0.17900001 443663.08806302 15572.57512656
0.18000001 436869.67589584 13047.11348691
0.18100001 430140.27269360 11742.82999923
0.18200001 423471.21036014 15111.57085554
0.18300001 416868.53301623 12656.12926024
0.18400001 410327.67737772 15941.23101920
0.18500001 403851.94592756 15774.45775315
0.18600001 397439.80908895 13377.82460595
0.18700001 391091.46312329 13234.53573736
0.18800001 384806.68426208 14182.05101853
0.18900001 378588.75450670 12947.73601588
0.19000001 372431.16143810 17072.24524696
0.19100001 366342.75325678 14770.94050924
0.19200001 360316.09851393 11474.26669935
0.19300001 354355.86848806 11342.93188629
0.19400001 348459.36109749 11211.68047311
0.19500001 342628.06177670 14102.57168915
0.19600001 336860.49110477 15926.76477207
0.19700001 331158.27013252 15736.64174037
0.19800001 325520.72729776 14575.19125356
0.19900001 319948.64274303 10558.30570951
0.20000001 314439.04759962 11376.40527982
0.20100001 308995.87488467 11235.09054180
0.20200001 303615.87446204 12943.14534005
0.20300001 298300.83280308 10953.60709825
0.20400001 293050.07582113 16220.32246337
0.20500001 287862.51612453 19568.89477111
0.20600001 282739.32740093 9656.96218384
0.20700001 277679.96146533 10396.33824869
0.20800001 272683.63321389 14532.67491910
0.20900001 267753.18739594 10964.49354217
0.21000001 262883.63237899 9984.32082974
0.21100001 258077.09145489 8206.85189623
0.21200001 253333.56567348 12141.01170886
0.21300001 248652.25456842 12770.78039838
0.21400001 244034.59610067 7870.11609632
0.21500001 239479.20487869 10086.86458637
0.21600001 234983.88221824 12237.96116452
0.21700001 230551.46920301 9046.84007926
0.21800001 226179.98014082 10402.01777849
0.21900001 221868.47722410 9518.15812295
0.22000001 217617.65456563 9378.23326693
0.22100001 213429.67538480 12082.25449482
0.22200001 209300.40428453 7001.09885436
0.22300001 205230.88367940 8964.48542301
0.22400001 201219.05003937 7470.25758595
0.22500001 197269.36230073 9362.40437752
0.22600001 193376.89157167 7242.93181632
0.22700001 189543.53710447 8427.10605818
0.22800001 185767.61265445 7657.34135573
0.22900001 182048.89550034 6908.75591096
0.23000001 178387.81419451 6799.25185957
0.23100001 174785.09179707 7299.02577864
0.23200001 171236.94022959 5984.73134406
0.23300001 167746.23656279 10009.41840909
0.23400001 164311.03323202 6371.16061490
0.23500001 160929.98038889 8545.38236281
0.23600001 157604.69766450 6163.13199367
0.23700001 154333.73072831 6060.68589236
0.23800001 151116.93803617 6501.05098181
0.23900001 147953.77630931 6924.23705879
0.24000001 144843.65381806 5236.09833319
0.24100001 141787.17551805 5661.56218623
0.24200001 138782.60747180 6576.21416612
0.24300001 135829.92787561 8451.33851219
0.24400001 132928.00901143 5373.61501848
0.24500001 130077.55681378 6239.82069553
0.24600001 127277.56560252 6130.32423724
0.24700001 124528.65690226 5095.71288150
0.24800001 121828.10172914 5460.33577781
0.24900001 119176.70429149 6256.77727130
0.25000001 116574.48840070 5266.83563511
0.25100001 114019.83720702 4309.95005032
0.25200001 111513.99279068 5501.54309460
0.25300001 109055.39203477 5817.01488634
0.25400001 106642.93148567 5302.82001901
0.25500001 104276.82886517 4404.65345966
0.25600001 101957.04157421 4716.53296637
0.25700001 99682.38550914  5400.79190241
0.25800001 97452.32377074  4921.82984491
0.25900001 95267.09912213  4086.95874571
0.26000001 93126.03366059  4375.06126838
0.26100001 91026.46141677  4292.80812353
0.26200001 88972.46102969  4211.95650444
0.26300001 86959.52820449  3787.95722782
0.26400001 84988.20296402  4729.59371874
0.26500001 83059.27009396  3645.47153692
0.26600001 81170.50141452  3250.87873548
0.26700001 79323.18859634  5102.06773195
0.26800001 77515.72826790  3127.75978362
0.26900001 75747.27345575  3374.54119214
0.27000001 74018.37556167  3610.61653076
0.27100001 72328.05878323  2950.98493800
0.27200001 70676.05234248  4341.27672058
0.27300001 69061.13830971  3122.25421074
0.27400001 67482.28169418  2783.64425162
0.27500001 65942.28296227  3276.01277260
0.27600001 64436.53118247  2945.07179707
0.27700001 62967.84731962  2888.33529325
0.27800001 61533.59138565  2575.18092137
0.27900001 60134.37470546  3788.46578574
0.28000001 58769.22913157  3963.39700021
0.28100001 57437.64799588  3644.41893783
0.28200001 56139.94213830  3574.71098485
0.28300001 54874.91222119  2571.43850839
0.28400001 53642.34636679  2293.21041572
0.28500001 52442.05846654  2249.76441470
0.28600001 51272.30570239  3310.90929744
0.28700001 50134.06722857  3465.26689086
0.28800001 49025.79594122  4250.53670930
0.28900001 47949.23487239  2502.95017881
0.29000001 46900.64702846  2456.65600763
0.29100001 45882.42654038  2009.65037760
0.29200001 44892.53078769  2170.32950366
0.29300001 43930.81440349  2131.08390759
0.29400001 42996.75077313  2473.38820531
0.29500001 42091.09528641  2990.15155069
0.29600001 41211.46761063  2203.16516276
0.29700001 40358.19789853  1984.41268461
0.29800001 39531.61519120  2659.48953788
0.29900001 38730.55526375  2091.45008325
0.30000001 37954.63234304  1885.01690455
0.30100001 37204.60553973  2022.44245288
0.30200001 36477.63598929  2155.28122446
0.30300001 35775.09051491  1631.34420471
0.30400001 35096.98519376  1766.25586349
0.30500001 34440.74383388  2371.24532522
0.30600001 33807.59663234  1868.20787835
0.30700001 33197.43165671  1840.46569818
0.30800001 32608.94805878  2115.99473971
0.30900001 32041.97482240  2383.92303965
0.31000001 31496.87558391  1910.12811022
0.31100001 30971.07700553  1739.33576698
0.31200001 30466.76292223  2002.58042169
0.31300001 29982.06001978  1835.80162193
0.31400001 29518.35145299  2371.06169272
0.31500001 29072.67185497  1515.84918229
0.31600002 28646.37370268  1906.98918768
0.31700002 28238.10503907  1751.04497638
0.31800002 27848.37502522  1732.30825047
0.31900002 27476.66886198  1714.54421817
0.32000002 27122.24578982  1436.52981628
0.32100002 26785.22205289  1423.09891505
0.32200002 26465.08982287  1410.45702890
0.32300002 26160.68620697  2415.67787874
0.32400002 25872.73555526  1513.55510165
0.32500002 25600.06951008  1752.58084165
0.32600002 25343.30633309  1616.01600485
0.32700002 25101.35370453  1605.48265897
0.32800002 24875.04418767  1473.10018655
0.32900002 24661.76331334  1342.83307600
0.33000002 24464.33607027  1457.58521209
0.33100002 24278.16727910  1450.86334530
0.33200002 24107.99480872  1324.61383749
0.33300002 23949.62060854  1439.85125917
0.33400002 23804.87896901  1555.05379229
0.33500002 23672.10763561  1193.07428133
0.33600002 23551.62097707  1666.74829548
0.33700002 23442.47570820  1426.24028963
0.33800002 23346.25635740  1305.87291119
0.33900002 23260.28438605  1542.15692783
0.34000002 23185.88968838  1660.34163922
0.34100002 23122.18587527  1423.40182989
0.34200002 23070.00695907  1424.34229711
0.34300002 23026.53208521  1188.16911187
0.34400002 22994.10640121  1189.94506262
0.34500002 22970.68762267  1907.48599053
0.34600002 22958.08332914  1553.45878204
0.34700002 22952.48267215  1437.74358268
0.34800002 22957.54198507  1562.37559379
0.34900002 22970.65880749  1808.93946676
0.35000002 22992.42427960  1210.55119566
0.35100002 23022.38993510  1458.69869538
0.35200002 23059.32799406  1709.38806516
0.35300002 23104.65129775  1717.59985883
0.35400002 23157.67301068  1479.77537547
0.35500002 23217.58061070  1239.81886333
0.35600002 23284.14958517  1246.86626934
0.35700002 23357.57896891  2257.74369007
0.35800002 23438.16853080  1388.35997868
0.35900002 23524.47451472  1524.38602076
0.36000002 23617.55815679  1662.55808520
0.36100002 23715.78613087  1287.76724790
0.36200002 23820.75609293  1556.44827684
0.36300002 23929.53556028  1829.17378487
0.36400002 24044.31537623  1448.06896212
0.36500002 24163.64072602  2122.53430191
0.36600002 24288.40542813  1604.49213858
0.36700002 24417.40042627  2021.76085106
0.36800002 24552.21031664  1494.86139594
0.36900002 24690.22345467  1507.33821331
0.37000002 24831.44603842  1934.61805250
0.37100002 24977.05370795  1811.83556180
0.37200002 25126.89471730  1546.43480863
0.37300002 25279.54149568  2269.09175214
0.37400002 25436.66392885  1860.05613791
0.37500002 25595.71981335  1587.95853244
0.37600002 25758.91803365  1602.33357219
0.37700002 25923.75162089  1616.86446519
0.37800002 26092.06530560  1780.00077947
0.37900002 26262.77558995  1496.97827954
0.38000002 26436.00492437  1812.98130360
0.38100002 26610.80451771  1982.23892243
0.38200002 26787.99969714  1846.76478661
0.38300002 26966.86382025  1863.94971556
0.38400002 27148.04190855  2665.25914064
0.38500002 27329.90620401  1582.40164418
0.38600002 27514.16060839  1916.63651878
0.38700002 27698.73111259  1934.47947255
0.38800002 27884.57375740  2115.18444257
0.38900002 28071.62172202  2463.28492281
0.39000002 28260.23802636  2154.70195040
0.39100002 28448.61133178  2007.33411067
0.39200002 28638.45082591  1857.06043179
0.39300002 28828.14501984  2214.86648681
0.39400002 29019.25169349  2922.96426531
0.39500002 29209.51443132  2082.05428731
0.39600002 29400.16071901  2451.09151527
0.39700002 29590.44011000  2296.51416574
0.39800002 29781.89493965  2138.93579591
0.39900002 29972.14737631  2337.82760612
0.40000002 30161.81750656  2177.08009077
0.40100002 30351.39809918  2013.20833130
0.40200002 30541.34215337  2215.46906477
0.40300002 30729.54842820  2607.09501217
0.40400002 30917.30571925  2817.33961715
0.40500002 31104.27432821  2651.95055487
0.40600002 31290.58929004  2674.40679333
0.40700002 31475.66725756  2696.83529841
0.40800002 31659.81291930  2136.56257609
0.40900002 31842.14992224  2741.60923821
0.41000002 32024.06632272  2369.14053881
0.41100002 32204.34434312  1990.22857471
0.41200002 32382.47283192  2206.70371569
0.41300002 32559.70726584  2830.74108382
0.41400002 32735.01624282  2445.30582920
0.41500002 32909.30077191  2258.89451202
0.41600002 33080.64685816  3103.79183854
0.41700002 33250.97447712  2084.83619850
0.41800002 33420.23598820  2730.60051080
0.41900002 33585.56439359  2327.47972276
0.42000002 33749.64141946  2770.67694362
0.42100002 33912.17851836  3434.62560309
0.42200002 34072.41130803  3242.84189990
0.42300002 34229.90837091  2830.12895821
0.42400002 34385.17061849  2630.46567696
0.42500002 34538.57555265  2427.71659064
0.42600002 34688.17417465  3777.02202399
0.42700002 34836.64337165  2683.81513253
0.42800002 34982.14511252  2926.43148806
0.42900002 35125.59638519  2265.60107420
0.43000002 35266.48910353  2507.97649144
0.43100002 35403.39091267  2294.13983985
0.43200002 35538.39183815  2769.86239112
0.43300002 35670.41763964  3018.78758790
0.43400002 35800.03857552  3036.73841607
0.43500002 35926.22219502  3054.44755577
0.43600002 36050.70840763  2835.74885773
0.43700002 36171.28189016  3564.67999920
0.43800002 36288.13414510  3584.36062004
0.43900002 36403.21946531  2642.87385843
0.44000002 36514.49924144  2898.52108715
0.44100002 36623.39827125  2913.75770454
0.44200002 36729.02911713  3172.83733064
0.44300002 36831.75173339  3188.89321620
0.44400002 36930.72178773  3451.17611462
0.44500002 37025.86075950  3220.13926286
0.44600002 37118.70411115  3484.33292004
0.44700002 37208.57466425  2750.45796953
0.44800002 37293.88780696  3265.26650168
0.44900002 37377.58469215  2522.98708629
0.45000002 37457.66447474  3040.81334617
0.45100002 37533.18349777  2544.74996175
0.45200002 37606.32152264  3321.95456914
0.45300002 37675.51636896  3335.41362222
0.45400002 37742.04601014  3606.25266718
0.45500002 37805.05732864  3361.62585698
0.45600002 37864.49957413  3114.73388259
0.45700002 37920.48414283  3386.67859930
0.45800002 37972.43486606  3398.72294377
0.45900002 38021.47571122  2885.83014325
0.46000002 38067.70567750  4211.81115578
0.46100002 38109.21442687  3961.45302742
0.46200002 38148.27725075  3444.21737482
0.46300002 38183.60359330  3189.09472326
0.46400002 38214.90974125  3198.58809694
0.46500002 38243.83676600  3207.89317997
0.46600002 38268.29966892  3216.83342263
0.46700002 38289.46235641  2687.92038482
0.46800002 38307.89741948  2964.45678231
0.46900002 38322.11490343  2971.88015162
0.47000002 38332.51245368  3249.83055985
0.47100002 38340.06383538  3528.81964266
0.47200002 38343.89866658  3808.69963507
0.47300002 38345.16398381  3544.24367501
0.47400002 38341.20415025  4644.07857282
0.47500002 38335.23485143  3284.56307775
0.47600002 38326.09363970  3839.12498186
