# SAXS profile: number of points = 501, q_min = 0, q_max = 0.5, delta_q = 0.001
#    q    intensity    error
0.00000000 1682732.95097188 328.13292544
0.00100000 1682663.74143244 555.27904786
0.00200000 1682456.05283786 984.23682208
0.00300000 1682110.06820932 1513.89911532
0.00400000 1681625.62657322 2017.95082857
0.00500000 1681003.22305840 1512.90296064
0.00600000 1680242.55373953 2646.38212988
0.00700000 1679344.34621101 2619.77728897
0.00800000 1678307.96241970 2718.85901391
0.00900000 1677134.80791664 3270.41301524
0.01000000 1675824.00987895 3318.13168284
0.01100000 1674376.85211809 4219.42985105
0.01200000 1672792.79536649 3588.14070338
0.01300000 1671073.23412264 7369.43328751
0.01400000 1669217.31681979 5258.03478108
0.01500000 1667226.99299424 5201.74844977
0.01600000 1665101.03923726 5519.81019183
0.01700000 1662841.57219934 5387.60693561
0.01800000 1660448.10430045 6625.18823428
0.01900000 1657921.48849108 6465.89409687
0.02000000 1655262.28993405 6778.29938390
0.02100000 1652472.14448592 7634.42165366
0.02200000 1649549.24023306 6260.03965109
0.02300000 1646496.50490946 7705.60399372
0.02400000 1643313.84936673 8011.15538095
0.02500000 1640002.63935608 7035.61164416
0.02600000 1636562.81684681 9279.31159594
0.02700000 1632995.82914255 7544.44107618
0.02800000 1629301.21243641 7796.20665904
0.02900000 1625481.68895164 8046.13472974
0.03000000 1621537.61615448 7540.15026170
0.03100000 1617469.07896741 8540.23712991
0.03200000 1613277.23986558 11180.01178720
0.03300000 1608964.98548249 10667.43834552
0.03400000 1604530.02922777 12635.67456318
0.03500000 1599975.95892358 12095.81880802
0.03600000 1595302.37094032 11510.10713826
0.03700000 1590511.34379117 12692.28111044
0.03800000 1585603.85509806 11130.93957792
0.03900000 1580581.47276966 12328.53605854
0.04000000 1575442.79953136 11626.76839931
0.04100000 1570192.12039976 13849.09514406
0.04200000 1564829.60274770 13121.09682776
0.04300000 1559355.38658694 14408.44444087
0.04400000 1553773.13976660 10487.96918051
0.04500000 1548082.24688533 14954.47519977
0.04600000 1542283.45148088 15222.33837376
0.04700000 1536379.77209219 14380.51533559
0.04800000 1530371.35036532 12373.05294340
0.04900000 1524261.09721643 13718.35051350
0.05000000 1518048.38807997 15096.99192246
0.05100000 1511736.61694241 14149.85539374
0.05200000 1505324.08883936 11967.32706397
0.05300000 1498816.21292369 14568.49426877
0.05400000 1492211.22494499 13541.81749788
0.05500000 1485513.26512938 13726.14321011
0.05600000 1478720.66707724 15171.67475219
0.05700000 1471838.75858777 15365.99735692
0.05800000 1464865.70964395 14260.46834924
0.05900000 1457803.82419547 15744.28203666
0.06000000 1450655.68584769 17255.55018932
0.06100000 1443423.36064903 16108.60545762
0.06200000 1436106.53225641 17642.56957345
0.06300000 1428708.79270168 17830.28656658
0.06400000 1421228.32268371 19399.76751190
0.06500000 1413671.19766076 15394.88006266
0.06600000 1406035.37951115 21195.98433786
0.06700000 1398324.02669662 18541.77746173
0.06800000 1390539.90204081 18709.71525774
0.06900000 1382683.61506545 15969.99650170
0.07000000 1374755.12576816 16105.25705256
0.07100000 1366758.92789852 20665.39595775
0.07200000 1358694.25233392 16365.47303603
0.07300000 1350565.82195667 14991.28132614
0.07400000 1342372.58367487 19632.19995629
0.07500000 1334117.52663493 21292.51672313
0.07600000 1325800.27331884 19906.89203713
0.07700000 1317426.53616074 16955.28031540
0.07800000 1308994.56013841 18613.90351809
0.07900000 1300506.73914593 20287.90608225
0.08000000 1291966.52779968 21976.35166881
0.08100000 1283374.24004526 22099.70545046
0.08200000 1274730.71617498 22218.55742554
0.08300000 1266039.34963693 23928.14483113
0.08400000 1257300.51770253 19236.69882379
0.08500000 1248518.14507582 20937.65027584
0.08600000 1239691.68148400 22649.16808413
0.08700000 1230824.23558126 21120.94487437
0.08800000 1221914.72752142 17943.81861636
0.08900000 1212969.56242332 18012.59884803
0.09000000 1203987.09594944 18077.86709490
0.09100000 1194970.07359242 18139.64656935
0.09200000 1185919.67641604 16543.58026333
0.09300000 1176838.99569051 18252.77368090
0.09400000 1167726.72065861 16640.10655143
0.09500000 1158586.85838203 18352.01669937
0.09600000 1149420.73772676 18396.47977209
0.09700000 1140231.42159877 18437.54295405
0.09800000 1131019.38832334 18475.20257692
0.09900000 1121786.76079177 16826.80220311
0.10000000 1112532.98086052 18540.36299794
0.10100000 1103261.50087475 20255.88210873
0.10200000 1093974.03349449 16901.89961249
0.10300000 1084671.48246262 18612.96351463
0.10400000 1075356.89215947 20324.24621797
0.10500000 1066032.54477400 20339.90191127
0.10600001 1056695.14996309 25439.93693240
0.10700001 1047352.10212623 18663.81533816
0.10800001 1038000.94439804 16971.31623961
0.10900001 1028645.76021472 16972.65584237
0.11000001 1019286.91448961 20365.35351009
0.11100001 1009926.29468891 22056.79131429
0.11200001 1000566.13721468 23743.43555388
0.11300001 991205.49313743 20339.53767678
0.11400001 981849.00028507 22017.96486810
0.11500001 972496.87741959 18613.59111029
0.11600001 963149.95309325 23664.59546190
0.11700001 953811.62061772 18570.71312801
0.11800001 944479.79975914 18544.86174170
0.11900001 935158.85052814 16832.86010236
0.12000001 925849.05919090 20164.99345905
0.12100001 916553.86890318 18450.23025018
0.12200001 907271.37351928 18413.07339304
0.12300001 898005.66655190 20043.48742178
0.12400001 888755.91997128 23329.84399849
0.12500001 879524.93955942 21609.92878325
0.12600001 870314.84282990 19895.39824463
0.12700001 861125.72221165 18186.97611020
0.12800001 851957.67633086 18133.91999534
0.12900001 842813.94219326 19721.84717685
0.13000001 833695.24978407 16382.11243043
0.13100001 824601.53309809 22857.95557495
0.13200001 815536.04463400 24404.91728613
0.13300001 806500.29590559 16210.65671192
0.13400001 797492.75836444 24223.84367737
0.13500001 788516.87523498 19302.89401585
0.13600001 779572.15255841 24030.31273566
0.13700001 770661.51191346 25524.31047813
0.13800001 761783.60555640 19059.82670980
0.13900001 752943.44929096 17392.99449884
0.14000001 744138.24187846 23607.78683695
0.14100001 735371.12487557 18796.08683830
0.14200001 726640.99422804 18703.74007360
0.14300001 717953.59973465 18609.35818288
0.14400001 709302.15971271 15427.32270146
0.14500001 700696.00242162 21483.34044766
0.14600001 692129.88680801 19839.90414129
0.14700001 683610.01761050 21246.60034967
0.14800001 675131.84552934 16598.11720542
0.14900001 666698.40947162 22501.07238129
0.15000001 658311.98307117 22366.15068014
0.15100001 649971.91923761 16301.29650366
0.15200001 641680.64327128 16199.22860378
0.15300001 633437.73330755 17558.89479587
0.15400001 625241.83833132 18897.93545538
0.15500001 617098.00659493 15884.10343937
0.15600001 609002.88436401 17210.42232437
0.15700001 600962.56422738 19939.93882217
0.15800001 592969.86732376 14142.33200317
0.15900001 585032.98317456 15444.87148482
0.16000001 577147.05956587 20907.15321964
0.16100001 569318.62473359 16601.33188088
0.16200001 561542.16689404 17848.61861729
0.16300001 553822.43198214 14986.43571691
0.16400001 546158.01632298 14869.15269636
0.16500001 538550.49388882 18773.87110330
0.16600001 530999.01665935 17291.98379392
0.16700001 523505.10950219 17150.02819703
0.16800001 516067.88321586 15698.78574867
0.16900001 508691.31440711 12971.62912988
0.17000001 501372.57357830 15432.24854345
0.17100001 494112.99191963 21671.79684897
0.17200001 486913.05022440 16426.01252500
0.17300001 479773.34480244 15026.50186883
0.17400001 472695.07711215 17371.54490426
0.17500001 465676.64553224 19670.18243626
0.17600001 458717.55063405 13396.84669899
0.17700001 451822.30998141 13270.02187091
0.17800001 444988.02053495 14337.51469883
0.17900001 438215.26195564 13014.99389483
0.18000001 431505.80651212 11715.38320018
0.18100001 424859.70910938 12758.53766722
0.18200001 418273.39493889 13777.92628013
0.18300001 411752.73653296 13637.25127819
0.18400001 405293.51558742 14620.96426552
0.18500001 398898.75094416 12242.20324482
0.18600001 392567.06199573 13213.80793104
0.18700001 386298.60269387 13072.34533276
0.18800001 380093.36786903 11853.21223701
0.18900001 373954.02352857 12789.22820894
0.19000001 367874.49503597 12647.52573692
0.19100001 361863.67110681 11463.84164233
0.19200001 355913.51749823 11334.06650028
0.19300001 350029.68381523 14260.20999246
0.19400001 344208.83989496 14095.35265976
0.19500001 338452.62621947 11940.60921728
0.19600001 332759.13742546 12782.94286827
0.19700001 327130.67727562 9715.78157423
0.19800001 321566.26187152 12478.37938164
0.19900001 316066.70123492 11378.40178220
0.20000001 310628.85539298 10302.00647599
0.20100001 305256.73087831 12024.06319758
0.20200001 299946.97965842 10960.06315473
0.20300001 294701.76835524 9919.66199169
0.20400001 289519.98198993 9793.01385368
0.20500001 284400.67565047 9666.77942228
0.20600001 279345.32025664 13010.50890593
0.20700001 274352.79329947 11983.73057778
0.20800001 269422.86958340 8446.40736070
0.20900001 264557.92370102 13333.71998483
0.21000001 259753.23495250 9043.30930237
0.21100001 255010.83978528 9731.21410623
0.21200001 250330.73214386 11997.10090515
0.21300001 245712.14750785 10253.56840024
0.21400001 241156.39158037 10110.48219500
0.21500001 236662.31813723 11501.78920525
0.21600001 232227.76156790 9070.81679570
0.21700001 227854.95723167 7450.85745375
0.21800001 223542.91968614 11749.41641422
0.21900001 219289.78070938 8683.87572668
0.22000001 215096.56472936 8556.54174951
0.22100001 210965.45940714 8430.18015652
0.22200001 206892.29082465 8304.65694638
0.22300001 202878.09911947 6816.70445274
0.22400001 198921.09175405 8056.30459699
0.22500001 195025.51604147 7272.50183708
0.22600001 191186.08590825 8462.85249292
0.22700001 187405.28864887 8332.03952734
0.22800001 183681.09641277 6940.39055617
0.22900001 180013.48784266 8694.65187398
0.23000001 176402.64328760 8557.29263057
0.23100001 172849.53100557 8421.22954885
0.23200001 169350.10761035 6510.66519499
0.23300001 165907.38897369 6405.68459123
0.23400001 162519.42988287 8020.33424404
0.23500001 159184.96637786 5635.14807630
0.23600001 155905.63878382 11084.89144181
0.23700001 152679.53326594 5995.72555494
0.23800001 149507.12557149 6967.77991683
0.23900001 146387.39403905 6850.93036507
0.24000001 143320.09739466 6217.22611906
0.24100001 140305.77099817 9167.57951066
0.24200001 137342.51454793 5006.13489207
0.24300001 134430.39155880 5904.18307655
0.24400001 131568.49992271 6769.19964123
0.24500001 128757.19435087 6651.59697482
0.24600001 125995.84450844 4668.14625986
0.24700001 123284.35652547 5044.79610767
0.24800001 120620.85230285 4955.70795130
0.24900001 118005.56022451 4867.72958954
0.25000001 115438.91032846 4780.90269743
0.25100001 112918.99330600 5548.83959357
0.25200001 110447.26513041 6287.21086499
0.25300001 108022.07963757 4527.20557179
0.25400001 105642.17962182 5657.13898639
0.25500001 103308.05829231 4760.43555133
0.25600001 101019.44392816 3894.29974768
0.25700001 98775.18408302  5733.89970731
0.25800001 96575.13346832  6378.30499170
0.25900001 94418.97598766  4050.57426152
0.26000001 92306.38300213  3975.17457207
0.26100001 90234.64457153  3546.22169945
0.26200001 88207.66149159  4175.75089260
0.26300001 86221.02985184  3755.78823806
0.26400001 84275.42248437  3684.94302249
0.26500001 82371.55204951  3615.28759052
0.26600001 80507.13879577  3546.74216748
0.26700001 78683.60575593  3163.08110107
0.26800001 76899.16502157  4033.74589209
0.26900001 75152.91910661  4261.17071499
0.27000001 73445.84032618  3582.68826065
0.27100001 71776.63395653  4392.73020602
0.27200001 70145.07453753  3159.68503207
0.27300001 68549.99431992  3099.14538987
0.27400001 66990.23005594  3316.01654470
0.27500001 65468.85534503  3523.53396142
0.27600001 63981.07318343  3190.09645990
0.27700001 62529.79294518  2607.49248922
0.27800001 61112.00552998  3069.04506296
0.27900001 59729.01745148  3512.06639237
0.28000001 58379.39216437  2460.69149619
0.28100001 57062.69307439  2655.12723442
0.28200001 55779.40484388  3314.97018677
0.28300001 54528.09546411  3252.05576740
0.28400001 53308.78946096  3646.32137171
0.28500001 52121.02695239  2906.78981072
0.28600001 50963.38386848  2193.97377938
0.28700001 49836.57247193  2368.23403596
0.28800001 48739.36281278  2324.13662574
0.28900001 47673.04338668  2281.15523403
0.29000001 46634.43066077  2646.27089310
0.29100001 45625.46142009  2198.23483527
0.29200001 44644.35681007  2943.17936202
0.29300001 43690.92420490  2119.44683351
0.29400001 42764.69374088  3027.74046018
0.29500001 41866.29900709  2602.40926947
0.29600001 40993.50678447  2008.88689507
0.29700001 40146.46936154  2153.45671849
0.29800001 39325.64464892  1940.13077060
0.29900001 38529.96005430  2600.77242678
0.30000001 37758.91675577  1704.81517223
0.30100001 37013.25152473  2012.04044813
0.30200001 36290.17133117  1649.38836508
0.30300001 35591.13527876  2109.84259921
0.30400001 34916.06682446  2236.37418598
0.30500001 34262.42893700  1572.64556266
0.30600001 33631.51446957  1858.47757757
0.30700001 33023.00215792  1830.79532631
0.30800001 32435.98188678  2405.45253061
0.30900001 31869.87600974  2074.72902646
0.31000001 31325.36690638  2045.85980952
0.31100001 30799.71506354  1729.71207986
0.31200001 30295.25801667  2560.25237621
0.31300001 29809.80631245  1825.25452693
0.31400001 29345.12043654  2079.83550941
0.31500001 28898.16171965  1780.70480948
0.31600002 28470.11350797  1759.88014982
0.31700002 28059.71888599  1606.13838508
0.31800002 27667.67113928  1985.84719005
0.31900002 27293.31542555  1703.10296319
0.32000002 26935.77885147  1556.34937573
0.32100002 26595.42975487  1798.38304518
0.32200002 26271.63184378  1527.43274772
0.32300002 25963.20723220  1766.53670373
0.32400002 25671.07659936  1501.75805217
0.32500002 25393.71811480  1614.27873700
0.32600002 25132.24876836  1602.55791860
0.32700002 24885.12014006  1714.08715641
0.32800002 24653.45762256  1581.64264867
0.32900002 24434.48668891  1572.35929289
0.33000002 24231.23420438  1323.38891874
0.33100002 24038.92406415  1795.70771263
0.33200002 23862.37821295  1787.88877227
0.33300002 23697.52912369  1305.97089185
0.33400002 23546.00841143  1301.50567658
0.33500002 23406.15071487  1533.57106746
0.33600002 23278.54433459  1176.73047184
0.33700002 23161.80565268  3053.18936573
0.33800002 23058.05760487  1641.50319863
0.33900002 22964.22831708  1522.52840953
0.34000002 22881.90561791  1404.49143334
0.34100002 22810.02932863  1521.20092797
0.34200002 22749.58836116  1638.65292726
0.34300002 22697.62612479  1756.79634526
0.34400002 22656.50693968  1289.72171862
0.34500002 22624.49401090  1526.47468321
0.34600002 22602.94083408  1647.07637659
0.34700002 22588.36187324  1886.58007300
0.34800002 22584.16820296  1536.96563985
0.34900002 22588.14322719  1660.22860583
0.35000002 22600.54042311  1903.86961541
0.35100002 22620.94847701  1672.14059062
0.35200002 22648.50689202  1559.01004575
0.35300002 22684.08209278  1204.52481618
0.35400002 22727.45577870  1210.23707754
0.35500002 22777.59753177  1337.95614239
0.35600002 22834.28593531  1834.16410463
0.35700002 22897.80218332  1721.45684968
0.35800002 22968.41772676  1236.84935317
0.35900002 23044.70948061  1244.41437090
0.36000002 23127.80009347  1502.84452126
0.36100002 23215.83317239  1638.80574126
0.36200002 23310.79280938  1776.98182003
0.36300002 23409.35139742  1789.41090558
0.36400002 23514.04029496  1544.87252056
0.36500002 23623.12317184  1296.90952357
0.36600002 23737.75779439  2090.82180557
0.36700002 23856.56968567  1448.57097993
0.36800002 23981.16537464  1991.03634954
0.36900002 24108.99511860  1739.46408020
0.37000002 24240.16591274  1753.65488603
0.37100002 24375.64799898  1496.17734505
0.37200002 24515.50030863  1371.64230724
0.37300002 24658.05801929  1521.64883245
0.37400002 24805.16973929  1395.29086393
0.37500002 24954.24839325  1829.64557887
0.37600002 25107.60817725  1845.78590259
0.37700002 25262.50010866  1718.86058882
0.37800002 25421.12365969  1589.71004337
0.37900002 25582.14493645  2187.27349568
0.38000002 25745.64067800  1618.49977790
0.38100002 25910.89944517  1633.16406940
0.38200002 26078.57821062  1947.67870593
0.38300002 26248.02905248  2116.64116307
0.38400002 26419.96558491  1678.32839329
0.38500002 26592.55353185  2463.53427590
0.38600002 26767.79824615  2020.03199034
0.38700002 26943.29740247  2195.33997636
0.38800002 27120.20746139  1740.71059838
0.38900002 27298.57277103  1756.66324104
0.39000002 27478.43587758  2095.09344274
0.39100002 27658.32626505  2114.20255986
0.39200002 27839.64034828  1969.37625154
0.39300002 28021.11774169  2152.86257809
0.39400002 28204.01381854  1838.19668771
0.39500002 28386.35251852  2360.60918728
0.39600002 28569.03032529  2041.54300377
0.39700002 28751.60886656  1888.11824372
0.39800002 28935.43029771  2078.14270244
0.39900002 29118.09222494  2096.50273953
0.40000002 29300.63400224  1762.43321874
0.40100002 29483.05588685  1955.61118963
0.40200002 29665.96369229  2151.96910820
0.40300002 29847.45239994  1808.75570113
0.40400002 30028.40798480  2553.91622011
0.40500002 30208.98977102  1839.72756422
0.40600002 30388.86295546  2040.76418847
0.40700002 30567.90605685  2431.98272111
0.40800002 30746.11730182  2452.15670159
0.40900002 30922.74963417  2091.92411187
0.41000002 31098.98364511  2108.97767582
0.41100002 31273.83545273  2705.81237158
0.41200002 31446.75953607  2922.19026835
0.41300002 31618.85696868  2356.23733295
0.41400002 31789.51601663  2572.56670554
0.41500002 31959.06271402  2791.94385099
0.41600002 32125.89632561  2813.26487454
0.41700002 32291.91504163  2227.17348595
0.41800002 32457.12294219  2855.90238301
0.41900002 32618.53170230  2876.95463247
0.42000002 32779.00659356  2690.99267381
0.42100002 32937.99901018  3127.46315421
0.42200002 33094.94498922  2309.86179498
0.42300002 33249.41579835  2326.12923948
0.42400002 33401.79145636  2555.23716749
0.42500002 33552.56389092  2358.40982765
0.42600002 33699.69993582  2374.31247149
0.42700002 33845.99053716  2390.20396500
0.42800002 33989.37631683  2624.65976356
0.42900002 34131.06153725  2641.74428817
0.43000002 34270.33629378  2437.13508102
0.43100002 34405.81041359  2229.49662045
0.43200002 34539.66752482  2916.35696566
0.43300002 34670.67318750  3159.88530405
0.43400002 34799.53468502  2497.73672038
0.43500002 34925.21747184  2284.10933090
0.43600002 35049.33087865  3216.47724716
0.43700002 35169.81383411  2310.65687840
0.43800002 35286.69944447  3253.08097595
0.43900002 35402.10956763  3504.80901329
0.44000002 35513.91989347  3288.94427720
0.44100002 35623.56275970  3070.39501976
0.44200002 35730.13478996  2611.69432624
0.44300002 35834.00256152  2625.19915207
0.44400002 35934.19427273  3118.18985579
0.44500002 36031.07135983  3615.71818231
0.44600002 36125.62573382  2664.44565227
0.44700002 36217.48926298  2920.57847258
0.44800002 36305.12618018  3178.69547335
0.44900002 36391.20829736  2947.68801178
0.45000002 36473.77819857  2960.94145449
0.45100002 36552.18100230  2726.06178835
0.45200002 36628.34586333  2488.89621937
0.45300002 36700.86936751  3249.12811909
0.45400002 36770.76684947  3011.52594770
0.45500002 36837.44668713  2771.64962010
0.45600002 36900.61428265  3035.44467475
0.45700002 36960.66476278  4316.63624223
0.45800002 37016.89855663  3313.19766234
0.45900002 37070.39766685  3069.42907229
0.46000002 37121.27159284  3593.71047323
0.46100002 37167.58840468  3863.57099778
0.46200002 37211.72673746  3101.22545328
0.46300002 37252.16942113  3111.30133751
0.46400002 37288.89621413  3121.08076105
0.46500002 37323.32029587  3391.57027603
0.46600002 37353.59874012  3663.26760207
0.46700002 37380.72155632  3936.19016644
0.46800002 37405.27481331  2631.46120784
0.46900002 37425.74438964  2902.36661498
0.47000002 37442.68803853  3438.92384589
0.47100002 37456.97203818  3447.53986980
0.47200002 37467.58756378  4253.32074183
0.47300002 37475.78605738  3730.33992096
0.47400002 37479.07861106  3204.46137313
0.47500002 37480.43468940  4014.15474550
0.47600002 37478.70072108  2681.60116370
0.47700002 37472.59639452  2955.46381772
