# SAXS profile: number of points = 501, q_min = 0, q_max = 0.5, delta_q = 0.001
#    q    intensity    error
0.00000000 1682732.95097188 479.57889103
0.00100000 1682663.74737035 605.75896344
0.00200000 1682456.07957156 757.10525978
0.00300000 1682110.12275853 1211.11933153
0.00400000 1681625.72415705 1387.34127515
0.00500000 1681003.38345662 1512.90310499
0.00600000 1680242.79617134 2469.95701093
0.00700000 1679344.65030512 2015.21366412
0.00800000 1678308.36581534 2492.28802846
0.00900000 1677135.31409930 3018.84369443
0.01000000 1675824.64076681 3041.62185433
0.01100000 1674377.61116780 3616.65579759
0.01200000 1672793.68668251 3588.14261525
0.01300000 1671074.30786822 4912.95868182
0.01400000 1669218.54620643 4882.46446410
0.01500000 1667228.42135174 6002.02258413
0.01600000 1665102.66092410 5944.41676524
0.01700000 1662843.38768286 5387.61281777
0.01800000 1660450.17849024 6625.19651029
0.01900000 1657923.76749105 6465.90298497
0.02000000 1655264.77349335 5214.08427237
0.02100000 1652474.87968793 5998.48408523
0.02200000 1649552.26231063 6829.14667623
0.02300000 1646499.79299284 7705.61938195
0.02400000 1643317.44229108 6162.44068958
0.02500000 1640006.51206920 6396.02568918
0.02600000 1636567.02308320 10604.95479463
0.02700000 1633000.36148348 9602.04256531
0.02800000 1629306.07705204 10631.22264031
0.02900000 1625486.90630846 8046.16055566
0.03000000 1621543.17592382 9802.22894902
0.03100000 1617475.06719922 10093.04488374
0.03200000 1613283.55780759 7985.75397896
0.03300000 1608971.67893155 8205.75594084
0.03400000 1604537.10699998 11793.34828060
0.03500000 1599983.45955661 12959.86662087
0.03600000 1595310.28576882 8853.97249519
0.03700000 1590519.64293604 12692.34733762
0.03800000 1585612.62502874 9275.83428570
0.03900000 1580590.71453838 11380.25367170
0.04000000 1575452.53497539 10657.93689299
0.04100000 1570202.38208128 15827.64074525
0.04200000 1564840.32367241 12111.86466713
0.04300000 1559366.52488629 14408.54735876
0.04400000 1553784.78210951 13634.46209622
0.04500000 1548094.45639975 17090.96359278
0.04600000 1542296.14424210 11960.50715460
0.04700000 1536392.97419640 15486.84190016
0.04800000 1530385.12142305 17997.32986532
0.04900000 1524275.37312415 16004.89216279
0.05000000 1518063.23840661 12774.50274605
0.05100000 1511752.05671700 12970.83325087
0.05200000 1505340.00307038 11967.45358211
0.05300000 1498832.73559144 15782.70944153
0.05400000 1492228.44015543 16004.15076700
0.05500000 1485530.96580280 14974.15283383
0.05600000 1478738.97813535 13907.54073835
0.05700000 1471857.67637115 12805.16238216
0.05800000 1464885.16995871 16853.50466731
0.05900000 1457823.98485183 13120.41647647
0.06000000 1450676.48248681 13273.69043489
0.06100000 1443444.69246520 13424.03626725
0.06200000 1436128.55353471 17642.84010486
0.06300000 1428731.48215105 23316.89887889
0.06400000 1421251.59632488 22171.52593956
0.06500000 1413695.16165604 18194.25758160
0.06600000 1406059.95518866 21196.35481622
0.06700000 1398349.31867410 19968.42920517
0.06800000 1390565.79761796 17270.82801485
0.06900000 1382710.16980731 17422.14895526
0.07000000 1374782.46571245 19033.86412912
0.07100000 1366787.00345082 20665.82046012
0.07200000 1358722.90624507 25292.62808463
0.07300000 1350595.09198132 22487.40933515
0.07400000 1342402.68604228 15102.03092572
0.07500000 1334148.16737610 16730.21880308
0.07600000 1325831.72387056 24501.37140577
0.07700000 1317458.66572020 16955.69382285
0.07800000 1309027.38608237 17063.17277778
0.07900000 1300540.13104009 31212.96460897
0.08000000 1292000.70659803 21976.93305019
0.08100000 1283409.15432215 23678.90000822
0.08200000 1274766.49562286 17457.92797677
0.08300000 1266075.76179589 15952.55534731
0.08400000 1257337.60608109 16031.05523001
0.08500000 1248555.94659854 22548.92145413
0.08600000 1239730.16728741 21032.02327552
0.08700000 1230863.39806921 22746.35666444
0.08800000 1221954.74268353 19575.71589714
0.08900000 1213010.25512804 21288.33097740
0.09000000 1204028.56952101 18078.48982060
0.09100000 1195012.28744745 21438.52144401
0.09200000 1185962.46143254 23161.84796008
0.09300000 1176882.56648081 21572.25845732
0.09400000 1167770.89391947 19968.88322451
0.09500000 1158631.96739341 21689.59144907
0.09600000 1149466.41144941 18397.21078006
0.09700000 1140277.82785629 25143.12728628
0.09800000 1131066.49351716 21835.23968399
0.09900000 1121834.57095841 16827.51935565
0.10000000 1112581.52561764 23597.85526809
0.10100000 1103310.59523819 18568.71819118
0.10200000 1094023.88908650 18592.93686957
0.10300000 1084722.10834664 18613.83225484
0.10400000 1075408.20150566 20325.21596466
0.10500000 1066084.55186444 16950.74517217
0.10600001 1056747.89796160 25441.20684052
0.10700001 1047405.58045301 28845.55104308
0.10800001 1038054.93789045 20366.63883990
0.10900001 1028700.43762532 16973.55801969
0.11000001 1019342.31492274 25458.07551350
0.11100001 1009982.23107856 20361.24273702
0.11200001 1000622.95176556 20352.67179706
0.11300001 991262.76764941 23730.83177479
0.11400001 981906.98973512 22019.26528157
0.11500001 972555.54708759 27075.94770587
0.11600001 963209.22197922 20285.18717014
0.11700001 953871.52138382 18571.87939598
0.11800001 944540.41912030 20232.05673045
0.11900001 935220.06268722 20200.75430553
0.12000001 925910.85771864 18485.81114513
0.12100001 916616.23944792 20128.89356651
0.12200001 907334.28765358 18414.35023545
0.12300001 898069.22884437 21715.31497656
0.12400001 888820.11053895 21664.99121519
0.12500001 879589.61401205 23273.94228344
0.12600001 870380.18569315 16580.74331880
0.12700001 861191.55759642 23148.83015911
0.12800001 852024.10766840 19784.00071247
0.12900001 842880.85521732 18079.79519655
0.13000001 833762.81012353 16383.43999116
0.13100001 824669.47110816 21226.99318691
0.13200001 815604.68151987 17898.44557969
0.13300001 806569.38209764 17833.24987889
0.13400001 797562.31715389 19380.76522056
0.13500001 788586.91609759 17695.89123156
0.13600001 779642.80593160 17623.82645906
0.13700001 770732.54781966 22335.83028902
0.13800001 761855.12611736 17473.14814146
0.13900001 753015.48402700 17394.65850132
0.14000001 744210.60383012 20462.07151731
0.14100001 735443.92220260 21930.93879441
0.14200001 726714.35717754 15588.02369667
0.14300001 718027.22905542 17060.32776705
0.14400001 709376.18203918 16971.82595585
0.14500001 700770.33888224 19950.93248911
0.14600001 692204.64215547 15263.11307956
0.14700001 683685.18603014 16695.59303050
0.14800001 675207.28030817 19618.14845491
0.14900001 666774.28714744 22503.63325297
0.15000001 658388.20129346 19386.24150178
0.15100001 650048.49855883 16303.21711312
0.15200001 641757.39942654 16201.16631301
0.15300001 633514.84582879 21951.29044383
0.15400001 625319.28970004 17446.40900594
0.15500001 617175.73647257 25995.44324703
0.15600001 609080.85935724 22950.16786371
0.15700001 601040.73093309 17093.59919450
0.15800001 593048.34944924 16973.04456234
0.15900001 585111.71532605 14042.68183065
0.16000001 577226.00667664 22304.01395079
0.16100001 569397.70777655 20754.54742816
0.16200001 561621.56438128 13731.64789734
0.16300001 553901.91366172 16351.18526320
0.16400001 546237.56240647 17575.19440015
0.16500001 538630.31711305 16094.27463517
0.16600001 531079.04521835 19955.29606623
0.16700001 523585.07161760 15833.21331328
0.16800001 516148.00702221 14392.78785539
0.16900001 508771.54557147 24649.98254686
0.17000001 501452.79057957 19293.39702858
0.17100001 494193.37243440 17850.26545524
0.17200001 486993.62351927 13901.23363981
0.17300001 479853.83430848 15029.02280028
0.17400001 472775.51872765 13651.39374796
0.17500001 465757.11696282 13525.58731538
0.17600001 458798.07112115 18271.63404535
0.17700001 451902.94969599 12065.80932676
0.17800001 445068.60598183 13145.10189854
0.17900001 438295.78041429 18934.37860824
0.18000001 431586.17671632 16404.59135186
0.18100001 424940.06003706 15081.12344309
0.18200001 418353.56888487 12632.18660920
0.18300001 411832.89181165 14776.56485624
0.18400001 405373.60390837 12374.02984386
0.18500001 398978.75195431 12244.65847594
0.18600001 392647.01262962 13216.49906951
0.18700001 386378.26202389 14164.62775500
0.18800001 380172.82534247 12933.48012921
0.18900001 374033.37699176 12791.94209751
0.19000001 367953.56928929 17921.17943899
0.19100001 361942.67683159 14593.52941940
0.19200001 355992.29068944 16489.56368389
0.19300001 350108.15370664 14263.40685599
0.19400001 344287.09516348 10070.39800940
0.19500001 338530.62033042 10948.08077884
0.19600001 332837.01946968 9835.33439011
0.19700001 327208.19804977 11661.70072960
0.19800001 321643.45662682 9601.05763404
0.19900001 316143.51522802 15174.88944811
0.20000001 310705.42028442 14051.65329646
0.20100001 305332.92555950 11101.90569805
0.20200001 300022.83279664 10962.83482853
0.20300001 294777.25599339 13530.27668960
0.20400001 289595.09311248 12467.06934776
0.20500001 284475.37581432 9669.31848097
0.20600001 279419.69993542 8675.98209309
0.20700001 274426.70042252 10274.53614949
0.20800001 269496.42222290 11828.19853048
0.20900001 264631.00549504 10003.05248057
0.21000001 259825.77089381 9045.83464129
0.21100001 255082.94849269 9733.96577464
0.21200001 250402.39259918 8800.39250393
0.21300001 245783.41841573 8678.61291455
0.21400001 241227.01425838 10113.44305091
0.21500001 236732.43287554 9971.17054413
0.21600001 232297.32719234 9073.53402912
0.21700001 227924.13008601 8943.74328743
0.21800001 223611.43836534 12487.58136593
0.21900001 219357.71218198 9410.44629755
0.22000001 215164.02350964 12125.56911821
0.22100001 211032.31170549 8432.85157449
0.22200001 206958.55510515 7615.04039517
0.22300001 202943.79947133 7500.80318314
0.22400001 198986.14838330 7387.36110805
0.22500001 195089.90578908 9258.96736658
0.22600001 191249.88563683 9116.88247943
0.22700001 187468.42841143 9617.13083229
0.22800001 183743.60866425 7573.91190731
0.22900001 180075.27782146 6833.85711650
0.23000001 176463.72145668 8560.25553269
0.23100001 172909.89327015 6017.26457037
0.23200001 169409.82112044 8289.22293945
0.23300001 165966.42769217 8738.13283126
0.23400001 162577.82244259 10315.56332186
0.23500001 159242.55844983 6764.62420289
0.23600001 155962.41822141 6098.91065301
0.23700001 152735.61469337 6543.19404294
0.23800001 149562.49243711 5897.99716822
0.23900001 146442.03930765 6853.48776376
0.24000001 143373.96100452 6737.85961611
0.24100001 140358.88219107 6114.03319744
0.24200001 137394.78947622 5508.84434463
0.24300001 134481.94537593 6890.85520702
0.24400001 131619.21298978 5804.40756742
0.24500001 128807.10036660 8080.06978822
0.24600001 126044.84949992 5136.95808437
0.24700001 123332.58573589 5046.76964705
0.24800001 120668.23518271 5859.04643647
0.24900001 118052.07441122 5755.03889980
0.25000001 115484.58940331 4782.79449640
0.25100001 112963.90433142 5124.04294289
0.25200001 110491.36761929 4612.46235948
0.25300001 108065.21199098 4529.01324881
0.25400001 105684.53365047 4042.43360338
0.25500001 103349.48378834 4365.48240176
0.25600001 101060.05930993 3895.86547072
0.25700001 98814.85602901  4206.54862018
0.25800001 96613.91425930  6380.86626916
0.25900001 94456.84433441  3683.81710334
0.26000001 92343.39102745  4338.29271574
0.26100001 90270.71772765  4611.93118692
0.26200001 88242.84720862  3481.18048710
0.26300001 86255.29302574  3415.70976544
0.26400001 84308.84498628  4021.53209614
0.26500001 82404.06346099  4603.09120274
0.26600001 80538.68175637  6773.70614965
0.26700001 78714.17769628  4113.60312106
0.26800001 76928.90845267  4035.30608384
0.26900001 75181.76066911  3958.31988654
0.27000001 73473.71685060  4181.38942384
0.27100001 71803.49201409  4101.41565794
0.27200001 70171.00775889  3448.20348445
0.27300001 68574.94016530  3382.11620901
0.27400001 67014.34706492  2764.34194725
0.27500001 65492.01747788  3253.64358228
0.27600001 64003.18768092  3457.13234620
0.27700001 62550.97421088  3390.88847245
0.27800001 61132.34358151  3070.06643996
0.27900001 59748.46727524  3011.32289319
0.28000001 58397.85044196  2707.61646389
0.28100001 57080.26455282  3138.84389632
0.28200001 55795.95086426  3315.95351681
0.28300001 54543.68481767  3717.69773313
0.28400001 53323.43935071  3647.32342422
0.28500001 52134.72736714  2683.89589189
0.28600001 50976.23274828  3072.33769316
0.28700001 49848.45461966  3014.83467810
0.28800001 48750.27212992  2747.32171592
0.28900001 47683.01130085  2281.63219874
0.29000001 46643.46574057  2239.58611354
0.29100001 45633.62061999  2398.50321332
0.29200001 44651.59434303  1962.43766427
0.29300001 43697.19836274  2890.56980852
0.29400001 42769.99005685  2081.82936456
0.29500001 41870.68797301  2044.96449740
0.29600001 40996.98484747  2009.05733755
0.29700001 40149.00862625  1794.66077055
0.29800001 39327.33617803  2469.36355551
0.29900001 38530.65836326  1907.26767927
0.30000001 37758.79675935  2386.73365615
0.30100001 37012.21750476  1676.65353234
0.30200001 36288.23703488  1649.30045131
0.30300001 35588.29071261  1785.10874665
0.30400001 34912.36130602  2236.13684751
0.30500001 34257.88451319  1729.68067096
0.30600001 33626.00127076  2013.02066138
0.30700001 33016.67302593  2288.05554902
0.30800001 32428.72797383  1953.99309657
0.30900001 31861.84393640  1629.73339451
0.31000001 31316.42899803  1607.00263012
0.31100001 30789.93891506  1585.06613039
0.31200001 30284.67358190  2843.73098398
0.31300001 29798.39792539  1684.20553048
0.31400001 29332.87543497  2078.96764489
0.31500001 28885.10843772  1506.06962525
0.31600002 28456.28386918  1488.40599825
0.31700002 28045.01151837  2140.39538043
0.31800002 27652.16950258  1455.47201068
0.31900002 27276.98507647  1702.08394936
0.32000002 26918.68797368  2073.81581969
0.32100002 26577.57738386  1668.80616295
0.32200002 26252.99722967  1526.34933121
0.32300002 25943.79347378  1260.86842253
0.32400002 25650.92915298  1250.48285542
0.32500002 25372.89390859  1364.80802797
0.32600002 25110.68419347  1478.01494162
0.32700002 24862.85155454  1590.22806073
0.32800002 24630.42615537  1337.06274716
0.32900002 24410.78278134  2054.16746832
0.33000002 24206.79587450  1322.05421929
0.33100002 24013.81491254  1195.88803927
0.33200002 23836.66847459  1190.64164669
0.33300002 23671.03501652  1304.51080154
0.33400002 23518.84833983  1418.18662205
0.33500002 23378.38122772  1178.27046968
0.33600002 23250.15193228  1175.29523583
0.33700002 23132.81523960  1524.68392465
0.33800002 23028.44803253  1639.39529307
0.33900002 22934.02194182  1286.59869187
0.34000002 22851.07857487  1870.13235913
0.34100002 22778.63450629  1402.25280662
0.34200002 22717.56130440  1285.70044291
0.34300002 22665.13546624  1403.42525453
0.34400002 22623.43793231  1756.14445267
0.34500002 22590.88833206  1172.46715996
0.34600002 22568.82614594  1409.64894784
0.34700002 22553.68472667  1177.30239849
0.34800002 22549.03588078  1534.57470955
0.34900002 22552.46144394  1776.00642282
0.35000002 22564.38086230  1663.22059213
0.35100002 22584.37004091  1430.94575357
0.35200002 22611.41293806  1317.00180895
0.35300002 22646.60553004  1563.29525378
0.35400002 22689.55280467  1329.04061848
0.35500002 22739.32244387  1457.13585122
0.35600002 22795.55646654  1464.84252792
0.35700002 22858.71083462  1350.26411296
0.35800002 22928.86669513  1481.66343602
0.35900002 23004.87513904  1490.71597962
0.36000002 23087.59993891  1250.19359591
0.36100002 23175.29685894  1510.10241486
0.36200002 23269.87576963  1900.56719351
0.36300002 23368.15682418  1658.67184995
0.36400002 23472.50454092  1413.63165294
0.36500002 23581.30661817  2200.84345092
0.36600002 23695.67656965  1826.22587973
0.36700002 23814.21616784  1314.54479473
0.36800002 23938.59506254  1457.50142942
0.36900002 24066.21346750  1469.24240179
0.37000002 24197.15779584  1615.88627415
0.37100002 24332.40876585  1629.29816814
0.37200002 24472.03925857  1916.89492593
0.37300002 24614.47162707  1795.13350080
0.37400002 24761.38733180  1671.39372407
0.37500002 24910.31335207  2107.41260942
0.37600002 25063.52809798  1559.07683919
0.37700002 25218.31436565  2287.80558763
0.37800002 25376.81420325  1586.93915138
0.37900002 25537.73062015  2183.47607146
0.38000002 25701.16838475  1468.82184277
0.38100002 25866.33708628  1630.35530378
0.38200002 26033.98556172  1645.21779551
0.38300002 26203.37668343  1660.24602531
0.38400002 26375.23874469  2132.43815353
0.38500002 26547.80072379  1844.54128167
0.38600002 26723.06780231  1861.52899130
0.38700002 26898.57870990  2035.14656161
0.38800002 27075.55626239  2527.77405241
0.38900002 27253.91067992  1913.22462037
0.39000002 27433.86328266  1769.89577353
0.39100002 27613.76670078  2597.90329429
0.39200002 27795.11269637  1802.37416819
0.39300002 27976.70895606  1818.76593540
0.39400002 28159.71663280  1668.46328954
0.39500002 28342.18161734  2356.93593496
0.39600002 28524.98303290  2208.26166611
0.39700002 28707.67637576  1885.23319691
0.39800002 28891.67179079  2074.99996632
0.39900002 29074.55588769  2267.81546669
0.40000002 29257.27524590  2639.73778413
0.40100002 29439.83517218  1775.22214499
0.40200002 29622.98431377  1969.78043527
0.40300002 29804.66771763  2167.39553912
0.40400002 29985.91364683  2003.80877439
0.40500002 30166.63901354  2572.00776416
0.40600002 30346.83132408  2408.47638215
0.40700002 30526.11710384  2055.01830080
0.40800002 30704.61286308  2072.10089724
0.40900002 30881.49596086  2279.05450990
0.41000002 31058.06474581  1914.72978230
0.41100002 31233.26167461  2509.28036183
0.41200002 31406.50778356  2334.75989926
0.41300002 31579.02258901  2157.16313527
0.41400002 31749.94833353  1976.43437741
0.41500002 31919.87228095  2390.16014965
0.41600002 32087.09042886  2408.45712171
0.41700002 32253.49183929  2022.29403415
0.41800002 32419.12365420  3056.31302732
0.41900002 32580.92512671  3284.15740839
0.42000002 32741.82407519  2274.41091715
0.42100002 32901.27483984  2499.18095526
0.42200002 33058.69548947  2097.57432820
0.42300002 33213.59548738  2746.10020502
0.42400002 33366.41538353  2339.81998964
0.42500002 33517.66189633  2570.13443600
0.42600002 33665.30430051  2371.88912689
0.42700002 33812.07302543  3690.24982486
0.42800002 33955.97936023  2403.57411291
0.42900002 34098.19400303  2199.33361741
0.43000002 34237.98454122  2213.48580548
0.43100002 34374.00816355  2450.17941801
0.43200002 34508.45823279  2913.72180896
0.43300002 34639.99378388  2706.07644263
0.43400002 34769.40281887  2722.44436973
0.43500002 34895.67958697  2966.83081908
0.43600002 35020.38364478  2525.14488237
0.43700002 35141.40138748  2770.54821668
0.43800002 35258.99082508  2321.80465586
0.43900002 35374.94513846  3268.64508569
0.44000002 35487.40226423  2582.24094813
0.44100002 35597.63650828  4248.22214222
0.44200002 35704.86261294  3084.36470299
0.44300002 35809.39177534  3338.86784736
0.44400002 35910.30291718  2876.41539998
0.44500002 36007.78110708  2408.92067022
0.44600002 36102.99393430  2662.77644382
0.44700002 36195.54154259  3405.27670971
0.44800002 36283.84438627  3176.83214580
0.44900002 36370.61162075  3191.52132097
0.45000002 36453.90148521  2712.71720758
0.45100002 36532.99740985  3220.01854431
0.45200002 36609.90291955  2736.40732341
0.45300002 36683.07203813  2747.92905661
0.45400002 36753.71723349  3762.66198010
0.45500002 36821.13657431  3525.99220546
0.45600002 36885.07042898  2528.47169774
0.45700002 36945.88966564  2792.00101436
0.45800002 37002.79837115  3566.69990404
0.45900002 37057.03724846  3324.01639873
0.46000002 37108.69044073  3335.88588527
0.46100002 37155.77759087  2832.38505999
0.46200002 37200.64570273  2583.58496650
0.46300002 37241.88161310  2851.23859143
0.46400002 37279.38590746  2860.26101931
0.46500002 37314.57771120  4434.09147958
0.46600002 37345.65839324  3139.27619332
0.46700002 37373.54226925  3935.43418748
0.46800002 37398.92151122  3683.41995422
0.46900002 37420.19066820  3429.56063729
0.47000002 37437.90955715  2909.48727913
0.47100002 37452.96648754  3447.17119890
0.47200002 37464.39163563  2923.90858379
0.47300002 37473.36193187  3463.66300753
0.47400002 37477.49942498  3738.38074483
0.47500002 37479.61500799  5084.48481298
0.47600002 37478.72850465  3217.92378193
0.47700002 37473.43456539  2686.84538569
