# SAXS profile: number of points = 501, q_min = 0, q_max = 0.5, delta_q = 0.001
#    q    intensity    error
0.00000000 1682732.95097188 252.40994265
0.00100000 1682663.77179562 555.27905788
0.00200000 1682456.17562381 1211.36848481
0.00300000 1682110.34554870 1009.26624328
0.00400000 1681626.13127813 1387.34161102
0.00500000 1681003.99609091 1664.19402200
0.00600000 1680243.68571408 2646.38391274
0.00700000 1679345.87017772 2821.30117915
0.00800000 1678309.94857037 3851.72149459
0.00900000 1677137.30737051 2767.27667546
0.01000000 1675827.08648166 2765.11481209
0.01100000 1674380.58213047 4219.43925068
0.01200000 1672797.24708610 5219.12763974
0.01300000 1671078.44180535 4912.97083559
0.01400000 1669223.37079580 4506.90330094
0.01500000 1667233.90262034 4801.63385336
0.01600000 1665108.88632424 5095.23341993
0.01700000 1662850.45438628 4489.69642824
0.01800000 1660458.07564609 4732.30572853
0.01900000 1657932.46448284 5471.17737967
0.02000000 1655274.52901079 7821.17250337
0.02100000 1652485.56897689 6543.84314984
0.02200000 1649563.97603476 8536.49396381
0.02300000 1646512.49219899 9483.91238676
0.02400000 1643331.27012880 8627.48956157
0.02500000 1640021.42156287 7035.69221983
0.02600000 1636583.18199328 9279.42706633
0.02700000 1633017.65466653 7544.54191011
0.02800000 1629324.65829485 8505.07510634
0.02900000 1625506.74674550 8777.73683545
0.03000000 1621564.33102532 9048.32938303
0.03100000 1617497.53478460 14751.57819600
0.03200000 1613307.48487390 9583.04690153
0.03300000 1608996.95567805 11488.23879315
0.03400000 1604563.85043051 10951.14878448
0.03500000 1600011.66670497 13824.10143870
0.03600000 1595340.03588051 11510.37889082
0.03700000 1590550.95705227 11785.98313683
0.03800000 1585645.52511557 9276.02675122
0.03900000 1580625.21765578 12328.87726867
0.04000000 1575488.61930046 14533.88318653
0.04100000 1570240.08917440 10881.76432253
0.04200000 1564879.63134712 15140.21113568
0.04300000 1559407.53893735 12350.50828167
0.04400000 1553827.48909833 12586.00324622
0.04500000 1548138.92422007 11750.37498081
0.04600000 1542342.31009269 14135.56792912
0.04700000 1536440.99525139 12168.61324833
0.04800000 1530434.80774624 14623.30526841
0.04900000 1524326.84533856 13718.94224663
0.05000000 1518116.57610207 11613.59234798
0.05100000 1511807.16313904 12971.30606399
0.05200000 1505396.86353466 14361.48674738
0.05300000 1498891.41318638 18211.53151920
0.05400000 1492288.92445401 14773.66104105
0.05500000 1485593.30170680 12478.98431647
0.05600000 1478803.25099594 13908.14522463
0.05700000 1471923.60071538 14086.30951637
0.05800000 1464953.10809897 19447.25341805
0.05900000 1457893.50022078 13121.04211482
0.06000000 1450748.10439688 19911.51866309
0.06100000 1443518.09888097 14767.19084164
0.06200000 1436203.74798511 19000.97647402
0.06300000 1428808.45136685 23318.15501655
0.06400000 1421330.34275634 18015.36293696
0.06500000 1413775.78010223 19594.93322882
0.06600000 1406142.42176867 18371.25159997
0.06700000 1398433.42958762 14264.02164934
0.06800000 1390651.79421074 14393.24674382
0.06900000 1382797.76023092 20327.12802709
0.07000000 1374871.69167217 17570.86104239
0.07100000 1366877.93877143 17714.73891620
0.07200000 1358815.60318729 16366.93470713
0.07300000 1350689.43935935 14992.65347938
0.07400000 1342498.64827481 22654.66575133
0.07500000 1334245.80954695 22815.60441268
0.07600000 1325931.02088162 15314.50400914
0.07700000 1317559.52820053 15415.44720275
0.07800000 1309129.78757528 26372.42080747
0.07900000 1300644.01432777 23411.59335599
0.08000000 1292105.93995801 20408.81427904
0.08100000 1283515.75705071 17365.96900768
0.08200000 1274874.61854251 22221.06564392
0.08300000 1266185.17321192 19144.72071746
0.08400000 1257448.40250573 20842.20824984
0.08500000 1248668.04890282 22550.94602184
0.08600000 1239843.57036763 19415.95122357
0.08700000 1230977.88975677 21123.58158014
0.08800000 1222070.44425886 24471.96179558
0.08900000 1213127.06579807 22928.10262051
0.09000000 1204146.47042971 18080.26010283
0.09100000 1195131.18782483 18142.09228352
0.09200000 1186082.45904998 29782.53194613
0.09300000 1177003.30374561 19914.89683522
0.09400000 1167892.62896783 18306.71781944
0.09500000 1158754.43046470 20023.27749958
0.09600000 1149589.84129005 28435.10606098
0.09700000 1140401.84862561 21793.08035179
0.09800000 1131191.27299363 21837.64855190
0.09900000 1121959.81808094 16829.39806257
0.10000000 1112707.47630217 16857.51905874
0.10100000 1103436.96218823 21947.36221015
0.10200000 1094150.66266282 20285.55423993
0.10300000 1084849.20375662 18616.01321217
0.10400000 1075535.69912840 20327.62566984
0.10500000 1066212.38772973 23733.88886753
0.10600001 1056875.80212647 18659.14316452
0.10700001 1047533.47415702 25455.06461987
0.10800001 1038183.12860652 18671.72444671
0.10900001 1028828.61041710 22068.37473211
0.11000001 1019470.29961785 25461.27193141
0.11100001 1010110.12008605 22060.80606116
0.11200001 1000750.49473414 23747.81035802
0.11300001 991390.19220484 22038.60501031
0.11400001 982034.10248934 25410.13359833
0.11500001 972682.28120375 20309.60698787
0.11600001 963335.66737852 18597.19593451
0.11700001 953997.46253131 27017.20941126
0.11800001 944665.63606494 20234.73887753
0.11900001 935344.55185278 16836.20272636
0.12000001 926034.60663885 16807.52890221
0.12100001 916739.14753877 20131.59262831
0.12200001 907456.29589934 20091.08333773
0.12300001 898190.14377202 18376.97120740
0.12400001 888939.95707994 16667.62498059
0.12500001 879708.37084251 19951.78679085
0.12600001 870497.72334877 19899.57889349
0.12700001 861307.82795242 26459.37772163
0.12800001 852139.04732356 24733.33701423
0.12900001 842994.32841242 21369.90723246
0.13000001 833874.87396789 18024.20625038
0.13100001 824779.77573139 19596.76839512
0.13200001 815713.43881201 17900.83225858
0.13300001 806676.53337442 21078.45881078
0.13400001 797667.69809283 17768.04881270
0.13500001 788690.42109866 16089.28534899
0.13600001 779744.25456022 19228.49422409
0.13700001 770831.92891233 22338.71035322
0.13800001 761952.56738235 19064.05413489
0.13900001 753110.74468683 26886.05485322
0.14000001 744303.69447393 22038.83343274
0.14100001 735534.70332320 15666.88991968
0.14200001 726802.77321883 17148.91224293
0.14300001 718113.05985479 20164.61567184
0.14400001 709459.44083082 16973.81792253
0.14500001 700851.14831052 21488.09722084
0.14600001 692282.76670290 15264.83572591
0.14700001 683760.53626812 15179.48462127
0.14800001 675280.01045790 25657.26520782
0.14900001 666844.16515353 16504.39386624
0.15000001 658454.95255550 20879.60753070
0.15100001 650112.30969947 19269.32976872
0.15200001 641818.19656199 17675.67396738
0.15300001 633572.55664097 17562.63209885
0.15400001 625373.78692753 20355.91772511
0.15500001 617226.76875339 27441.90343384
0.15600001 609128.65324551 14344.98046094
0.15700001 601085.26231930 17094.86566718
0.15800001 593089.20305084 18388.73160852
0.15900001 585149.02383505 14043.57723491
0.16000001 577260.01245289 18123.07894641
0.16100001 569427.88428133 17988.22771357
0.16200001 561648.11975834 19225.21604687
0.16300001 553924.68882756 13626.54798844
0.16400001 546256.66650183 17575.80907444
0.16500001 538645.39480005 20118.40644560
0.16600001 531090.49100575 13303.81742781
0.16700001 523592.64835210 13194.53536145
0.16800001 516151.43941928 14392.88356779
0.16900001 508770.85146652 19460.48598748
0.17000001 501448.17863947 14148.36102839
0.17100001 494184.54016583 16574.95025985
0.17200001 486980.55478012 16428.28979130
0.17300001 479836.82429816 13776.11587617
0.17400001 472754.19734333 21096.65705276
0.17500001 465731.28875759 12295.30660388
0.17600001 458768.01482778 14616.34964273
0.17700001 451868.49844930 18097.33421764
0.17800001 445029.69862562 13143.95276972
0.17900001 438252.64562656 15382.66858807
0.18000001 431538.57327768 15231.15466328
0.18100001 424887.80889553 11599.43773076
0.18200001 418296.97312525 13778.70294562
0.18300001 411771.69702162 17047.34906200
0.18400001 405307.76065170 11247.29088941
0.18500001 398908.43796668 13355.45513406
0.18600001 392571.77011717 11011.63867201
0.18700001 386298.51235132 11982.98041927
0.18800001 380088.58292177 12930.61420192
0.18900001 373944.33494866 10657.41404957
0.19000001 367859.97143619 13700.94528349
0.19100001 361844.30159079 10421.11637821
0.19200001 355889.12056412 13393.88768531
0.19300001 350000.38230100 16296.01856996
0.19400001 344174.50847852 12080.52581845
0.19500001 338413.42472339 14924.03273554
0.19600001 332715.00091135 11798.07448985
0.19700001 327081.61773476 12628.62185754
0.19800001 321512.14962077 10556.85193170
0.19900001 316007.27114129 12324.28415696
0.20000001 310564.53150426 15917.98581455
0.20100001 305187.27792613 10171.89245403
0.20200001 299872.51237743 10957.34212015
0.20300001 294622.17660267 9916.98293317
0.20400001 289435.40650397 13350.20875600
0.20500001 284311.13302139 15813.38596610
0.20600001 279250.56067791 10404.87638268
0.20700001 274253.01366873 11123.70276021
0.20800001 269318.20265212 9287.43865748
0.20900001 264448.12938545 11662.16305718
0.21000001 259638.41005861 9861.06728018
0.21100001 254890.96504488 8916.08637876
0.21200001 250205.78238281 9592.89015006
0.21300001 245582.37302656 11036.47236557
0.21400001 241021.60783913 8550.24194232
0.21500001 236522.45848671 8429.66081900
0.21600001 232083.02740861 9820.59376910
0.21700001 227705.43223036 10424.35518037
0.21800001 223388.43690882 8072.14154936
0.21900001 219130.44102474 7954.43538530
0.22000001 214932.42487170 12112.51737636
0.22100001 210796.46103261 8423.42698115
0.22200001 206718.62158520 7606.21204088
0.22300001 202699.69420979 10216.06507124
0.22400001 198737.95714858 10061.10955640
0.22500001 194837.77259862 7265.50088377
0.22600001 190993.87217440 8454.34415159
0.22700001 187208.49185813 6402.53072432
0.22800001 183479.76526096 7563.03628171
0.22900001 179807.64344024 6823.70039126
0.23000001 176192.35804018 10378.61134118
0.23100001 172634.78318327 7209.22888668
0.23200001 169131.13195123 5911.13334125
0.23300001 165684.18691447 8141.72133004
0.23400001 162292.07801506 6864.95522472
0.23500001 158953.54829790 8440.43381382
0.23600001 155669.90314561 8854.50450971
0.23700001 152439.89952149 7074.73607141
0.23800001 149263.49256747 10702.19292329
0.23900001 146139.92654187 8943.76392740
0.24000001 143068.74618030 7757.90312858
0.24100001 140050.74999774 5083.84246539
0.24200001 137083.76945207 5496.37399617
0.24300001 134168.02817107 6383.71508235
0.24400001 131302.49167845 5307.90347718
0.24500001 128487.62096389 5215.31278163
0.24600001 125722.86795607 5589.63897375
0.24700001 123008.07562458 6406.26088158
0.24800001 120341.40227500 5393.70190512
0.24900001 117722.82029829 4414.60597003
0.25000001 115153.16563698 4335.51689134
0.25100001 112630.25044000 4683.16603485
0.25200001 110155.51685847 6270.60309383
0.25300001 107727.43108158 6567.06450942
0.25400001 105344.78201510 4432.38191299
0.25500001 103008.02274773 3955.50826066
0.25600001 100716.85601057 5823.95247436
0.25700001 98470.06230191  4954.02906880
0.25800001 96267.53021959  5235.99121638
0.25900001 94109.00785506  4404.30177601
0.26000001 91994.21477206  3961.73104661
0.26100001 89920.28898356  3887.25427669
0.26200001 87891.29252732  4160.77398512
0.26300001 85902.62217247  5102.61599849
0.26400001 83955.24408028  3670.94322111
0.26500001 82049.58022319  3601.15624640
0.26600001 80183.43856655  4817.02029982
0.26700001 78358.27031049  3465.00287709
0.26800001 76572.33801535  3707.63278215
0.26900001 74824.75041926  3939.52329600
0.27000001 73116.49752811  2972.18576517
0.27100001 71445.97190331  3206.49537076
0.27200001 69813.29202673  3430.62533254
0.27300001 68217.23196356  3925.21971294
0.27400001 66656.62688370  4399.33758252
0.27500001 65134.34730048  2966.21831644
0.27600001 63645.86550092  3966.72875507
0.27700001 62193.92215224  3371.53267944
0.27800001 60775.87027396  2797.81732047
0.27900001 59392.42585509  3492.27480556
0.28000001 58042.38102701  2935.78377129
0.28100001 56725.60178351  3599.23960351
0.28200001 55442.08738884  4000.97842578
0.28300001 54190.79145793  2770.23339044
0.28400001 52971.61315476  2717.44388346
0.28500001 51784.03122936  2887.99555835
0.28600001 50626.79785845  2397.43212606
0.28700001 49500.40703946  2566.10122239
0.28800001 48403.65253227  2098.29843659
0.28900001 47337.94744862  2265.12089263
0.29000001 46299.87806212  2425.18772769
0.29100001 45291.89386821  1983.78504533
0.29200001 44311.68632831  1947.49870631
0.29300001 43359.24086765  1912.14261278
0.29400001 42434.16177603  2253.25409697
0.29500001 41536.94310299  2950.78457772
0.29600001 40665.38506812  2717.46448582
0.29700001 39819.74139648  2491.91953455
0.29800001 39000.52715457  2273.92584339
0.29900001 38206.31636309  2235.06961305
0.30000001 37437.04515773  1690.28266889
0.30100001 36693.17405738  2327.08120888
0.30200001 35972.01759898  2288.89958818
0.30300001 35274.94708011  1608.53766300
0.30400001 34601.98002923  1899.64879354
0.30500001 33950.49088212  2960.82245000
0.30600001 33321.72618723  1841.35867628
0.30700001 32715.61453894  1662.60760958
0.30800001 32130.92126496  1936.04875248
0.30900001 31567.44445425  1614.67486028
0.31000001 31025.53117458  2171.01164673
0.31100001 30502.56606645  1855.77620734
0.31200001 30000.85109492  1971.95603583
0.31300001 29518.35069251  1668.37726013
0.31400001 29056.53551262  1372.92136797
0.31500001 28612.72223627  2305.61326696
0.31600002 28187.66657141  1474.35596983
0.31700002 27780.55266035  1457.64566711
0.31800002 27391.72835715  1572.83311674
0.31900002 27020.68031371  1296.99271647
0.32000002 26666.53922333  1412.39331684
0.32100002 26329.76776453  1780.41898054
0.32200002 26009.50617283  1512.19276049
0.32300002 25704.75371006  1624.02641630
0.32400002 25416.27870171  1362.94800992
0.32500002 25142.75282283  1229.48067125
0.32600002 24885.15358389  1464.74020931
0.32700002 24641.94990998  1333.62239228
0.32800002 24414.21396230  1204.84151609
0.32900002 24199.29643447  1796.79784534
0.33000002 24000.08160654  1549.08534065
0.33100002 23812.02349782  1897.34212215
0.33200002 23639.69045615  1889.28415072
0.33300002 23479.04196287  1176.30005804
0.33400002 23331.89049817  1289.67030836
0.33500002 23196.41439820  1402.91920924
0.33600002 23073.19704885  1516.25521587
0.33700002 22961.07149611  1629.77693198
0.33800002 22861.82135083  1395.02840489
0.33900002 22772.56155412  1742.10104139
0.34000002 22694.86333958  1393.01077775
0.34100002 22627.67363639  1625.11959753
0.34200002 22571.85904105  1277.45442293
0.34300002 22524.74319202  1278.50448413
0.34400002 22488.39198198  1280.15177420
0.34500002 22461.18939309  1632.03009860
0.34600002 22444.46974000  1518.70511688
0.34700002 22434.81127304  1171.09720392
0.34800002 22435.53146315  1526.85016604
0.34900002 22444.47006782  1531.83515468
0.35000002 22461.80756070  1419.13706890
0.35100002 22487.30690169  1424.79583277
0.35200002 22519.79843938  1192.42338384
0.35300002 22560.54335801  1317.76139996
0.35400002 22608.88307674  1565.10000512
0.35500002 22664.19682029  1331.29498428
0.35600002 22725.92767718  1582.06553018
0.35700002 22794.58780363  1591.29024994
0.35800002 22870.30740517  1354.72272331
0.35900002 22951.83385612  1735.15872171
0.36000002 23039.97621790  1372.37624842
0.36100002 23133.20699321  1758.58647892
0.36200002 23233.27101448  1518.06199999
0.36300002 23337.07923921  1529.04550418
0.36400002 23446.87413386  1412.08806160
0.36500002 23561.19331711  1681.56244669
0.36600002 23680.93032519  1694.72585900
0.36700002 23804.91658769  1839.64404104
0.36800002 23934.72413952  1457.26574826
0.36900002 24067.74892486  1736.48816718
0.37000002 24204.01048128  1751.03922121
0.37100002 24344.61771294  1494.27270600
0.37200002 24489.47830079  1781.24228859
0.37300002 24637.21097996  1796.79188188
0.37400002 24789.39052570  1673.28393975
0.37500002 24943.54895463  1688.17947322
0.37600002 25101.95729128  1845.37047769
0.37700002 25261.94445243  2148.52847746
0.37800002 25425.49439432  1734.52730975
0.37900002 25591.51551089  1896.33138919
0.38000002 25759.97495907  1913.83743025
0.38100002 25930.19207069  1634.38008364
0.38200002 26102.75210328  1949.48413319
0.38300002 26277.04171385  1816.26920930
0.38400002 26453.78398049  2291.55914587
0.38500002 26631.18543147  2004.52942239
0.38600002 26811.18570468  2023.30622506
0.38700002 26991.44077555  1885.08231307
0.38800002 27173.06819229  2061.21318538
0.38900002 27355.97030648  2720.55137587
0.39000002 27540.42879467  1938.29547040
0.39100002 27724.89999009  1956.26903598
0.39200002 27910.72429179  1809.87100245
0.39300002 28096.71635810  2324.72242161
0.39400002 28284.00713821  2178.57575304
0.39500002 28470.71079099  2029.39236133
0.39600002 28657.71135127  1877.22347100
0.39700002 28844.51291834  1894.21925309
0.39800002 29032.52443399  2085.11600364
0.39900002 29219.41870750  2103.79824662
0.40000002 29406.02531612  2653.15875985
0.40100002 29592.42017878  1962.86532346
0.40200002 29779.37607376  1980.17970584
0.40300002 29964.73528775  2542.20826226
0.40400002 30149.63495367  2381.06753328
0.40500002 30333.93508392  2216.80408097
0.40600002 30517.56915244  1863.09768503
0.40700002 30700.29136894  2442.51529704
0.40800002 30882.16611861  2841.93147172
0.40900002 31062.27432879  2101.36295791
0.41000002 31241.96258558  2311.28050159
0.41100002 31420.28939531  2135.95137430
0.41200002 31596.52317804  2348.88564435
0.41300002 31771.94334867  2564.94910807
0.41400002 31945.69659923  2386.34364903
0.41500002 32118.46136512  2004.19208415
0.41600002 32288.33601015  2221.59906445
0.41700002 32457.32552767  2645.59672912
0.41800002 32625.46240484  2255.56145024
0.41900002 32789.73439771  2478.90403793
0.42000002 32952.86305052  2705.26542032
0.42100002 33114.61829656  2305.77098125
0.42200002 33274.24268388  2533.50095800
0.42300002 33431.15573466  2976.71024767
0.42400002 33586.02851675  2141.10941940
0.42500002 33739.17536542  2155.93340801
0.42600002 33888.67308261  2821.74049794
0.42700002 34037.07111705  2840.73409004
0.42800002 34182.68438337  2419.62142873
0.42900002 34326.45740245  2878.27358959
0.43000002 34467.73646523  3119.67497530
0.43100002 34605.08296984  2466.65043098
0.43200002 34740.79548532  2707.69772844
0.43300002 34873.59583517  3405.40679468
0.43400002 35004.03296826  3882.82254100
0.43500002 35131.33579597  2527.34841693
0.43600002 35256.95093330  3235.53054048
0.43700002 35378.81945890  2556.82740346
0.43800002 35497.11566369  3272.47924812
0.43900002 35613.73994776  2820.60833753
0.44000002 35726.72739234  2599.65544190
0.44100002 35837.46504685  3326.43366329
0.44200002 35945.06820430  3582.82484305
0.44300002 36049.89953470  2641.01576507
0.44400002 36151.01984980  2895.69682720
0.44500002 36248.57671755  2667.53288706
0.44600002 36343.85534472  2924.22673962
0.44700002 36436.32984434  3427.93007421
0.44800002 36524.45392395  2705.91429719
0.44900002 36611.01147929  3953.98942715
0.45000002 36694.01416821  2482.35017612
0.45100002 36772.66725463  3241.14304543
0.45200002 36849.07146578  2754.28397724
0.45300002 36921.70008067  3017.24147359
0.45400002 36991.68251614  2777.15069652
0.45500002 37058.34166791  3802.18603533
0.45600002 37121.44189354  2799.14245864
0.45700002 37181.32670068  3320.66444502
0.45800002 37237.27998588  2563.78684854
0.45900002 37290.38800741  2830.34058390
0.46000002 37340.90354391  2582.12360244
0.46100002 37386.81815011  2590.90662060
0.46200002 37430.36424267  2859.49281184
0.46300002 37470.11012440  2607.91978826
0.46400002 37506.21957191  2877.66483304
0.46500002 37539.79726399  4460.85432030
0.46600002 37569.27243705  2894.90042484
0.46700002 37595.49358950  3167.04453008
0.46800002 37619.00595568  3440.44635274
0.46900002 37638.44842926  3714.91503604
0.47000002 37654.27500322  2926.30212057
0.47100002 37667.30307433  2666.84518406
0.47200002 37676.69677101  2673.16176260
0.47300002 37683.48374425  2679.29582121
0.47400002 37685.46811440  4027.63459563
0.47500002 37685.34964944  2959.80750176
0.47600002 37682.06014598  2965.76668436
0.47700002 37674.38826250  4051.88064968
