# SAXS profile: number of points = 501, q_min = 0, q_max = 0.5, delta_q = 0.001
#    q    intensity    error
0.00000000 1664650.74656090 349.57665678
0.00100000 1664582.13546023 898.87437450
0.00200000 1664376.24088943 1048.55706496
0.00300000 1664033.25025343 1497.62997858
0.00400000 1663553.00229902 1247.66479913
0.00500000 1662935.97187694 1646.30667732
0.00600000 1662181.89492835 3141.52390931
0.00700000 1661291.45343777 2192.90480968
0.00800000 1660264.02488409 2913.76348669
0.00900000 1659101.01440202 3235.24711638
0.01000000 1657801.55763947 4103.05903233
0.01100000 1656366.92640902 3577.75271682
0.01200000 1654796.58905213 3549.53883914
0.01300000 1653091.91999318 4860.09045913
0.01400000 1651252.09225192 4458.38084672
0.01500000 1649278.97168559 4749.92364996
0.01600000 1647171.46161952 5040.34489788
0.01700000 1644931.59166342 4885.44704640
0.01800000 1642558.89311703 4681.29305603
0.01900000 1640054.17211770 6396.21155987
0.02000000 1637418.08700204 6705.22736959
0.02100000 1634652.15436285 5933.78758937
0.02200000 1631754.63701248 6192.50912880
0.02300000 1628728.39082093 7036.10696862
0.02400000 1625573.45895880 7924.67097377
0.02500000 1622290.97829257 8225.01563558
0.02600000 1618881.16116242 7212.11590285
0.02700000 1615345.17348562 9498.23005512
0.02800000 1611682.73171205 7711.90222491
0.02900000 1607896.50704495 10853.30192087
0.03000000 1603986.85966821 10441.95493641
0.03100000 1599953.79895351 10751.69002369
0.03200000 1595798.57537115 11058.88463667
0.03300000 1591523.96191659 8116.77257996
0.03400000 1587127.76792510 9165.66328267
0.03500000 1582613.53522359 11964.55887879
0.03600000 1577980.91496059 10509.35337931
0.03700000 1573231.81845659 11657.64831390
0.03800000 1568367.39494846 9174.94968506
0.03900000 1563389.04033618 15008.53548227
0.04000000 1558295.50657831 11500.22137146
0.04100000 1553090.99496963 10762.92109418
0.04200000 1547775.54211441 9983.15270978
0.04300000 1542349.46626631 13233.35903483
0.04400000 1536816.44692912 11410.86264839
0.04500000 1531175.80154468 11621.62487372
0.04600000 1525428.11500815 17206.82993718
0.04700000 1519576.67230628 13129.14305934
0.04800000 1513621.28725511 13350.14037475
0.04900000 1507565.11291292 14698.76053509
0.05000000 1501407.39916815 11485.76713848
0.05100000 1495151.58748143 15160.83780331
0.05200000 1488795.85648061 17753.89141589
0.05300000 1482345.91432289 14408.40295891
0.05400000 1475799.60928810 12175.34734441
0.05500000 1469161.29337546 16043.24207207
0.05600000 1462429.26330458 13754.14786321
0.05700000 1455608.68722548 16462.93502099
0.05800000 1448697.93862117 12820.97735544
0.05900000 1441699.20837689 22057.99891840
0.06000000 1434615.11945061 15752.07474749
0.06100000 1427447.53769621 13275.26272095
0.06200000 1420196.37653524 16105.02766272
0.06300000 1412865.05780513 14919.85570800
0.06400000 1405451.80622800 15073.47132673
0.06500000 1397962.85586153 17991.78279655
0.06600000 1390395.95155045 16768.17596026
0.06700000 1382754.14150128 19745.73006472
0.06800000 1375040.36391065 14231.66843265
0.06900000 1367255.11528572 20098.65113570
0.07000000 1359398.46002149 14477.59427719
0.07100000 1351474.91805508 16055.52277850
0.07200000 1343483.53820085 19124.48906221
0.07300000 1335429.04590292 16305.58941448
0.07400000 1327310.51720803 19411.91722389
0.07500000 1319130.78092519 16541.90076816
0.07600000 1310889.64247232 16654.85368840
0.07700000 1302592.60635302 16764.36762982
0.07800000 1294237.95285537 23005.08069086
0.07900000 1285827.97447591 24687.89826789
0.08000000 1277366.20343441 23280.00014968
0.08100000 1268852.94104155 24971.02705129
0.08200000 1260289.29672691 17259.66272859
0.08300000 1251678.16273247 18925.37470872
0.08400000 1243020.18105959 17433.35885766
0.08500000 1234319.20331401 22291.80585834
0.08600000 1225574.67198104 23990.62533042
0.08700000 1216789.69024702 19273.94959857
0.08800000 1207963.15653719 19351.57067655
0.08900000 1199101.40271517 17806.65666669
0.09000000 1190202.91154016 21120.15165741
0.09100000 1181270.36521371 29342.75725047
0.09200000 1172304.81884702 21259.74888872
0.09300000 1163309.39221710 18042.92952116
0.09400000 1154282.76941146 19738.23628458
0.09500000 1145229.10229515 18140.42983300
0.09600000 1136149.67878190 21490.27218437
0.09700000 1127047.19314761 18224.35396997
0.09800000 1117922.45978513 19921.37917003
0.09900000 1108777.54055551 18294.83027943
0.10000000 1099611.90878152 18325.03332162
0.10100000 1090428.69170613 18351.91574454
0.10200000 1081229.85554089 18375.50225923
0.10300000 1072016.24501488 18395.79962981
0.10400000 1062791.05041350 18412.85581465
0.10500000 1053556.32433612 21777.01024862
0.10600001 1044308.55594390 21789.49904504
0.10700001 1035055.75719788 20121.48486680
0.10800001 1025795.01629713 18448.92423634
0.10900001 1016530.45238782 18450.02857920
0.11000001 1007262.18777292 21802.19108056
0.11100001 997992.49886196 18442.90224714
0.11200001 988723.58612090 26814.18491793
0.11300001 979454.44461006 20098.40614965
0.11400001 970189.45664543 28450.80715572
0.11500001 960929.09717851 21736.21720169
0.11600001 951674.00717898 18372.06757376
0.11700001 942427.68226591 23353.35906637
0.11800001 933187.83919415 23320.36519981
0.11900001 923959.01188225 23283.76819614
0.12000001 914741.56306522 18262.81616687
0.12100001 905538.50520996 23199.89759638
0.12200001 896348.44506744 24806.44438590
0.12300001 887175.04726131 19801.74798782
0.12400001 878017.82788852 18109.11855346
0.12500001 868879.32555703 16421.82002683
0.12600001 859761.66022838 21291.99851891
0.12700001 850665.13252419 17966.04844559
0.12800001 841589.52292272 22798.66125046
0.12900001 832538.36365066 19481.39862762
0.13000001 823511.99067396 22654.81593127
0.13100001 814510.67734906 22578.23704040
0.13200001 805537.52371494 19284.56922682
0.13300001 796594.16113441 20815.00641172
0.13400001 787678.70083914 23925.74166598
0.13500001 778795.03755685 17476.16146675
0.13600001 769942.29058057 22151.24074445
0.13700001 761123.37429350 17330.78004987
0.13800001 752337.27320673 20392.10275187
0.13900001 743588.74496083 15615.36438057
0.14000001 734875.01688107 21759.65027605
0.14100001 726199.14677125 15468.04255575
0.14200001 717560.11929332 24626.66445567
0.14300001 708963.46425659 16844.97270527
0.14400001 700402.81724709 18280.51439244
0.14500001 691887.25633271 19698.03111699
0.14600001 683411.31934026 22603.83045350
0.14700001 674981.63681787 14984.59304428
0.14800001 666593.34469025 17878.03434805
0.14900001 658249.51359499 20734.86065653
0.15000001 649952.33795719 22082.13172399
0.15100001 641701.51421162 16093.87473582
0.15200001 633498.95597344 20354.32241589
0.15300001 625344.57197651 15890.00632376
0.15400001 617237.00722441 17220.91331423
0.15500001 609180.99013604 21382.25376287
0.15600001 601173.29685865 24067.97407562
0.15700001 593220.49230538 18277.12423055
0.15800001 585314.62832450 15355.72999886
0.15900001 577464.53745503 16630.97946370
0.16000001 569664.92928887 15133.14956088
0.16100001 561922.16371712 16385.65106746
0.16200001 554231.48442138 14906.05647717
0.16300001 546596.82688548 17480.16734900
0.16400001 539017.32816889 17342.88335258
0.16500001 531494.02065773 19851.30260877
0.16600001 524026.94888125 17064.93839601
0.16700001 516616.58588515 22131.85558427
0.16800001 509262.45404581 16782.74496550
0.16900001 501968.67465314 15360.24216967
0.17000001 494732.27064618 13958.87167542
0.17100001 487554.62474120 13836.80090355
0.17200001 480436.25349041 14960.78564018
0.17300001 473377.72613464 12355.15923558
0.17400001 466379.90555699 12242.47309903
0.17500001 459441.58809533 19406.81359768
0.17600001 452562.21091440 16821.73817416
0.17700001 445746.26338164 14281.71095328
0.17800001 438990.53703378 12965.58612368
0.17900001 432296.16446257 12839.19669098
0.18000001 425664.38954996 19646.54082768
0.18100001 419095.49112080 11441.30744804
0.18200001 412586.04158626 15855.68232715
0.18300001 406141.65241445 14572.36317702
0.18400001 399758.15842496 13311.94730442
0.18500001 393438.58060436 15367.71168441
0.18600001 387181.53526941 17376.70812383
0.18700001 380987.19219545 11818.22326025
0.18800001 374855.75971213 10627.16128993
0.18900001 368789.51632580 13663.65222544
0.19000001 362782.57281259 12472.46544261
0.19100001 356843.84717163 18498.78591145
0.19200001 350964.96768679 10160.43629463
0.19300001 345152.13779513 14061.49875822
0.19400001 339401.65876399 13898.49858314
0.19500001 333715.33536448 10792.35445568
0.19600001 328091.07304788 9695.09166672
0.19700001 322531.46890557 9579.18507918
0.19800001 317035.10144173 10409.84804780
0.19900001 311602.96913214 13087.32532206
0.20000001 306232.16442161 11079.48023240
0.20100001 300926.45591592 12765.30086327
0.20200001 295682.52431745 9903.88662011
0.20300001 290502.51302136 10667.25278233
0.20400001 285385.33883774 9653.15954245
0.20500001 280330.15144443 9528.42229797
0.20600001 275338.20392409 14533.72778111
0.20700001 270408.60441955 10124.09862803
0.20800001 265541.07113561 9157.18427097
0.20900001 260737.78366404 9855.88868840
0.21000001 255994.19609631 12153.32503419
0.21100001 251312.32464096 9590.07876165
0.21200001 246692.01235928 10246.35321773
0.21300001 242132.88175975 10881.45222071
0.21400001 237635.72988265 9196.50318124
0.21500001 233199.77146824 11333.50942918
0.21600001 228822.73919167 10427.45271796
0.21700001 224506.96522901 8075.51592109
0.21800001 220251.13823004 7958.77525624
0.21900001 216053.73272271 8555.72822035
0.22000001 211915.59315048 12645.00404118
0.22100001 207838.88032070 7613.13854612
0.22200001 203819.76397741 8181.32571290
0.22300001 199858.74798690 9401.35594985
0.22400001 195954.49888038 7274.81111493
0.22500001 192111.04730291 8466.33425499
0.22600001 188323.03368829 7694.87952038
0.22700001 184593.15509690 8207.01206371
0.22800001 180919.22930910 6214.57582066
0.22900001 177301.36692153 7951.96668249
0.23000001 173739.47605473 9030.10969500
0.23100001 170234.86215482 10663.51226968
0.23200001 166783.33101161 7577.80100289
0.23300001 163387.84147867 5734.91350713
0.23400001 160046.63539540 6205.80858096
0.23500001 156758.33326352 9433.71694198
0.23600001 153524.35909831 6003.57034649
0.23700001 150343.41619611 5903.98623327
0.23800001 147215.14042722 5277.66303394
0.23900001 144139.33072985 6226.81938206
0.24000001 141115.02472670 5101.30838516
0.24100001 138143.42204381 6017.52774886
0.24200001 135222.17694458 7886.15773244
0.24300001 132351.46861188 6297.28317443
0.24400001 129530.33164524 4760.23991314
0.24500001 126759.32219764 5145.16113139
0.24600001 124037.70389520 5514.71657606
0.24700001 121365.39013688 6772.18909000
0.24800001 118740.37671763 5765.43926427
0.24900001 116163.20907603 5227.34465571
0.25000001 113634.03148450 5989.65008291
0.25100001 111150.95250528 6722.40992555
0.25200001 108715.52189498 5363.48052643
0.25300001 106326.16818689 6076.54079936
0.25400001 103981.46766268 5170.47872415
0.25500001 101682.10515838 6637.80813879
0.25600001 99427.55437601  4216.22564280
0.25700001 97216.91147551  5267.21251295
0.25800001 95049.88816336  4431.22599583
0.25900001 92926.31413993  4711.36434981
0.26000001 90845.76800455  4623.59558136
0.26100001 88805.53630887  3839.06351628
0.26200001 86809.47674685  4109.56082365
0.26300001 84853.24313607  4032.22630462
0.26400001 82937.65941286  3296.77211766
0.26500001 81063.30824413  3881.31138239
0.26600001 79227.66644921  3807.68182973
0.26700001 77432.59630369  3735.34862245
0.26800001 75676.06667956  3358.88237852
0.26900001 73957.29384168  3594.32465079
0.27000001 72277.21591131  3525.68275900
0.27100001 70634.28876421  3746.44285335
0.27200001 69028.72792314  3674.74450489
0.27300001 67459.15138907  3049.82837863
0.27400001 65924.48703199  4079.07782815
0.27500001 64427.62329607  2667.30373069
0.27600001 62963.79446560  3400.98951901
0.27700001 61536.24956163  2566.06172816
0.27800001 60141.61761766  3523.69754299
0.27900001 58781.45245918  2715.70323214
0.28000001 57453.91133368  2906.01897279
0.28100001 56159.14568632  2613.08517246
0.28200001 54897.14268110  3029.49896224
0.28300001 53666.72353710  2514.82278398
0.28400001 52468.00652651  2467.30812369
0.28500001 51300.28668567  3521.25184477
0.28600001 50162.33841141  2375.43764791
0.28700001 49054.81878966  2543.00192642
0.28800001 47976.29362010  2287.74966956
0.28900001 46928.32651790  2245.52053017
0.29000001 45907.71479146  2003.87184550
0.29100001 44916.49335494  2360.81100248
0.29200001 43952.51717274  1931.71322118
0.29300001 43015.91528172  2086.70214909
0.29400001 42106.12473877  2981.11377262
0.29500001 41223.95872399  2196.41262479
0.29600001 40366.63750665  2517.66730047
0.29700001 39534.99176713  2120.65705878
0.29800001 38729.06367556  1736.99858808
0.29900001 37947.99208402  1707.65972462
0.30000001 37191.17995796  1847.10004005
0.30100001 36459.31049266  1816.76752786
0.30200001 35749.70715602  2924.68368089
0.30300001 35063.89498712  1598.91368711
0.30400001 34401.64641850  2360.81309723
0.30500001 33760.52506727  2169.45144353
0.30600001 33141.79021336  2136.65131621
0.30700001 32545.14367591  1954.66142172
0.30800001 31969.48763428  1629.96440420
0.30900001 31414.68434075  1606.86118010
0.31000001 30881.09330838  1872.78399235
0.31100001 30365.96315182  1989.57799990
0.31200001 29871.83839706  1823.22774289
0.31300001 29396.30787954  2076.84925002
0.31400001 28941.16374824  1367.47005185
0.31500001 28503.86347143  1621.29983102
0.31600002 28084.73637892  1602.51513366
0.31700002 27683.24845315  1584.58921649
0.31800002 27299.74428549  1436.92210850
0.31900002 26933.58486519  1292.81213474
0.32000002 26583.98809100  1536.02290463
0.32100002 26251.43702315  1521.53336191
0.32200002 25935.14192161  1507.86922272
0.32300002 25633.99533760  1619.55590212
0.32400002 25348.72522444  1235.75041321
0.32500002 25078.21489712  1226.32476654
0.32600002 24823.23774757  1217.57986917
0.32700002 24582.39444659  1330.39925045
0.32800002 24356.72293270  1682.80606711
0.32900002 24143.56543393  1553.63850924
0.33000002 23945.76342784  1307.79793154
0.33100002 23758.94181629  1538.15396602
0.33200002 23587.47955261  1413.83359134
0.33300002 23427.49916611  1291.08954018
0.33400002 23280.70062900  1520.81184061
0.33500002 23145.41545297  1283.18189348
0.33600002 23022.06482119  1280.14197501
0.33700002 22909.54513185  1277.66539251
0.33800002 22809.67696418  1739.80819284
0.33900002 22719.50711591  1622.17288490
0.34000002 22640.80697805  1621.30826448
0.34100002 22572.34983136  1389.55392143
0.34200002 22514.99835955  1274.23639251
0.34300002 22466.17190049  1391.10542996
0.34400002 22427.81348792  1508.83122386
0.34500002 22398.46484949  1743.72057112
0.34600002 22379.43983143  1164.84989839
0.34700002 22367.24315280  1401.08417745
0.34800002 22365.33335187  1287.90778206
0.34900002 22371.37004236  1409.39637942
0.35000002 22385.58823242  1767.90191439
0.35100002 22407.86414469  1183.13528288
0.35200002 22437.05441363  1306.84629622
0.35300002 22474.16475064  1312.71602526
0.35400002 22518.86114475  1798.69411913
0.35500002 22570.29437076  1205.25377648
0.35600002 22628.04912533  1454.07850567
0.35700002 22692.58918904  1706.02893604
0.35800002 22764.07632677  1348.43012508
0.35900002 22841.15665299  1356.76476945
0.36000002 22924.89213492  1365.52126470
0.36100002 23013.45557546  1624.51990602
0.36200002 23108.80713515  1635.75699054
0.36300002 23207.71266722  1647.28352315
0.36400002 23312.55844514  2169.81648006
0.36500002 23421.89045660  1543.03421637
0.36600002 23536.50660014  1813.95864960
0.36700002 23655.23860564  2089.23077261
0.36800002 23779.71171415  1447.82781630
0.36900002 23907.44761589  1592.23608664
0.37000002 24038.22040510  1872.81784048
0.37100002 24173.39612952  2158.20090868
0.37200002 24312.65257299  1904.41016625
0.37300002 24454.72095453  1371.90991054
0.37400002 24601.22133191  1660.58251857
0.37500002 24749.69507759  1535.47115535
0.37600002 24902.27357910  1971.51309265
0.37700002 25056.46658964  1704.84206752
0.37800002 25214.18117501  1720.11152124
0.37900002 25374.22762869  2024.86346069
0.38000002 25536.81581155  2189.14363915
0.38100002 25701.09210318  1767.20717673
0.38200002 25867.66336065  1634.70706352
0.38300002 26036.01980399  2249.51221763
0.38400002 26206.71789548  1513.43803016
0.38500002 26378.03747086  2443.66150707
0.38600002 26552.05049340  1695.48126458
0.38700002 26726.37751799  1555.47524524
0.38800002 26901.97049627  1726.70305811
0.38900002 27078.87000441  1584.11397031
0.39000002 27257.37900133  1918.37442500
0.39100002 27435.85559853  2258.51973987
0.39200002 27615.65427474  1953.53147595
0.39300002 27795.72331700  2299.81825621
0.39400002 27977.11584451  2320.70186925
0.39500002 28157.94500537  1672.58201256
0.39600002 28339.14828978  1856.35599667
0.39700002 28520.15901463  2043.18428861
0.39800002 28702.27840533  2233.18087713
0.39900002 28883.44667083  2252.90894706
0.40000002 29064.44005678  1923.04876747
0.40100002 29245.12341094  2116.17723028
0.40200002 29426.49494266  2134.59804428
0.40300002 29606.37177968  2152.97545783
0.40400002 29785.71590717  1990.43055980
0.40500002 29964.60690332  2007.32911156
0.40600002 30142.86045078  2024.24388948
0.40700002 30320.24975408  1855.59937287
0.40800002 30496.97013017  2432.28596798
0.40900002 30671.78216249  1886.31469237
0.41000002 30846.45533877  2662.35768644
0.41100002 31019.67491687  2108.71760076
0.41200002 31191.03497139  2125.51317884
0.41300002 31361.52357338  2531.81591804
0.41400002 31530.51945747  2159.05242215
0.41500002 31698.56710330  2373.58881716
0.41600002 31863.79200410  2192.38831273
0.41700002 32028.27843739  2610.62509913
0.41800002 32191.95388361  2023.26439746
0.41900002 32351.82598557  3057.24770050
0.42000002 32510.70612188  2258.35630777
0.42100002 32668.28408055  2274.69272831
0.42200002 32823.82668848  2707.47347269
0.42300002 32976.71730270  3565.44284372
0.42400002 33127.76658680  2534.27426398
0.42500002 33277.09909764  2339.04740641
0.42600002 33422.93410514  2997.03464323
0.42700002 33567.82836437  3232.58202467
0.42800002 33709.89432063  2820.00134302
0.42900002 33850.32285109  2183.34592736
0.43000002 33988.31731331  3076.28274580
0.43100002 34122.49337246  2211.13767532
0.43200002 34255.20863234  2447.36349671
0.43300002 34385.07731606  3133.85609509
0.43400002 34512.73959616  2927.54327498
0.43500002 34637.39077443  3171.39964959
0.43600002 34760.40723032  2734.25376231
0.43700002 34879.73779796  2520.75877011
0.43800002 34995.74546025  3226.25792687
0.43900002 35110.12484293  2548.99518439
0.44000002 35220.98053115  2329.86797255
0.44100002 35329.75205543  3513.54400842
0.44200002 35435.45770164  3061.09215862
0.44300002 35538.50718136  2603.55115949
0.44400002 35638.02755446  2378.83845199
0.44500002 35734.05331096  2629.66910778
0.44600002 35827.90531656  2402.26116532
0.44700002 35919.04418070  3379.26383667
0.44800002 36006.12912583  2667.51420271
0.44900002 36091.64984196  3167.04242372
0.45000002 36173.73391003  3181.29917949
0.45100002 36251.55575565  3195.21227573
0.45200002 36327.29328973  2962.12763523
0.45300002 36399.39354290  2478.79881775
0.45400002 36468.97197547  3235.70969187
0.45500002 36535.34196696  2998.82101077
0.45600002 36598.21573903  2759.68858859
0.45700002 36658.07246504  2770.25066748
0.45800002 36714.11769178  2527.76712288
0.45900002 36767.41073718  3551.73204554
0.46000002 36818.23653814  3564.37364819
0.46100002 36864.63088998  2554.71904176
0.46200002 36908.72085439  3332.30402027
0.46300002 36949.15002477  3085.99315633
0.46400002 36985.99057857  2837.75026164
0.46500002 37020.51318867  3622.82759235
0.46600002 37051.06072219  3114.51231192
0.46700002 37078.40616679  3383.77550716
0.46800002 37103.21561611  2610.21134231
0.46900002 37124.00908776  3664.13987063
0.47000002 37141.39391108  3148.84752503
0.47100002 37156.04583572  2893.71298684
0.47200002 37167.19949718  3164.41551517
0.47300002 37175.77882952  3171.83760007
0.47400002 37179.72652865  2913.96120480
0.47500002 37181.63358261  3185.72251635
0.47600002 37180.57106014  2660.26998544
0.47700002 37175.23642771  3198.55749385
