# SAXS profile: number of points = 501, q_min = 0, q_max = 0.5, delta_q = 0.001
#    q    intensity    error
0.00000000 1664650.74656091 249.69761198
0.00100000 1664582.20827995 649.18707665
0.00200000 1664376.53895396 823.86641287
0.00300000 1664033.91558765 998.42038492
0.00400000 1663554.19298729 1621.96539979
0.00500000 1662937.83169441 1945.63734009
0.00600000 1662184.59635306 1919.82328695
0.00700000 1661295.07653893 2192.90959217
0.00800000 1660268.80190159 2465.49927492
0.00900000 1659107.01408060 2488.66062751
0.01000000 1657808.99249562 3008.92345130
0.01100000 1656375.90609034 4472.21514116
0.01200000 1654807.23567900 3872.24910126
0.01300000 1653104.41713089 4165.82331490
0.01400000 1651266.61033605 5201.49005315
0.01500000 1649295.63144359 4749.97163007
0.01600000 1647190.36556969 4620.36918197
0.01700000 1644952.90527813 4441.37304349
0.01800000 1642582.83241178 5617.63353963
0.01900000 1640080.81286007 5412.26692665
0.02000000 1637447.48350303 6705.34774827
0.02100000 1634684.52721157 7012.79693969
0.02200000 1631790.15700763 6192.64392719
0.02300000 1628767.20493445 7622.63086606
0.02400000 1625615.64445374 11582.51199487
0.02500000 1622336.60437324 12021.51478744
0.02600000 1618930.46861822 9179.33617691
0.02700000 1615398.27085840 8820.07496286
0.02800000 1611739.71357063 7712.17488311
0.02900000 1607957.61936397 8682.97154324
0.03000000 1604052.12375727 10442.37980565
0.03100000 1600023.46582929 9216.13558724
0.03200000 1595872.49333864 7899.56920587
0.03300000 1591602.41723368 9740.60724252
0.03400000 1587210.88312126 9166.14327295
0.03500000 1582701.56611119 9401.24773683
0.03600000 1578073.76815377 13137.46472701
0.03700000 1573329.57783148 9864.77690922
0.03800000 1568470.36044033 11010.66243986
0.03900000 1563497.31171432 10319.08273519
0.04000000 1558409.21519210 12459.48225282
0.04100000 1553210.19531608 11742.26962104
0.04200000 1547900.35201477 14975.93660052
0.04300000 1542479.97134655 14252.51559681
0.04400000 1536952.53771830 12449.31613369
0.04500000 1531317.82258961 10566.09346682
0.04600000 1525576.18618060 15057.43765758
0.04700000 1519730.73193342 12036.26795669
0.04800000 1513781.58369576 15576.81322099
0.04900000 1507731.56988208 12438.78603052
0.05000000 1501580.34074599 13784.50816994
0.05100000 1495330.96387494 17495.37309234
0.05200000 1488981.81373191 15388.62776205
0.05300000 1482538.40701637 13209.41782231
0.05400000 1475998.89120744 17047.78798845
0.05500000 1469367.34108601 12342.68624090
0.05600000 1462642.10941164 13756.14968094
0.05700000 1455828.48578667 16465.42094283
0.05800000 1448924.72025874 14105.28281033
0.05900000 1441933.08618448 16870.61789631
0.06000000 1434856.19933922 13128.93483732
0.06100000 1427695.56213725 18588.59708770
0.06200000 1420451.66266495 18792.57637549
0.06300000 1413127.83272790 14922.63061132
0.06400000 1405721.89444219 15076.36802296
0.06500000 1398240.40556691 20763.87099396
0.06600000 1390680.91780572 16771.61265346
0.06700000 1383046.68932107 18339.19995865
0.06800000 1375340.51476233 21352.16249116
0.06900000 1367562.90601561 17231.29342255
0.07000000 1359713.97661682 17377.14543491
0.07100000 1351798.21421893 23359.07423579
0.07200000 1343814.56366748 20600.67822610
0.07300000 1335767.76059212 20757.83197222
0.07400000 1327657.14573343 16429.75794842
0.07500000 1319484.99026554 28580.04622877
0.07600000 1311251.80164126 21202.94262655
0.07700000 1302962.46039999 15244.66150148
0.07800000 1294615.83528836 16875.31820437
0.07900000 1286213.64952901 16978.02097012
0.08000000 1277759.82362393 17077.26084385
0.08100000 1269254.87231374 18734.20279433
0.08200000 1260698.94327241 17265.27283829
0.08300000 1252095.80470031 20509.33024353
0.08400000 1243445.76750933 25366.29484785
0.08500000 1234752.69585154 19113.97262909
0.08600000 1226016.17330209 15999.51181279
0.08700000 1217238.98779907 16067.55539344
0.08800000 1208420.49679447 22585.38014578
0.08900000 1199566.68710412 22671.81145116
0.09000000 1190676.24610941 16252.73152287
0.09100000 1181751.50880280 26093.07454025
0.09200000 1172793.78309946 21268.61625585
0.09300000 1163806.21674615 16409.66842725
0.09400000 1154787.28469242 19746.86349629
0.09500000 1145741.70443000 21448.28571506
0.09600000 1136669.69833539 21500.10835469
0.09700000 1127575.07876542 19890.42532453
0.09800000 1118458.02083545 18270.01262936
0.09900000 1109320.57678364 21631.75226446
0.10000000 1100162.49276911 16667.46254928
0.10100000 1090986.87766883 21699.73001741
0.10200000 1081795.72679056 18385.11924157
0.10300000 1072589.76213483 18405.64118405
0.10400000 1063371.68425932 20097.72577800
0.10500000 1054144.45951317 26817.43631176
0.10600001 1044904.06724974 25156.06660272
0.10700001 1035658.68285547 16777.67145178
0.10800001 1026404.91270784 21816.23744631
0.10900001 1017147.32845883 18461.22488042
0.11000001 1007886.29754819 23493.83070169
0.11100001 998623.29823969 21809.93386022
0.11200001 989361.67237069 18446.64924977
0.11300001 980099.02073508 20111.63285236
0.11400001 970840.95663962 23445.81020678
0.11500001 961587.16723552 16731.61749776
0.11600001 952338.62177131 23398.96103881
0.11700001 943098.68067301 25039.27115109
0.11800001 933865.52880527 21670.35061656
0.11900001 924642.83690289 18307.92903301
0.12000001 915431.52688285 18276.59129513
0.12100001 906234.54202405 19900.91148034
0.12200001 897050.60405870 28135.99352182
0.12300001 887883.19751174 18166.09107697
0.12400001 878731.78923900 24714.33273682
0.12500001 869598.83247566 18078.96057906
0.12600001 860487.04410124 22949.19054763
0.12700001 851395.93007108 16346.80262773
0.12800001 842325.89590991 16299.00685402
0.12900001 833279.76149125 21123.64294940
0.13000001 824258.61327938 22675.35552012
0.13100001 815262.37431757 22599.07408135
0.13200001 806294.24561755 19302.68515002
0.13300001 797355.64740397 16026.84926837
0.13400001 788444.95977529 20755.81454463
0.13500001 779565.65200286 20674.08206586
0.13600001 770717.57986335 17422.07171427
0.13700001 761903.00149676 17348.53216212
0.13800001 753121.16541294 20413.35015112
0.13900001 744376.68542243 18758.29335725
0.14000001 735666.63770491 21783.09016975
0.14100001 726994.53450571 15484.98431529
0.14200001 718359.45215737 21572.33536575
0.14300001 709766.15306112 21463.32948094
0.14400001 701208.96786118 19826.68450150
0.14500001 692696.59232495 19721.07291378
0.14600001 684223.78593001 18104.56222978
0.14700001 675797.07634649 15002.69580267
0.14800001 667411.58535562 14916.64963645
0.14900001 659070.63522034 17794.90799053
0.15000001 650775.80735462 14740.07273206
0.15100001 642527.64260879 16114.59403699
0.15200001 634327.14475976 16013.58952509
0.15300001 626174.87973498 20250.49656623
0.15400001 618069.26468976 18681.14440683
0.15500001 610015.21925057 19984.09952576
0.15600001 602009.19237437 24101.43915417
0.15700001 594057.70202408 15487.08502271
0.15800001 586153.45516867 18173.68873528
0.15900001 578304.51490055 15267.23991400
0.16000001 570505.95568744 17911.03532425
0.16100001 562764.09369446 19145.23537122
0.16200001 555074.04715147 19000.18553092
0.16300001 547440.10927190 25587.35191529
0.16400001 539860.91174056 14697.71401601
0.16500001 532338.00890890 18557.30386668
0.16600001 524871.09441163 13148.02153577
0.16700001 517460.34019882 19560.00178304
0.16800001 510106.34061206 21983.03378664
0.16900001 502812.01470687 14103.87767849
0.17000001 495575.24603180 19067.25849142
0.17100001 488397.02077675 20161.02996969
0.17200001 481277.79366955 18733.73900325
0.17300001 474218.16080062 13614.80403954
0.17400001 467219.25745116 15943.85791349
0.17500001 460279.58802346 17011.93437678
0.17600001 453398.92253516 15649.06455039
0.17700001 446581.42768163 16693.21455517
0.17800001 439823.91111159 16532.98159957
0.17900001 433127.54405722 19880.55521126
0.18000001 426493.81967870 11579.30775123
0.18100001 419922.57044505 16049.44140053
0.18200001 413410.62041785 12482.93427318
0.18300001 406963.68471093 16848.29734293
0.18400001 400577.51525485 11116.02657345
0.18500001 394255.19805997 10999.72054552
0.18600001 387995.28739631 11971.59515819
0.18700001 381797.71377175 12920.03524444
0.18800001 375662.91235122 11715.04847516
0.18900001 369593.21097391 10533.40701043
0.19000001 363582.59816532 11458.30612257
0.19100001 357640.26644445 13390.05220836
0.19200001 351757.29744005 12220.04909048
0.19300001 345940.43734337 11073.55392262
0.19400001 340185.83278565 9950.43607918
0.19500001 334495.22168459 10817.57598047
0.19600001 328866.56123751 15548.81175009
0.19700001 323302.12120393 10562.28079888
0.19800001 317800.95100276 14229.53825362
0.19900001 312363.98480604 9370.91998705
0.20000001 306988.17186810 11106.83258311
0.20100001 301677.31861082 15539.39941607
0.20200001 296428.02899937 12636.72747350
0.20300001 291242.39408790 9803.21944834
0.20400001 286119.69631685 11437.63540087
0.20500001 281058.76667871 9553.18793096
0.20600001 276061.22992112 12857.55239133
0.20700001 271125.48021630 9305.02692086
0.20800001 266251.75664748 11685.79015165
0.20900001 261442.30292927 10706.06281104
0.21000001 256692.14954255 8936.73760878
0.21100001 252003.77703742 9616.46458635
0.21200001 247377.01136702 11855.54383023
0.21300001 242811.07418157 9353.08301965
0.21400001 238306.95777454 9991.01967704
0.21500001 233863.92841430 9850.34913051
0.21600001 229480.06084460 8963.49160037
0.21700001 225156.90895867 9571.42065237
0.21800001 220893.87257435 9433.27327430
0.21900001 216688.94674517 7150.73558069
0.22000001 212543.39240212 8454.97654953
0.22100001 208458.98296653 6941.68446101
0.22200001 204431.88972513 8205.89644158
0.22300001 200463.18503322 8082.67600273
0.22400001 196550.97282414 9287.03390509
0.22500001 192699.52753154 9145.52000911
0.22600001 188903.38442974 9005.02476160
0.22700001 185165.17747286 10132.23899046
0.22800001 181482.91974718 7480.72630574
0.22900001 177856.54135359 8590.47135363
0.23000001 174286.28304769 7246.82399184
0.23100001 170772.95157837 11291.50809237
0.23200001 167312.86454590 6432.34338168
0.23300001 163908.63722662 7479.15147037
0.23400001 160558.60440794 6791.62928767
0.23500001 157261.20919338 6123.75177562
0.23600001 154018.37303303 6570.42410435
0.23700001 150828.36315437 6999.94466508
0.23800001 147690.97956723 7942.08280188
0.23900001 144605.93085545 7288.13925984
0.24000001 141572.39700513 5629.62663319
0.24100001 138591.47891349 7546.30638379
0.24200001 135660.82924705 5933.80495195
0.24300001 132780.78983003 5831.73256519
0.24400001 129950.14714250 5253.23494673
0.24500001 127169.51469282 4692.55531414
0.24600001 124438.19922171 6454.60969897
0.24700001 121756.37596484 5435.20488019
0.24800001 119121.60805408 5783.94995269
0.24900001 116534.61426952 5681.06271440
0.25000001 113995.73388517 4721.13354220
0.25100001 111502.81695955 4636.28734852
0.25200001 109057.72429522 5380.36308265
0.25300001 106658.36825407 4470.05242501
0.25400001 104303.81115131 5585.46935141
0.25500001 101994.40390248 4308.24382467
0.25600001 99730.05062634  4229.05299690
0.25700001 97509.26250729  4150.96950133
0.25800001 95332.30706577  5925.85648758
0.25900001 93198.62083779  5815.59421544
0.26000001 91108.21585774  6420.39627528
0.26100001 89057.88056948  5599.95979518
0.26200001 87051.65864392  4464.44452480
0.26300001 85085.39036599  6738.76323585
0.26400001 83159.74968001  3966.72024743
0.26500001 81275.25697334  4215.74777869
0.26600001 79429.54311587  4771.73002848
0.26700001 77624.34835438  3120.49895151
0.26800001 75857.81539330  3366.94929556
0.26900001 74128.96166080  5404.00156080
0.27000001 72438.85179444  4416.95919719
0.27100001 70785.84730257  4909.70660125
0.27200001 69170.12126340  3399.01991974
0.27300001 67590.58341766  3333.56773192
0.27400001 66046.02573399  3541.71829760
0.27500001 64539.01718667  2939.10698178
0.27600001 63065.22482401  2620.36021545
0.27700001 61627.59855164  3083.84517747
0.27800001 60223.29871898  3276.44872187
0.27900001 58853.13811537  3707.74787675
0.28000001 57515.80846338  3151.57887391
0.28100001 56211.28290935  2615.51111756
0.28200001 54939.46684852  2798.61657372
0.28300001 53699.32989313  2516.35071789
0.28400001 52490.85910543  2243.98433297
0.28500001 51313.49053154  2861.75350239
0.28600001 50165.90544321  3455.42773048
0.28700001 49048.92708611  2754.58787554
0.28800001 47960.87401765  3118.65598061
0.28900001 46903.39906252  2244.32775137
0.29000001 45873.40125011  2803.32368309
0.29100001 44872.94520093  1965.43509283
0.29200001 43899.51951444  2122.32237139
0.29300001 42953.59484562  3030.80579577
0.29400001 42034.70496593  2046.03936107
0.29500001 41143.39336948  1826.76675208
0.29600001 40277.04630554  2153.21099742
0.29700001 39436.33524784  1939.08469593
0.29800001 38621.63800312  2425.05276501
0.29900001 37831.65749336  1872.66713457
0.30000001 37066.22284287  2175.60205275
0.30100001 36325.54379373  2632.87553881
0.30200001 35607.38897515  1618.35590553
0.30300001 34912.99799103  2069.64261889
0.30400001 34242.25773595  1566.58336558
0.30500001 33592.93889948  1850.29916218
0.30600001 32965.81011597  1973.49831602
0.30700001 32361.05095155  2093.11287464
0.30800001 31777.22715892  1767.44945826
0.30900001 31214.31637690  1596.61235827
0.31000001 30672.89829778  2146.33616001
0.31100001 30149.92820302  2257.62673073
0.31200001 29648.03237314  1391.97518582
0.31300001 29164.83779549  1648.39671025
0.31400001 28702.20819814  1491.79734173
0.31500001 28257.33856371  1741.21728474
0.31600002 27830.93377829  1455.69706020
0.31700002 27422.12074116  1438.83874341
0.31800002 27031.46584548  1422.80127214
0.31900002 26658.33750631  1407.56028698
0.32000002 26301.80693090  1519.71847643
0.32100002 25962.36551271  1880.97347046
0.32200002 25639.31698424  1987.55994673
0.32300002 25331.53348304  1354.22384413
0.32400002 25039.75721853  1342.75704443
0.32500002 24762.87712841  1210.90474892
0.32600002 24501.58110373  1442.16313205
0.32700002 24254.62525929  1431.99314312
0.32800002 24022.77815380  1185.52415803
0.32900002 23803.76131912  1767.42936164
0.33000002 23600.06689891  1523.26639012
0.33100002 23407.50112767  1631.97105590
0.33200002 23230.48776941  1160.36291903
0.33300002 23064.93968232  1386.66423937
0.33400002 22912.82795234  1611.91752278
0.33500002 22772.30965213  1147.72446082
0.33600002 22643.82777798  1602.50376774
0.33700002 22526.24434944  1370.49677112
0.33800002 22421.49273689  1368.15955160
0.33900002 22326.59172253  1138.65623177
0.34000002 22243.23940174  1137.74174928
0.34100002 22170.21471975  1251.06527588
0.34200002 22108.46526944  1364.97671038
0.34300002 22055.37171290  1138.05723428
0.34400002 22012.92839024  1139.16909815
0.34500002 21979.57631543  1368.88807776
0.34600002 21956.66744224  1142.84459449
0.34700002 21940.66104480  1603.42358509
0.34800002 21935.10060168  1377.96308506
0.34900002 21937.52135847  1382.06391104
0.35000002 21948.31663588  1386.69471073
0.35100002 21967.44496752  2087.78606860
0.35200002 21993.44777562  1164.55311488
0.35300002 22027.49307152  1520.55791875
0.35400002 22069.34697403  1762.78917304
0.35500002 22118.05991045  1535.43579171
0.35600002 22173.14315516  1662.32062108
0.35700002 22235.21695373  1432.83744836
0.35800002 22304.21027644  1441.29813633
0.35900002 22379.06030468  1450.16317643
0.36000002 22460.67634065  1824.36852218
0.36100002 22547.26774375  1469.18003577
0.36200002 22640.71655641  1479.34448987
0.36300002 22737.92019988  1489.78860206
0.36400002 22841.11222012  1500.66114394
0.36500002 22948.94517622  1637.86629481
0.36600002 23062.17584312  1396.53012433
0.36700002 23179.66050086  2047.22771241
0.36800002 23303.03975235  1418.80564253
0.36900002 23429.79241868  1560.42424900
0.37000002 23559.76657363  1966.65160789
0.37100002 23694.14130158  1454.34646198
0.37200002 23832.72148573  1866.81716241
0.37300002 23974.36849760  1748.45077735
0.37400002 24120.42159439  1763.80591264
0.37500002 24268.68121997  1368.75368565
0.37600002 24421.09439683  1657.21554427
0.37700002 24575.25227443  1532.75855697
0.37800002 24733.12240048  1968.50930511
0.37900002 24893.43082832  1560.81818688
0.38000002 25056.30250069  1575.16453133
0.38100002 25221.03382606  1589.68183736
0.38200002 25388.27751122  1750.26793454
0.38300002 25557.26247741  1766.51806613
0.38400002 25728.78217321  1931.58841316
0.38500002 25901.03082260  1649.63673124
0.38600002 26076.12647237  2119.20689881
0.38700002 26251.63190439  1833.41405906
0.38800002 26428.46449220  2004.73126903
0.38900002 26606.73009320  1556.49378419
0.39000002 26786.80311974  1728.15068514
0.39100002 26966.85868525  1744.21650240
0.39200002 27148.33223206  1920.47311308
0.39300002 27330.25760724  2261.30562156
0.39400002 27513.52701124  1956.21186318
0.39500002 27696.49710031  1974.20640684
0.39600002 27879.76035824  1826.26378879
0.39700002 28062.99737962  2345.50543211
0.39800002 28247.50404403  1859.67451685
0.39900002 28431.19782541  1705.87195035
0.40000002 28614.76432604  1893.29597133
0.40100002 28798.05281531  2952.08853397
0.40200002 28982.26286943  2452.76902285
0.40300002 29164.90781954  2827.82959616
0.40400002 29347.27063134  3030.83951805
0.40500002 29529.10498663  2697.48386834
0.40600002 29710.57966234  2720.74646149
0.40700002 29891.13507868  2378.13881954
0.40800002 30071.18972283  2029.35433460
0.40900002 30249.44040866  2604.47694259
0.41000002 30427.58873351  2438.61921459
0.41100002 30604.39205204  2269.62182212
0.41200002 30779.49072632  2860.18431127
0.41300002 30953.84253955  3075.57394046
0.41400002 31126.61917626  2325.15856264
0.41500002 31298.59596173  2343.63897666
0.41600002 31467.82783355  2558.80654153
0.41700002 31636.38109800  2777.04166437
0.41800002 31804.27455914  1998.89875076
0.41900002 31968.34415969  2416.80693299
0.42000002 32131.58903196  2232.02093787
0.42100002 32293.64919685  3270.70094564
0.42200002 32453.61278995  2676.93637783
0.42300002 32611.12488984  2488.88116953
0.42400002 32766.77260723  2088.88185269
0.42500002 32920.75505420  3365.81815623
0.42600002 33071.37074310  2541.86567576
0.42700002 33221.11329597  2985.91380453
0.42800002 33368.04289034  2791.40376027
0.42900002 33513.47240012  2810.10479391
0.43000002 33656.47092149  2175.89094818
0.43100002 33795.69195393  3941.92969631
0.43200002 33933.59037390  2424.38547915
0.43300002 34068.64927780  2439.65609039
0.43400002 34201.54975031  2901.14659505
0.43500002 34331.47728057  2918.86233671
0.43600002 34459.90937203  3840.04018285
0.43700002 34584.61932516  2272.20959734
0.43800002 34706.14219148  2513.93952877
0.43900002 34826.06323824  3447.78042397
0.44000002 34942.44839280  2773.73168487
0.44100002 35056.80364664  2556.69281111
0.44200002 35168.12825355  2336.92223320
0.44300002 35276.91707057  3054.27562471
0.44400002 35382.28281635  3070.29773689
0.44500002 35484.00915790  2611.26835768
0.44600002 35583.69234759  3101.65269047
0.44700002 35680.72964026  2397.74514546
0.44800002 35773.70171601  4095.91017209
0.44900002 35865.08407947  3389.25060613
0.45000002 35953.15738832  2675.45433385
0.45100002 36036.89640564  2931.96203052
0.45200002 36118.74471501  2454.26881970
0.45300002 36196.85364250  2711.50643487
0.45400002 36272.46529475  3218.27463580
0.45500002 36344.98028747  2983.19612338
0.45600002 36413.93864793  3494.64585766
0.45700002 36479.94636003  3007.40692045
0.45800002 36542.18439793  3522.30132105
0.45900002 36601.64300359  3283.16753302
0.46000002 36658.72672968  2788.44618085
0.46100002 36711.29742546  2544.09303216
0.46200002 36761.61926175  2808.40403660
0.46300002 36808.26812182  3842.78337405
0.46400002 36851.37545827  3341.49862805
0.46500002 36892.20150717  3352.39450984
0.46600002 36928.95677940  2845.56089950
0.46700002 36962.63789130  4151.64368472
0.46800002 36993.76770476  3123.01401766
0.46900002 37020.88504018  3392.96427475
0.47000002 37044.54484278  3402.35638235
0.47100002 37065.45666967  3411.50479357
0.47200002 37082.94434300  2894.13852842
0.47300002 37097.77487473  3428.94749419
0.47400002 37108.03694099  2908.34253310
0.47500002 37116.25960368  2915.11116744
0.47600002 37121.46672849  3187.24928438
0.47700002 37122.44131225  2661.67916825
