# SAXS profile: number of points = 501, q_min = 0, q_max = 0.5, delta_q = 0.001
#    q    intensity    error
0.00000000 1700912.83420644 280.65061764
0.00100000 1700843.07739675 663.32881594
0.00200000 1700633.74730409 1071.39929473
0.00300000 1700285.02356001 1530.25657572
0.00400000 1699796.76179481 1274.84761979
0.00500000 1699169.44103018 1988.02832469
0.00600000 1698402.77750765 2674.98448348
0.00700000 1697497.43280443 2240.69670443
0.00800000 1696452.87434475 3206.29606788
0.00900000 1695270.42331818 2797.19631805
0.01000000 1693949.24524087 3074.51801287
0.01100000 1692490.63544129 4265.07658701
0.01200000 1690894.04897733 4286.41660209
0.01300000 1689160.84834114 5320.85690695
0.01400000 1687290.26559048 6833.52587858
0.01500000 1685284.15099593 4044.68214250
0.01600000 1683141.32776254 6438.01586649
0.01700000 1680863.96859417 8168.99925382
0.01800000 1678451.50575530 6218.66310865
0.01900000 1675904.75398436 6536.02883546
0.02000000 1673224.41376362 5270.65714178
0.02100000 1670412.08833596 6614.83216972
0.02200000 1667465.98391384 7478.58527762
0.02300000 1664388.85473964 9586.88023968
0.02400000 1661180.82965091 8098.25691381
0.02500000 1657843.16249108 7112.14749190
0.02600000 1654375.89942862 9380.31177880
0.02700000 1650780.40717982 7626.60583048
0.02800000 1647056.24592465 8597.63399801
0.02900000 1643206.14464069 8873.31358847
0.03000000 1639230.46164031 9146.90639639
0.03100000 1635129.35742089 8633.48340444
0.03200000 1630903.76292680 9687.56879798
0.03300000 1626556.76200675 11613.61581612
0.03400000 1622086.13601519 11922.33364981
0.03500000 1617495.44944683 10481.37099642
0.03600000 1612784.17236580 9846.04782732
0.03700000 1607954.42689975 10998.40878864
0.03800000 1603007.21587000 13128.62970556
0.03900000 1597944.24840364 12463.96571475
0.04000000 1592764.05274865 12734.14919181
0.04100000 1587470.72793953 12001.27925968
0.04200000 1582064.57612718 15306.47548414
0.04300000 1576545.91082306 11445.72384386
0.04400000 1570918.00390081 12724.43642254
0.04500000 1565180.69603606 10799.74730446
0.04600000 1559334.52638919 13191.97070651
0.04700000 1553382.49196356 15658.09624722
0.04800000 1547324.85193524 13647.40582906
0.04900000 1541164.33760587 13870.47968409
0.05000000 1534900.63845405 15264.58756024
0.05100000 1528536.90234598 14307.10607244
0.05200000 1522071.46133265 15730.60928594
0.05300000 1515509.72051665 17185.88103183
0.05400000 1508850.08278475 14937.61651617
0.05500000 1502096.65359507 15141.13497456
0.05600000 1495247.57005003 12784.36732050
0.05700000 1488308.29311522 14243.11102996
0.05800000 1481277.15777736 20974.88553350
0.05900000 1474156.08763477 19901.10811257
0.06000000 1466948.33557678 21476.12463618
0.06100000 1459655.20895463 19004.71170871
0.06200000 1452276.83506316 15096.41840614
0.06300000 1444816.90967049 18031.31587575
0.06400000 1437273.33294271 16816.09878186
0.06500000 1429652.27906463 18399.62569226
0.06600000 1421951.80457520 18577.80119600
0.06700000 1414174.85285754 15867.04259162
0.06800000 1406324.62713613 21833.19085828
0.06900000 1398401.24662797 19088.17791016
0.07000000 1390404.97540327 16288.59504962
0.07100000 1382340.43581423 16422.20514665
0.07200000 1374206.42031848 18057.07320890
0.07300000 1366007.99919934 16678.95845173
0.07400000 1357744.18462592 16802.08507216
0.07500000 1349417.62918816 21536.70637132
0.07600000 1341028.44485254 20135.54304343
0.07700000 1332581.87719330 20268.57130247
0.07800000 1324076.51518771 17259.33818487
0.07900000 1315514.44197686 25257.87847064
0.08000000 1306899.49099323 19054.59547255
0.08100000 1298231.96333708 19161.90467790
0.08200000 1289512.40551549 20870.75926263
0.08300000 1280744.55638324 20978.59681813
0.08400000 1271928.21136094 21082.21109288
0.08500000 1263068.08549899 22811.01069498
0.08600000 1254163.10039578 31096.97553436
0.08700000 1245216.38697785 19724.22849593
0.08800000 1236227.42399703 19804.36426252
0.08900000 1227202.20438228 18223.95359105
0.09000000 1218138.89773323 21615.87575569
0.09100000 1209040.54978469 20021.71244508
0.09200000 1199908.27756558 20086.46551024
0.09300000 1190745.35358060 18468.46130191
0.09400000 1181550.19125216 20204.50921997
0.09500000 1172327.13782273 21945.96505156
0.09600000 1163076.99898682 23691.87958306
0.09700000 1153803.43166503 22049.18461571
0.09800000 1144506.65243710 20395.10950536
0.09900000 1135188.63038896 25541.74538479
0.10000000 1125849.25857071 22173.60219031
0.10100000 1116491.54557423 20498.78574084
0.10200000 1107117.62060179 18815.46484714
0.10300000 1097728.30991158 20549.47492821
0.10400000 1088326.27313144 20569.36752987
0.10500000 1078914.37448899 25732.10904224
0.10600001 1069488.92524748 18881.82786370
0.10700001 1060057.29449341 17172.92897891
0.10800001 1050617.38366977 18895.35453455
0.10900001 1041173.10037364 20615.22835767
0.11000001 1031724.77263869 20613.86192761
0.11100001 1022274.19364205 20609.04871396
0.11200001 1012823.93561354 20600.83982021
0.11300001 1003372.80275639 24020.74602890
0.11400001 993925.76820263 24003.30843228
0.11500001 984482.76969002 22269.00129899
0.11600001 975044.75554265 20534.44351873
0.11700001 965614.84290058 22218.79858153
0.11800001 956191.55296806 18774.82202679
0.11900001 946778.62329016 18746.21762412
0.12000001 937376.61859059 18714.72507172
0.12100001 927989.13409615 25473.30293094
0.12200001 918613.93249709 22032.95620894
0.12300001 909255.57656730 18603.36997305
0.12400001 899912.90395208 16873.36774413
0.12500001 890588.94323727 18515.34500235
0.12600001 881285.77726189 18467.34433277
0.12700001 872003.25276233 20090.95589046
0.12800001 862741.72224718 28379.89029084
0.12900001 853504.35417552 28293.67067446
0.13000001 844292.19821519 18249.37672460
0.13100001 835104.46709746 18188.57615075
0.13200001 825945.52309937 18125.37535885
0.13300001 816815.87942311 27910.59991568
0.13400001 807714.25655630 21263.07880631
0.13500001 798644.44147469 17921.58211166
0.13600001 789605.81784993 19471.68038628
0.13700001 780601.12177728 22621.82157580
0.13800001 771629.15175744 22523.85600193
0.13900001 762695.10152277 16016.59788729
0.14000001 753795.63203688 19131.33404334
0.14100001 744934.52782368 20627.23804828
0.14200001 736110.56966482 18947.48695684
0.14300001 727329.22843101 20423.40569767
0.14400001 718583.87331886 17192.11998010
0.14500001 709883.86389471 20210.39455845
0.14600001 701224.11153879 23192.98858326
0.14700001 692610.55729022 27676.71917501
0.14800001 684038.95090392 16817.09840138
0.14900001 675512.24851941 16718.92893967
0.15000001 667032.38694867 19640.76956041
0.15100001 658599.23849280 27028.91402310
0.15200001 650214.90566902 14922.43278925
0.15300001 641879.16110479 17792.89118545
0.15400001 633590.58732948 17677.17822070
0.15500001 625354.07570664 16096.61466834
0.15600001 617166.73125607 21801.41581054
0.15700001 609034.25918238 18764.34641103
0.15800001 600949.39020645 17199.17235949
0.15900001 592920.85840489 18499.13165540
0.16000001 584943.59666696 15539.02737894
0.16100001 577023.79307329 18228.18248363
0.16200001 569156.37138641 18090.63611850
0.16300001 561345.88167589 15190.02027524
0.16400001 553590.79938898 16441.64751806
0.16500001 545893.13824741 20389.10967614
0.16600001 538251.74572229 13483.20686693
0.16700001 530668.04481837 17384.68596906
0.16800001 523141.58132153 13261.63971267
0.16900001 515675.84951742 21039.57565376
0.17000001 508268.30169627 14340.79080953
0.17100001 500920.51240093 14216.12481324
0.17200001 493632.37099488 14090.73669545
0.17300001 486404.99637974 12695.17100503
0.17400001 479239.35242798 15096.04031441
0.17500001 472133.78658292 17450.06557623
0.17600001 465088.17786676 12348.09170555
0.17700001 458106.73143466 13454.59533770
0.17800001 451186.50623823 12114.35826468
0.17900001 444328.37024180 13196.55321950
0.18000001 437533.70218193 14254.84869042
0.18100001 430802.95047104 16465.28954477
0.18200001 424132.32523696 16299.40602881
0.18300001 417527.94275203 14980.90329363
0.18400001 410985.42326097 12545.33063769
0.18500001 404507.90936701 12414.34832495
0.18600001 398093.57689893 13399.83043147
0.18700001 391743.11699985 18780.16591624
0.18800001 385456.05882089 10927.67978386
0.18900001 379235.78722058 14050.68658038
0.19000001 373075.74877618 10688.62070746
0.19100001 366984.74959088 14796.82580266
0.19200001 360954.92743894 12539.57477174
0.19300001 354992.14380390 12396.32624739
0.19400001 349092.44171412 13274.24072344
0.19500001 343258.19704709 15137.68720511
0.19600001 337487.36771608 14959.12828093
0.19700001 331781.71561015 11824.70090315
0.19800001 326140.78658789 11682.36352767
0.19900001 320565.11913376 13463.73563991
0.20000001 315051.86018835 13298.33964704
0.20100001 309604.88772209 13133.43995789
0.20200001 304220.86518420 11116.23093922
0.20300001 298901.79073757 11890.31379753
0.20400001 293646.85369522 9932.60529571
0.20500001 288455.13402885 8913.26406279
0.20600001 283327.58061402 8797.32179390
0.20700001 278263.62245132 13022.73814629
0.20800001 273262.72444405 11993.50154278
0.20900001 268327.42806842 8452.31438371
0.21000001 263453.00182843 10839.77427265
0.21100001 258641.69553616 10692.24819892
0.21200001 253893.02639840 9734.25909230
0.21300001 249206.61720924 10399.39262778
0.21400001 244583.57282837 9465.38471595
0.21500001 240022.81772547 10109.76156056
0.21600001 235522.23484514 8432.87401732
0.21700001 231084.04222906 10579.02795342
0.21800001 226707.13576992 8936.79571459
0.21900001 222389.75151370 9540.52079103
0.22000001 218133.06824330 9400.44502042
0.22100001 213939.17937694 9973.84501415
0.22200001 209803.72617214 9123.31546399
0.22300001 205728.09701843 8294.95726401
0.22400001 201710.04736638 8850.02874669
0.22500001 197754.09514046 8044.63697072
0.22600001 193855.17322417 7920.92275251
0.22700001 190015.43754179 6498.52827124
0.22800001 186232.79042180 7676.51598421
0.22900001 182507.46253960 6926.15853092
0.23000001 178839.67221398 6196.79493527
0.23100001 175230.11137230 8537.21142981
0.23200001 171675.02378097 6000.04236491
0.23300001 168177.36015499 7673.93330681
0.23400001 164735.11413246 8710.36957171
0.23500001 161346.92913643 7425.18603004
0.23600001 158014.46198885 6740.89726727
0.23700001 154736.09650177 6628.89468767
0.23800001 151512.07563796 7604.39143595
0.23900001 148341.44023127 5340.29210092
0.24000001 145223.76834027 6299.80736858
0.24100001 142159.85040416 6708.52365789
0.24200001 139147.53495108 6593.50625554
0.24300001 136187.15441920 7476.67513128
0.24400001 133277.59735162 5877.54232124
0.24500001 130419.33544411 5774.96844665
0.24600001 127611.56598000 6619.21224051
0.24700001 124854.71571573 5109.05520878
0.24800001 122146.29898142 5018.38093105
0.24900001 119486.69190313 4480.75115834
0.25000001 116876.50874262 4840.44083857
0.25100001 114313.77367706 5185.27301930
0.25200001 111799.84635949 4667.08480708
0.25300001 109333.03022420 5415.26524320
0.25400001 106912.26474331 4498.33375190
0.25500001 104537.98819110 4817.11072375
0.25600001 102209.86036263 4334.20933374
0.25700001 99926.73056812  5414.03051834
0.25800001 97688.50686952  4174.71853859
0.25900001 95494.73176911  4841.58312977
0.26000001 93345.26079757  5481.70069971
0.26100001 91237.33215710  4302.75278812
0.26200001 89174.78031449  4573.32882482
0.26300001 87153.30144921  4831.77926097
0.26400001 85173.44170764  3724.20891489
0.26500001 83236.02248726  4649.56443615
0.26600001 81338.65970146  3583.37482271
0.26700001 79482.77015555  4153.76976489
0.26800001 77666.78672114  4387.39698949
0.26900001 75889.58304895  3380.88108482
0.27000001 74152.07139550  3014.28184487
0.27100001 72453.12903853  3842.91414606
0.27200001 70792.49646890  3188.84815435
0.27300001 69168.92929598  3411.41175432
0.27400001 67581.40639240  3624.05308930
0.27500001 66032.84569007  3553.88792323
0.27600001 64518.40776356  2948.81396639
0.27700001 63041.03261491  3680.33565824
0.27800001 61598.15624756  3093.45955316
0.27900001 60190.27754223  2780.79095406
0.28000001 58816.52389225  2727.02825933
0.28100001 57476.34874842  3403.74953398
0.28200001 56170.05521512  3099.74464376
0.28300001 54896.34188971  2338.58427519
0.28400001 53655.31131391  2293.76466724
0.28500001 52446.41227773  2924.93655117
0.28600001 51268.26246324  2648.51856421
0.28700001 50121.38765374  2381.76845404
0.28800001 49004.69918969  2974.09533460
0.28900001 47919.61876521  3126.75527243
0.29000001 46862.62059022  2659.21953126
0.29100001 45836.01388137  2208.37925334
0.29200001 44837.72176524  1970.61796486
0.29300001 43867.65874107  2128.02022626
0.29400001 42925.35671489  2279.33654946
0.29500001 42011.36645890  3171.01809042
0.29600001 41123.59037338  2381.67284922
0.29700001 40262.08717045  2159.65845806
0.29800001 39427.28350226  2829.30199806
0.29900001 38618.13647087  1737.81622346
0.30000001 37834.25108475  2391.50312428
0.30100001 37076.17017714  2183.41576510
0.30200001 36341.25507608  1651.71012140
0.30300001 35630.76997780  2437.14478186
0.30400001 34944.78527191  2557.95840300
0.30500001 34280.75851035  1730.83557913
0.30600001 33639.83146374  1704.02574347
0.30700001 33021.88143181  2135.85539213
0.30800001 32425.82670242  1653.23085269
0.30900001 31851.28718659  2369.73587888
0.31000001 31298.69102014  2044.11760730
0.31100001 30765.38913431  1871.76636355
0.31200001 30253.71360983  1846.53549760
0.31300001 29761.63820739  1401.77322594
0.31400001 29290.69038441  1799.18074205
0.31500001 28837.81043728  1640.29473534
0.31600002 28404.38792187  1620.75445156
0.31700002 27988.92988538  1468.57922062
0.31800002 27592.23749508  1716.37521465
0.31900002 27213.63779443  1567.50561118
0.32000002 26852.44027549  1292.94506049
0.32100002 26508.68093851  2304.66482992
0.32200002 26181.80298441  1522.21009759
0.32300002 25870.70489634  2137.43773974
0.32400002 25576.29513455  1371.52889153
0.32500002 25297.18786396  1484.43905415
0.32600002 25034.08393336  1964.67500012
0.32700002 24785.81839375  1463.35478726
0.32800002 24553.30456045  1332.87620118
0.32900002 24333.88934584  1806.79136949
0.33000002 24130.46387957  1317.88534719
0.33100002 23938.35621577  1430.55623520
0.33200002 23762.35486043  1899.08749038
0.33300002 23598.21123288  1300.49748263
0.33400002 23447.81837569  1531.72880793
0.33500002 23309.42306989  1409.75397403
0.33600002 23183.54402392  1757.89230886
0.33700002 23068.88594145  1403.51108714
0.33800002 22967.43323729  1284.68343897
0.33900002 22876.26324694  1400.02737702
0.34000002 22796.76589455  1399.26555687
0.34100002 22728.05431488  1865.51878651
0.34200002 22670.98222677  1399.70650897
0.34300002 22622.67081918  1634.26181738
0.34400002 22585.48213551  1168.79875587
0.34500002 22557.54010643  1521.95730306
0.34600002 22540.38300886  1525.19508853
0.34700002 22530.36740596  1764.12785144
0.34800002 22531.10470243  1297.45372574
0.34900002 22539.99026478  1301.68449944
0.35000002 22557.70694561  1543.96232502
0.35100002 22583.62356010  1430.89845654
0.35200002 22616.68953762  1556.81989806
0.35300002 22658.19322408  1323.46512890
0.35400002 22707.56498428  1692.84904976
0.35500002 22763.90543912  1458.71112963
0.35600002 22826.97570565  1711.33844971
0.35700002 22897.05041819  1475.48599883
0.35800002 22974.37053085  1608.32088519
0.35900002 23057.61937742  1867.66725803
0.36000002 23147.64119214  1754.82276189
0.36100002 23242.79585418  1640.70903706
0.36200002 23345.01872609  1398.24996283
0.36300002 23451.07269156  1408.47149257
0.36400002 23563.20735953  1419.09423045
0.36500002 23680.06457465  1950.05341009
0.36600002 23802.43434172  1441.35647984
0.36700002 23929.14214194  1717.15532144
0.36800002 24061.78667231  1331.81995540
0.36900002 24197.65684279  1880.15802575
0.37000002 24337.02180835  1354.35532779
0.37100002 24480.69940171  2185.63694612
0.37200002 24628.87601319  2204.77708514
0.37300002 24779.85803518  2085.22515244
0.37400002 24935.44132592  1683.14236923
0.37500002 25093.06301587  1556.77370325
0.37600002 25255.09448995  1999.44592549
0.37700002 25418.64782579  1585.36114000
0.37800002 25585.93388605  1600.01645136
0.37900002 25755.70674567  1614.88288945
0.38000002 25927.97301912  1629.96210106
0.38100002 26102.04827132  1645.21218048
0.38200002 26278.64106021  2264.56200064
0.38300002 26456.92981640  2590.66269035
0.38400002 26637.70920307  1692.16055729
0.38500002 26819.21347822  1708.11578735
0.38600002 27003.38712864  1724.30136679
0.38700002 27187.75143609  2057.02537111
0.38800002 27373.61570471  1756.97560724
0.38900002 27560.84666835  1934.77152778
0.39000002 27749.61923873  2278.52134364
0.39100002 27938.30475775  1642.77239758
0.39200002 28128.53405713  1989.81259347
0.39300002 28318.87121340  1841.00990480
0.39400002 28510.59075104  1858.17784023
0.39500002 28701.66153118  2386.83028601
0.39600002 28893.08930954  2408.81696986
0.39700002 29084.31745653  2257.23398474
0.39800002 29276.84180322  2102.66287793
0.39900002 29468.16082526  2652.13459993
0.40000002 29659.16650572  1783.99894984
0.40100002 29850.11128032  2159.95415458
0.40200002 30041.46675638  2724.01012720
0.40300002 30231.29379401  2015.21813979
0.40400002 30420.65701132  2032.86050110
0.40500002 30609.40747023  2982.58080522
0.40600002 30797.49106174  2068.20561024
0.40700002 30984.60694566  2085.88383841
0.40800002 31170.75738345  1912.32605608
0.40900002 31355.29578866  3663.86648651
0.41000002 31539.44436420  2722.16957206
0.41100002 31721.99364453  2548.54509016
0.41200002 31902.53970576  2964.54364263
0.41300002 32082.33962984  1992.31338541
0.41400002 32260.28960263  2409.84374750
0.41500002 32437.24732348  3238.53492623
0.41600002 32611.36654014  2243.82518112
0.41700002 32784.47620656  2261.14543111
0.41800002 32956.75090314  2485.59827089
0.41900002 33125.04367803  2295.56563566
0.42000002 33292.34076915  2733.13484495
0.42100002 33458.11271263  2117.89863507
0.42200002 33621.62572632  2773.27992945
0.42300002 33782.53617332  2363.42634268
0.42400002 33941.25657280  3245.63281357
0.42500002 34098.19910158  2614.65003101
0.42600002 34251.38717654  3071.32203366
0.42700002 34403.56276838  2871.32148471
0.42800002 34552.84934426  2223.47596067
0.42900002 34700.22958460  2685.79789712
0.43000002 34845.01340239  2928.54929018
0.43100002 34985.92358693  2493.79675145
0.43200002 35125.03996860  2737.64574488
0.43300002 35261.18541655  2525.05360734
0.43400002 35395.06138682  2540.48065143
0.43500002 35525.51842412  3020.37971955
0.43600002 35654.38267437  2337.14489506
0.43700002 35779.39536383  3055.91830284
0.43800002 35900.75086213  3782.50329008
0.43900002 36020.37920357  3090.54868213
0.44000002 36136.32388953  3107.54332015
0.44100002 36249.85534603  2403.36552334
0.44200002 36360.27427426  2657.75437403
0.44300002 36467.80152113  2428.75569641
0.44400002 36571.59713711  3173.50049197
0.44500002 36671.76315768  2698.67517867
0.44600002 36769.57335767  2958.48001256
0.44700002 36864.47010025  3715.93876221
0.44800002 36954.92045565  3235.58821383
0.44900002 37043.75516110  2500.45359188
0.45000002 37128.99336535  4521.19773637
0.45100002 37209.80505784  2775.10739273
0.45200002 37288.25334323  3293.85801518
0.45300002 37362.81221888  3053.28915923
0.45400002 37434.72523554  3321.39615393
0.45500002 37503.21524529  3334.78605766
0.45600002 37568.11030067  2575.29408316
0.45700002 37629.60221369  3102.18455352
0.45800002 37687.16901792  2854.23788085
0.45900002 37741.83953836  3125.02446188
0.46000002 37793.70707842  4181.49594934
0.46100002 37840.90326955  4195.79955339
0.46200002 37885.73540945  2894.28089378
0.46300002 37926.76432837  2903.67321460
0.46400002 37963.88733128  2647.98126686
0.46500002 37998.60492324  2921.71287102
0.46600002 38028.92731757  2930.31913334
0.46700002 38056.00883997  3472.99153134
0.46800002 38080.35404329  4018.42955088
0.46900002 38100.52642044  3223.30468794
0.47000002 38116.88346874  3770.14112258
0.47100002 38130.46080140  3239.56410323
0.47200002 38140.29264571  2976.65928062
0.47300002 38147.59441093  4610.89995499
0.47400002 38149.72288630  2718.16788448
0.47500002 38149.83203981  3541.06757777
0.47600002 38146.73394858  4367.03830942
0.47700002 38139.02608795  3554.93879016
