# SAXS profile: number of points = 501, q_min = 0, q_max = 0.5, delta_q = 0.001
#    q    intensity    error
0.00000000 1682732.95097188 277.65093691
0.00100000 1682663.76907501 555.27905698
0.00200000 1682456.16364701 984.23688690
0.00300000 1682110.31203838 1211.11946781
0.00400000 1681626.07148659 2522.43920308
0.00500000 1681003.92394028 1512.90359143
0.00600000 1680243.58700596 2117.10700582
0.00700000 1679345.69536381 3828.90834456
0.00800000 1678309.75340225 3172.00556785
0.00900000 1677137.04655556 3521.98794832
0.01000000 1675826.77354142 3318.13715489
0.01100000 1674380.20159255 4219.43829172
0.01200000 1672796.76448635 4240.53998389
0.01300000 1671077.88133831 3860.19007614
0.01400000 1669222.74327193 3755.75133886
0.01500000 1667233.19703500 5201.76780638
0.01600000 1665108.09786938 4670.62842332
0.01700000 1662849.53649166 8530.41850487
0.01800000 1660457.06001417 5205.53311738
0.01900000 1657931.42392989 8455.45064357
0.02000000 1655273.23018061 7299.75527531
0.02100000 1652484.18964561 7089.15749499
0.02200000 1649562.48300475 6260.08990741
0.02300000 1646510.91183232 7112.92746288
0.02400000 1643329.53493373 6778.73464070
0.02500000 1640019.58010760 10233.72264725
0.02600000 1636581.13664131 7953.78468787
0.02700000 1633015.55463053 10973.86502973
0.02800000 1629322.36601994 13466.34997272
0.02900000 1625504.34428177 8777.72386214
0.03000000 1621561.84111949 8294.28919858
0.03100000 1617494.93463426 10093.16885654
0.03200000 1613304.57785248 12777.37284509
0.03300000 1608993.93026875 11488.21719173
0.03400000 1604560.69981348 11793.52168779
0.03500000 1600008.42496495 12096.06425131
0.03600000 1595336.64082055 14166.59002518
0.03700000 1590547.37209015 11785.95657226
0.03800000 1585641.72622471 10203.60498047
0.03900000 1580621.24122488 12328.84625250
0.04000000 1575484.62830876 11627.07709571
0.04100000 1570235.98483679 9892.48716315
0.04200000 1564875.41952410 15140.17038629
0.04300000 1559403.24671399 10292.06190605
0.04400000 1553823.00095295 13634.79746659
0.04500000 1548134.21117658 13886.76451950
0.04600000 1542337.57455807 11960.82844672
0.04700000 1536435.99791949 14381.04160936
0.04800000 1530429.80300106 13498.39149052
0.04900000 1524321.66689586 11432.41303387
0.05000000 1518111.25748536 16258.97232479
0.05100000 1511801.79883594 15329.67095431
0.05200000 1505391.57572698 14361.43630170
0.05300000 1498885.97136644 13355.07462746
0.05400000 1492283.37776273 14773.60612880
0.05500000 1485587.82505233 14974.72597509
0.05600000 1478797.50476787 21494.32273482
0.05700000 1471917.96508879 17927.96165163
0.05800000 1464947.31545860 18150.69808603
0.05900000 1457887.85558204 14433.09044437
0.06000000 1450742.21074080 15929.15021812
0.06100000 1443512.16893532 16109.59655814
0.06200000 1436197.81228854 14929.27695659
0.06300000 1428802.59149383 16459.80662359
0.06400000 1421324.64308344 13857.91591815
0.06500000 1413769.98155178 15395.95581929
0.06600000 1406136.64335898 14131.67392696
0.06700000 1398427.79160945 21395.94621293
0.06800000 1390646.24974851 17271.82723035
0.06900000 1382792.39630290 17423.18500915
0.07000000 1374866.44583359 20499.25966733
0.07100000 1366872.95715142 16238.45149153
0.07200000 1358810.66250888 22318.46617726
0.07300000 1350684.62101103 14992.59999571
0.07400000 1342494.02578093 16613.36434761
0.07500000 1334241.30378821 16731.38673375
0.07600000 1325926.69249547 19908.79022116
0.07700000 1317555.35314813 16956.93819010
0.07800000 1309125.99841568 18615.77257048
0.07900000 1300640.45092524 17168.45475748
0.08000000 1292102.69971142 21978.66795313
0.08100000 1283513.01673009 18944.65301579
0.08200000 1274871.91037958 19046.58723484
0.08300000 1266183.11002627 20740.08031560
0.08400000 1257446.54704123 19238.93307278
0.08500000 1248666.51845081 17718.57872862
0.08600000 1239842.41318496 22651.92195243
0.08700000 1230977.25327510 16248.90050624
0.08800000 1222070.22065352 24471.95731788
0.08900000 1213127.40076793 21290.38688348
0.09000000 1204147.18325205 16436.60982351
0.09100000 1195132.49112578 18142.11206763
0.09200000 1186084.24854941 21509.63885811
0.09300000 1177005.74765272 21574.51636831
0.09400000 1167895.62614197 21635.26749108
0.09500000 1158758.17412911 21691.95403928
0.09600000 1149593.96871967 20071.91163738
0.09700000 1140406.72776019 16763.97968620
0.09800000 1131196.71352354 26877.23517702
0.09900000 1121965.93524709 18512.43880208
0.10000000 1112714.24614520 20229.14594624
0.10100000 1103444.62568121 20259.24428034
0.10200000 1094159.08764291 20285.71043906
0.10300000 1084858.62279148 18616.17484282
0.10400000 1075545.67404040 22021.79871199
0.10500000 1066223.22839669 23734.13018079
0.10600001 1056887.57331840 18659.35098492
0.10700001 1047546.32562435 20364.30152843
0.10800001 1038196.76253196 20369.42143950
0.10900001 1028843.31006337 23766.28158104
0.11000001 1019485.88224517 16974.44073836
0.11100001 1010126.63829890 22061.16681894
0.11200001 1000768.20447068 22051.92842365
0.11300001 991408.77055841 27124.94523954
0.11400001 982053.78280631 25410.64282656
0.11500001 972703.06824021 23695.04785808
0.11600001 963357.41305207 20288.30807428
0.11700001 954020.22836379 21952.00648848
0.11800001 944689.77481326 16862.71327462
0.11900001 935369.87346929 21887.65607013
0.12000001 926061.07225956 21850.41202923
0.12100001 916766.82484760 20132.20042204
0.12200001 907485.29171107 25114.65663129
0.12300001 898220.44507573 20048.28127865
0.12400001 888971.53005003 18335.03867118
0.12500001 879741.34565042 26603.37954603
0.12600001 870532.06515297 16583.63662264
0.12700001 861343.49297847 26460.47335128
0.12800001 852176.12132585 24734.41308720
0.12900001 843032.81692996 24658.71105742
0.13000001 833914.66654148 18025.06636690
0.13100001 824821.32171794 22864.04811578
0.13200001 815756.49874824 17901.77720893
0.13300001 806720.91438708 16215.09114361
0.13400001 797713.50866269 17769.06924320
0.13500001 788737.82201126 20917.32802595
0.13600001 779793.45417831 24037.13435842
0.13700001 770882.74280221 20744.45558698
0.13800001 762004.81780010 23831.70180050
0.13900001 753164.68343503 18979.75091761
0.14000001 744359.05693424 20466.15323560
0.14100001 735591.69617234 25068.96618788
0.14200001 726861.53649114 20268.53490103
0.14300001 718173.62233600 17063.80607156
0.14400001 709521.76677093 15432.09915520
0.14500001 700915.16527361 16885.04712794
0.14600001 692348.47181529 18319.54142844
0.14700001 683827.96984850 18217.17797619
0.14800001 675349.13183420 22641.08071292
0.14900001 666915.14823752 25509.50562364
0.15000001 658527.66767481 14915.65237660
0.15100001 650187.03034057 17789.11798950
0.15200001 641894.66633598 19150.92827381
0.15300001 633650.77676243 16101.06699733
0.15400001 625453.89380491 15995.98408893
0.15500001 617308.83480362 17334.03289933
0.15600001 609212.55012417 15781.65185578
0.15700001 601170.88847744 18522.07594817
0.15800001 593176.79235231 15561.99388187
0.15900001 585238.68504927 23877.73947705
0.16000001 577351.36681870 16731.64340018
0.16100001 569521.21517714 20759.04927312
0.16200001 561743.32728162 17855.01250051
0.16300001 554021.90368016 14991.83342132
0.16400001 546355.70173462 18931.22595884
0.16500001 538746.32739795 16097.74102265
0.16600001 531193.25900960 19959.58764964
0.16700001 523697.18829558 14516.88674496
0.16800001 516258.14029424 14395.85892183
0.16900001 508879.41031284 12976.42557570
0.17000001 501558.69408557 23156.96599940
0.17100001 494296.95905838 16578.72078969
0.17200001 487094.89583494 13904.12445820
0.17300001 479952.94021025 12526.77233106
0.17400001 472872.19510851 13654.18527859
0.17500001 465851.34957733 19677.56193547
0.17600001 458889.95511934 13401.88177222
0.17700001 451992.27551735 12068.19432630
0.17800001 445155.39761864 15538.14988778
0.17900001 438380.06200018 13019.88845638
0.18000001 431667.89588459 15235.71910491
0.18100001 425018.98917428 11603.01895254
0.18200001 418429.87439199 13783.08071356
0.18300001 411906.40387629 19326.64938285
0.18400001 405444.36952138 18001.73085716
0.18500001 399046.82047360 14473.42886233
0.18600001 392712.16897120 14320.24991807
0.18700001 386440.69114256 11987.39080558
0.18800001 380232.17345977 11857.54088957
0.18900001 374089.83727262 13860.02912580
0.19000001 368007.19918502 12652.08810578
0.19100001 361993.19754986 12510.48549844
0.19200001 356039.68347985 11338.08425616
0.19300001 350152.62278169 14265.21852619
0.19400001 344328.36890066 15107.40789940
0.19500001 338568.80059584 12940.10017026
0.19600001 332872.12797429 12787.28340041
0.19700001 327240.19138347 10690.93755773
0.19800001 321672.13976571 11522.29659094
0.19900001 316168.98156670 12330.59086384
0.20000001 310727.71650734 13115.81753364
0.20100001 305352.01291986 12027.81635738
0.20200001 300038.67482805 10963.41369639
0.20300001 294789.65863722 10824.67677678
0.20400001 289604.23310001 11576.92976537
0.20500001 284481.20858860 10548.56371306
0.20600001 279422.21619577 9543.66624528
0.20700001 274425.92856936 10274.50725130
0.20800001 269492.13713672 11828.01045804
0.20900001 264623.36791932 10002.76378019
0.21000001 259814.77266576 9867.76553232
0.21100001 255068.50517476 8922.29673280
0.21200001 250384.59909762 8799.76715129
0.21300001 245762.14621480 8677.86179309
0.21400001 241202.41669657 10112.41179808
0.21500001 236704.36357304 10736.91043929
0.21600001 232265.90828847 9072.30680667
0.21700001 227889.19712824 8942.37251810
0.21800001 223573.04512920 8078.81236771
0.21900001 219315.81073802 7961.16430621
0.22000001 215118.69017382 10696.77737466
0.22100001 210983.53324696 7025.75198933
0.22200001 206906.30128660 7613.11771582
0.22300001 202888.23307723 8180.45394449
0.22400001 198927.15695372 10070.68779699
0.22500001 195027.50657801 8594.86262132
0.22600001 191184.12480879 8462.76568485
0.22700001 187399.22258940 7690.86445876
0.22800001 183670.96568894 9463.64695466
0.22900001 179999.24780549 6209.97434296
0.23000001 176384.40226711 6722.89181035
0.23100001 172827.02362955 7217.25684809
0.23200001 169323.77569839 8876.79936080
0.23300001 165876.98408583 5822.28241677
0.23400001 162485.12269812 8018.64118440
0.23500001 159146.58350190 6760.54718691
0.23600001 155863.11933798 5540.93415453
0.23700001 152633.17637038 5449.00465415
0.23800001 149456.72485603 5893.82622347
0.23900001 146333.13068658 7901.98943084
0.24000001 143261.78833571 5696.80528263
0.24100001 140243.58882786 7127.17952136
0.24200001 137276.41351051 7005.21571280
0.24300001 134360.40827249 5409.35029293
0.24400001 131494.56569290 5798.91062137
0.24500001 128679.41097875 5697.92458768
0.24600001 125914.13022937 6064.65436939
0.24700001 123199.01524847 5957.90465926
0.24800001 120531.61786833 5402.22736842
0.24900001 117912.51947831 5306.06362754
0.25000001 115342.16365873 6079.68573407
0.25100001 112818.58147923 5970.35961433
0.25200001 110343.23490312 5443.78375149
0.25300001 107914.33479304 4933.84362016
0.25400001 105530.88886335 4843.86802800
0.25500001 103193.11626197 5151.40060752
0.25600001 100900.98847692 4278.70661880
0.25700001 98653.24276907  4581.45681096
0.25800001 96449.64687654  4496.48275013
0.25900001 94290.04268943  4780.50539054
0.26000001 92174.15030203  3608.61815507
0.26100001 90099.02434447  4603.15937156
0.26200001 88068.64285409  4169.16974998
0.26300001 86078.75328144  3749.59067036
0.26400001 84129.95296875  4347.41552537
0.26500001 82222.91002411  4264.90254476
0.26600001 80355.27867944  3861.87487608
0.26700001 78528.62928834  4735.27657016
0.26800001 76741.15236337  4025.45733771
0.26900001 74991.94808515  4252.04365764
0.27000001 73281.94655867  2978.91126858
0.27100001 71609.72582986  4090.34773297
0.27200001 69975.22226656  4011.67968239
0.27300001 68377.33175619  3653.40100863
0.27400001 66814.91835738  3031.72706394
0.27500001 65290.76899796  4054.55694666
0.27600001 63800.26758477  2915.99136796
0.27700001 62346.30245096  3899.76140287
0.27800001 60926.17719937  3569.66489105
0.27900001 59540.65086104  3250.91969087
0.28000001 58188.53038536  2697.91133901
0.28100001 56869.50137530  3367.81203084
0.28200001 55583.75393753  3303.34265285
0.28300001 54330.18651378  2314.46605503
0.28400001 53108.62240757  2497.43308692
0.28500001 51918.70568654  2450.04383731
0.28600001 50759.00940397  2185.17545827
0.28700001 49630.19699999  2358.42707307
0.28800001 48530.87511469  2524.57624296
0.28900001 47462.64395221  2684.01264254
0.29000001 46422.13545726  2634.22420121
0.29100001 45411.50124488  2386.82861841
0.29200001 44428.53358827  2538.42438672
0.29300001 43473.38404573  2300.61159260
0.29400001 42545.56754567  2447.43388892
0.29500001 41645.65735920  2218.88072913
0.29600001 40771.26643037  1997.99600600
0.29700001 39922.76242407  2855.27610373
0.29800001 39100.70218723  2630.49986417
0.29900001 38303.59348227  2757.85886128
0.30000001 37531.35744380  1694.54086881
0.30100001 36784.42770065  1999.60158447
0.30200001 36060.26107737  2294.51452098
0.30300001 35360.21888845  1612.42605765
0.30400001 34684.09916513  2221.51665670
0.30500001 34029.61137399  1561.95923601
0.30600001 33397.74365947  1845.55940200
0.30700001 32788.46916101  1666.31008165
0.30800001 32200.65369266  1940.25048011
0.30900001 31633.89359118  1618.07373380
0.31000001 31088.77765138  1595.32070071
0.31100001 30562.56048872  1430.32789859
0.31200001 30057.61222226  1693.44595278
0.31300001 29571.73811984  1392.82893139
0.31400001 29106.70320357  1512.82097063
0.31500001 28659.44950080  1630.14956479
0.31600002 28231.19426575  1879.35069125
0.31700002 27820.64687010  1592.45390224
0.31800002 27428.44554564  1312.45118150
0.31900002 27054.03069088  1298.59353465
0.32000002 26696.56484864  1799.61552166
0.32100002 26356.24536855  1527.60805389
0.32200002 26032.61253059  1387.40815051
0.32300002 25724.40718004  1500.24749778
0.32400002 25432.48549077  1239.83372638
0.32500002 25155.59791004  1845.16319407
0.32600002 24894.40896888  1465.28498129
0.32700002 24647.83385434  1455.20817967
0.32800002 24416.61548672  1566.44804073
0.32900002 24198.25004394  1557.15746406
0.33000002 23995.57628590  1310.51846091
0.33100002 23804.01642591  1778.16011122
0.33200002 23628.18073875  1180.22768379
0.33300002 23464.07981752  1410.66054543
0.33400002 23313.42837885  1171.49983151
0.33500002 23174.50550162  1635.19318563
0.33600002 23047.83907572  1514.58881659
0.33700002 22932.20710034  1278.92925055
0.33800002 22829.54122241  1393.05867136
0.33900002 22736.82765819  1507.45174513
0.34000002 22655.78261381  1158.84333558
0.34100002 22585.06012167  1390.33636693
0.34200002 22525.88758861  1390.74836559
0.34300002 22475.34214744  1623.61879362
0.34400002 22435.62834262  1393.25258606
0.34500002 22405.05512005  1279.10465738
0.34600002 22385.01597052  1514.68217738
0.34700002 22371.98544956  1751.72654366
0.34800002 22369.48279014  1405.25097543
0.34900002 22374.99272619  1879.49947802
0.35000002 22389.05671376  1296.66228099
0.35100002 22411.28651911  1183.31598425
0.35200002 22440.53284665  1901.16203281
0.35300002 22478.02742408  1432.29997530
0.35400002 22523.19724502  1439.23237212
0.35500002 22575.35242696  1446.62865204
0.35600002 22633.99614640  1575.66571636
0.35700002 22699.49526714  1462.75554430
0.35800002 22772.13810237  1594.16360336
0.35900002 22850.62124357  1233.93360560
0.36000002 22935.80527200  1738.76348003
0.36100002 23025.98706295  2125.52896646
0.36200002 23123.15452989  1636.77257093
0.36300002 23223.96584056  1394.83145445
0.36400002 23330.87558741  1660.57514859
0.36500002 23442.33789455  1415.68285251
0.36600002 23559.28381234  1556.32636236
0.36700002 23680.45643518  1307.16125714
0.36800002 23807.51329301  1844.84429246
0.36900002 23937.81178528  1727.11320212
0.37000002 24071.49134974  1875.40997990
0.37100002 24209.48891896  1350.88954567
0.37200002 24351.77384439  1498.72999225
0.37300002 24496.95228918  1786.56281508
0.37400002 24646.62965758  1663.64758069
0.37500002 24798.38332877  1678.35466320
0.37600002 24954.33424976  1834.51796927
0.37700002 25111.95876106  1708.61775504
0.37800002 25273.22524092  1867.81779991
0.37900002 25436.96437151  1739.88844543
0.38000002 25603.19842000  1609.54514492
0.38100002 25771.24271536  1919.69996081
0.38200002 25941.72453074  1788.42257387
0.38300002 26113.95030125  1955.41269119
0.38400002 26288.70258966  1669.98991112
0.38500002 26464.07641277  2145.17813565
0.38600002 26642.23431258  2938.50537272
0.38700002 26820.59033898  2029.24596118
0.38800002 27000.42773706  1733.02253641
0.38900002 27181.62025172  2226.17480408
0.39000002 27364.47121136  1925.91157510
0.39100002 27547.25064235  1943.73409741
0.39200002 27731.47582125  2615.63292338
0.39300002 27915.92281021  1814.81422787
0.39400002 28101.75106053  2997.05189260
0.39500002 28287.07272613  1680.25219954
0.39600002 28472.73238604  2712.88207027
0.39700002 28658.28714832  2737.43971810
0.39800002 28845.04889395  1899.01388391
0.39900002 29030.80174185  1916.03300574
0.40000002 29216.29864947  2284.56858114
0.40100002 29401.69880590  1772.92252200
0.40200002 29587.66965802  1788.57471557
0.40300002 29772.12465993  1984.60992386
0.40400002 29956.13971798  1819.83557409
0.40500002 30139.63370192  2019.05415736
0.40600002 30322.56136363  2591.66944254
0.40700002 30504.56215394  2426.94307996
0.40800002 30685.80574204  2447.34655292
0.40900002 30865.40008263  2088.04441452
0.41000002 31044.66146130  1913.90346977
0.41100002 31222.44841780  2315.45688438
0.41200002 31398.43536460  1945.13316300
0.41300002 31573.60977839  2156.79338616
0.41400002 31747.10256758  1976.25722847
0.41500002 31919.65467447  2589.32250988
0.41600002 32089.48145170  2007.19715991
0.41700002 32258.39690129  2427.12189786
0.41800002 32426.61202444  3464.62152592
0.41900002 32590.90632681  2463.87263506
0.42000002 32754.28706709  2275.27665893
0.42100002 32916.29993343  2708.68244987
0.42200002 33076.16449121  2518.41928370
0.42300002 33233.52609606  3381.84377578
0.42400002 33388.73486833  2979.94472821
0.42500002 33542.34154113  2357.69129865
0.42600002 33692.37532004  2589.59608981
0.42700002 33841.44861462  3258.93165602
0.42800002 33987.70000123  2405.81945859
0.42900002 34132.17888596  2641.83077096
0.43000002 34274.23087276  3102.16078330
0.43100002 34412.45166494  2452.91967091
0.43200002 34549.10117737  3590.34276449
0.43300002 34682.88031180  2709.42673835
0.43400002 34814.40714309  3180.29624323
0.43500002 34942.78937662  3199.36194694
0.43600002 35069.61937735  2528.69502504
0.43700002 35192.70153472  3005.80878052
0.43800002 35312.29939856  3022.90953327
0.43900002 35430.29345969  3039.91932290
0.44000002 35544.70212966  3526.92323596
0.44100002 35656.83862708  2600.45336431
0.44200002 35765.95512511  3089.64217990
0.44300002 35872.37650561  3344.74054389
0.44400002 35975.21303358  2641.48014217
0.44500002 36074.44910746  2413.38075966
0.44600002 36171.52225724  2910.36081874
0.44700002 36265.76372851  2680.76538186
0.44800002 36355.81826009  2448.56447586
0.44900002 36444.25710668  2705.98621841
0.45000002 36529.22930515  2471.20247961
0.45100002 36609.90735681  2730.36702007
0.45200002 36688.41760374  3240.87152262
0.45300002 36763.15590364  2503.57103569
0.45400002 36835.34550852  2514.01245010
0.45500002 36904.26600451  3029.10229721
0.45600002 36969.60463153  3041.11982112
0.45700002 37031.86497516  3561.72494211
0.45800002 37090.21930543  3064.39406425
0.45900002 37145.80389365  2563.06059014
0.46000002 37198.77306903  3086.75433556
0.46100002 37247.18977298  2839.35341096
0.46200002 37293.32584448  3108.02592318
0.46300002 37335.73013629  3378.13702284
0.46400002 37374.45102438  3128.24169900
0.46500002 37410.82505313  3138.02015418
0.46600002 37442.99613114  2885.17020363
0.46700002 37472.02247938  3945.80415409
0.46800002 37498.40363981  3165.61538531
0.46900002 37520.73782591  2645.21214210
0.47000002 37539.47579765  2652.16409081
0.47100002 37555.42165065  3456.60117256
0.47200002 37567.80819801  4531.24140057
0.47300002 37577.67818726  2938.95035032
0.47400002 37582.70068581  4819.98159141
0.47500002 37585.64409552  4025.42267343
0.47600002 37585.56032524  2958.17166561
