# SAXS profile: number of points = 501, q_min = 0, q_max = 0.5, delta_q = 0.001
#    q    intensity    error
0.00000000 1682732.95097189 277.65093691
0.00100000 1682663.79107539 504.79914931
0.00200000 1682456.25317026 984.23693927
0.00300000 1682110.51744964 1211.11961571
0.00400000 1681626.43716661 1387.34186338
0.00500000 1681004.48206218 1512.90409374
0.00600000 1680244.38227815 2117.10800786
0.00700000 1679346.81556332 2418.25951491
0.00800000 1678311.20043525 3398.58032437
0.00900000 1677138.86306807 4025.13344343
0.01000000 1675829.04810763 2765.11804877
0.01100000 1674382.91946804 3616.66726352
0.01200000 1672800.03113456 3914.35224447
0.01300000 1671081.70578241 4912.98043169
0.01400000 1669227.17127195 3755.76130186
0.01500000 1667238.26713400 4801.64642316
0.01600000 1665113.85868573 4670.64458241
0.01700000 1662856.02789524 4938.68262439
0.01800000 1660464.31224230 5205.55585312
0.01900000 1657939.56210508 4973.81891075
0.02000000 1655282.23059391 5735.55318846
0.02100000 1652494.11858894 8179.84625788
0.02200000 1649573.37077925 10812.95393672
0.02300000 1646522.78891454 8891.22346485
0.02400000 1643342.43648987 7395.04130140
0.02500000 1640033.60758381 8314.97077020
0.02600000 1636596.22254334 6628.21500446
0.02700000 1633031.82153520 11659.84773980
0.02800000 1629339.84526751 7796.39151714
0.02900000 1625523.12836459 8046.33985485
0.03000000 1621581.88857685 9802.46296702
0.03100000 1617516.29820180 9316.89430634
0.03200000 1613327.31487940 11180.35880706
0.03300000 1609018.11565901 9847.19132179
0.03400000 1604586.36821054 8424.07882180
0.03500000 1600035.63688786 10368.23140582
0.03600000 1595365.33348548 11510.56141304
0.03700000 1590577.64224873 11786.18087414
0.03800000 1585673.64624173 9276.19125981
0.03900000 1580654.84881194 12329.10839169
0.04000000 1575519.92111702 15503.11674219
0.04100000 1570272.90640609 13849.80767667
0.04200000 1564914.14540996 14131.17538864
0.04300000 1559443.82318846 13380.02862403
0.04400000 1553865.41448010 10488.59203485
0.04500000 1548178.47384129 13887.16155562
0.04600000 1542383.80412715 11961.18695704
0.04700000 1536484.18741136 12168.95533025
0.04800000 1530479.97675574 13498.83402306
0.04900000 1524373.95399609 12576.08570585
0.05000000 1518165.56439876 13936.76053016
0.05100000 1511858.18969422 12971.74387185
0.05200000 1505450.10198843 16755.66041597
0.05300000 1498946.69961271 16998.05636602
0.05400000 1492346.18753166 14774.22794554
0.05500000 1485652.88859307 13727.43333097
0.05600000 1478864.84499672 17702.01302066
0.05700000 1471987.68320880 12806.29344170
0.05800000 1465019.41282885 19448.13361338
0.05900000 1457962.25929121 22306.82360901
0.06000000 1450818.97472049 18584.99193444
0.06100000 1443591.49106750 17453.02194261
0.06200000 1436279.47759770 14930.12586751
0.06300000 1428886.76079576 13717.31354500
0.06400000 1421411.27698631 19402.26483824
0.06500000 1413859.24524704 15396.92790097
0.06600000 1406228.55469223 15545.85739949
0.06700000 1398522.12928636 22823.88221809
0.06800000 1390743.21698936 17273.03156354
0.06900000 1382891.93950589 17424.43925357
0.07000000 1374968.67721516 14643.41709807
0.07100000 1366977.72474899 16239.69613065
0.07200000 1358918.34443661 17856.18788240
0.07300000 1350795.15158812 17992.59226221
0.07400000 1342607.21163835 18125.19820654
0.07500000 1334357.32171159 15211.67418052
0.07600000 1326045.54699650 15315.82678582
0.07700000 1317676.96392403 23125.23180117
0.07800000 1309250.41564188 15514.61815293
0.07900000 1300767.92899510 17170.13746808
0.08000000 1292232.99452141 15700.63161997
0.08100000 1283646.26309360 20525.50470989
0.08200000 1275007.97231231 17461.23500019
0.08300000 1266322.00819100 17551.22385724
0.08400000 1257588.49091197 19241.10481410
0.08500000 1248811.44113994 20942.56885107
0.08600000 1239990.35707096 22654.62488736
0.08700000 1231128.24467792 22751.25102999
0.08800000 1222224.10902342 22843.36967046
0.08900000 1213284.36051697 24569.00945447
0.09000000 1204307.28212324 18082.67469052
0.09100000 1195295.50658138 23093.11027209
0.09200000 1186250.33266805 18203.01221009
0.09300000 1177175.01379037 23237.43586420
0.09400000 1168067.99370788 21638.46060039
0.09500000 1158933.47908538 20026.37145989
0.09600000 1149772.47413892 16729.19028512
0.09700000 1140588.38737524 20119.98009920
0.09800000 1131381.52072051 23521.42292170
0.09900000 1122153.93465892 20198.77177366
0.10000000 1112905.11816520 25290.76999966
0.10100000 1103638.92073093 18574.24390948
0.10200000 1094356.60920618 25361.71561127
0.10300000 1085059.01922147 23697.69009455
0.10400000 1075749.32131464 22025.96839013
0.10500000 1066430.05213131 18651.86248933
0.10600001 1057097.52713795 16966.41610889
0.10700001 1047759.33757771 20368.44248100
0.10800001 1038413.00407007 20373.66409867
0.10900001 1029062.54478754 27167.25246104
0.11000001 1019708.50308738 20373.77685067
0.11100001 1010352.36467337 25460.88078830
0.11200001 1000996.96834386 16966.89941218
0.11300001 991640.84870178 16957.05931115
0.11400001 982288.93015712 16944.48484303
0.11500001 972941.20942776 27086.68454593
0.11600001 963598.74959548 16911.15885177
0.11700001 954264.59650279 16890.48415356
0.11800001 944937.34667100 18553.84567574
0.11900001 935620.39644203 18525.28472212
0.12000001 926314.79109915 20175.13710049
0.12100001 917023.67363863 20137.84082176
0.12200001 907745.04820559 20097.47631409
0.12300001 898483.43045696 21725.33037203
0.12400001 889237.51260176 18340.52456157
0.12500001 880010.44342411 16632.19816443
0.12600001 870804.02708966 18247.69924756
0.12700001 861618.59489610 23160.30892227
0.12800001 852454.11244023 18144.48663843
0.12900001 843313.80477529 18089.08196501
0.13000001 834198.56119014 18031.20275002
0.13100001 825108.25424287 24505.71630615
0.13200001 816045.99361674 21164.15384214
0.13300001 807013.57633082 22709.36310854
0.13400001 798009.10150438 21007.59058752
0.13500001 789036.17946045 19315.60658389
0.13600001 780094.45267269 20840.22428578
0.13700001 771186.63704767 20752.63338151
0.13800001 762311.48874657 17483.61481886
0.13900001 753473.98985778 20569.84089315
0.14000001 744671.28099156 18899.75800289
0.14100001 735906.67061493 15674.81282337
0.14200001 727179.10421186 15597.99252103
0.14300001 718493.83863226 15519.46764647
0.14400001 709844.72824064 23158.68535124
0.14500001 701240.48375700 18428.60078245
0.14600001 692676.45428743 21382.92315258
0.14700001 684158.64229005 22782.48386306
0.14800001 675682.24031429 24162.39805359
0.14900001 667250.60321422 15013.13928065
0.15000001 658865.72697526 14923.30942011
0.15100001 650527.29856167 16315.22541776
0.15200001 642237.32498386 20635.08622544
0.15300001 633995.71095385 19038.89209837
0.15400001 625801.12158665 14549.87676351
0.15500001 617658.48513556 26015.77662167
0.15600001 609564.28312007 17226.28745397
0.15700001 601524.88772472 18532.98266550
0.15800001 593532.95728807 15571.33786940
0.15900001 585596.89959835 16865.19150448
0.16000001 577711.61948337 15346.90989599
0.16100001 569883.49695440 18002.62051859
0.16200001 562107.50618794 13743.52917507
0.16300001 554388.13195310 16365.53842784
0.16400001 546723.80220908 17590.83916653
0.16500001 539116.31049342 21478.39482408
0.16600001 531565.02369854 18641.98626125
0.16700001 524070.72342150 18489.21599527
0.16800001 516633.40507087 18335.32041169
0.16900001 509256.42381943 19479.05913086
0.17000001 501937.10533132 12874.68735969
0.17100001 494677.19518791 15315.20668622
0.17200001 487476.48923206 13915.01704224
0.17300001 480335.94087410 17551.47610840
0.17400001 473256.90237257 16149.89255616
0.17500001 466237.37585318 14770.40076460
0.17600001 459277.32606860 14632.57629963
0.17700001 452380.87726351 15702.14099144
0.17800001 445545.23739595 11962.89018911
0.17900001 438770.98334608 13031.49882090
0.18000001 432060.00681457 14076.51568692
0.18100001 425412.30666334 12775.13217255
0.18200001 418824.16627226 14945.74107943
0.18300001 412301.67145970 12517.47933683
0.18400001 405840.63690721 14640.70166806
0.18500001 399443.84429141 12258.93216044
0.18600001 393109.99899422 12129.40959200
0.18700001 386839.24722195 13090.64074446
0.18800001 380631.60112225 15107.26896230
0.18900001 374489.81302293 13874.84822805
0.19000001 368407.75890231 15832.32418688
0.19100001 362394.31360623 11480.65239751
0.19200001 356441.21223358 14446.56301445
0.19300001 350554.63763693 12241.36852472
0.19400001 344730.79324367 12100.05141463
0.19500001 338971.60327971 13952.07185030
0.19600001 333274.91163797 18711.72079816
0.19700001 327643.19030306 14596.50481780
0.19800001 322075.44780617 10575.34782849
0.19900001 316572.39155114 14245.75829306
0.20000001 311131.03299860 10318.66119707
0.20100001 305755.33476849 11117.26449761
0.20200001 300441.80705703 17382.06156882
0.20300001 295192.73118795 9936.18780142
0.20400001 290007.00261430 12484.80205265
0.20500001 284883.85106071 10563.49369663
0.20600001 279824.46310578 11295.11498716
0.20700001 274827.72409144 11147.01301606
0.20800001 269893.49694324 13537.85844661
0.20900001 265024.18656078 8348.26227130
0.21000001 260215.04919899 9059.38736612
0.21100001 255468.25512539 10561.05816614
0.21200001 250783.46949268 8813.78545199
0.21300001 246160.25883848 13432.96595987
0.21400001 241599.64279766 10129.06550316
0.21500001 237100.75308185 9218.47771565
0.21600001 232661.43881717 10602.38226816
0.21700001 228283.65538272 8211.36347235
0.21800001 223966.48225792 8828.75914804
0.21900001 219708.22078242 8700.44595435
0.22000001 215509.80341750 9287.39541741
0.22100001 211373.45765292 7038.73647266
0.22200001 207294.89169421 8320.81734605
0.22300001 203275.38735693 7513.05867197
0.22400001 199312.85220033 7399.48998783
0.22500001 195411.76480756 10599.13462437
0.22600001 191566.82686488 7175.13583952
0.22700001 187780.38011301 8348.71609463
0.22800001 184050.41400923 8218.77162625
0.22900001 180377.04511977 9956.81336148
0.23000001 176760.37081447 6737.22185221
0.23100001 173201.25519209 9041.10594861
0.23200001 169695.97831852 6523.96219500
0.23300001 166247.20845791 7002.33275142
0.23400001 162853.32389995 8036.81191457
0.23500001 159512.72246641 7905.45089933
0.23600001 156227.18590313 7775.42741015
0.23700001 152994.95276499 6554.30408646
0.23800001 149816.36192951 7519.28356089
0.23900001 146690.39475450 8449.36713751
0.24000001 143616.66943583 7268.43998395
0.24100001 140596.06004081 5103.63722089
0.24200001 137626.38486095 6019.77835857
0.24300001 134707.88767065 7888.49427514
0.24400001 131839.52996276 8236.67502405
0.24500001 129021.73668214 5713.08277054
0.24600001 126253.71652890 6548.78058614
0.24700001 123535.87130489 5974.19501892
0.24800001 120865.76105214 5868.63730551
0.24900001 118243.81350513 4434.14321621
0.25000001 115670.55853509 5225.99608185
0.25100001 113144.04944230 5987.58337975
0.25200001 110665.68374347 4619.73918643
0.25300001 108233.73808604 7835.04067073
0.25400001 105847.10959258 4453.51734681
0.25500001 103506.24458754 4372.10397823
0.25600001 101210.96005710 4291.85096428
0.25700001 98959.86455081  4212.72163325
0.25800001 96753.09687753  4134.74379069
0.25900001 94590.11438239  4795.71902610
0.26000001 92470.86917821  4344.28163954
0.26100001 90392.31277813  4262.90167232
0.26200001 88358.46729419  4531.46420960
0.26300001 86365.06964811  4104.06830387
0.26400001 84412.71088758  4697.56758317
0.26500001 82502.11783224  3950.20158873
0.26600001 80630.81901740  3552.19089990
0.26700001 78800.49741017  4118.11418953
0.26800001 77009.39856494  4971.72700662
0.26900001 75256.39057043  3962.24915103
0.27000001 73542.56879694  2989.50556307
0.27100001 71866.49135395  3811.79888180
0.27200001 70228.17007726  3738.59681099
0.27300001 68626.43436648  3384.65590313
0.27400001 67060.09457240  3319.47483843
0.27500001 65531.91753192  3255.62581706
0.27600001 64037.42769510  3458.98182065
0.27700001 62579.42042350  3392.43054171
0.27800001 61155.26916133  3071.21776263
0.27900001 59765.53991708  3765.22919298
0.28000001 58409.37057722  2708.15059499
0.28100001 57086.25302065  3380.64806389
0.28200001 55796.34147659  2605.41028856
0.28300001 54538.49043041  3020.34174299
0.28400001 53312.73240722  3418.67912742
0.28500001 52118.61109701  3353.83278283
0.28600001 50954.52889395  2193.59257271
0.28700001 49821.43539341  3013.20055522
0.28800001 48717.75844275  3590.25537838
0.28900001 47645.21803480  2072.56708262
0.29000001 46600.38390479  2644.33890984
0.29100001 45585.30213018  2595.62722616
0.29200001 44597.97188770  1960.08095725
0.29300001 43638.37907389  3464.01469486
0.29400001 42706.15456292  2645.64640041
0.29500001 41801.75825038  2598.39741584
0.29600001 40922.89942689  2005.42678135
0.29700001 40069.92001461  2149.35061133
0.29800001 39243.28532571  1760.06143018
0.29900001 38441.73452395  2248.84157611
0.30000001 37664.99923332  2380.80471424
0.30100001 36913.53871440  1839.40172122
0.30200001 36184.87311163  1973.52307294
0.30300001 35480.17714394  1941.47538523
0.30400001 34799.50346252  2228.90830229
0.30500001 34140.50815670  1723.75433844
0.30600001 33504.12931127  2622.87088731
0.30700001 32890.26524744  2127.34245692
0.30800001 32297.87337137  1646.70715180
0.30900001 31726.57002155  1770.34269102
0.31000001 31176.96009747  1599.84578315
0.31100001 30646.10929009  1434.23798268
0.31200001 30136.61075000  1414.91394170
0.31300001 29646.17763779  1815.23554271
0.31400001 29176.50022726  1930.02558141
0.31500001 28724.77510819  1633.86528551
0.31600002 28291.96389030  1614.33953602
0.31700002 27876.88660932  1462.70030965
0.31800002 27480.15800647  1840.89587202
0.31900002 27101.16973218  1430.94182961
0.32000002 26739.17523002  1416.24048312
0.32100002 26394.45950372  1529.82294527
0.32200002 26066.22295785  1641.78113074
0.32300002 25753.53636572  1251.62192664
0.32400002 25457.19455765  1365.14212279
0.32500002 25175.82374836  1600.42719147
0.32600002 24910.19267966  1466.21401055
0.32700002 24659.22555757  1334.55735037
0.32800002 24423.57505826  1687.42488068
0.32900002 24200.85954767  1317.73686477
0.33000002 23993.78623970  1310.42069753
0.33100002 23797.90895411  1422.16310644
0.33200002 23617.76674752  1533.61975637
0.33300002 23449.26474666  1527.25068527
0.33400002 23294.42004224  1638.76252758
0.33500002 23151.31245377  1633.55668410
0.33600002 23020.36780935  1512.78354223
0.33700002 22900.48160347  1277.15991951
0.33800002 22793.62546607  1274.96150082
0.33900002 22696.77688072  1620.54994603
0.34000002 22611.60878295  1619.21738163
0.34100002 22536.90589054  2196.67232118
0.34200002 22473.65576426  1271.89660821
0.34300002 22419.02447602  1503.86823307
0.34400002 22375.37319983  1157.92561793
0.34500002 22340.75217306  1855.17614831
0.34600002 22316.82128247  1510.06778360
0.34700002 22299.89373677  1746.08176229
0.34800002 22293.53378776  1984.01313341
0.34900002 22295.25762930  1521.65140527
0.35000002 22305.50156141  1644.13859796
0.35100002 22323.99297869  1178.70688510
0.35200002 22349.60162944  1183.41146233
0.35300002 22383.34731946  1307.41137885
0.35400002 22424.99577269  1313.54418960
0.35500002 22473.44850428  1800.12331045
0.35600002 22528.51136152  1568.32239271
0.35700002 22590.58783129  1334.42608640
0.35800002 22659.71790536  1464.27104040
0.35900002 22734.74674465  1718.74693530
0.36000002 22816.55566431  1235.51654774
0.36100002 22903.42725056  1616.75300620
0.36200002 22997.30828030  1627.86454373
0.36300002 23094.89738328  1387.07960254
0.36400002 23198.55802527  1778.16955686
0.36500002 23306.89786997  1663.41337977
0.36600002 23420.79156830  2062.90341905
0.36700002 23538.88303099  1429.28104534
0.36800002 23662.92284971  1440.71712595
0.36900002 23790.33392543  1320.36359541
0.37000002 23921.05143689  1464.32723307
0.37100002 24056.19208949  2147.73693149
0.37200002 24195.63305972  1489.12030720
0.37300002 24338.07197957  2048.04885410
0.37400002 24485.04536230  1515.01225356
0.37500002 24634.19880829  1945.11643004
0.37600002 24787.57709273  1962.43257139
0.37700002 24942.66196981  1414.24900068
0.37800002 25101.44649293  1427.01730072
0.37900002 25262.69488957  1439.97367692
0.38000002 25426.56096819  2034.37923944
0.38100002 25592.31639706  1759.72775883
0.38200002 25760.53922054  1923.92596283
0.38300002 25930.53277530  1642.95863448
0.38400002 26103.05144170  2411.92206748
0.38500002 26276.41125884  1673.54471236
0.38600002 26452.43909623  1689.12057851
0.38700002 26628.94605921  1859.76568088
0.38800002 26806.71001792  1877.00592438
0.38900002 26986.08449495  1894.42322129
0.39000002 27167.04711637  1593.34738886
0.39100002 27348.07096081  1608.06664868
0.39200002 27530.64650126  2109.81119458
0.39300002 27713.44044082  1965.43728918
0.39400002 27897.70724714  1818.23315598
0.39500002 28081.50484815  1668.04146701
0.39600002 28265.67979317  1851.54344257
0.39700002 28449.78759191  2207.98811962
0.39800002 28635.18935425  2056.57939686
0.39900002 28819.62374204  1902.09525709
0.40000002 29003.96292425  1744.58845255
0.40100002 29188.11296553  2112.05195425
0.40200002 29373.01057583  2130.71828812
0.40300002 29556.35026694  2328.44938435
0.40400002 29739.42206920  1987.33697393
0.40500002 29921.95512138  2004.47186855
0.40600002 30104.04134304  2940.56289771
0.40700002 30285.14204914  2780.17617184
0.40800002 30465.64784541  2242.88110065
0.40900002 30644.49150381  2073.09994846
0.41000002 30823.15095098  2470.32155002
0.41100002 31000.28751989  2682.14500331
0.41200002 31175.74345673  1931.33739866
0.41300002 31350.45615217  3114.98147088
0.41400002 31523.53891930  1962.34039071
0.41500002 31695.72434672  2768.93861013
0.41600002 31865.22559736  2192.48695111
0.41700002 32033.90429828  2008.52589467
0.41800002 32201.92786415  2226.28038838
0.41900002 32366.09851110  2039.06430282
0.42000002 32529.33822828  2465.07336775
0.42100002 32691.37552150  2069.36416857
0.42200002 32851.20304914  2501.29071869
0.42300002 33008.63677943  2729.15421825
0.42400002 33164.07634939  2325.63096420
0.42500002 33317.88477272  2767.71681922
0.42600002 33468.09912443  3001.08459070
0.42700002 33617.54456880  2374.07110995
0.42800002 33764.11865738  2172.72113856
0.42900002 33908.99452082  3280.69537535
0.43000002 34051.53256053  2421.57485279
0.43100002 34190.23512043  2880.18554303
0.43200002 34327.44935369  2229.56794118
0.43300002 34461.78813179  3140.84751917
0.43400002 34594.05453065  3611.61946415
0.43500002 34723.12424984  2725.07092026
0.43600002 34850.75253661  2741.36032444
0.43700002 34974.62086883  2527.61596997
0.43800002 35095.10000231  3235.41742254
0.43900002 35214.08694899  2556.54283365
0.44000002 35329.41607672  2570.74508265
0.44100002 35442.58264630  3759.74934529
0.44200002 35552.79915246  2598.73197720
0.44300002 35660.31057869  3324.96751593
0.44400002 35764.32040425  2625.99535013
0.44500002 35864.72252089  3599.02507553
0.44600002 35963.01546042  2652.45233099
0.44700002 36058.58136767  3634.70517411
0.44800002 36149.93864084  2434.69848285
0.44900002 36239.81861730  2690.80665986
0.45000002 36326.23528381  2703.21692676
0.45100002 36408.32256683  2715.33282572
0.45200002 36488.33795949  3471.13575459
0.45300002 36564.62409603  2490.05101895
0.45400002 36638.41384625  3250.74342257
0.45500002 36708.94992787  3264.15998229
0.45600002 36776.01301088  2520.99581137
0.45700002 36839.87817880  2783.98972592
0.45800002 36900.03194079  2794.62405148
0.45900002 36957.34825463  2805.06286547
0.46000002 37012.13878283  3839.08427720
0.46100002 37062.43628947  2568.42695659
0.46200002 37110.46665750  3092.78643782
0.46300002 37154.81270385  3361.76761278
0.46400002 37195.42129712  3113.25691012
0.46500002 37233.84785951  3383.43991535
0.46600002 37268.01599330  3393.81203728
0.46700002 37299.08549973  3927.59388927
0.46800002 37327.59636363  2625.99652864
0.46900002 37352.02664540  3159.98160397
0.47000002 37372.88641879  3168.47346076
0.47100002 37391.04614023  3706.20066908
0.47200002 37405.62652256  2919.32226032
0.47300002 37417.70963300  2926.43920910
0.47400002 37424.90998120  2666.52496255
0.47500002 37430.17211719  3474.26874059
0.47600002 37432.37590957  2946.11528560
0.47700002 37430.18752161  3488.86794425
