# SAXS profile: number of points = 501, q_min = 0, q_max = 0.5, delta_q = 0.001
#    q    intensity    error
0.00000000 1682732.95097189 277.65093691
0.00100000 1682663.81403662 555.27907182
0.00200000 1682456.33622279 832.81591280
0.00300000 1682110.71374689 1312.04640346
0.00400000 1681626.78524568 1513.46416423
0.00500000 1681005.02344131 2118.06641337
0.00600000 1680245.15263072 2293.53472672
0.00700000 1679347.86988674 2821.30453866
0.00800000 1678312.57324527 3172.01089736
0.00900000 1677140.60922720 3018.85322566
0.01000000 1675831.17063041 3318.14586112
0.01100000 1674385.51808103 3616.67287652
0.01200000 1672803.10741213 3914.35944296
0.01300000 1671085.30920626 4211.13516493
0.01400000 1669231.35177133 3755.77070798
0.01500000 1667243.04228709 4801.66017560
0.01600000 1665119.29304426 5944.47614191
0.01700000 1662862.14679070 5387.67359729
0.01800000 1660471.16939758 5205.57735030
0.01900000 1657947.10624769 5471.22569749
0.02000000 1655290.66437707 8342.66532585
0.02100000 1652503.34942752 5998.58743039
0.02200000 1649583.49719455 7398.38232104
0.02300000 1646533.75598326 7113.02614962
0.02400000 1643354.37366662 7395.09501870
0.02500000 1640046.50163732 6396.18164850
0.02600000 1636610.16026453 9942.40717836
0.02700000 1633046.79031364 8230.55620015
0.02800000 1629355.85864756 7087.69831016
0.02900000 1625540.21000370 7314.93128088
0.03000000 1621600.10976670 9048.52902842
0.03100000 1617535.67224973 9317.00590086
0.03200000 1613347.93875368 9583.28719759
0.03300000 1609039.84381410 13129.76573081
0.03400000 1604609.31512384 9266.61922241
0.03500000 1600059.82115766 10368.38811989
0.03600000 1595390.86539744 8854.41971215
0.03700000 1590604.45035198 9973.09036494
0.03800000 1585701.79115752 12059.26267985
0.03900000 1580684.29900539 9484.10623324
0.04000000 1575550.67414415 12596.52822349
0.04100000 1570305.09300498 11871.50705356
0.04200000 1564947.68859330 11103.30436568
0.04300000 1559478.71661541 14409.58401039
0.04400000 1553901.64683413 18879.90588585
0.04500000 1548216.21582838 12819.23086270
0.04600000 1542422.90951049 14136.30662282
0.04700000 1536524.78921392 15488.17059560
0.04800000 1530522.06174585 11249.33767724
0.04900000 1524417.40691906 11433.13108408
0.05000000 1518210.44871035 15098.60361551
0.05100000 1511904.48956652 16509.99779517
0.05200000 1505497.87863294 17953.06303933
0.05300000 1498995.96691990 15784.42826750
0.05400000 1492396.91769576 16005.95768871
0.05500000 1485705.01867042 14975.90728681
0.05600000 1478918.56203400 13909.22972499
0.05700000 1472042.63536612 19210.15728823
0.05800000 1465075.83238241 19448.88258299
0.05900000 1458020.04300995 17058.83529996
0.06000000 1450878.31403540 19913.30579046
0.06100000 1443652.11615069 14768.56183838
0.06200000 1436341.48559184 13573.42767331
0.06300000 1428950.17710990 15089.71457580
0.06400000 1421475.99718163 19403.14826895
0.06500000 1413925.29516733 19597.00550772
0.06600000 1406296.02906873 19786.58605478
0.06700000 1398590.82145154 18545.31516035
0.06800000 1390813.17240345 14394.91700819
0.06900000 1382963.21778999 17425.33735999
0.07000000 1375041.01746609 20501.86253049
0.07100000 1367051.44712720 19193.40321664
0.07200000 1358993.05500375 16369.07211436
0.07300000 1350870.99935961 16494.13567502
0.07400000 1342684.27827972 15105.19883854
0.07500000 1334435.37569071 21297.58959429
0.07600000 1326124.61277750 16848.41399520
0.07700000 1317757.16430356 21584.86336337
0.07800000 1309331.45169388 23273.36764529
0.07900000 1300849.78676084 21854.27744263
0.08000000 1292315.80578351 17271.80155454
0.08100000 1283729.85862660 17368.86580213
0.08200000 1275092.46369316 15874.90191791
0.08300000 1266407.46569210 17552.40829826
0.08400000 1257674.41111931 17638.88444389
0.08500000 1248898.05719509 25777.25711062
0.08600000 1240077.61535985 17801.31500429
0.08700000 1231215.96554822 21127.66696091
0.08800000 1222312.46768889 16317.87221000
0.08900000 1213373.11901347 16380.53787607
0.09000000 1204396.42034597 18084.01310100
0.09100000 1195385.03350756 19795.57708490
0.09200000 1186340.12283055 19859.33458931
0.09300000 1177264.99889276 19919.32471732
0.09400000 1168158.06097545 18310.87846636
0.09500000 1159023.77270248 18358.93742253
0.09600000 1149862.82980105 18403.55545608
0.09700000 1140678.64007137 18444.77447709
0.09800000 1131471.83910388 25203.53640105
0.09900000 1122244.13464781 21883.76165466
0.10000000 1112995.28610651 28665.19494172
0.10100000 1103728.51090861 30396.68462003
0.10200000 1094445.85999830 18600.10826555
0.10300000 1085147.89795773 18621.13880491
0.10400000 1075837.92768999 22027.78260575
0.10500000 1066518.02502901 20349.16487497
0.10600001 1057184.82973730 18664.59904725
0.10700001 1047845.94951943 18672.61569913
0.10800001 1038499.03070917 16979.45995118
0.10900001 1029147.74862758 25471.40797736
0.11000001 1019792.66968802 25469.32312429
0.11100001 1010435.50220570 28858.03930144
0.11200001 1001079.05785510 22058.77807830
0.11300001 991721.96049952 20350.13558755
0.11400001 982368.78649319 20335.03483787
0.11500001 973019.90767036 20316.65662883
0.11600001 963676.06546740 18603.76731993
0.11700001 954340.72205566 16891.83157590
0.11800001 945011.74800374 30363.22889342
0.11900001 935693.28732226 20210.97595813
0.12000001 926386.02814300 23539.47008394
0.12100001 917093.14773114 18461.08593350
0.12200001 907812.76075051 20098.97546991
0.12300001 898549.21523280 16713.01619075
0.12400001 889301.33770723 25011.60130150
0.12500001 880072.06024396 19960.03526686
0.12600001 870863.62982969 21566.93880904
0.12700001 861676.05080371 16544.18095510
0.12800001 852509.10369698 19795.26232078
0.12900001 843366.61814616 19734.77979476
0.13000001 834248.93807374 19671.59088700
0.13100001 825155.95971510 21239.51540425
0.13200001 816091.33186022 21165.32968954
0.13300001 807056.23508270 17844.01419890
0.13400001 798048.84706099 22624.68588083
0.13500001 789073.23160465 19316.51362042
0.13600001 780128.63511842 17634.80862835
0.13700001 771217.75519304 15964.20828526
0.13800001 762339.57187839 20663.21507015
0.13900001 753499.01134005 22152.87197809
0.14000001 744693.16175849 18900.31333678
0.14100001 735925.30803028 17242.73078037
0.14200001 727194.35388857 21837.64747725
0.14300001 718505.66510480 23279.58464744
0.14400001 709853.05970059 26246.81812049
0.14500001 701245.21357048 24571.63344261
0.14600001 692677.53431596 16800.89438740
0.14700001 684156.01267382 18225.91703747
0.14800001 675675.91413701 24162.17182948
0.14900001 667240.34149370 18015.49007032
0.15000001 658851.54357129 16415.28698260
0.15100001 650509.15760873 19281.09234130
0.15200001 642215.33177336 20634.37958355
0.15300001 633969.56443555 17573.63715544
0.15400001 625770.80280303 14549.17185176
0.15500001 617623.74418375 21678.59444393
0.15600001 609525.30875884 14354.32169872
0.15700001 601481.71708671 17106.14084130
0.15800001 593485.25719594 14154.62405220
0.15900001 585544.66167727 16863.68705228
0.16000001 577655.02608735 16740.44344620
0.16100001 569822.21351533 13846.68044204
0.16200001 562041.82381692 23361.26950974
0.16300001 554317.58689201 17727.07726566
0.16400001 546648.63334319 16235.46517676
0.16500001 539036.30081467 14764.20497635
0.16600001 531480.21043645 23964.44382001
0.16700001 523981.14196962 15845.19048129
0.16800001 516538.88224157 15713.11353971
0.16900001 509156.79608064 14281.84880442
0.17000001 501832.70348905 14159.21039754
0.17100001 494567.78452644 17863.78922065
0.17200001 487361.94358126 18970.56454975
0.17300001 480216.42758980 17547.10909278
0.17400001 473132.05873370 13661.68884112
0.17500001 466107.48426319 15996.80961540
0.17600001 459142.08221054 15847.28971595
0.17700001 452240.50708405 14489.78653133
0.17800001 445399.53902912 13154.87600656
0.17900001 438620.23532564 11842.74691317
0.18000001 431903.86108714 16416.66653536
0.18100001 425250.78535094 16253.08578385
0.18200001 418657.35140193 17238.21725827
0.18300001 412129.62437795 19337.12288929
0.18400001 405663.12465780 15760.01313747
0.18500001 399260.97959173 14481.19641391
0.18600001 392921.72588564 11021.45493178
0.18700001 386645.68106983 15264.77220982
0.18800001 380432.51835313 11863.78864536
0.18900001 374285.48477750 12800.56418418
0.19000001 368197.92421113 11603.75812978
0.19100001 362178.96495965 15646.13202554
0.19200001 356220.60588955 14437.62183890
0.19300001 350328.61010294 12233.47564286
0.19400001 344499.39948203 10076.60791101
0.19500001 338734.81342984 11950.56478253
0.19600001 333032.86487357 9841.12162207
0.19700001 327395.75313877 12640.75062606
0.19800001 321822.59838642 14409.60752373
0.19900001 316314.18905330 10438.36873208
0.20000001 310867.55508961 13121.72012048
0.20100001 305486.56597440 9256.24338650
0.20200001 300167.84193692 10968.13346277
0.20300001 294913.51806995 9024.35407947
0.20400001 289722.60767106 11581.66178907
0.20500001 284594.37201834 11432.15646434
0.20600001 279529.65977417 11283.21525012
0.20700001 274527.94576663 9421.79954407
0.20800001 269588.56270073 10141.92220821
0.20900001 264714.27585628 11673.90011710
0.21000001 259900.22198558 12338.76362205
0.21100001 255148.49421932 8925.09474971
0.21200001 250458.76885532 9602.58965187
0.21300001 245830.69711013 8680.28232532
0.21400001 241265.35601328 9336.96971913
0.21500001 236761.66096328 11506.61726682
0.21600001 232317.51731617 9074.32265539
0.21700001 227935.34486613 11180.22919428
0.21800001 223613.44037928 8080.27205015
0.21900001 219350.66032705 9410.14377296
0.22000001 215147.82893366 10698.22629957
0.22100001 211006.99324956 8431.83984894
0.22200001 206924.27699980 8998.10261081
0.22300001 202900.50806781 7499.20313279
0.22400001 198933.83806271 10071.02602815
0.22500001 195028.54395974 9917.20192931
0.22600001 191179.55877019 7811.59714075
0.22700001 187389.22745956 8972.19663505
0.22800001 183655.34216617 7570.27356209
0.22900001 179978.18865399 8072.02214286
0.23000001 176357.83814780 9166.19907122
0.23100001 172795.01142804 6614.59335029
0.23200001 169286.08955159 6508.20402061
0.23300001 165833.98287569 9313.23691876
0.23400001 162436.73734090 6871.07431449
0.23500001 159092.82611072 7884.64083496
0.23600001 155804.02518917 5538.83335745
0.23700001 152568.73914512 5446.70424510
0.23800001 149387.10487694 8568.84474104
0.23900001 146258.36593731 5265.30142279
0.24000001 143181.89758974 6211.23101124
0.24100001 140158.60948377 6614.08509439
0.24200001 137186.32263743 5500.48586633
0.24300001 134265.30284190 5405.52134811
0.24400001 131394.43511572 6277.36943460
0.24500001 128574.38705936 5218.83461761
0.24600001 125804.16521362 6059.35790415
0.24700001 123084.28055590 6410.22963459
0.24800001 120412.12540814 5396.87171610
0.24900001 117788.41752665 5742.18562607
0.25000001 115213.47916030 4771.56646516
0.25100001 112685.29470117 6815.20694595
0.25200001 110205.43973354 7528.13394435
0.25300001 107772.07494903 6569.78599971
0.25400001 105384.22938585 6449.51514355
0.25500001 103042.21033003 3956.82106388
0.25600001 100745.80142040 4660.50099421
0.25700001 98493.90201197  4192.88560703
0.25800001 96286.21744300  3740.71972465
0.25900001 94122.64787932  6974.48853785
0.26000001 92002.73253357  3962.09786403
0.26100001 89923.73585555  4947.60418087
0.26200001 87889.63908676  3467.24642603
0.26300001 85895.98996730  3741.62950002
0.26400001 83943.59292937  3670.43377452
0.26500001 82033.09407454  3273.12060845
0.26600001 80161.89148666  3531.53229656
0.26700001 78331.94440510  4093.62760832
0.26800001 76541.18051564  4014.96781394
0.26900001 74788.78610401  4543.41897082
0.27000001 73075.66329142  3861.68360938
0.27100001 71400.41321240  4078.39179569
0.27200001 69763.04984581  3428.15643166
0.27300001 68162.32993653  3081.61908227
0.27400001 66597.22310369  3296.56269964
0.27500001 65070.40149771  3502.08917434
0.27600001 63577.20000981  2641.63278543
0.27700001 62120.81377897  3367.56947433
0.27800001 60698.43654154  3302.29859633
0.27900001 59310.64200392  2989.25649847
0.28000001 57956.30349555  4397.14495432
0.28100001 56635.30039580  3353.94264818
0.28200001 55347.55686305  2584.45429004
0.28300001 54091.99538001  2534.75102348
0.28400001 52868.67925338  2486.14975956
0.28500001 51677.11327938  2660.33791754
0.28600001 50515.87738540  2827.12121169
0.28700001 49385.56638178  3413.53050988
0.28800001 48284.88488850  2930.40980259
0.28900001 47215.29935239  3080.79842857
0.29000001 46173.69584046  2217.03011072
0.29100001 45161.99783565  2373.71471860
0.29200001 44178.11908341  3106.60548100
0.29300001 43222.06821041  2287.31195797
0.29400001 42293.49461575  2058.63594787
0.29500001 41392.93220572  2389.20016001
0.29600001 40517.93943332  1805.07428720
0.29700001 39668.99562896  2659.80628283
0.29800001 38846.52570452  1916.49343636
0.29900001 38049.15913252  1712.21224202
0.30000001 37276.79023651  2019.65659062
0.30100001 36529.80999646  1654.80047118
0.30200001 35805.68303649  1952.84204526
0.30300001 35105.77913899  1760.90596498
0.30400001 34429.95669774  1575.17059349
0.30500001 33775.83626536  1860.37314957
0.30600001 33144.34248477  2289.44556552
0.30700001 32535.68314995  1954.09322250
0.30800001 31948.47886763  2369.29930499
0.30900001 31382.52402511  1605.21617988
0.31000001 30838.23626402  1582.46416881
0.31100001 30312.96410586  2269.83485971
0.31200001 29809.05476740  1819.39574387
0.31300001 29324.35159574  2348.00094344
0.31400001 28860.49750246  1363.65857156
0.31500001 28414.63405441  1885.59520513
0.31600002 27987.78884235  1730.06524920
0.31700002 27578.73085232  1841.70773352
0.31800002 27188.21949708  1300.95636453
0.31900002 26815.41811269  1930.71019553
0.32000002 26459.70802994  1274.03500197
0.32100002 26121.36660330  1387.82827335
0.32200002 25799.63245159  1624.98992691
0.32300002 25493.50486956  1486.78127439
0.32400002 25203.69861785  2211.62465844
0.32500002 24929.10743555  1584.74343472
0.32600002 24670.21756707  1573.09649765
0.32700002 24426.07414483  1201.76290483
0.32800002 24197.29506518  1552.37753842
0.32900002 23981.50872588  1424.50168577
0.33000002 23781.47470114  1534.97535727
0.33100002 23592.64231066  1174.91364271
0.33200002 23419.67045971  1403.77511383
0.33300002 23258.30634011  1514.81356367
0.33400002 23110.65635435  1161.31053680
0.33500002 22974.77944355  1505.30762043
0.33600002 22851.20551084  1501.66704126
0.33700002 22738.76576993  1152.85547913
0.33800002 22639.34301269  1726.81597007
0.33900002 22549.92240195  1495.05992605
0.34000002 22472.20100902  1494.28907686
0.34100002 22405.00836331  1724.06547521
0.34200002 22349.28105779  1264.85762137
0.34300002 22302.30929603  1841.27874268
0.34400002 22266.21604877  1613.18742913
0.34500002 22239.29497360  1269.64141017
0.34600002 22223.05367102  1156.70999836
0.34700002 22213.81770839  1507.42974108
0.34800002 22215.18949323  1162.96522505
0.34900002 22224.57984685  1283.46954694
0.35000002 22242.56763824  1288.17836578
0.35100002 22268.81173220  1175.79331515
0.35200002 22302.16258404  1417.07947771
0.35300002 22343.82398669  2254.26850879
0.35400002 22393.07949208  1788.64730915
0.35500002 22449.40840199  1318.67831199
0.35600002 22512.14532064  1928.84070243
0.35700002 22582.03305215  1212.65523234
0.35800002 22658.93870530  1342.20229778
0.35900002 22741.74818841  1228.05446034
0.36000002 22831.30403545  1483.57820649
0.36100002 22925.89339244  1867.31410526
0.36200002 23027.44149304  1504.61309842
0.36300002 23132.79399115  1389.35567292
0.36400002 23244.19670221  1781.66776162
0.36500002 23360.11179817  1795.45827785
0.36600002 23481.64651541  1292.66470190
0.36700002 23607.37357918  1563.75249996
0.36800002 23738.98139628  1708.13848728
0.36900002 23873.89307565  1722.50146700
0.37000002 24012.16793698  1737.16037169
0.37100002 24154.78735007  1482.62091778
0.37200002 24301.60345180  2039.51216630
0.37300002 24451.49195338  2194.76602170
0.37400002 24605.79474337  1384.07601988
0.37500002 24762.25796568  1675.90969851
0.37600002 24922.88650844  2818.77859763
0.37700002 25085.21368460  1706.79801995
0.37800002 25251.12547055  1435.52655100
0.37900002 25419.49749274  1448.91142572
0.38000002 25590.46319404  1901.24355307
0.38100002 25763.12910184  1623.85010422
0.38200002 25938.35887502  2384.25406074
0.38300002 26115.20868132  1504.23609131
0.38400002 26294.50090185  2429.61199843
0.38500002 26474.56674908  1532.87748739
0.38600002 26657.27133770  2011.69107680
0.38700002 26840.27354036  1874.52479286
0.38800002 27024.76131170  2049.96336642
0.38900002 27210.50331401  1750.99597121
0.39000002 27397.85495047  1767.57269587
0.39100002 27585.13107230  2595.20925423
0.39200002 27773.92023395  2128.45447797
0.39300002 27962.85541006  1983.12579964
0.39400002 28153.19119185  2835.73031715
0.39500002 28342.91430880  1683.56918971
0.39600002 28533.02244875  1869.05572406
0.39700002 28722.92167521  1886.23435578
0.39800002 28913.99496013  2076.60321642
0.39900002 29104.11130152  2793.99481732
0.40000002 29293.93011060  2819.24796742
0.40100002 29483.47819395  2844.56611093
0.40200002 29673.67322737  2152.52835790
0.40300002 29862.21658163  2714.47561588
0.40400002 30050.41814456  2190.67558653
0.40500002 30238.04667718  3682.99425978
0.40600002 30425.04298905  2228.93875499
0.40700002 30611.02987958  2810.09267609
0.40800002 30796.18939416  2267.21557062
0.40900002 30979.57960228  2095.76865940
0.41000002 31162.79369675  3266.01674814
0.41100002 31344.41818922  1937.08513588
0.41200002 31524.10501591  3710.54495671
0.41300002 31702.95384968  2165.62888009
0.41400002 31880.12632713  2579.89934527
0.41500002 32056.23507871  2200.34008006
0.41600002 32229.61355152  2620.75115012
0.41700002 32402.04257025  2234.76898196
0.41800002 32573.67703803  2661.43240850
0.41900002 32741.36315715  3094.05896496
0.42000002 32907.98809564  2285.95350138
0.42100002 33073.22548064  2093.53527213
0.42200002 33236.30909605  2319.72830328
0.42300002 33396.69156223  2124.02968401
0.42400002 33555.10302073  2139.13791894
0.42500002 33711.67656390  3015.84672832
0.42600002 33864.61844143  2385.93180535
0.42700002 34016.55083447  2839.02146718
0.42800002 34165.56029648  2638.26469111
0.42900002 34312.81098461  2877.12933740
0.43000002 34457.53321733  3341.51944210
0.43100002 34598.34926065  2466.17045216
0.43200002 34737.53445285  3384.30445444
0.43300002 34873.67865095  3859.47019919
0.43400002 35007.60398906  2512.67089539
0.43500002 35138.32121448  2527.85094796
0.43600002 35267.42905558  2774.13610097
0.43700002 35392.60434005  2325.29421533
0.43800002 35514.35772070  2572.48262341
0.43900002 35634.35232300  3292.61431068
0.44000002 35750.68303537  2601.39857435
0.44100002 35864.67960597  3566.74255584
0.44200002 35975.65981243  3346.81579096
0.44300002 36083.81783973  3124.13709662
0.44400002 36188.28204610  2415.56794105
0.44500002 36289.04760458  3156.05861974
0.44600002 36387.60627552  2683.76802804
0.44700002 36483.28700611  3432.34780420
0.44800002 36574.66183247  2709.63395027
0.44900002 36664.42151810  3712.27285464
0.45000002 36750.65716573  3977.89132014
0.45100002 36832.40255332  2497.23701147
0.45200002 36911.93076073  3260.61555828
0.45300002 36987.60921856  5289.59824503
0.45400002 37060.74556381  2782.33560507
0.45500002 37130.44200112  3047.66682389
0.45600002 37196.59163664  3059.79177304
0.45700002 37259.47803070  3583.61676683
0.45800002 37318.41158341  2569.37275929
0.45900002 37374.46966760  2578.83852929
0.46000002 37427.91745927  3364.58279946
0.46100002 37476.73667053  3116.56556923
0.46200002 37523.11190178  2866.57826960
0.46300002 37565.77039116  2876.03551746
0.46400002 37604.57990691  3672.08740195
0.46500002 37641.01190006  3420.43891347
0.46600002 37673.26992468  4750.22282994
0.46700002 37702.16331960  3176.03038857
0.46800002 37728.42939209  3981.29270030
0.46900002 37750.49598657  2661.41009319
0.47000002 37768.88939977  2935.20937882
0.47100002 37784.52525743  2942.65896652
0.47200002 37796.48718465  2949.82698214
0.47300002 37805.79618708  2687.99223630
0.47400002 37810.19302008  3771.56693252
0.47500002 37812.48508600  2699.81156310
0.47600002 37811.66079164  4058.13668681
0.47700002 37806.38247362  3523.93307739
