# SAXS profile: number of points = 501, q_min = 0, q_max = 0.5, delta_q = 0.001
#    q    intensity    error
0.00000000 1664650.74656090 274.66737318
0.00100000 1664582.29571808 649.18711075
0.00200000 1664376.88392061 748.96962148
0.00300000 1664034.69483260 1198.10502296
0.00400000 1663555.57498139 1372.43340151
0.00500000 1662939.99164323 1646.31065689
0.00600000 1662187.68198661 1919.82685085
0.00700000 1661299.30631390 2790.98295060
0.00800000 1660274.30613412 2465.50744870
0.00900000 1659114.00160303 3484.13955231
0.01000000 1657817.58798433 3008.93905212
0.01100000 1656386.31821110 3577.79460311
0.01200000 1654819.59955383 4194.96786879
0.01300000 1653118.92050822 4165.85986342
0.01400000 1651283.39211108 4830.00413604
0.01500000 1649314.87360823 5145.86263480
0.01600000 1647212.22568892 4620.43049961
0.01700000 1644977.54564926 5773.87144424
0.01800000 1642610.35687819 6085.87164608
0.01900000 1640111.43316477 6396.43487797
0.02000000 1637481.41597014 9284.52004854
0.02100000 1634721.85067879 5934.04058700
0.02200000 1631831.03099300 6192.79904397
0.02300000 1628811.74593754 5863.72255228
0.02400000 1625664.02718322 7315.48845589
0.02500000 1622389.00596329 7592.78089468
0.02600000 1618986.94997257 9179.65642621
0.02700000 1615459.02645285 8820.40668842
0.02800000 1611804.93942896 8413.62216966
0.02900000 1608027.26072204 10130.57220769
0.03000000 1604126.42072398 8205.10701915
0.03100000 1600102.51512292 8448.54166859
0.03200000 1595956.59419893 9479.98260617
0.03300000 1591691.58908293 12176.44121782
0.03400000 1587305.17729693 10833.35833491
0.03500000 1582801.04649145 11111.26385947
0.03600000 1578178.63267724 10510.67017937
0.03700000 1573440.05774842 9865.46961834
0.03800000 1568586.43752453 12846.72351787
0.03900000 1563619.04361907 12196.22910504
0.04000000 1558536.67200859 14377.50146552
0.04100000 1553343.46752134 13700.49001878
0.04200000 1548039.67459008 10983.34200077
0.04300000 1542625.41328968 13235.72666040
0.04400000 1537104.13489111 11412.99873161
0.04500000 1531475.64282800 12680.61891182
0.04600000 1525740.22414618 15059.05671237
0.04700000 1519901.26628226 16414.93443927
0.04800000 1513958.60513554 11127.59626549
0.04900000 1507915.19396574 16964.04672175
0.05000000 1501770.41311804 14935.10745393
0.05100000 1495527.65703087 19830.69765602
0.05200000 1489185.28140509 13022.92589277
0.05300000 1482748.55892898 14412.31666466
0.05400000 1476215.72751807 12178.78031997
0.05500000 1469591.01427668 25923.58670116
0.05600000 1462872.71818247 13758.31855653
0.05700000 1456065.88411317 16468.10591803
0.05800000 1449169.08653222 12825.14701465
0.05900000 1442184.29571675 12979.65926768
0.06000000 1435114.32676886 14444.42637375
0.06100000 1427960.75327533 21248.05700169
0.06200000 1420723.92054718 18796.17834744
0.06300000 1413406.94404157 14925.57802693
0.06400000 1406008.08680431 16450.29538494
0.06500000 1398533.55317892 16614.57938896
0.06600000 1390981.09005870 15377.29667008
0.06700000 1383353.72783314 14110.20868424
0.06800000 1375654.42782752 18509.43119283
0.06900000 1367883.87062817 14362.78131405
0.07000000 1360041.72154737 21726.66751915
0.07100000 1352132.74397690 16063.33775082
0.07200000 1344155.95855487 17662.21012283
0.07300000 1336116.02783326 14830.88860386
0.07400000 1328012.00465755 25398.23077934
0.07500000 1319846.74183339 16550.87891837
0.07600000 1311619.95627724 21208.89568729
0.07700000 1303337.24039312 22873.56964141
0.07800000 1294997.04645613 21484.00200823
0.07900000 1286601.51208424 18527.06264300
0.08000000 1278154.05925502 18635.48705815
0.08100000 1269655.24172681 15616.76020595
0.08200000 1261105.61170725 17270.84216277
0.08300000 1252508.61403969 15781.60927756
0.08400000 1243864.57549734 22202.98371481
0.08500000 1235177.54502833 23900.68661832
0.08600000 1226446.83646858 24007.69795107
0.08700000 1217675.37794064 19287.97889230
0.08800000 1208862.56332274 29048.96876089
0.08900000 1200014.40017863 21060.25371233
0.09000000 1191129.20105215 19510.69722976
0.09100000 1182209.89231630 19577.39673653
0.09200000 1173257.36700110 19640.32924643
0.09300000 1164274.88199645 22982.78725062
0.09400000 1155261.03626605 19754.96464858
0.09500000 1146220.02611820 16505.56915191
0.09600000 1137152.94353042 18200.13371675
0.09700000 1128062.77310249 18240.77589862
0.09800000 1118950.19430333 19939.69340000
0.09900000 1109817.30562408 24970.89055073
0.10000000 1100663.31791253 21677.56506572
0.10100000 1091491.60787114 16699.82238585
0.10200000 1082304.17966947 25082.40054362
0.10300000 1073101.85392872 25110.58456315
0.10400000 1063887.42576834 16756.22774415
0.10500000 1054663.44562326 23476.80940414
0.10600001 1045426.34633067 20134.91237775
0.10700001 1036183.82400864 26857.88598217
0.10800001 1026933.08671692 20148.42810961
0.10900001 1017678.18793911 20150.02906957
0.11000001 1008419.71607307 21827.24578180
0.11100001 999159.18317379 28535.98761473
0.11200001 989899.31895907 25168.19136938
0.11300001 980639.04338374 18445.82127449
0.11400001 971382.58421786 25134.52555008
0.11500001 962130.46803974 21763.39221185
0.11600001 952883.43136526 21740.03651037
0.11700001 943644.72311806 25053.76857869
0.11800001 934412.34982193 18347.18735288
0.11900001 925190.60632999 29976.17705702
0.12000001 915980.00842757 21612.54931691
0.12100001 906783.60390155 19912.96887974
0.12200001 897599.97070829 18216.79226374
0.12300001 888432.51479465 26439.75288598
0.12400001 879280.96629147 24729.77834215
0.12500001 870147.79708104 19734.95296772
0.12600001 861035.46996690 19683.27177099
0.12700001 851943.57876718 24535.97622479
0.12800001 842872.46464196 21202.45784732
0.12900001 833825.49060596 21137.47718311
0.13000001 824802.76398045 17828.11258376
0.13100001 815805.12642800 20998.82494409
0.13200001 806835.12395713 17705.99762991
0.13300001 797894.58032030 17641.45000255
0.13400001 788981.69690307 20769.94415019
0.13500001 780100.13995673 17505.44796598
0.13600001 771249.33817979 17434.09211158
0.13700001 762432.01189533 17360.57772946
0.13800001 753647.07434027 17284.89646508
0.13900001 744899.51473353 21900.04676593
0.14000001 736186.34605083 24912.54712525
0.14100001 727510.62921026 20144.77027292
0.14200001 718871.62803629 20045.73629325
0.14300001 710274.50904167 26081.28120220
0.14400001 701713.13661389 18314.71372953
0.14500001 693196.33893466 19735.30070043
0.14600001 684718.94186019 16607.85871828
0.14700001 676287.49373382 19517.65798993
0.14800001 667897.05698148 23883.99988447
0.14900001 659550.80184425 17807.87248998
0.15000001 651250.62631531 16225.91012023
0.15100001 642996.65749166 19058.42182732
0.15200001 634790.86109492 16025.29604453
0.15300001 626632.61343223 20265.29967470
0.15400001 618520.83922188 18694.79324771
0.15500001 610460.34358911 19998.68179978
0.15600001 602448.05571429 21281.47857248
0.15700001 594490.02206369 15498.35560667
0.15800001 586578.84994657 18186.87810099
0.15900001 578722.72527439 15278.28066839
0.16000001 570917.11533158 16545.17878328
0.16100001 563168.05909557 17790.47982662
0.16200001 555470.33847522 14939.37545852
0.16300001 547828.78511157 14824.24762494
0.16400001 540241.79321881 18719.37901877
0.16500001 532710.91651720 15917.40293702
0.16600001 525235.65531406 15788.58454417
0.16700001 517816.95651045 18268.58308823
0.16800001 510454.44160613 20704.03312911
0.16900001 503151.45291365 21811.61651371
0.17000001 495906.00237790 15263.98747395
0.17100001 488718.90364912 16391.63280243
0.17200001 481590.71104262 16246.46340423
0.17300001 474522.01534479 22293.04533368
0.17400001 467513.74686736 17181.13100877
0.17500001 460564.85856884 17022.47797663
0.17600001 453674.40436566 16863.07840670
0.17700001 446847.29011154 13123.90553043
0.17800001 440080.05598184 14179.38007346
0.17900001 433373.90612935 17551.64402727
0.18000001 426730.12964985 17378.58535087
0.18100001 420149.02629237 12617.07585555
0.18200001 413626.87971099 12489.46422285
0.18300001 407169.67860319 15733.03712445
0.18400001 400773.31864086 12233.60612944
0.18500001 394440.37912668 12105.37580728
0.18600001 388169.92586414 16332.25040233
0.18700001 381961.88123038 18311.25345130
0.18800001 375816.44664226 10654.39676569
0.18900001 369736.03112218 14752.46833879
0.19000001 363714.61512939 12504.50905897
0.19100001 357761.26767784 17515.99249314
0.19200001 351867.64920249 10186.56892574
0.19300001 346039.73854799 18125.56236162
0.19400001 340274.16881682 10948.32189903
0.19500001 334572.38273429 12787.35707237
0.19600001 328932.60073139 9719.95881094
0.19700001 323357.06693590 12484.81694440
0.19800001 317844.84225615 10436.43588869
0.19900001 312396.60354585 16869.41738872
0.20000001 307009.59946782 9256.33986142
0.20100001 301687.48002788 10055.24418456
0.20200001 296427.11354303 11734.06784419
0.20300001 291230.34834372 9802.81398858
0.20400001 286096.32169736 9677.20853881
0.20500001 281024.20102565 10420.37786657
0.20600001 276015.17134689 11998.38006559
0.20700001 271068.34214288 12685.99901194
0.20800001 266183.38652711 9179.33451830
0.20900001 261362.82699374 8232.92943948
0.21000001 256601.62223988 10557.87424616
0.21100001 251902.13099161 8811.53695864
0.21200001 247264.13599976 11060.12532613
0.21300001 242687.10901124 9348.30788106
0.21400001 238172.20864193 9985.37031939
0.21500001 233718.25027406 9086.96600026
0.21600001 229323.28851788 8957.36807300
0.21700001 224989.31795818 8828.58125409
0.21800001 220715.42858619 7975.55238905
0.21900001 216499.88776805 8573.39596098
0.22000001 212343.58181419 7039.19006997
0.22100001 208248.55997670 11095.48380019
0.22200001 204211.16264122 7513.95008468
0.22300001 200231.80509943 8073.34676336
0.22400001 196309.29936499 8613.07091692
0.22500001 192447.57891897 7176.37055724
0.22600001 188641.25804258 7065.55865410
0.22700001 184892.97067178 7588.00787520
0.22800001 181200.80883362 6846.67288556
0.22900001 177564.65690046 7963.77523860
0.23000001 173984.62687937 6028.56760647
0.23100001 170461.68806105 6525.27372758
0.23200001 166991.98850988 8170.91838422
0.23300001 163578.37229408 5741.60113907
0.23400001 160219.02463748 6212.49297414
0.23500001 156912.56290611 6110.17548855
0.23600001 153660.73334703 5462.63932885
0.23700001 150461.72807933 5908.63234114
0.23800001 147315.63510142 6337.51892182
0.23900001 144221.91191095 8826.38142643
0.24000001 141180.01943393 7145.12112152
0.24100001 138190.77479790 7022.85550742
0.24200001 135251.92381128 5915.91942734
0.24300001 132363.77209881 8235.67428956
0.24400001 129525.27794839 5712.06502773
0.24500001 126737.07479896 5144.25810944
0.24600001 123998.38130437 6431.79634251
0.24700001 121308.94521164 6317.77016549
0.24800001 118667.09204367 4875.43770726
0.24900001 116073.08026052 5658.56293039
0.25000001 113527.23236853 5984.02070124
0.25100001 111027.63561997 4616.52930748
0.25200001 108575.94601866 5768.64028488
0.25300001 106170.39925965 4449.60164348
0.25400001 103809.58550611 4764.86020016
0.25500001 101494.36942698 4676.86076447
0.25600001 99224.02398127  4590.10356654
0.25700001 96997.83043175  4879.96107991
0.25800001 94815.38361347  5525.36674150
0.25900001 92676.58236075  4337.26425970
0.26000001 90580.99475566  5673.99377996
0.26100001 88525.82400909  4174.87805781
0.26200001 86515.10775193  5802.13597592
0.26300001 84544.33990076  4017.54722218
0.26400001 82614.42037991  3612.31570204
0.26500001 80725.87217587  5153.53992357
0.26600001 78876.33962235  4106.69681676
0.26700001 77067.55382888  4027.55055368
0.26800001 75297.46298040  4253.55388504
0.26900001 73565.37085571  3873.21695884
0.27000001 71872.19097641  4090.24658203
0.27100001 70216.52738017  3151.31789795
0.27200001 68598.23212533  4775.46615540
0.27300001 67016.17118973  3305.23771949
0.27400001 65469.33345555  2970.67114613
0.27500001 63960.35495280  2912.75470240
0.27600001 62484.82463227  2855.86904497
0.27700001 61045.69770959  2545.60571496
0.27800001 59639.76812479  3494.29417981
0.27900001 58268.48538854  2936.73180257
0.28000001 56930.27492820  2639.57232197
0.28100001 55624.80365491  2823.51516716
0.28200001 54352.52097979  3460.89693719
0.28300001 53112.07248250  2488.83183433
0.28400001 51903.43078611  3106.42047958
0.28500001 50726.08720590  2611.37909296
0.28600001 49578.72599366  2774.67353157
0.28700001 48462.13635203  2930.99014530
0.28800001 47374.88779153  2464.44177957
0.28900001 46318.21448703  2216.32666811
0.29000001 45289.35302619  2965.32052975
0.29100001 44290.01940937  3103.84470713
0.29200001 43318.12538484  2665.36438110
0.29300001 42373.91175973  2055.55855677
0.29400001 41456.81395812  2568.24974628
0.29500001 40567.54159815  2341.55861189
0.29600001 39703.51749134  2299.42932436
0.29700001 38865.22074784  2084.73053960
0.29800001 38053.13293829  2048.01971169
0.29900001 37265.98456049  2012.36326153
0.30000001 36503.33166522  1812.93805298
0.30100001 35765.86763668  1782.21326871
0.30200001 35051.11748477  1911.68803812
0.30300001 34360.30628699  1566.83004086
0.30400001 33693.28232387  1695.61451322
0.30500001 33047.72793681  1668.57986252
0.30600001 32424.73585859  1642.47507268
0.30700001 31824.09380499  1617.30052374
0.30800001 31244.88042941  1593.02030411
0.30900001 30686.44532129  1997.68768499
0.31000001 30149.68986584  2250.37295813
0.31100001 29631.63567034  1802.78879954
0.31200001 29134.79674458  1504.66664911
0.31300001 28656.73305222  1619.67862880
0.31400001 28199.55638017  1465.67201225
0.31500001 27760.14578070  2105.32955569
0.31600002 27339.37295539  1689.98341925
0.31700002 26936.42817693  1541.84122185
0.31800002 26551.68290373  2032.79693936
0.31900002 26184.66425758  1508.23673265
0.32000002 25834.33805121  1492.70812328
0.32100002 25501.22112244  1354.87994239
0.32200002 25184.69870244  2074.33780685
0.32300002 24883.52710874  1814.00921212
0.32400002 24598.57020231  1439.01642497
0.32500002 24328.42131962  1427.59183063
0.32600002 24074.05875820  1416.99916561
0.32700002 23834.19270192  1758.96350469
0.32800002 23609.57260250  1514.67220204
0.32900002 23397.83732158  1389.83160272
0.33000002 23201.65842656  1612.74735360
0.33100002 23016.53514677  1604.71290642
0.33200002 22847.04526486  1483.57295453
0.33300002 22689.41106468  1364.08745780
0.33400002 22545.04083001  1359.46602643
0.33500002 22412.28216617  1242.53698213
0.33600002 22291.82010876  1352.22187183
0.33700002 22182.28237385  1237.10594658
0.33800002 22085.67050555  1459.97331791
0.33900002 21998.94916863  2019.50362932
0.34000002 21923.86960672  1121.40598349
0.34100002 21859.20414460  1233.51494830
0.34200002 21805.87699682  1234.10366708
0.34300002 21761.14999144  1235.16293201
0.34400002 21727.23650191  1124.38454222
0.34500002 21702.43752569  1238.99221702
0.34600002 21688.19261120  2031.96686198
0.34700002 21680.88536122  1244.91649640
0.34800002 21683.89311102  1248.66704394
0.34900002 21695.19852243  1822.39676220
0.35000002 21714.84638579  1371.94405963
0.35100002 21742.59215052  1377.61070390
0.35200002 21777.51721281  1383.74350924
0.35300002 21820.44129289  1158.66548753
0.35400002 21871.11306490  1514.02787363
0.35500002 21928.71059017  1288.09252108
0.35600002 21992.70970100  1413.25159232
0.35700002 22063.64382972  1540.26304871
0.35800002 22141.61363012  1192.32595046
0.35900002 22225.42219601  1320.19014097
0.36000002 22315.97105026  1570.93285649
0.36100002 22411.42677396  1338.63458461
0.36200002 22513.85566528  1471.05539885
0.36300002 22619.91158089  1358.55195390
0.36400002 22732.08795813  1493.49824959
0.36500002 22848.69424905  1881.59006054
0.36600002 22970.86224884  1643.90983471
0.36700002 23097.18011218  1402.46084284
0.36800002 23229.29206562  1542.88965208
0.36900002 23364.69790316  1296.74079505
0.37000002 23503.48115469  1831.15630350
0.37100002 23646.59772821  1715.32428046
0.37200002 23793.88923412  1464.39498228
0.37300002 23944.05447477  1746.23997556
0.37400002 24098.73578652  1897.77553309
0.37500002 24255.46947554  2325.61452348
0.37600002 24416.36926546  2071.11862105
0.37700002 24578.88535100  1811.70972505
0.37800002 24745.17237468  1547.43942776
0.37900002 24913.75607476  1846.10941259
0.38000002 25084.89942651  1720.32248417
0.38100002 25257.76777590  1736.72419454
0.38200002 25433.07475920  1607.24323555
0.38300002 25610.09175969  1917.68376181
0.38400002 25789.64365000  2382.96318615
0.38500002 25969.74916658  2105.10796717
0.38600002 26152.62641640  2277.24005309
0.38700002 26335.73959182  1686.01412854
0.38800002 26520.28569601  1702.20461804
0.38900002 26706.17459387  1874.77354531
0.39000002 26893.64295248  1577.31223389
0.39100002 27081.09814182  1751.60551080
0.39200002 27269.94316520  2089.83219347
0.39300002 27458.96515498  1785.10740930
0.39400002 27649.34338283  1638.22367305
0.39500002 27839.24396866  1653.65117008
0.39600002 28029.41117156  2169.89696865
0.39700002 28219.48265666  1853.17351386
0.39800002 28410.68644561  2550.56949650
0.39900002 28600.83403049  2574.07518470
0.40000002 28790.89418675  1731.77236738
0.40100002 28980.61936233  1922.28457338
0.40200002 29170.97034942  2468.73933764
0.40300002 29359.78196191  1779.20287119
0.40400002 29548.06015283  2333.55816113
0.40500002 29736.00021656  2173.10699879
0.40600002 29923.14793381  2374.85074829
0.40700002 30109.46113929  2026.96901994
0.40800002 30294.93003600  2973.75047323
0.40900002 30478.75555160  2249.33226629
0.41000002 30662.15017301  2079.35381251
0.41100002 30844.16913767  2096.78671733
0.41200002 31024.23569612  2306.34179093
0.41300002 31203.37855636  2519.04887021
0.41400002 31381.16825978  2734.86894343
0.41500002 31557.68911801  2559.95986255
0.41600002 31731.54591405  2381.76994917
0.41700002 31904.50374439  2600.53622343
0.41800002 32076.58064441  2419.21582683
0.41900002 32244.93112340  2640.85998414
0.42000002 32412.20664893  2251.51404155
0.42100002 32577.99250168  3093.28053461
0.42200002 32741.77250914  2285.21212056
0.42300002 32902.97440481  2720.41805270
0.42400002 33062.05154191  2529.24706281
0.42500002 33219.45135143  2971.81225872
0.42600002 33373.25255517  2992.57969843
0.42700002 33526.11146984  2367.61410419
0.42800002 33676.03000044  3683.98947647
0.42900002 33824.19646125  2836.15900767
0.43000002 33969.91175560  3294.23234860
0.43100002 34111.77206624  2652.53152157
0.43200002 34252.01147229  2447.13507560
0.43300002 34389.33466458  3134.24410986
0.43400002 34524.41950199  2477.99032718
0.43500002 34656.38545675  2493.18048791
0.43600002 34786.67959992  2964.34704258
0.43700002 34913.27956200  2293.80257592
0.43800002 35036.24682463  3691.41914038
0.43900002 35157.73128533  3016.53348723
0.44000002 35275.45710189  3500.20739681
0.44100002 35391.07524372  2581.07123984
0.44200002 35503.53542417  3302.89405704
0.44300002 35613.30792820  2609.03106246
0.44400002 35719.37749155  2622.69541661
0.44500002 35821.94000739  2636.13669007
0.44600002 35922.19258576  2890.29975243
0.44700002 36019.68901283  3388.73250292
0.44800002 36113.00933591  4134.75919987
0.44900002 36204.57895106  2932.57103402
0.45000002 36292.69014539  2700.72066516
0.45100002 36376.52277448  2712.96119709
0.45200002 36458.08943598  4211.45640079
0.45300002 36536.04157104  2736.91500380
0.45400002 36611.22079975  3248.33071941
0.45500002 36683.15580900  4014.60476200
0.45600002 36751.48476245  3527.04015981
0.45700002 36816.74779647  3035.17283219
0.45800002 36878.11173014  3554.68135814
0.45900002 36936.64031083  4332.66811380
0.46000002 36992.59095205  3581.25289980
0.46100002 37043.94490756  3080.57460452
0.46200002 37092.98925599  3606.55151629
0.46300002 37138.21116084  2843.30158123
0.46400002 37179.79279427  3371.27787140
0.46500002 37218.96918812  2601.60606955
0.46600002 37253.98445536  3653.49842870
0.46700002 37285.80749185  2879.21019098
0.46800002 37314.98673415  3412.64227352
0.46900002 37340.01051427  3948.70629904
0.47000002 37361.55116660  2903.55308653
0.47100002 37380.28031851  2911.17636919
0.47200002 37395.36997202  2918.52178780
0.47300002 37407.83861945  3457.60668748
0.47400002 37415.58421261  2665.86050150
0.47500002 37421.23703243  3473.43938598
0.47600002 37423.69046834  3213.19821591
0.47700002 37421.82612030  4561.34660200
