# SAXS profile: number of points = 501, q_min = 0, q_max = 0.5, delta_q = 0.001
#    q    intensity    error
0.00000000 1664650.74656090 374.54641798
0.00100000 1664582.30300324 549.31217304
0.00200000 1664376.91889027 898.76356466
0.00300000 1664034.77116420 1198.10507792
0.00400000 1663555.71643823 1621.96688516
0.00500000 1662940.20593830 2544.29861579
0.00600000 1662188.00797968 2094.35697532
0.00700000 1661299.73422401 2591.62769310
0.00800000 1660274.86769326 2689.64539922
0.00900000 1659114.69332790 5723.94593667
0.01000000 1657818.45881264 2735.40057515
0.01100000 1656387.36153381 5962.99476115
0.01200000 1654820.85624334 3549.59089227
0.01300000 1653120.39663623 3471.55298605
0.01400000 1651285.11767066 4086.93084741
0.01500000 1649316.82438864 4750.03266575
0.01600000 1647214.44422968 5040.47642467
0.01700000 1644980.07598105 4885.59104482
0.01800000 1642613.21179930 4681.44786428
0.01900000 1640114.57857121 5412.37835351
0.02000000 1637484.89751355 5673.88542655
0.02100000 1634725.69075378 9170.81154092
0.02200000 1631835.23958281 6192.81501557
0.02300000 1628816.34342697 7036.48692389
0.02400000 1625669.02879859 7925.13687676
0.02500000 1622394.41805589 6327.33851939
0.02600000 1618992.81513098 7212.61332130
0.02700000 1615465.31467890 7463.45009565
0.02800000 1611811.72092992 8413.65756910
0.02900000 1608034.55987392 9407.00260718
0.03000000 1604134.20481797 8205.14683480
0.03100000 1600110.84856378 9216.63891181
0.03200000 1595965.42587555 8690.03214414
0.03300000 1591700.96911712 10552.97791174
0.03400000 1587315.11279002 11666.76661732
0.03500000 1582811.61231884 10256.61972146
0.03600000 1578189.74331041 8758.95348016
0.03700000 1573451.77341388 11659.27818021
0.03800000 1568598.81625945 10093.93384977
0.03900000 1563632.11489739 10319.97243624
0.04000000 1558550.42948984 12460.61126118
0.04100000 1553357.89400700 10764.77070459
0.04200000 1548054.76506671 10983.44906770
0.04300000 1542641.20431044 16290.29187368
0.04400000 1537120.69275069 11413.12167372
0.04500000 1531492.94270956 13737.49233442
0.04600000 1525758.27549073 16134.89451338
0.04700000 1519920.10187708 12037.76776672
0.04800000 1513978.15784240 12240.51397568
0.04900000 1507935.57104002 15833.32423292
0.05000000 1501791.64187514 16084.18923346
0.05100000 1495549.76991932 12831.81762367
0.05200000 1489208.13476153 14207.04626769
0.05300000 1482772.24989447 18015.68367607
0.05400000 1476240.37950198 13396.88206873
0.05500000 1469616.52124741 13579.25728979
0.05600000 1462899.10599903 15009.34552795
0.05700000 1456093.22136259 12668.01161718
0.05800000 1449197.31385157 15390.47619172
0.05900000 1442213.42811223 16873.89789702
0.06000000 1435144.53831442 18384.20239470
0.06100000 1427991.92213844 19920.48824474
0.06200000 1420755.96812440 13426.14452636
0.06300000 1413440.02302932 16282.82982661
0.06400000 1406042.15498855 15079.80281749
0.06500000 1398568.69966902 16614.99692928
0.06600000 1391017.19291169 16775.66813142
0.06700000 1383390.81160334 14110.58693871
0.06800000 1375692.63826724 19933.78726157
0.06900000 1367923.00478800 17235.83066729
0.07000000 1360082.03498136 15933.36178594
0.07100000 1352174.10996901 17524.17728599
0.07200000 1344198.42834863 14718.97347995
0.07300000 1336159.57357437 16314.50915777
0.07400000 1328056.66487273 16434.70199800
0.07500000 1319892.53336056 22570.16337839
0.07600000 1311667.00291051 15149.75459385
0.07700000 1303385.36917067 18299.53144119
0.07800000 1295046.38299596 16880.93039400
0.07900000 1286651.96799965 18527.78920822
0.08000000 1278205.59300353 17083.21855188
0.08100000 1269708.00166010 20302.63189911
0.08200000 1261159.70041544 17271.58290766
0.08300000 1252563.67937953 23673.45465132
0.08400000 1243920.99491226 19031.99211549
0.08500000 1235235.17728824 19121.44144208
0.08600000 1226505.63697365 19207.07917681
0.08700000 1217735.42698878 19288.93006927
0.08800000 1208923.86428725 17753.04778081
0.08900000 1200077.02174740 22681.45677637
0.09000000 1191193.06107788 17885.76465228
0.09100000 1182274.99438253 17946.93525789
0.09200000 1173323.65592884 19641.43892314
0.09300000 1164342.49101131 21342.39886316
0.09400000 1155329.95628062 23048.83371104
0.09500000 1146290.22767263 16506.58005434
0.09600000 1137224.51504089 21510.60271316
0.09700000 1128135.60329937 16583.59414814
0.09800000 1119024.31335658 16617.51183466
0.09900000 1109892.66877393 23307.74714024
0.10000000 1100739.93400242 28349.55833343
0.10100000 1091569.58179532 18371.11692564
0.10200000 1082383.48866265 23411.95596099
0.10300000 1073182.43495186 18415.81145007
0.10400000 1063969.35323797 18433.26991204
0.10500000 1054746.78013680 31863.90172711
0.10600001 1045511.01207773 21814.58829346
0.10700001 1036269.82498396 20145.08634567
0.10800001 1027020.32731891 21829.31808449
0.10900001 1017766.81715837 20151.78392819
0.11000001 1008509.65345810 18470.85517250
0.11100001 999250.38491634 16787.40725683
0.11200001 989991.93337086 23492.50968485
0.11300001 980732.88494653 23478.74637102
0.11400001 971477.84629178 18433.79300133
0.11500001 962227.14926929 28462.68041564
0.11600001 952981.52897521 20069.79194533
0.11700001 943744.01133414 20045.12374476
0.11800001 934513.16207623 23353.48502019
0.11900001 925292.67170869 16655.26887525
0.12000001 916083.33468693 18289.60463855
0.12100001 906888.24295156 21574.87231617
0.12200001 897705.85578120 21531.47596529
0.12300001 888539.79636871 24790.26148667
0.12400001 879389.61396049 18137.41164252
0.12500001 870257.79603360 29606.17161612
0.12600001 861146.69545601 21326.29891794
0.12700001 852056.10441482 17995.42577330
0.12800001 842986.41576642 16311.78791384
0.12900001 833940.56850515 24392.76277846
0.13000001 824919.33001589 19451.59871862
0.13100001 815922.79974053 22617.38107494
0.13200001 806954.18359613 19318.48406597
0.13300001 798014.95205247 20852.13168016
0.13400001 789103.41882235 19175.21398141
0.13500001 780223.05672419 17508.20621837
0.13600001 771373.51673087 15851.72651624
0.13700001 762557.35775888 22098.91326989
0.13800001 753773.75496116 17287.80188525
0.13900001 745027.50145349 18774.69392201
0.14000001 736315.42609715 23359.60799458
0.14100001 727640.92546379 23248.12866502
0.14200001 719003.22903156 18507.14398817
0.14300001 710407.15002274 19948.23371355
0.14400001 701846.97894124 16791.68976323
0.14500001 693331.38544735 15183.95805756
0.14600001 684855.21935672 18121.26995904
0.14700001 676424.91036341 21023.28720590
0.14800001 668035.63225644 16423.65679387
0.14900001 659690.60967916 14843.03941809
0.15000001 651391.52800981 22131.02820834
0.15100001 643138.68342902 17596.27520890
0.15200001 634933.75622043 18943.24951071
0.15300001 626776.73143602 14478.54317940
0.15400001 618666.06262224 15822.38529824
0.15500001 610606.62666418 18574.65445972
0.15600001 602595.30319183 17029.34407190
0.15700001 594638.34969413 16911.51546347
0.15800001 586728.08875964 15392.81213513
0.15900001 578872.98074311 18060.83785167
0.16000001 571068.44885061 22066.08590516
0.16100001 563320.21738791 17795.28650730
0.16200001 555623.53967863 16301.99542372
0.16300001 547982.87886047 22916.64507579
0.16400001 540396.74908191 14712.30218832
0.16500001 532866.77077651 15922.05986250
0.16600001 525392.59679238 13161.08517102
0.16700001 517974.55146950 18274.14303865
0.16800001 510612.85359364 14238.44009475
0.16900001 503310.83888310 17968.19779655
0.17000001 496065.99512357 13996.50271332
0.17100001 488879.75620260 16397.02779732
0.17200001 481752.38780276 15001.77006461
0.17300001 474684.34217039 16106.04049044
0.17400001 467676.83551511 19642.42801927
0.17500001 460728.56875283 13379.55826847
0.17600001 453838.89062447 16869.19236123
0.17700001 447012.47532744 17902.85048243
0.17800001 440245.86134015 14184.72232235
0.17900001 433540.33063572 11705.58948006
0.18000001 426897.10674111 13908.30839458
0.18100001 420316.52366745 13769.56996577
0.18200001 413794.97926245 14766.27453251
0.18300001 407338.31771454 17988.06096002
0.18400001 400942.46676912 13351.38477414
0.18500001 394610.06354237 13211.54555154
0.18600001 388339.91895977 10892.93524144
0.18700001 382132.28535760 15086.58333868
0.18800001 375987.26389940 11725.16337867
0.18900001 369907.22908528 14759.29913784
0.19000001 363886.24962807 11467.87569887
0.19100001 357933.29455257 13401.02318125
0.19200001 352039.75816595 10191.55148047
0.19300001 346212.30895785 14104.69013343
0.19400001 340446.77108582 12945.48908226
0.19500001 334745.38134115 12793.96907944
0.19600001 329105.78703253 10697.58411302
0.19700001 323530.44583719 12491.51110409
0.19800001 318018.40172319 13289.98963608
0.19900001 312570.16147903 10314.81581629
0.20000001 307183.31535333 11113.89287474
0.20100001 301861.19849202 10975.67369591
0.20200001 296600.82096197 10837.79451018
0.20300001 291404.06609212 10700.35781265
0.20400001 286270.06423306 12323.92684773
0.20500001 281197.91088212 13033.52378544
0.20600001 276188.82725305 11148.36253903
0.20700001 271241.79906837 11001.56789025
0.20800001 266356.81036170 10020.34367947
0.20900001 261536.01089399 9886.06167912
0.21000001 256774.51792881 8939.60526429
0.21100001 252074.86380134 12023.97157174
0.21200001 247436.56554112 10277.27823560
0.21300001 242859.39748049 12473.25924428
0.21400001 238343.96732665 8455.25264065
0.21500001 233889.67274027 10609.23605708
0.21600001 229494.40116395 9711.05604438
0.21700001 225160.05097593 7362.73401502
0.21800001 220885.67850249 7981.70437007
0.21900001 216669.65544077 9295.12865790
0.22000001 212512.82716089 8453.76066418
0.22100001 208417.26240899 6940.29516638
0.22200001 204379.30896254 8203.78584967
0.22300001 200399.45604800 7406.76424577
0.22400001 196476.21852032 9283.50176407
0.22500001 192613.81541441 7835.53038158
0.22600001 188806.86174792 10929.08570910
0.22700001 185057.85321471 6961.87676716
0.22800001 181364.87819524 6852.87224668
0.22900001 177727.97655249 9197.42322155
0.23000001 174147.06121091 7241.03514759
0.23100001 170623.20949343 5937.68797118
0.23200001 167152.68616383 6426.18532349
0.23300001 163738.16316624 6896.65175874
0.23400001 160377.92916387 6783.98672448
0.23500001 157070.51465517 7228.38542631
0.23600001 153817.53341142 7108.67764283
0.23700001 150617.56614068 5914.75210210
0.23800001 147470.41658801 6344.17762169
0.23900001 144375.61241322 7796.28343907
0.24000001 141332.49706694 6641.92101383
0.24100001 138342.20304158 6026.18664954
0.24200001 135402.06795852 5922.48673265
0.24300001 132512.73318174 7274.94939580
0.24400001 129672.98183996 10007.51284689
0.24500001 126883.42770706 5150.19857426
0.24600001 124143.34149116 4599.51101983
0.24700001 121452.63953230 4969.84224476
0.24800001 118809.44994925 4437.53316553
0.24900001 116213.90044866 5665.42791489
0.25000001 113666.69730220 4279.55135589
0.25100001 111165.68054519 5462.68180042
0.25200001 108712.49018833 4125.63919783
0.25300001 106305.34074310 4860.28040872
0.25400001 103942.96138410 3975.81846104
0.25500001 101626.14396354 5073.17734668
0.25600001 99354.23853570  6128.16972282
0.25700001 97126.32474720  4510.54673467
0.25800001 94942.24173598  4057.35689256
0.25900001 92801.63873485  3981.19049009
0.26000001 90704.41173919  3906.18567637
0.26100001 88647.48173129  4180.61543626
0.26200001 86634.96031080  5810.17388816
0.26300001 84662.32638829  4358.41676870
0.26400001 82730.62925110  3617.39693517
0.26500001 80840.25634712  4838.28957132
0.26600001 78988.74555045  4428.89917259
0.26700001 77178.01629127  4033.32332224
0.26800001 75406.03724247  3651.16049606
0.26900001 73671.96169042  3580.45750759
0.27000001 71976.82295984  4388.78698766
0.27100001 70319.01433758  4590.42547319
0.27200001 68698.66335385  3094.53143722
0.27300001 67114.52023689  3310.08829473
0.27400001 65565.63671394  2975.04090669
0.27500001 64054.53569207  3447.41527410
0.27600001 62576.77686694  2860.07172206
0.27700001 61135.46984880  3059.21905602
0.27800001 59727.44677187  3249.47189541
0.27900001 58353.90294148  2695.95044349
0.28000001 57013.42338695  3124.05068234
0.28100001 55705.78241014  3534.53206121
0.28200001 54431.12344997  2310.60129981
0.28300001 53188.31095808  3172.15101568
0.28400001 51977.41724840  2666.44163105
0.28500001 50797.71701849  2615.06659589
0.28600001 49648.03205769  2778.55224562
0.28700001 48529.04550110  2515.74583785
0.28800001 47439.31535248  3290.39106859
0.28900001 46380.25978559  2824.55795464
0.29000001 45348.87458406  2573.32201008
0.29100001 44347.16921816  2719.36854518
0.29200001 43372.79653781  2096.85794788
0.29300001 42426.09399114  2619.38716700
0.29400001 41506.47206254  2571.32606599
0.29500001 40614.65239531  1803.29065171
0.29600001 39748.06188347  2833.24198517
0.29700001 38907.23491836  2086.98417981
0.29800001 38092.57423133  2391.83284921
0.29900001 37302.79330540  1846.48835603
0.30000001 36537.66999189  2639.48140517
0.30100001 35797.59126085  1945.95715306
0.30200001 35080.21224802  2551.03315544
0.30300001 34386.73877393  1881.64243479
0.30400001 33717.07787352  1851.06766289
0.30500001 33068.91113616  2580.36725812
0.30600001 32443.21776865  1792.81229877
0.30700001 31839.89775465  1618.10368050
0.30800001 31257.94550617  1883.44759564
0.30900001 30696.93280843  1998.37042044
0.31000001 30157.49872062  1688.21685831
0.31100001 29636.67964579  1664.39600771
0.31200001 29137.14354464  1504.78784961
0.31300001 28656.39691299  1889.60290191
0.31400001 28196.45277821  1998.42368527
0.31500001 27754.42971659  1710.22804011
0.31600002 27330.86723363  1819.41591789
0.31700002 26925.21428591  2054.93245160
0.31800002 26537.68776735  1777.75978771
0.31900002 26167.85762370  1381.66294795
0.32000002 25814.85389025  1740.17938314
0.32100002 25479.03532113  1476.76495714
0.32200002 25159.74933378  1340.88890424
0.32300002 24855.80480159  1207.99217056
0.32400002 24568.11940593  1916.31340440
0.32500002 24295.29263776  1782.05979936
0.32600002 24038.19901060  1179.07371730
0.32700002 23795.58887298  1404.89163359
0.32800002 23568.21399460  1395.70969885
0.32900002 23353.78935422  1271.61389055
0.33000002 23154.80352156  1379.56325914
0.33100002 22967.01422686  1372.50883519
0.33200002 22794.86176096  1366.32407865
0.33300002 22634.42603582  1700.97719714
0.33400002 22487.36882597  1468.98743812
0.33500002 22351.98984550  1351.84840987
0.33600002 22228.80420178  1685.49915842
0.33700002 22116.57495384  1121.31040326
0.33800002 22017.34023574  1679.37270601
0.33900002 21927.91118777  1341.98822824
0.34000002 21850.21976178  1229.40267312
0.34100002 21782.98082176  1229.21366599
0.34200002 21726.94963670  1229.63677292
0.34300002 21679.68362037  1230.53890057
0.34400002 21643.13951936  1456.04228012
0.34500002 21615.74573591  1346.22870819
0.34600002 21598.92770153  1349.06908813
0.34700002 21589.01367967  1239.64122420
0.34800002 21589.55954526  1243.23484530
0.34900002 21598.29890820  1360.69289566
0.35000002 21615.43780135  1365.66342497
0.35100002 21640.74400540  1599.68387264
0.35200002 21673.16193369  1147.59397874
0.35300002 21713.66675588  1152.99575935
0.35400002 21761.91367238  1390.58634953
0.35500002 21817.09686771  1398.03963350
0.35600002 21878.66013844  1991.72392004
0.35700002 21947.26266341  1414.28167302
0.35800002 22022.84394430  1304.52322283
0.35900002 22104.38250309  1313.00038287
0.36000002 22192.60596950  1201.72967017
0.36100002 22285.74987468  1936.18604082
0.36200002 22385.89137739  1340.80302756
0.36300002 22489.74350102  1350.73405865
0.36400002 22599.63575576  1237.33011624
0.36500002 22714.12643338  1745.80784036
0.36600002 22834.11367901  1508.42162109
0.36700002 22958.24966574  1267.29544158
0.36800002 23088.34209536  1277.93979551
0.36900002 23221.67738079  1675.44410239
0.37000002 23358.37884310  1429.88322861
0.37100002 23499.45535163  1704.65057196
0.37200002 23644.69881916  1719.79725008
0.37300002 23792.93598682  1601.74052651
0.37400002 23945.65106097  1346.94293599
0.37500002 24100.52387965  1767.05049456
0.37600002 24259.57691679  1371.87913963
0.37700002 24420.26918560  1938.48105978
0.37800002 24584.70048273  1397.64028865
0.37900002 24751.49431866  1410.83524300
0.38000002 24920.86802540  1566.65044263
0.38100002 25092.08595866  1581.55425290
0.38200002 25265.69107860  1741.81682547
0.38300002 25441.04188293  1905.02530644
0.38400002 25618.93924235  1627.44319247
0.38500002 25797.46677078  1941.77541583
0.38600002 25978.83726119  1508.07157446
0.38700002 26160.46486315  2131.55477803
0.38800002 26343.51407730  1537.14411923
0.38900002 26527.93283168  1551.88414417
0.39000002 26713.98511585  1880.13036153
0.39100002 26900.07492875  2530.75916920
0.39200002 27087.54717203  2554.89757031
0.39300002 27275.34664088  1934.36767542
0.39400002 27464.48679154  2278.17928729
0.39500002 27653.15300949  1971.11683990
0.39600002 27842.16088552  1989.60091114
0.39700002 28031.04967663  2175.48986847
0.39800002 28221.17104771  1689.03716723
0.39900002 28410.25575219  2045.53851107
0.40000002 28599.31296632  1720.24875643
0.40100002 28787.99739284  2430.28285505
0.40200002 28977.44505940  1751.68663683
0.40300002 29165.33792877  2297.64543089
0.40400002 29352.81729511  2318.13885571
0.40500002 29539.80721436  2158.76921351
0.40600002 29726.22432100  2359.22190502
0.40700002 29911.75241112  2013.65926773
0.40800002 30096.59641115  2400.35416050
0.40900002 30279.71771942  2420.86354637
0.41000002 30462.52300990  2253.61755905
0.41100002 30643.94208967  2461.93442414
0.41200002 30823.46216157  2100.46492853
0.41300002 31002.19488598  2310.28367237
0.41400002 31179.43081002  1940.91965989
0.41500002 31355.61972722  2347.90891643
0.41600002 31529.09515858  2366.57399474
0.41700002 31701.68041816  4372.93000409
0.41800002 31873.51151067  2203.57532270
0.41900002 32041.59921981  2422.34501580
0.42000002 32208.62005779  2237.37189833
0.42100002 32374.35300579  2049.29664237
0.42200002 32538.01673282  2890.35216334
0.42300002 32699.09220928  2287.62859936
0.42400002 32858.12108944  2513.64638245
0.42500002 33015.54917575  2531.63243076
0.42600002 33169.41991711  2124.50144636
0.42700002 33322.34031415  2353.22378450
0.42800002 33472.45328577  2584.74296521
0.42900002 33620.82060938  2819.10594169
0.43000002 33766.72035403  3056.22600407
0.43100002 33908.82339219  3515.66697590
0.43200002 34049.39809249  2432.65936200
0.43300002 34187.10813730  3115.81318329
0.43400002 34322.54279194  3135.36443262
0.43500002 34454.94541332  2704.02424418
0.43600002 34585.69182627  2720.51064798
0.43700002 34712.75659851  2736.75385992
0.43800002 34836.37461264  2293.97537695
0.43900002 34958.41654151  2999.43228140
0.44000002 35076.79519194  3016.42914548
0.44100002 35193.05453294  2799.95955133
0.44200002 35306.26080331  2346.10114156
0.44300002 35416.77757684  2358.75749840
0.44400002 35523.71189883  3082.57024611
0.44500002 35627.06677141  2621.79596796
0.44600002 35728.23287261  4072.48281698
0.44700002 35826.59695862  2648.30217269
0.44800002 35920.84970309  3145.05014480
0.44900002 36013.47181319  3160.18230137
0.45000002 36102.61469339  2686.57619973
0.45100002 36187.49385063  2698.86341929
0.45200002 36270.19154861  2957.47155904
0.45300002 36349.23859821  2970.45991902
0.45400002 36425.63964510  2734.65502596
0.45500002 36498.81797982  2496.51926814
0.45600002 36568.43468914  2757.44294842
0.45700002 36634.97251833  3271.86955068
0.45800002 36697.64390767  2779.29619307
0.45900002 36757.49631227  4058.02778520
0.46000002 36814.84724988  3309.47085038
0.46100002 36867.68822700  2554.93091522
0.46200002 36918.17237624  2563.96719305
0.46300002 36964.90754661  3087.30922462
0.46400002 37008.05172470  3097.57407617
0.46500002 37048.76083509  3366.62105665
0.46600002 37085.39523403  2597.83205927
0.46700002 37118.85986117  3648.04172006
0.46800002 37149.68372437  3136.17644865
0.46900002 37176.45323820  3931.41011627
0.47000002 37199.72058445  3416.60849901
0.47100002 37220.16946966  3162.22574802
0.47200002 37237.07612473  3962.95601441
0.47300002 37251.31952767  2648.56894395
0.47400002 37260.95480630  2920.32747136
0.47500002 37268.44094096  3459.25685210
0.47600002 37272.82992189  2933.55821805
0.47700002 37272.90781719  4275.94818746
