# SAXS profile: number of points = 501, q_min = 0, q_max = 0.5, delta_q = 0.001
#    q    intensity    error
0.00000000 1682732.95097189 277.65093691
0.00100000 1682663.86046234 605.75900415
0.00200000 1682456.52725548 1059.94764573
0.00300000 1682111.13069312 1312.04672868
0.00400000 1681627.52303678 1639.58689726
0.00500000 1681006.18868532 1966.77731861
0.00600000 1680246.83374875 2117.11109672
0.00700000 1679350.13879778 2418.26430037
0.00800000 1678315.53558794 2492.29867557
0.00900000 1677144.38030053 3018.86001359
0.01000000 1675835.80483517 2765.12919737
0.01100000 1674391.12757858 3616.68499304
0.01200000 1672809.75286405 4566.77082554
0.01300000 1671093.11284581 4913.01396845
0.01400000 1669240.37267491 5633.68650752
0.01500000 1667253.40605775 5201.83085853
0.01600000 1665131.06659823 6793.73505542
0.01700000 1662875.42698456 5387.71662512
0.01800000 1660485.99797593 5678.86236861
0.01900000 1657963.60793429 6963.44746753
0.02000000 1655308.87017347 6257.06781230
0.02100000 1652523.40393523 7634.65847232
0.02200000 1649605.43463338 6260.25290885
0.02300000 1646557.73025955 8298.65133825
0.02400000 1643380.40337685 7395.21215240
0.02500000 1640074.64923221 8954.80799378
0.02600000 1636640.52721100 9279.75221373
0.02700000 1633079.42035970 8916.61404355
0.02800000 1629390.92268191 9214.20609033
0.02900000 1625577.58940989 8046.60943703
0.03000000 1621639.99704942 9048.75159946
0.03100000 1617578.09924313 10870.12532708
0.03200000 1613393.02012991 9583.55498097
0.03300000 1609087.72457640 11488.88688312
0.03400000 1604659.88763170 10951.80423841
0.03500000 1600113.10562360 14689.03898794
0.03600000 1595447.01903572 12396.62391080
0.03700000 1590663.59970586 11786.81781893
0.03800000 1585763.93031074 13915.07913246
0.03900000 1580749.44182957 9484.49709020
0.04000000 1575618.87125177 10659.06215795
0.04100000 1570376.40344134 9893.37180040
0.04200000 1565022.22176614 12113.27255844
0.04300000 1559556.42031422 12351.68742223
0.04400000 1553982.72825233 12587.26068342
0.04500000 1548300.57611654 17093.23915456
0.04600000 1542510.49671793 17399.51921183
0.04700000 1536615.83631928 16595.45180407
0.04800000 1530616.48006154 12375.03481708
0.04900000 1524515.30971474 12577.25189059
0.05000000 1518311.77339849 11615.08560737
0.05100000 1512009.35633094 15331.77558741
0.05200000 1505606.27433207 15560.44157036
0.05300000 1499107.78608279 14571.32836001
0.05400000 1492512.35568565 13544.55025948
0.05500000 1485824.05975463 12480.92268416
0.05600000 1479041.07630387 16439.54233025
0.05700000 1472168.77629824 20492.59032264
0.05800000 1465205.54081781 14263.77660587
0.05900000 1458153.39393026 17060.39550580
0.06000000 1451015.15775269 14604.46824508
0.06100000 1443792.59993414 17455.45334892
0.06200000 1436485.85946617 20362.18800973
0.06300000 1429097.93662932 15091.27491640
0.06400000 1421627.48040652 13860.86858219
0.06500000 1414080.35988100 13999.39621768
0.06600000 1406454.53056594 14134.86869354
0.06700000 1398753.03583201 18547.46612313
0.06800000 1390978.87760125 17275.95846848
0.06900000 1383132.55638115 29045.78504390
0.07000000 1375213.97114040 20504.44126989
0.07100000 1367227.77041512 17719.27273451
0.07200000 1359172.84907121 20836.12075237
0.07300000 1351054.20402837 16496.37260413
0.07400000 1342870.78626096 16618.02675877
0.07500000 1334625.39069540 28907.98731745
0.07600000 1326317.86729971 24510.35533676
0.07700000 1317953.75278891 15420.05963065
0.07800000 1309531.27982114 15517.94639361
0.07900000 1301052.95516554 15612.63619428
0.08000000 1292522.16148208 17274.55949858
0.08100000 1283939.19125441 17371.69807272
0.08200000 1275304.97356109 20640.81196566
0.08300000 1266622.85811684 17555.39363741
0.08400000 1257892.92301589 19245.76262551
0.08500000 1249119.44735174 19336.36995275
0.08600000 1240301.89951473 21041.72271321
0.08700000 1231442.90252682 24382.57061498
0.08800000 1222542.22459722 17953.03341135
0.08900000 1213605.59771875 16383.67633874
0.09000000 1204631.32947933 19731.86210379
0.09100000 1195622.63837892 21449.47114024
0.09200000 1186580.25360373 19863.35437864
0.09300000 1177507.44251273 24904.28357945
0.09400000 1168402.90332816 19979.69058591
0.09500000 1159270.75660815 20032.19961576
0.09600000 1150111.99539148 23427.78244741
0.09700000 1140929.92136537 18448.83769581
0.09800000 1131725.00100733 21847.95217169
0.09900000 1122499.38892026 16837.49162554
0.10000000 1113252.42086043 18552.35246610
0.10100000 1103987.32893988 23647.40969807
0.10200000 1094706.13154946 23678.49473916
0.10300000 1085409.99924244 16932.39678469
0.10400000 1076101.35185591 20338.31650689
0.10500000 1066782.76736167 18658.03147900
0.10600001 1057451.08260791 28852.55414657
0.10700001 1048113.31965272 22073.26755060
0.10800001 1038767.50039661 23777.38920308
0.10900001 1029417.33847387 20382.46426110
0.11000001 1020063.03718061 20380.86044219
0.11100001 1010706.90297441 16979.87676927
0.11200001 1001351.01212797 22064.77059099
0.11300001 991994.57583223 18659.41884990
0.11400001 982641.84141753 22035.74433133
0.11500001 973293.48305149 35564.14554535
0.11600001 963950.05142973 20300.78903910
0.11700001 954614.69858795 20276.01715291
0.11800001 945285.75638942 28684.69762864
0.11900001 935967.41863984 23586.38006068
0.12000001 926659.97700825 18500.76731245
0.12100001 917366.94614326 21824.16067684
0.12200001 908086.34739819 25131.29084821
0.12300001 898822.11774140 21733.51983095
0.12400001 889573.76681792 16679.50891373
0.12500001 880343.93124341 16638.50108451
0.12600001 871134.87298089 24892.68016846
0.12700001 861946.17690004 23169.11432695
0.12800001 852778.34014716 16501.26165954
0.12900001 843634.81129047 21386.14347419
0.13000001 834515.76029398 18038.05900898
0.13100001 825421.61305218 21246.35332147
0.13200001 816355.66754509 17914.92596879
0.13300001 807318.79663696 19472.53029288
0.13400001 798309.87871485 17782.35338673
0.13500001 789332.53948895 19322.86147773
0.13600001 780386.12495402 25659.09699833
0.13700001 771473.23743634 23954.24515192
0.13800001 762592.95395061 15900.06383965
0.13900001 753750.35598666 17411.63404439
0.14000001 744942.11087623 17331.07902688
0.14100001 736171.86962410 18816.55387504
0.14200001 727438.53137194 17163.91295726
0.14300001 718747.31584026 24839.90840708
0.14400001 710091.90111950 16988.94953565
0.14500001 701481.46132503 16898.68920047
0.14600001 692910.79275700 19862.28881137
0.14700001 684386.21552970 16712.71217168
0.14800001 675903.21377143 19638.36880264
0.14900001 667464.47562609 19523.33683319
0.15000001 659072.17774614 19406.38118938
0.15100001 650726.40150116 17803.87518515
0.15200001 642429.31219478 16218.12875164
0.15300001 634180.03903036 14649.55959290
0.15400001 625977.59532192 20375.57168927
0.15500001 617826.69508949 15902.85988211
0.15600001 609724.73602489 17230.82185327
0.15700001 601677.08959367 14259.74769638
0.15800001 593676.58949417 16991.02479328
0.15900001 585731.96853111 25303.62223489
0.16000001 577838.20533213 16745.75198097
0.16100001 570001.43602730 16621.24265915
0.16200001 562216.52146887 16495.43351858
0.16300001 554487.93833609 16368.48471240
0.16400001 546814.58886768 17593.76022741
0.16500001 539197.74096557 16111.22926068
0.16600001 531636.95811676 18644.50900142
0.16700001 524133.46107133 18491.42937966
0.16800001 516686.31418072 15717.59841951
0.16900001 509299.55407877 20779.42278758
0.17000001 501970.62883925 12875.54723771
0.17100001 494700.61133020 16592.25928752
0.17200001 487490.13977606 16445.48064195
0.17300001 480339.63205750 18805.29748312
0.17400001 473250.09143458 13665.09703552
0.17500001 466220.39850644 16000.68483241
0.17600001 459249.88123339 19508.93587618
0.17700001 452343.04539108 14493.07185885
0.17800001 445496.97206403 19138.55082382
0.17900001 438712.36599142 15398.80477364
0.18000001 431990.63517726 15247.11018878
0.18100001 425332.27702176 18578.51473789
0.18200001 418733.50576131 13793.08233133
0.18300001 412200.31971081 15927.42110603
0.18400001 405728.42811866 14636.65373583
0.18500001 399320.68760685 18939.78110795
0.18600001 392976.07823849 13227.57541842
0.18700001 386694.46364927 14176.21970713
0.18800001 380475.79420553 11865.13820288
0.18900001 374323.08868767 13868.67109114
0.19000001 368230.07744160 13714.72988232
0.19100001 362205.58076121 10431.52121881
0.19200001 356241.88977910 12375.84383570
0.19300001 350344.05809123 12234.01508664
0.19400001 344509.29849986 12092.27694875
0.19500001 338739.09717095 13942.50189841
0.19600001 333031.70116246 13777.52212817
0.19700001 327388.95852212 13612.83353866
0.19800001 321810.23786560 12487.84687053
0.19900001 316296.20711265 12335.55266037
0.20000001 310844.10340992 9371.95016074
0.20100001 305457.45973505 14808.57834784
0.20200001 300133.40314692 11880.78132510
0.20300001 294873.54155178 9925.44387776
0.20400001 289677.14109938 11579.84426278
0.20500001 284543.34005759 10550.86754804
0.20600001 279473.18383053 13016.46415217
0.20700001 274466.11842593 11988.68061954
0.20800001 269521.48720203 9294.44892551
0.20900001 264641.91918493 12504.33127258
0.21000001 259822.51951475 12335.07469707
0.21100001 255065.39969662 8111.08009379
0.21200001 250370.58950098 16798.61549671
0.21300001 245737.32420308 10254.61902379
0.21400001 241167.05577643 10110.92929144
0.21500001 236658.30038757 9968.04808359
0.21600001 232208.99334237 9825.92401784
0.21700001 227821.83715455 8194.75186989
0.21800001 223494.98629924 8075.99171176
0.21900001 219227.37095178 9404.85465851
0.22000001 215019.81222606 7127.90711232
0.22100001 210874.27636839 8426.53648212
0.22200001 206786.93629035 8300.42801518
0.22300001 202758.39419542 7493.95060382
0.22400001 198787.24788652 10063.60490013
0.22500001 194877.49186978 9248.88620149
0.22600001 191024.19801902 6504.37425013
0.22700001 187229.45722589 6403.24773993
0.22800001 183491.45313208 7563.51805578
0.22900001 179810.07573294 6823.79269677
0.23000001 176185.50677373 7325.79371810
0.23100001 172618.78491727 7208.56079906
0.23200001 169106.02504057 5910.25585469
0.23300001 165650.01331482 8140.04203927
0.23400001 162248.94555489 6291.20316144
0.23500001 158901.43360751 9562.68872678
0.23600001 155609.03660637 6085.09166430
0.23700001 152370.37529797 5983.58492096
0.23800001 149185.26366902 7487.60873770
0.23900001 146053.18460303 6309.49787329
0.24000001 142973.52656526 8269.58916769
0.24100001 139947.00597448 5588.08421288
0.24200001 136971.76589529 4992.62110304
0.24300001 134047.87635719 5396.76775742
0.24400001 131174.16023011 5784.78073979
0.24500001 128351.37896082 10419.56543693
0.24600001 125578.61981036 5117.95689248
0.24700001 122856.09002114 5484.29611798
0.24800001 120181.54415851 5386.53706400
0.24900001 117555.62017543 5730.83675466
0.25000001 114978.29719107 5194.71971285
0.25100001 112448.06866213 5525.69835547
0.25200001 109966.14833041 4173.21552657
0.25300001 107530.98625197 4916.31692403
0.25400001 105141.31439442 4825.98655903
0.25500001 102797.66669643 5921.14588186
0.25600001 100499.66808393 5423.96734311
0.25700001 98246.39804109  5703.20367612
0.25800001 96037.24960355  4104.15205599
0.25900001 93872.46702264  5491.53958066
0.26000001 91751.41161558  4669.68831512
0.26100001 89671.33131053  3524.08348725
0.26200001 87636.39083151  5877.33482921
0.26300001 85641.97099274  4408.84887532
0.26400001 83688.83751234  3659.29459338
0.26500001 81777.69734359  4894.39541761
0.26600001 79906.09937577  3200.23943143
0.26700001 78075.76053132  4707.96858282
0.26800001 76284.65191002  3385.89443525
0.26900001 74532.18927476  3622.26457016
0.27000001 72819.02569218  3848.12159480
0.27100001 71143.87423626  3192.93722682
0.27200001 69506.70165682  3130.92952430
0.27300001 67906.25207139  2790.94709221
0.27400001 66341.52865366  4104.88227971
0.27500001 64815.14009653  3220.01631238
0.27600001 63322.66180796  3420.37373943
0.27700001 61867.01600974  3095.82562764
0.27800001 60445.28585064  3035.56239908
0.27900001 59058.45365507  3472.63723927
0.28000001 57705.19582857  2432.27411929
0.28100001 56385.19774694  4054.65976189
0.28200001 55098.70689023  3742.30434911
0.28300001 53844.62992722  2523.15947781
0.28400001 52622.65110308  2249.61844113
0.28500001 51432.65962555  3089.04568332
0.28600001 50272.90190035  2597.09823510
0.28700001 49144.40664443  2759.95000779
0.28800001 48045.57123898  2291.05317297
0.28900001 46977.95208531  2656.60331617
0.29000001 45938.29984364  2406.24825971
0.29100001 44928.64849957  2361.44987692
0.29200001 43946.96786856  2510.91012803
0.29300001 42993.23660142  2085.60200626
0.29400001 42066.97786710  2233.75663048
0.29500001 41168.87218201  2193.47761369
0.29600001 40296.43544324  1974.72691237
0.29700001 39450.14748160  1939.76384350
0.29800001 38630.37741795  1732.57250921
0.29900001 37835.88114346  2043.13767847
0.30000001 37066.25469960  2008.24977469
0.30100001 36322.25108509  1809.93785725
0.30200001 35601.10379959  2588.91239087
0.30300001 34904.34606748  2387.45738404
0.30400001 34231.66657358  2035.92846585
0.30500001 33580.73858650  1695.49157150
0.30600001 32952.59307325  1972.70707772
0.30700001 32347.32064839  1793.33554165
0.30800001 31763.55376147  1472.24078655
0.30900001 31201.06143136  1595.93436777
0.31000001 30660.35721282  2002.42802437
0.31100001 30138.68396473  1974.68666686
0.31200001 29638.44177340  1948.13487000
0.31300001 29157.44107241  1647.97864744
0.31400001 28697.41053828  1355.95271213
0.31500001 28255.38930524  1741.09717142
0.31600002 27832.42483147  1455.77504974
0.31700002 27427.38065433  2093.25779065
0.31800002 27040.78488236  1811.46226504
0.31900002 26672.07285597  1408.28551348
0.32000002 26320.38649851  1267.32666991
0.32100002 25986.12956651  1506.15614099
0.32200002 25668.61045996  1492.37308281
0.32300002 25366.71967939  1602.66942523
0.32400002 25081.15885081  1589.51851744
0.32500002 24810.72670247  1213.24459320
0.32600002 24556.12273320  1324.92566481
0.32700002 24316.27292849  1435.63282168
0.32800002 24091.86356051  1545.61357991
0.32900002 23880.48306717  1300.29236458
0.33000002 23684.79478248  1528.73515163
0.33100002 23500.39530975  1755.47961277
0.33200002 23331.76322591  1398.50595399
0.33300002 23175.00786361  1393.28153874
0.33400002 23031.69930358  1273.07723929
0.33500002 22900.31884048  1385.01134906
0.33600002 22781.15456605  1266.74615963
0.33700002 22673.31230936  1724.30548278
0.33800002 22578.27304436  1607.34733415
0.33900002 22493.42012099  1261.88092855
0.34000002 22420.13044882  1490.82664480
0.34100002 22357.45324038  1376.32488666
0.34200002 22306.24478339  1377.18761815
0.34300002 22263.74528434  1148.80931108
0.34400002 22232.13447837  1495.66691787
0.34500002 22209.65216064  1383.21720207
0.34600002 22197.86994219  1964.17861486
0.34700002 22193.09039172  1969.41493463
0.34800002 22198.83611370  1278.32003815
0.34900002 22212.76409190  1865.87227209
0.35000002 22235.14588857  1170.68048648
0.35100002 22265.77804458  1175.63313643
0.35200002 22303.44523418  1180.96748108
0.35300002 22349.40158761  1305.42860856
0.35400002 22403.03740854  1431.55415821
0.35500002 22463.63078814  1559.42532317
0.35600002 22530.67844874  1568.47325450
0.35700002 22604.76336951  1456.65102052
0.35800002 22685.86036178  1343.79700218
0.35900002 22772.81120630  1475.67823606
0.36000002 22866.50541309  1609.68772480
0.36100002 22965.25272292  1371.71461011
0.36200002 23070.84140763  1381.82811156
0.36300002 23180.18324753  2151.58471095
0.36400002 23295.57191321  1275.43262266
0.36500002 23415.45152644  1542.61001963
0.36600002 23540.82124334  1555.10672500
0.36700002 23670.42247911  1829.25033583
0.36800002 23805.83456514  1581.18360672
0.36900002 23944.49471936  3189.40684770
0.37000002 24086.43553951  1474.45122139
0.37100002 24232.74944060  1487.40623112
0.37200002 24383.22147910  1500.66543702
0.37300002 24536.59229458  1651.80347152
0.37400002 24694.43833111  1666.87466631
0.37500002 24854.30466841  1822.31770461
0.37600002 25018.28869655  1414.78429281
0.37700002 25183.92947856  1427.92886908
0.37800002 25353.12267796  1873.72262028
0.37900002 25524.70819266  1745.89012309
0.38000002 25698.81270884  1468.68721589
0.38100002 25874.60700973  1927.39956746
0.38200002 26052.73375529  1496.72962515
0.38300002 26232.63798649  2115.40002745
0.38400002 26414.86995582  1830.55057466
0.38500002 26597.75954121  2310.01552559
0.38600002 26783.14583718  1865.71402741
0.38700002 26968.91030697  1726.54971965
0.38800002 27156.00773389  1584.55312634
0.38900002 27344.27749005  1759.60433985
0.39000002 27534.15661537  1937.85403440
0.39100002 27723.93221930  2445.25093759
0.39200002 27915.04450681  1645.59195164
0.39300002 28106.21756616  1827.18529054
0.39400002 28298.79630679  1844.37413668
0.39500002 28490.66423137  1861.58008907
0.39600002 28682.81082038  2391.28605139
0.39700002 28874.72724163  2585.73194700
0.39800002 29067.76965550  1739.70609631
0.39900002 29259.77218905  3335.61418759
0.40000002 29451.36142043  1948.64942071
0.40100002 29642.63281679  2681.17626531
0.40200002 29834.48075953  1803.49444736
0.40300002 30024.61142494  2183.38984627
0.40400002 30214.32580081  2019.07241730
0.40500002 30403.35610822  2221.87736966
0.40600002 30591.73283265  1867.62537792
0.40700002 30779.00765593  1883.67535779
0.40800002 30965.36274936  2279.67011362
0.40900002 31150.00105010  2490.44270196
0.41000002 31334.21329597  2704.45607772
0.41100002 31516.84894683  2532.06376436
0.41200002 31697.47069017  2945.48760345
0.41300002 31877.14176655  2375.48471700
0.41400002 32055.09623107  2194.97281843
0.41500002 32231.90340224  2413.52504112
0.41600002 32405.94928227  2837.78911311
0.41700002 32578.96576555  2655.51162538
0.41800002 32751.04827072  2881.76487389
0.41900002 32919.25072844  2488.69547300
0.42000002 33086.22732638  2507.27442560
0.42100002 33251.68497556  2315.31493456
0.42200002 33415.02999294  2544.22050422
0.42300002 33575.60165878  2989.57171336
0.42400002 33734.05081317  2365.60042537
0.42500002 33890.67465475  2815.29847698
0.42600002 34043.59441887  2616.59079102
0.42700002 34195.40610506  2195.34517597
0.42800002 34344.25768577  2652.06370417
0.42900002 34491.21055740  2669.61982365
0.43000002 34635.66109701  4030.55207286
0.43100002 34776.14065672  2929.54222775
0.43200002 34914.84987683  2494.49156766
0.43300002 35050.58981550  2281.79350512
0.43400002 35183.96796451  2984.48022402
0.43500002 35314.09427688  3002.40443770
0.43600002 35442.46327695  2555.57893569
0.43700002 35566.99744851  3738.80294897
0.43800002 35687.90990343  2820.05877421
0.43900002 35807.05481595  2835.91887582
0.44000002 35922.46298113  3326.77945434
0.44100002 36035.66940986  2628.08149461
0.44200002 36145.59063925  4083.18684007
0.44300002 36252.71297881  2655.87387869
0.44400002 36356.08606761  3397.47640403
0.44500002 36455.69665781  2926.66346639
0.44600002 36553.04197614  2450.88158065
0.44700002 36647.49220674  2708.98275230
0.44800002 36737.58011562  2969.13136566
0.44900002 36825.95420987  2734.32722967
0.45000002 36910.76538719  3995.22143485
0.45100002 36991.14086248  3009.59936320
0.45200002 37069.17447744  3526.39073516
0.45300002 37143.36511853  3288.30226979
0.45400002 37214.91533452  3301.89351954
0.45500002 37283.00756089  2805.17362183
0.45600002 37347.52596732  2816.19032904
0.45700002 37408.73234305  2826.97803715
0.45800002 37465.96052781  2837.48465505
0.45900002 37520.29475536  2847.79050690
0.46000002 37571.94801523  3897.15049258
0.46100002 37618.91543015  3389.08825173
0.46200002 37663.44730047  3662.01715459
0.46300002 37704.23707671  2886.63652741
0.46400002 37741.15056378  2895.68991425
0.46500002 37775.67739595  4488.88395771
0.46600002 37805.88403400  2913.13253231
0.46700002 37832.78018075  2655.86129457
0.46800002 37857.05592080  3462.21721333
0.46900002 37877.02747322  4806.59501417
0.47000002 37893.40708253  3480.32013845
0.47100002 37906.93385233  3757.33546153
0.47200002 37916.76512515  2959.21407445
0.47300002 37924.01128033  3505.31652878
0.47400002 37926.23775087  3512.91793818
0.47500002 37926.35430419  4061.91273850
0.47600002 37923.35465273  3798.78261562
0.47700002 37915.80636823  4621.55785728
