# SAXS profile: number of points = 501, q_min = 0, q_max = 0.5, delta_q = 0.001
#    q    intensity    error
0.00000000 1682732.95097189 302.89193117
0.00100000 1682663.86715564 605.75900656
0.00200000 1682456.56060390 832.81602387
0.00300000 1682111.20151663 1513.90013529
0.00400000 1681627.65436776 1513.46494644
0.00500000 1681006.38621069 2118.06813046
0.00600000 1680247.14092006 3352.09318261
0.00700000 1679350.53962545 2216.74280443
0.00800000 1678316.05941650 3398.59016381
0.00900000 1677145.02797780 3018.86117941
0.01000000 1675836.62392474 3318.15665865
0.01100000 1674392.10485687 3616.68710396
0.01200000 1672810.93059150 3261.98145767
0.01300000 1671094.49626683 4211.15831632
0.01400000 1669241.99290365 4131.37411558
0.01500000 1667255.23158036 5201.83655416
0.01600000 1665133.15095880 5095.30766971
0.01700000 1662877.80582673 6734.65541571
0.01800000 1660488.67613179 6152.11082190
0.01900000 1657966.55478526 6466.06985543
0.02000000 1655312.13854882 5735.65681953
0.02100000 1652527.01055724 5998.67332029
0.02200000 1649609.37997849 6260.26788144
0.02300000 1646562.05539932 7705.91077003
0.02400000 1643385.09633684 9244.04158840
0.02500000 1640079.70902783 8954.83562026
0.02600000 1636646.03076570 9942.62509166
0.02700000 1633085.30827838 10288.43791338
0.02800000 1629397.27130275 9214.24199178
0.02900000 1625584.43117674 8046.64330378
0.03000000 1621647.28834871 9048.79228492
0.03100000 1617585.90815321 11646.61907460
0.03200000 1613401.30112107 11180.87153174
0.03300000 1609096.53299994 9847.67123594
0.03400000 1604669.20261904 10109.41644295
0.03500000 1600123.01364497 10368.79760723
0.03600000 1595457.42091375 9740.26800481
0.03700000 1590674.59504975 9066.84561110
0.03800000 1585775.52998921 9276.78727976
0.03900000 1580761.69013404 10433.02763804
0.04000000 1575631.76662948 11628.16297656
0.04100000 1570389.90777385 12861.49394101
0.04200000 1565036.35451844 19179.52141442
0.04300000 1559571.25980007 13381.12203021
0.04400000 1553998.24904888 11538.43753506
0.04500000 1548316.76450032 16025.07925718
0.04600000 1542527.41296244 13049.78252031
0.04700000 1536633.48004266 12170.13772795
0.04800000 1530634.79975393 13500.19956197
0.04900000 1524534.39888699 13720.81022865
0.05000000 1518331.67172879 22068.95187624
0.05100000 1512030.08361014 12973.21872172
0.05200000 1505627.65719154 14363.68851897
0.05300000 1499130.00197712 14571.54429851
0.05400000 1492535.44812982 14776.10162555
0.05500000 1485847.96711214 17473.57290837
0.05600000 1479065.81490630 17704.41863059
0.05700000 1472194.40748969 17931.32872023
0.05800000 1465231.97007276 16857.49460280
0.05900000 1458180.69077634 20997.80292790
0.06000000 1451043.49047993 19915.57283727
0.06100000 1443821.81120322 18798.56086035
0.06200000 1436515.87881680 14932.58325830
0.06300000 1429128.96511591 15091.60257724
0.06400000 1421659.41480651 15247.29793687
0.06500000 1414113.28079742 20999.58320216
0.06600000 1406488.34286179 21202.81276069
0.06700000 1398787.79762562 21401.45430524
0.06800000 1391014.68465654 17276.40319213
0.06900000 1383169.21643428 20332.58843353
0.07000000 1375251.74430175 14646.43176268
0.07100000 1367266.51894907 16243.12700591
0.07200000 1359212.66640844 16371.71733385
0.07300000 1351095.00793106 14997.15529074
0.07400000 1342912.60566821 16618.54427396
0.07500000 1334668.30079826 27387.39481610
0.07600000 1326361.91891756 16851.42896985
0.07700000 1317998.82534718 21588.82177145
0.07800000 1309577.51121374 17070.34365921
0.07900000 1301100.22628840 17174.52379256
0.08000000 1292570.45547381 18845.67812488
0.08100000 1283988.59656399 26848.20281382
0.08200000 1275355.64468803 20641.63207789
0.08300000 1266674.42994868 17556.10842303
0.08400000 1257945.73153662 20850.45147891
0.08500000 1249173.45824497 19337.20604142
0.08600000 1240356.95183925 19423.99077779
0.08700000 1231499.17882328 16255.78992380
0.08800000 1222599.60133263 21218.21707762
0.08900000 1213664.24387921 24576.70209291
0.09000000 1204691.11402523 19732.84137469
0.09100000 1195683.54986811 19800.52051607
0.09200000 1186642.28768004 19864.39282913
0.09300000 1177570.74169629 18264.12306198
0.09400000 1168467.42784812 19980.79395525
0.09500000 1159336.44205263 18363.89010527
0.09600000 1150179.00729668 21755.63694570
0.09700000 1140998.09179359 16772.67273790
0.09800000 1131794.37134350 16807.14720468
0.09900000 1122569.94317640 23573.96991521
0.10000000 1113324.20662902 25300.29378545
0.10100000 1104060.35709424 25338.18638701
0.10200000 1094780.38031724 21988.66497294
0.10300000 1085485.41792428 18626.93064781
0.10400000 1076178.01708188 27119.68730631
0.10500000 1066860.77553671 18659.39584205
0.10600001 1057530.30090334 18670.69834097
0.10700001 1048193.83746872 18678.81506267
0.10800001 1038849.12438869 18683.70238142
0.10900001 1029500.26506419 27178.80827688
0.11000001 1020147.18917693 23779.63209901
0.11100001 1010792.26897410 18679.44200995
0.11200001 1001437.66273180 22066.67993713
0.11300001 992082.34821514 18661.06984850
0.11400001 982730.93774734 20342.53136919
0.11500001 973383.90355719 22017.94493524
0.11600001 964041.81845230 18610.82818163
0.11700001 954707.52261918 20277.98873542
0.11800001 945379.99332527 16875.03367564
0.11900001 936062.84327446 25273.69795884
0.12000001 926756.60171965 20184.75973626
0.12100001 917464.72417847 18468.56576773
0.12200001 908185.31537942 20107.22382978
0.12300001 898922.39180897 20063.94873048
0.12400001 889675.30695792 26690.26046632
0.12500001 880446.73133812 19968.53280768
0.12600001 871238.77332066 19916.51929665
0.12700001 862051.34051723 23171.94112511
0.12800001 852884.81404136 26405.31508718
0.12900001 843742.33922328 23034.16694644
0.13000001 834624.65654197 21320.48785630
0.13100001 825531.54237026 22883.73543319
0.13200001 816466.84448306 22803.92004140
0.13300001 807431.20495257 17852.30478311
0.13400001 798423.53801556 19401.69288848
0.13500001 789447.33439337 20936.14429521
0.13600001 780502.08038595 20851.11406066
0.13700001 771590.27891558 19166.30343202
0.13800001 762711.21255708 17492.78248488
0.13900001 753869.82802565 20580.64727565
0.14000001 745062.64969072 18909.69094094
0.14100001 736293.46424876 15683.05152816
0.14200001 727561.27957420 21848.66625611
0.14300001 718871.04193178 15527.61523813
0.14400001 710216.75734430 16991.93672097
0.14500001 701607.47326541 15365.20438932
0.14600001 693037.89479895 15281.48630121
0.14700001 684514.35154645 19755.08511761
0.14800001 676032.37149038 18131.18905878
0.14900001 667594.80210301 19527.14888282
0.15000001 659203.53362351 14930.96074106
0.15100001 650858.75400806 20775.41240822
0.15200001 642562.48777742 20645.53370649
0.15300001 634314.34425590 21978.99306563
0.15400001 626112.84290674 16012.83671300
0.15500001 617962.99542799 18798.43520807
0.15600001 609861.83594549 15798.47160578
0.15700001 601815.19187503 17115.62486473
0.15800001 593815.58493370 16995.00284294
0.15900001 585871.86391831 18279.20301704
0.16000001 577978.99786827 16749.83214886
0.16100001 570143.07844286 15239.92520617
0.16200001 562359.04800116 17874.58318451
0.16300001 554631.31177009 17737.11018774
0.16400001 546958.64416671 17598.39520688
0.16500001 539342.73216225 17458.52506433
0.16600001 531782.86789218 17317.50991052
0.16700001 524279.91907547 15854.22550140
0.16800001 516833.59556234 14411.90549273
0.16900001 509447.67974265 15589.09973621
0.17000001 502119.29101646 15455.23250728
0.17100001 494850.04077660 19150.69748238
0.17200001 487640.23784384 13919.69124658
0.17300001 480490.29860822 15048.95686309
0.17400001 473401.47894129 18640.18411362
0.17500001 466372.35793268 13543.45391399
0.17600001 459402.47654611 15856.27722687
0.17700001 452496.29193870 13289.81672193
0.17800001 445650.69521731 11965.72173175
0.17900001 438866.64051076 11849.39985348
0.18000001 432145.41032671 15252.57297794
0.18100001 425487.52614655 15100.55301624
0.18200001 418889.28293601 12648.36249573
0.18300001 412356.48487736 13657.24742430
0.18400001 405885.03391650 14642.30329025
0.18500001 399477.82434183 13374.51819080
0.18600001 393133.35008824 15438.34738733
0.18700001 386852.12640048 12000.15352789
0.18800001 380633.77289934 12949.16156583
0.18900001 374481.37001071 17076.35127930
0.19000001 368388.77124278 11609.77267426
0.19100001 362364.57126383 12523.32017461
0.19200001 356400.80252690 18572.04669723
0.19300001 350503.45870876 13259.54646950
0.19400001 344668.60652299 12097.86866063
0.19500001 338898.69885390 9963.62221714
0.19600001 333191.44049627 15753.29205111
0.19700001 327548.79069605 10701.01949774
0.19800001 321970.24372456 10571.89345231
0.19900001 316456.17848045 11392.42296370
0.20000001 311004.12987547 9376.77495890
0.20100001 305617.41391071 10186.22888707
0.20200001 300293.29836777 10972.71764097
0.20300001 295033.41983222 10833.62768829
0.20400001 289836.98541042 8912.48772263
0.20500001 284703.04952584 10556.78957540
0.20600001 279632.80873808 10419.11894607
0.20700001 274625.39952187 11138.80673113
0.20800001 269680.73999282 13527.18655747
0.20900001 264800.81433628 9175.34865048
0.21000001 259981.08102475 11519.76224477
0.21100001 255223.75013118 8116.11563785
0.21200001 250528.59020919 11206.14436982
0.21300001 245895.12298752 10261.20396737
0.21400001 241324.31776406 11674.06442375
0.21500001 236815.16830425 9207.37417897
0.21600001 232365.53458815 10588.89791181
0.21700001 227977.79412068 8945.84906425
0.21800001 223650.54399729 9550.99693298
0.21900001 219382.36328022 7963.58016360
0.22000001 215174.26221995 7133.02712986
0.22100001 211028.13781548 7027.23732153
0.22200001 206940.11984475 8306.57680334
0.22300001 202911.03159625 8863.15427922
0.22400001 198939.10674668 8057.03420423
0.22500001 195028.67288490 7272.61955578
0.22600001 191174.61436395 8462.34470499
0.22700001 187379.20029712 7690.04274385
0.22800001 183640.29306539 7569.65323812
0.22900001 179958.14554475 6208.55631490
0.23000001 176332.66840637 10386.87632369
0.23100001 172765.09883518 6012.22572380
0.23200001 169251.43747964 6506.87182164
0.23300001 165794.49138383 8147.14169192
0.23400001 162392.46246866 9158.93531641
0.23500001 159043.91667398 8445.23237482
0.23600001 155750.43817894 6090.62117306
0.23700001 152510.72237224 5989.09635083
0.23800001 149324.55377620 5888.61405669
0.23900001 146191.32009380 8420.62043569
0.24000001 143110.41546875 5173.44176390
0.24100001 140082.85432917 5085.00785268
0.24200001 137106.22923350 6496.77897954
0.24300001 134181.13339502 4911.02971456
0.24400001 131306.18797741 6273.15342736
0.24500001 128482.06840912 5215.08740342
0.24600001 125708.01485326 6054.72682183
0.24700001 122984.04188716 5947.50854702
0.24800001 120308.23246509 6290.91777320
0.24900001 117680.69509811 7502.14466741
0.25000001 115102.00298600 5200.30874092
0.25100001 112570.31555970 5106.18975536
0.25200001 110086.89890616 5013.35761337
0.25300001 107650.16020709 4511.61842773
0.25400001 105258.89827202 5636.61426914
0.25500001 102913.67730113 5137.45101394
0.25600001 100614.06194145 4654.40672562
0.25700001 98359.07553557  6090.39424532
0.25800001 96148.35364873  5603.04557398
0.25900001 93981.73652465  5131.40305704
0.26000001 91858.96648316  4315.53444957
0.26100001 89777.26713243  4586.72079482
0.26200001 87740.47047555  4499.77024125
0.26300001 85744.21847315  5432.75393952
0.26400001 83789.21735293  3330.62154738
0.26500001 81876.28563790  4246.92313700
0.26600001 80002.79434984  4485.75689146
0.26700001 78170.48314110  3456.69892807
0.26800001 76377.49407180  3390.01523480
0.26900001 74623.02171085  3324.45577454
0.27000001 72907.85142531  3556.44516083
0.27100001 71230.66538840  2906.21128538
0.27200001 69591.45329425  3134.74716199
0.27300001 67988.93600267  3632.64902253
0.27400001 66422.13456398  3287.89581652
0.27500001 64893.68853834  2955.25871589
0.27600001 63399.00909978  3161.07474332
0.27700001 61941.24017067  3616.12977230
0.27800001 60517.31598567  2532.64979386
0.27900001 59128.29865586  2731.72752719
0.28000001 57772.85194354  2922.15098961
0.28100001 56450.60096445  3820.57685410
0.28200001 55161.86527006  2341.62129154
0.28300001 53905.43791822  2985.28329320
0.28400001 52681.25868804  3152.97348171
0.28500001 51488.88779188  2429.76072990
0.28600001 50326.93890982  3249.86223392
0.28700001 49195.95925718  2975.37175671
0.28800001 48094.79255758  2501.89122727
0.28900001 47024.80461833  2659.25282704
0.29000001 45982.73572921  2408.57581150
0.29100001 44970.68419262  2757.60248522
0.29200001 43986.59372300  2319.85306276
0.29300001 43030.40524507  3225.98963393
0.29400001 42101.67756083  2235.59918431
0.29500001 41201.05121356  2926.92281676
0.29600001 40326.22068313  2155.83985977
0.29700001 39477.38239267  1941.10298414
0.29800001 38655.05448002  1907.04720305
0.29900001 37858.04521650  1703.61211539
0.30000001 37085.98205578  1841.87538599
0.30100001 36339.40504458  2633.88020232
0.30200001 35615.69608921  2266.22684944
0.30300001 34916.33615520  1592.18500405
0.30400001 34241.09041504  1879.83595278
0.30500001 33587.58976087  2004.17157591
0.30600001 32956.82976461  2428.25933202
0.30700001 32348.89066297  1793.42258326
0.30800001 31762.56950416  1913.85371608
0.30900001 31197.47729391  1740.81931542
0.31000001 30654.15875211  1573.01823084
0.31100001 30129.84344330  2115.11510986
0.31200001 29626.96605284  1390.98612204
0.31300001 29143.34198905  2333.50750355
0.31400001 28680.71693693  1761.71312126
0.31500001 28236.02730237  1472.22653325
0.31600002 27810.41345088  1851.33931108
0.31700002 27402.63894372  1568.52712741
0.31800002 27013.37575433  1809.62612747
0.31900002 26642.02825462  2046.10786684
0.32000002 26287.75103808  1645.48185414
0.32100002 25950.87130769  1754.79800092
0.32200002 25630.66788445  1738.52828492
0.32300002 25326.05397725  1600.10016605
0.32400002 25037.90457744  1586.77727773
0.32500002 24764.81820984  2179.79940205
0.32600002 24507.62796602  1442.51905039
0.32700002 24265.08868034  1313.22666156
0.32800002 24038.03022027  1423.53221705
0.32900002 23824.03124306  1179.28960237
0.33000002 23625.71170944  1290.31830611
0.33100002 23438.68839026  1634.14543195
0.33200002 23267.50136448  1394.65409783
0.33300002 23108.14589086  1157.71816396
0.33400002 22962.21284802  1153.85125025
0.33500002 22828.24394672  1495.70661422
0.33600002 22706.56376336  1721.72527889
0.33700002 22596.01741566  1145.61813723
0.33800002 22498.54758581  1258.45631881
0.33900002 22411.11126384  1485.85674716
0.34000002 22335.29461253  1142.45037354
0.34100002 22270.11877719  1142.45714738
0.34200002 22216.38783154  1143.03320807
0.34300002 22171.40132215  1258.44879864
0.34400002 22137.24894977  1145.60268741
0.34500002 22112.39704131  1491.92349903
0.34600002 22098.13357933  1380.24948873
0.34700002 22090.88365038  1383.77301740
0.34800002 22094.20834462  1156.63186162
0.34900002 22105.72840664  1624.77111484
0.35000002 22125.80639283  1164.92376176
0.35100002 22154.01841119  1871.57156402
0.35200002 22189.36339987  1762.39027151
0.35300002 22232.99410577  1534.74365581
0.35400002 22284.33448963  1305.30495455
0.35500002 22342.63432929  1431.71607563
0.35600002 22407.43944800  1559.89397106
0.35700002 22479.29369550  1327.85194149
0.35800002 22558.16476834  1700.66012244
0.35900002 22642.99547702  1222.72181367
0.36000002 22734.52072767  2215.93384029
0.36100002 22830.98704130  1487.66718608
0.36200002 22934.51220233  1998.05479771
0.36300002 23041.73915164  1887.11852591
0.36400002 23155.05234959  1394.51309381
0.36500002 23272.90819808  1533.21926471
0.36600002 23396.28018428  1803.15139921
0.36700002 23523.84910448  1688.07149170
0.36800002 23657.34156167  1309.43391746
0.36900002 23793.98057166  1716.73577957
0.37000002 23934.08818004  1864.70489844
0.37100002 24078.48359580  1612.29533795
0.37200002 24227.16436969  1762.16288390
0.37300002 24378.70812571  1641.17470877
0.37400002 24534.73910735  2208.12662426
0.37500002 24692.82258768  1949.74536388
0.37600002 24855.18524298  1546.11687128
0.37700002 25019.06285230  1702.29711711
0.37800002 25186.63757430  1431.86041393
0.37900002 25356.62658718  1445.32778394
0.38000002 25529.07714692  2188.48024209
0.38100002 25703.33438789  1914.64146926
0.38200002 25879.93595903  1635.48263041
0.38300002 26058.35762274  1651.05761719
0.38400002 26239.15368310  1666.84231668
0.38500002 26420.56643144  1682.72595574
0.38600002 26604.69645648  1853.28324296
0.38700002 26789.01269511  1559.12061272
0.38800002 26974.79893632  2518.36734800
0.38900002 27161.85108972  1906.76203683
0.39000002 27350.43815523  2245.74458332
0.39100002 27539.02749751  3076.66029778
0.39200002 27728.93690311  1798.08299867
0.39300002 27919.05406814  1650.01617360
0.39400002 28110.54937333  2498.32519392
0.39500002 28301.37399869  2521.65254275
0.39600002 28492.52597087  2884.44100332
0.39700002 28683.44855146  1883.64215562
0.39800002 28875.60877215  2246.66684696
0.39900002 29066.62760811  1918.39751303
0.40000002 29257.41715755  1759.83372541
0.40100002 29447.89969735  2130.85012306
0.40200002 29638.92460890  2329.17500075
0.40300002 29828.39341703  1807.60072672
0.40400002 30017.39555702  2917.69098638
0.40500002 30205.74038901  1839.52967685
0.40600002 30393.46883547  2597.72990445
0.40700002 30580.26395074  2245.81469095
0.40800002 30766.07734067  2264.99872114
0.40900002 30950.28804144  1903.44280474
0.41000002 31134.05438730  2303.29745271
0.41100002 31316.28852806  2322.41606728
0.41200002 31496.54196410  2146.33195384
0.41300002 31675.90647367  2360.48866226
0.41400002 31853.62412734  1982.88819588
0.41500002 32030.18806750  1998.68383012
0.41600002 32204.03868654  2618.67152988
0.41700002 32376.87866816  2030.03038868
0.41800002 32548.87411706  2250.26651871
0.41900002 32716.97376137  2679.52027802
0.42000002 32884.00234644  2907.27478521
0.42100002 33049.51440273  2510.44123299
0.42200002 33212.91371448  2318.09542255
0.42300002 33373.59988769  2971.58547481
0.42400002 33532.15048828  2778.97710340
0.42500002 33689.03647364  2368.00248594
0.42600002 33842.17241965  2817.86862005
0.42700002 33994.26456233  3055.40464365
0.42800002 34143.48276831  2636.55986431
0.42900002 34290.83063449  3317.63802110
0.43000002 34435.64606195  2894.14401042
0.43100002 34576.60571391  2912.73340337
0.43200002 34715.82226454  2254.79276293
0.43300002 34852.09600085  3176.42018004
0.43400002 34986.04893242  2282.83980102
0.43500002 35116.79540647  2755.96623410
0.43600002 35245.81577007  2310.36333321
0.43700002 35371.03873023  2556.26509017
0.43800002 35492.74469350  2570.91708371
0.43900002 35612.60901968  3055.56199869
0.44000002 35728.90995769  2599.81425628
0.44100002 35842.95627829  3564.58217080
0.44200002 35953.80681487  2389.13057607
0.44300002 36061.88525118  2641.89383870
0.44400002 36166.19809555  2655.50322101
0.44500002 36266.90082451  3639.38367021
0.44600002 36365.35973111  2925.95698263
0.44700002 36460.86371999  2940.20418972
0.44800002 36552.10326529  2707.96269874
0.44900002 36641.68016589  2473.31352841
0.45000002 36727.65206025  3230.01351352
0.45100002 36809.35302080  2495.67425309
0.45200002 36888.69273513  2757.24546916
0.45300002 36964.23205993  3020.71718710
0.45400002 37037.13638282  4297.23395248
0.45500002 37106.66283926  4060.95337359
0.45600002 37172.63343610  3567.45779994
0.45700002 37235.33457193  3837.10140949
0.45800002 37294.05821487  2567.69602979
0.45900002 37349.95634349  3092.57653181
0.46000002 37403.19905760  3362.36073864
0.46100002 37451.79067624  3374.03198193
0.46200002 37497.97030306  3645.92782536
0.46300002 37540.46564283  3135.37983909
0.46400002 37579.14434128  4193.83270725
0.46500002 37615.37367228  3155.17769317
0.46600002 37647.40217797  3164.64077707
0.46700002 37676.11255569  4231.78116282
0.46800002 37702.22922651  4243.76312287
0.46900002 37724.10933167  2925.50481733
0.47000002 37742.39763480  3999.75077892
0.47100002 37757.89596527  3207.91099325
0.47200002 37769.70652099  3215.71296561
0.47300002 37778.94720683  3223.29992846
0.47400002 37783.26456753  3230.46927364
0.47500002 37785.42636216  3777.03139818
0.47600002 37784.46674715  4595.91383063
0.47700002 37779.06062676  2979.63465286
