# SAXS profile: number of points = 501, q_min = 0, q_max = 0.5, delta_q = 0.001
#    q    intensity    error
0.00000000 1664650.74656090 274.66737318
0.00100000 1664582.23494409 699.12455528
0.00200000 1664376.64343406 973.66036724
0.00300000 1664034.14178971 1198.10462477
0.00400000 1663554.58737073 1247.66598794
0.00500000 1662938.46456926 1646.30914509
0.00600000 1662185.50706884 1919.82433882
0.00700000 1661296.31905210 2591.62236543
0.00800000 1660270.40031683 2241.36513506
0.00900000 1659109.06559327 3484.12918668
0.01000000 1657811.49518180 3008.92799368
0.01100000 1656378.95148354 3279.63046673
0.01200000 1654810.84964530 3226.88129829
0.01300000 1653108.65605376 3471.52833082
0.01400000 1651271.49704357 4458.43323966
0.01500000 1649301.22742382 5145.82005870
0.01600000 1647196.76180667 4200.35193038
0.01700000 1644960.10502078 4885.53173107
0.01800000 1642590.84319651 6553.93775927
0.01900000 1640089.70568259 5412.29627297
0.02000000 1637457.30994872 6189.58891160
0.02100000 1634695.34478199 5394.49488236
0.02200000 1631801.97118928 5629.71705637
0.02300000 1628780.05453242 6449.96930954
0.02400000 1625629.59997283 6096.11127787
0.02500000 1622351.74400775 7592.60650872
0.02600000 1618946.73217068 6556.73456519
0.02700000 1615415.74455524 7463.22108167
0.02800000 1611758.49255375 9815.60966979
0.02900000 1607977.53264054 8683.07907494
0.03000000 1604073.36990720 11188.41226938
0.03100000 1600046.01126516 7680.22120746
0.03200000 1595896.43951609 7899.68773945
0.03300000 1591627.83093140 10552.49300555
0.03400000 1587237.64739983 8332.99803334
0.03500000 1582729.65190999 10256.08861798
0.03600000 1578103.34336542 17516.94792088
0.03700000 1573360.77492857 13452.23524777
0.03800000 1568503.01961634 12846.04032517
0.03900000 1563531.40786300 11257.42665795
0.04000000 1558444.84343184 11501.32347749
0.04100000 1553247.35794848 12721.09645143
0.04200000 1547939.10230521 9984.20767306
0.04300000 1542520.28704543 16289.01498730
0.04400000 1536994.63018986 11412.18565916
0.04500000 1531361.42005896 12679.67314725
0.04600000 1525621.28716734 11831.19363198
0.04700000 1519777.54181737 17507.83809599
0.04800000 1513829.99111983 14464.64623816
0.04900000 1507781.67266020 14700.87199273
0.05000000 1501631.90966076 17231.22696575
0.05100000 1495384.27239702 12830.39765486
0.05200000 1489036.71129841 15389.19512843
0.05300000 1482594.90879298 15611.72511738
0.05400000 1476057.03606995 15830.71245010
0.05500000 1469427.09776796 19749.10111528
0.05600000 1462703.36106484 20009.78291311
0.05700000 1455891.33525692 13932.88072878
0.05800000 1448989.07729057 14105.90932606
0.05900000 1441999.03237032 16871.38946672
0.06000000 1434923.56125459 14442.50631876
0.06100000 1427764.55592550 13278.21099062
0.06200000 1420522.33101341 13423.93665556
0.06300000 1413199.73168868 16280.06167023
0.06400000 1405795.37970724 16447.80671178
0.06500000 1398315.26106908 13843.32173214
0.06600000 1390757.10228365 15374.82048511
0.06700000 1383124.23038801 16929.44137223
0.06800000 1375419.36473909 15659.15020055
0.06900000 1367643.06215709 15796.27810748
0.07000000 1359795.47273044 15930.00470901
0.07100000 1351880.84230018 17520.37653683
0.07200000 1343898.31847027 17658.82473196
0.07300000 1335852.61943056 20759.15067863
0.07400000 1327743.02584800 23899.37558529
0.07500000 1319572.09089320 21060.37155781
0.07600000 1311339.84828979 19689.76874514
0.07700000 1303051.55270663 19819.41504597
0.07800000 1294705.75531305 16876.49031195
0.07900000 1286304.54139705 18522.78626491
0.08000000 1277851.55403199 17078.48682081
0.08100000 1269347.01229580 21858.15657728
0.08200000 1260792.10340568 17266.54866638
0.08300000 1252189.49063446 25244.14131595
0.08400000 1243540.00935804 15855.13586353
0.08500000 1234847.45848150 19115.43955467
0.08600000 1226111.25347898 19200.90313099
0.08700000 1217334.55760597 19282.58029794
0.08800000 1208516.37156338 24200.54147711
0.08900000 1199662.94022783 19434.54054453
0.09000000 1190772.41171889 17879.44860186
0.09100000 1181847.98719200 27726.15508213
0.09200000 1172890.23579008 21270.36542548
0.09300000 1163902.68399633 22975.44006175
0.09400000 1154883.77922471 16457.09462739
0.09500000 1145837.90752508 21450.08663708
0.09600000 1136765.88246295 16539.94436734
0.09700000 1127670.80672120 19892.11396575
0.09800000 1118553.31201377 16610.51746439
0.09900000 1109415.63251028 24961.85290525
0.10000000 1100257.08874813 25003.34351764
0.10100000 1091080.68638315 18362.88881547
0.10200000 1081888.58919399 21729.73333605
0.10300000 1072681.93837022 25100.75853862
0.10400000 1063463.11466615 18424.49932837
0.10500000 1054234.78318235 20114.80060951
0.10600001 1044993.53676476 21803.79117054
0.10700001 1035746.87933631 25168.65035225
0.10800001 1026491.98479812 18461.45921542
0.10900001 1017233.34152695 25176.52638774
0.11000001 1007970.66066015 20139.25474794
0.11100001 998706.49750973 18456.09694277
0.11200001 989443.08304974 16771.06104723
0.11300001 980178.98658703 30169.91062757
0.11400001 970919.03306016 25122.53116331
0.11500001 961663.68172701 23426.12838996
0.11600001 952413.38237009 20057.82677727
0.11700001 943171.23812017 23371.78438131
0.11800001 933935.92951750 16670.75712705
0.11900001 924711.24667207 16644.80322409
0.12000001 915497.70466160 19939.54094678
0.12100001 906298.46219414 24877.89395918
0.12200001 897112.10986238 21517.23496875
0.12300001 887942.09347456 18167.29608843
0.12400001 878788.15794887 19772.73448549
0.12500001 869652.78506502 18080.08225344
0.12600001 860538.18436916 19671.90382169
0.12700001 851444.11669108 22886.81893523
0.12800001 842371.11240658 26079.81086923
0.12900001 833322.16213361 19499.73951299
0.13000001 824297.84344379 24296.18008070
0.13100001 815298.48724450 17757.20188922
0.13200001 806327.27414004 22520.72182837
0.13300001 797385.16369599 19232.93105505
0.13400001 788471.06422553 17563.19378365
0.13500001 779588.46816437 19084.32660046
0.13600001 770736.80141012 30093.41982999
0.13700001 761918.49037683 18926.05619339
0.13800001 753132.80737138 21983.94768384
0.13900001 744384.69818637 17195.28733900
0.14000001 735670.83411971 20227.27053805
0.14100001 726994.78706507 21678.98557273
0.14200001 718355.72770714 18490.47730329
0.14300001 709758.37745505 15330.78167615
0.14400001 701196.99405352 24401.65654409
0.14500001 692680.45784351 21237.58383930
0.14600001 684203.33459283 21121.35793527
0.14700001 675772.29064366 24003.43289606
0.14800001 667382.43699041 17899.19780454
0.14900001 659036.93975353 17793.99821288
0.15000001 650737.54296328 14739.20604356
0.15100001 642484.59722482 17578.37940951
0.15200001 634279.75236372 16012.39310400
0.15300001 626122.81102410 17356.12514061
0.15400001 618012.41296813 14368.78927959
0.15500001 609953.38312486 17127.49180644
0.15600001 601942.66369995 17010.90047899
0.15700001 593986.25755208 18300.71745892
0.15800001 586076.86414996 16773.52064366
0.15900001 578222.97367269 13877.35202316
0.16000001 570419.40213611 15153.19213301
0.16100001 562672.54373851 17774.82649575
0.16200001 554977.47236633 13569.19983991
0.16300001 547338.23235440 14810.97326670
0.16400001 539753.84318746 17366.58072443
0.16500001 532225.67407343 19878.62986514
0.16600001 524753.47753047 13145.07523276
0.16700001 517337.63560057 15644.29083920
0.16800001 509978.15894634 12927.94693970
0.16900001 502678.59901288 15381.96585610
0.17000001 495436.34221125 16520.32561112
0.17100001 488252.69985975 16375.99632659
0.17200001 481128.34606257 17479.39363788
0.17300001 474063.26417313 19796.88284677
0.17400001 467058.78501825 13486.32305431
0.17500001 460113.80001655 15791.10636234
0.17600001 453227.54919755 18049.78799927
0.17700001 446404.60732629 11919.00357855
0.17800001 439641.65133652 12984.81678552
0.17900001 432939.93024144 18703.00586984
0.18000001 426300.51340054 12731.46543408
0.18100001 419724.03490813 14896.00670252
0.18200001 413206.71364370 13611.02979038
0.18300001 406754.23970859 13471.70105554
0.18400001 400362.84012786 16665.10400759
0.18500001 394034.99707375 12092.93463149
0.18600001 387769.67728289 15227.71594631
0.18700001 381566.78742550 11836.20230514
0.18800001 375426.50136871 11707.67599833
0.18900001 369351.48072198 15789.77654689
0.19000001 363335.69527641 14573.39542611
0.19100001 357387.97373092 12351.32895574
0.19200001 351499.96622611 14246.29430430
0.19300001 345677.79993753 13076.99178956
0.19400001 339917.90439753 15908.15867753
0.19500001 334222.09844460 10808.74317447
0.19600001 328588.46668861 10680.76861445
0.19700001 323019.02532552 10553.03205610
0.19800001 317512.82963565 10425.53425378
0.19900001 312070.76596376 11234.54810564
0.20000001 306690.15099558 9246.70848953
0.20100001 301374.24373917 10957.96802026
0.20200001 296120.30424766 11721.92279766
0.20300001 290930.00524440 9792.70443937
0.20400001 285802.54303047 16698.01436580
0.20500001 280736.93720091 11277.20330040
0.20600001 275734.61346693 11986.18421397
0.20700001 270794.42683748 11828.30112337
0.20800001 265916.39892076 9170.12745026
0.20900001 261102.47171524 9047.20107261
0.21000001 256348.10925836 10547.44345404
0.21100001 251655.44602030 8802.90791793
0.21200001 247024.47180947 10260.16192165
0.21300001 242454.47116006 8561.06778139
0.21400001 237946.57586448 9208.53292130
0.21500001 233499.66352524 8321.92840148
0.21600001 229111.68204654 10440.61984448
0.21700001 224784.96520023 10290.65619340
0.21800001 220518.02945172 10141.62465399
0.21900001 216309.56541749 7852.03759591
0.22000001 212160.58098479 7736.43595141
0.22100001 208072.80288732 8314.58959652
0.22200001 204042.57173069 7507.74678183
0.22300001 200070.48585072 8066.84237094
0.22400001 196155.16418055 9268.33194580
0.22500001 192300.61149026 9126.58745290
0.22600001 188501.62503573 7060.32869958
0.22700001 184760.74883365 7582.58149071
0.22800001 181075.80545919 9329.93131750
0.22900001 177446.83354539 7346.29925619
0.23000001 173873.92892772 9639.57107563
0.23100001 170358.21361437 6521.31272557
0.23200001 166895.87814779 5833.01121713
0.23300001 163489.44112106 6886.17558570
0.23400001 160137.42048117 5644.84433894
0.23500001 156838.15640312 6107.27809919
0.23600001 153593.31403806 8190.36385846
0.23700001 150401.62446204 5369.33824725
0.23800001 147262.65393636 5807.30303266
0.23900001 144176.13479961 10899.71630640
0.24000001 141141.17057046 6122.70426895
0.24100001 138158.99541239 8525.79201018
0.24200001 135227.15414782 6900.64200258
0.24300001 132346.05386872 5328.25238080
0.24400001 129514.48794442 5235.62342282
0.24500001 126733.14908221 5611.74410682
0.24600001 124001.33345159 5513.09954606
0.24700001 121318.71118153 5415.66752334
0.24800001 118683.61524805 4876.11656314
0.24900001 116096.36116196 5224.33649944
0.25000001 113557.11798951 4702.96826402
0.25100001 111064.29696154 5877.52287326
0.25200001 108619.11520107 5770.93386365
0.25300001 106220.02653986 4046.98320263
0.25400001 103865.72725801 5562.00995781
0.25500001 101556.82853022 4679.73888008
0.25600001 99292.86010842  5741.60990742
0.25700001 97072.95643357  5259.41302841
0.25800001 94896.63464617  4792.75475957
0.25900001 92763.90674958  3979.57178785
0.26000001 90674.41314863  4259.88413128
0.26100001 88625.28643993  3831.27131408
0.26200001 86620.40989476  3758.89286524
0.26300001 84655.50377347  5363.77297289
0.26400001 82731.31080093  3617.42673594
0.26500001 80848.50863266  4193.61234121
0.26600001 79004.53587986  3164.13181171
0.26700001 77201.21546850  4034.53571130
0.26800001 75436.52154797  4261.40930390
0.26900001 73709.83870333  3283.77346963
0.27000001 72021.90641208  3220.45969762
0.27100001 70371.22770840  3158.26084901
0.27200001 68758.04632899  2815.64213042
0.27300001 67180.97719693  3037.25212281
0.27400001 65639.04003274  3249.13263539
0.27500001 64134.84131825  2655.18255623
0.27600001 62663.90058282  3124.42223093
0.27700001 61229.39462661  3574.57222747
0.27800001 59828.01108276  3254.94309701
0.27900001 58461.16833873  3191.97994236
0.28000001 57127.18969082  2648.70227537
0.28100001 55825.90452558  2597.57946052
0.28200001 54557.57248813  3242.35668643
0.28300001 53321.10681657  2952.92303526
0.28400001 52116.28750500  3341.95709444
0.28500001 50942.72644799  2622.53168167
0.28600001 49799.12735766  3001.39354791
0.28700001 48686.04272023  3996.15057562
0.28800001 47602.09623793  2269.90606655
0.28900001 46548.84574520  2227.36237434
0.29000001 45523.17611045  1987.08673128
0.29100001 44526.94637167  2535.36444641
0.29200001 43558.09839741  2488.69206974
0.29300001 42616.71626136  2067.33700370
0.29400001 41702.36245961  2214.39555143
0.29500001 40815.73935628  2718.32836981
0.29600001 39954.20809479  2135.95206586
0.29700001 39118.33379356  1748.58960335
0.29800001 38308.58771962  1889.95426462
0.29900001 37523.57079024  1857.41684205
0.30000001 36763.03899108  2323.79180463
0.30100001 36027.55003043  2448.07214046
0.30200001 35314.56519333  1765.55177042
0.30300001 34625.58310285  1894.71199709
0.30400001 33960.11410321  2019.77788191
0.30500001 33316.05694870  1835.04850361
0.30600001 32694.34174201  2107.80431190
0.30700001 32095.02751832  1779.34840986
0.30800001 31516.91293698  1460.80898379
0.30900001 30959.59213040  1727.54532267
0.31000001 30423.72747834  1703.12034487
0.31100001 29906.44549569  1539.58388701
0.31200001 29410.29138694  1656.97589519
0.31300001 28932.84782181  1907.83207570
0.31400001 28476.11379419  1749.14537262
0.31500001 28037.04940078  1461.85182497
0.31600002 27616.57964419  1313.16842426
0.31700002 27213.67916337  1298.09255755
0.31800002 26828.93526056  1668.89399690
0.31900002 26461.76992951  1397.18151843
0.32000002 26111.24903936  1760.15938109
0.32100002 25777.80888185  1369.57505074
0.32200002 25460.85539221  1603.65205281
0.32300002 25159.13249714  1345.00728698
0.32400002 24873.52906964  1455.10151948
0.32500002 24602.70666995  1443.68689575
0.32600002 24347.46337713  1552.51607576
0.32700002 24106.61353785  1304.64998645
0.32800002 23880.90312277  1296.37488741
0.32900002 23667.99760263  1640.19231153
0.33000002 23470.46623229  1281.83957398
0.33100002 23284.09294602  1159.54788362
0.33200002 23113.09631607  1385.39905879
0.33300002 22953.83330969  1264.98581360
0.33400002 22807.68620721  1489.91217204
0.33500002 22673.25642007  1485.55183099
0.33600002 22550.90029448  1253.94287026
0.33700002 22439.47591669  1251.44963114
0.33800002 22340.80513695  1476.83899352
0.33900002 22251.93886323  1475.30361650
0.34000002 22174.63508529  1361.07916599
0.34100002 22107.54538339  1587.76398463
0.34200002 22051.81567219  1248.02256707
0.34300002 22004.67547499  1589.61783160
0.34400002 21968.08441308  1818.95747555
0.34500002 21940.66436663  1594.20874838
0.34600002 21923.63255378  1369.35015416
0.34700002 21913.46221518  1944.60072907
0.34800002 21913.66375461  1376.61642226
0.34900002 21921.92834592  1150.90129267
0.35000002 21938.48213873  1270.56725324
0.35100002 21963.09587720  1275.61666896
0.35200002 21994.72854540  1979.85558379
0.35300002 22034.44361216  1287.03191234
0.35400002 22081.75336003  1293.43876433
0.35500002 22135.98605837  1182.06171150
0.35600002 22196.50834907  1307.48538623
0.35700002 22263.88829499  1554.24211549
0.35800002 22338.23914556  1202.91423496
0.35900002 22418.44620332  1573.77499802
0.36000002 22505.26752932  1584.25838277
0.36100002 22596.89242624  1349.71244855
0.36200002 22695.50608164  1359.34740115
0.36300002 22797.62198017  1369.22524098
0.36400002 22905.83548789  1630.32291807
0.36500002 23018.49052848  1263.71518987
0.36600002 23136.57871406  1528.40246225
0.36700002 23258.77771059  1669.04996757
0.36800002 23386.80713616  1812.24377082
0.36900002 23518.04520958  1566.30188515
0.37000002 23652.59367410  1711.14697041
0.37100002 23791.48706520  1858.59105757
0.37200002 23934.47739555  1473.04748109
0.37300002 24080.34391142  1485.99809317
0.37400002 24230.64693576  1362.97395470
0.37500002 24382.99652884  1787.76139018
0.37600002 24539.47787994  1526.47829383
0.37700002 24697.58163651  2100.52941769
0.37800002 24859.35783751  1978.55638402
0.37900002 25023.48233382  1996.87398484
0.38000002 25190.06743957  2303.37987579
0.38100002 25358.45930397  1743.64774434
0.38200002 25529.13410694  1759.97858871
0.38300002 25701.66346037  1924.54065109
0.38400002 25876.60276641  1942.68604472
0.38500002 26052.08976539  1960.94088954
0.38600002 26230.36632582  1674.94012109
0.38700002 26408.87690660  1844.39605054
0.38800002 26588.81978060  2327.18656155
0.38900002 26770.02845172  1566.04673862
0.39000002 26952.87699935  1896.94357308
0.39100002 27135.73031848  1595.58101832
0.39200002 27319.86756303  1771.55689606
0.39300002 27504.29516899  1950.60470580
0.39400002 27690.06662094  1640.63652502
0.39500002 27875.34568645  1986.95473467
0.39600002 28060.91231022  1671.02740724
0.39700002 28246.36269422  2023.56951929
0.39800002 28432.93212551  1871.88217517
0.39900002 28618.58433158  2919.09574012
0.40000002 28804.08401899  2425.59203016
0.40100002 28989.20006047  2097.65861576
0.40200002 29175.02648684  2116.35652163
0.40300002 29359.35468160  2135.01237360
0.40400002 29543.18678201  1974.22355025
0.40500002 29726.52793488  2353.44932811
0.40600002 29909.26778583  2008.55697332
0.40700002 30091.16234819  2025.73714526
0.40800002 30272.25086562  2228.64321432
0.40900002 30451.68987437  2434.61272081
0.41000002 30630.79527657  2266.06634193
0.41100002 30808.45973941  2094.35919232
0.41200002 30984.35446004  2303.37701970
0.41300002 31159.27793492  1934.99125144
0.41400002 31332.75419461  2340.55684924
0.41500002 31505.11323783  2359.10299103
0.41600002 31674.86457406  2377.51544758
0.41700002 31843.73181133  1996.60207918
0.41800002 32011.83583033  2816.72156818
0.41900002 32176.16116446  2229.80807435
0.42000002 32339.48490167  2246.46242514
0.42100002 32501.40687773  2057.33915285
0.42200002 32661.35505912  2279.59938437
0.42300002 32818.69218974  2504.72270661
0.42400002 32973.96119760  3153.13518893
0.42500002 33127.69232406  2963.60349574
0.42600002 33277.86501826  2557.73682650
0.42700002 33427.05761092  2146.01720031
0.42800002 33573.42183420  3240.67469611
0.42900002 33718.06257569  2392.29665311
0.43000002 33860.33485227  2407.97782713
0.43100002 33998.81515214  2423.43565889
0.43200002 34135.77208390  2217.11850191
0.43300002 34269.80698741  2454.06099466
0.43400002 34401.65306265  3591.53274994
0.43500002 34530.51669246  2709.95507845
0.43600002 34657.70336798  2498.99381977
0.43700002 34781.17868421  3427.68532176
0.43800002 34901.30954378  3217.55187932
0.43900002 35019.71481203  3004.69167326
0.44000002 35134.66870523  3021.40597849
0.44100002 35247.51068975  2804.29208337
0.44200002 35357.25413047  2819.38757797
0.44300002 35464.39443648  2598.12165954
0.44400002 35567.93578746  3323.82375686
0.44500002 35667.89497318  3579.27343018
0.44600002 35765.75670238  3117.52233071
0.44700002 35860.78573895  3132.79839062
0.44800002 35951.82977154  2905.62701984
0.44900002 36041.16653046  2919.33462732
0.45000002 36127.06774892  3177.19512375
0.45100002 36208.80167606  3682.43530498
0.45200002 36288.36542929  2712.37400256
0.45300002 36364.26959854  3466.96962783
0.45400002 36437.60769240  2735.55352715
0.45500002 36507.73020073  2746.84175049
0.45600002 36574.31713940  2507.16955873
0.45700002 36637.92799056  3775.53865836
0.45800002 36697.61071727  2779.29367939
0.45900002 36754.58247148  2536.06631073
0.46000002 36809.10566160  3818.02466570
0.46100002 36859.06753270  2809.76685119
0.46200002 36906.72255505  3588.44080410
0.46300002 36950.74190018  2571.77175814
0.46400002 36991.13468000  2838.14494284
0.46500002 37029.18148054  4400.17784388
0.46600002 37063.21968356  3375.16226045
0.46700002 37094.01174280  4687.19954597
0.46800002 37122.31694882  2872.71063324
0.46900002 37146.48594261  2880.71012138
0.47000002 37167.28847665  3413.62977193
0.47100002 37185.30688046  4212.35176307
0.47200002 37199.80848219  3167.19184429
0.47300002 37211.74607628  3174.90632571
0.47400002 37219.06000212  3712.60141118
0.47500002 37224.20683561  4252.49359046
0.47600002 37226.38921102  2929.90310172
0.47700002 37224.25473459  2935.87711007
