# SAXS profile: number of points = 501, q_min = 0, q_max = 0.5, delta_q = 0.001
#    q    intensity    error
0.00000000 1664650.74656090 324.60689558
0.00100000 1664582.25676856 599.24962667
0.00200000 1664376.72958114 1048.55737284
0.00300000 1664034.34634232 1098.26270771
0.00400000 1663554.94613101 1372.43288271
0.00500000 1662939.00762649 2095.30323254
0.00600000 1662186.27892646 1745.29566393
0.00700000 1661297.40880080 2392.26836810
0.00800000 1660271.80853107 4482.73407229
0.00900000 1659110.84902710 3235.26629390
0.01000000 1657813.71313378 3556.01056822
0.01100000 1656381.61456705 3875.93314684
0.01200000 1654814.04244590 4840.33128637
0.01300000 1653112.38795590 3471.53616782
0.01400000 1651275.81624018 4829.98197662
0.01500000 1649306.16910299 4354.16848032
0.01600000 1647202.37648539 5040.43949737
0.01700000 1644966.43792528 6662.11437245
0.01800000 1642597.90459251 6085.82551036
0.01900000 1640097.63229461 5412.32243079
0.02000000 1637466.10104564 5158.01845162
0.02100000 1634705.02148202 8091.79022321
0.02200000 1631812.57907793 8444.63048039
0.02300000 1628791.64054613 7622.74522473
0.02400000 1625642.16218759 7315.39006341
0.02500000 1622365.42281700 6327.22543795
0.02600000 1618961.43359808 7212.47351657
0.02700000 1615431.60834636 10855.70090529
0.02800000 1611775.51738415 9815.71335101
0.02900000 1607995.83838950 10853.97240748
0.03000000 1604092.92849055 7459.03246034
0.03100000 1600066.83097799 9984.41748472
0.03200000 1595918.65357567 8689.77746895
0.03300000 1591651.41426171 11364.39162173
0.03400000 1587262.66781431 11666.38114673
0.03500000 1582756.17994228 9401.57214300
0.03600000 1578131.32608190 10510.35511743
0.03700000 1573390.31002028 10761.99021825
0.03800000 1568534.15467026 10093.51775243
0.03900000 1563564.16002045 14072.07809186
0.04000000 1558479.18954929 13418.50644382
0.04100000 1553283.32277662 11742.82246467
0.04200000 1547976.85112687 11981.34138357
0.04300000 1542559.87495853 12217.07477676
0.04400000 1537035.92855639 11412.49229955
0.04500000 1531404.51373673 10566.69163576
0.04600000 1525666.32134970 11831.54287208
0.04700000 1519824.46585698 13131.28399571
0.04800000 1513878.87869573 17803.21644181
0.04900000 1507832.57397593 13570.49379746
0.05000000 1501684.80088035 12636.67818785
0.05100000 1495439.15051338 11664.42591738
0.05200000 1489093.74849687 13022.12543745
0.05300000 1482654.04284491 15612.34779897
0.05400000 1476118.21513153 14613.57101129
0.05500000 1469490.39833070 16046.83589834
0.05600000 1462768.97563237 12506.67532527
0.05700000 1455959.21964287 16466.89954281
0.05800000 1449059.25087159 14106.59246591
0.05900000 1442071.43713457 12978.64354039
0.06000000 1434998.26022142 15756.28163335
0.06100000 1427841.75786647 21246.28634992
0.06200000 1420601.70350681 17452.09274335
0.06300000 1413281.60871915 18994.50570928
0.06400000 1405879.70823916 13707.32779638
0.06500000 1398402.07107764 16613.01738152
0.06600000 1390846.47329069 15375.80848164
0.06700000 1383216.02799234 19752.32580412
0.06800000 1375513.67795541 18507.53740321
0.06900000 1367739.97881169 17233.52453988
0.07000000 1359894.89049422 20276.03376676
0.07100000 1351982.75667930 16061.55590164
0.07200000 1344003.02385411 16188.51718070
0.07300000 1335960.12399931 19277.90549259
0.07400000 1327853.04967658 16432.18225983
0.07500000 1319684.97300787 16548.85033720
0.07600000 1311455.32799664 18176.77169817
0.07700000 1303169.72947239 19821.21251466
0.07800000 1294826.62404930 18412.43545745
0.07900000 1286428.38155385 23155.71195406
0.08000000 1277978.13231161 20185.66554679
0.08100000 1269476.48744357 17176.01768098
0.08200000 1260924.20452796 21977.90991624
0.08300000 1252324.49157588 23668.93400161
0.08400000 1243677.92201790 23785.34137504
0.08500000 1234988.21400045 17524.48357936
0.08600000 1226254.96195250 17602.89080531
0.08700000 1217481.21624391 20891.97865178
0.08800000 1208665.76161110 17749.25754283
0.08900000 1199815.29056321 19437.00862007
0.09000000 1190927.81022018 16256.16537315
0.09100000 1182006.16245065 17942.85438898
0.09200000 1173051.49110702 18000.47597682
0.09300000 1164066.91271788 21337.34751281
0.09400000 1155051.01507210 26335.16438133
0.09500000 1146007.93593238 18152.76655840
0.09600000 1136939.05117107 18196.71036938
0.09700000 1127846.96890569 21553.15658906
0.09800000 1118732.51466451 18274.49648627
0.09900000 1109597.89316894 18308.36609819
0.10000000 1100442.17356250 25007.54957024
0.10100000 1091269.05749376 18366.05910141
0.10200000 1082080.00318339 21733.57788621
0.10300000 1072876.15534462 16736.86881069
0.10400000 1063660.44783345 20103.18340981
0.10500000 1054435.12847420 16765.51933155
0.10600001 1045196.89344659 18452.95202208
0.10700001 1035953.19764588 21817.17536909
0.10800001 1026701.45946665 23501.19751320
0.10900001 1017445.65019220 21824.21022379
0.11000001 1008186.23706280 16786.30163722
0.11100001 998925.07446107 20138.33044911
0.11200001 989664.49219563 18452.29532567
0.11300001 980403.57487271 28500.33326337
0.11400001 971146.60288260 21777.96359505
0.11500001 961894.04600878 18410.65290753
0.11600001 952646.69320714 16718.95025311
0.11700001 943407.68596963 23377.64355930
0.11800001 934175.25677274 20010.03494251
0.11900001 924953.35040556 18314.07720065
0.12000001 915742.90087473 16620.73443379
0.12100001 906546.59229571 19907.76410463
0.12200001 897363.13460766 23178.89085890
0.12300001 888196.21735344 24780.67563169
0.12400001 879045.05278936 18130.30506803
0.12500001 869912.59661527 18085.48373583
0.12600001 860800.75161378 18038.08060008
0.12700001 851709.68319370 17988.10935677
0.12800001 842639.41244769 21196.59541910
0.12900001 833593.36357212 21131.59276253
0.13000001 824571.67187487 17823.11752767
0.13100001 815575.27472635 20992.90856101
0.13200001 806606.43749036 16091.79918651
0.13300001 797667.24676769 16033.11241588
0.13400001 788755.93560778 15972.30844908
0.13500001 779875.97883791 19091.36486208
0.13600001 771026.74427781 15844.60034199
0.13700001 762211.21192590 15777.77283084
0.13800001 753428.13782986 17279.87515597
0.13900001 744682.47695993 26585.16568118
0.14000001 735971.42513593 17122.37601329
0.14100001 727297.91403298 20138.88018938
0.14200001 718661.16518772 18498.33926441
0.14300001 710066.44694924 23006.15396630
0.14400001 701507.54659406 22886.68478719
0.14500001 692993.34940412 18211.86608143
0.14600001 684518.61772391 19621.72710270
0.14700001 676090.03370872 15009.19945642
0.14800001 667702.49157278 14923.15139071
0.14900001 659359.10662087 19286.25477860
0.15000001 651062.15621096 19170.52609415
0.15100001 642811.27741249 20518.53694317
0.15200001 634608.67142309 14564.26969640
0.15300001 626453.79851549 15918.19177144
0.15400001 618345.44635498 15814.18553682
0.15500001 610288.60714172 15708.82948917
0.15600001 602279.90203840 17020.43083488
0.15700001 594325.64266220 16902.62207506
0.15800001 586418.27865497 27972.15321209
0.15900001 578566.11624697 13885.58744534
0.16000001 570764.42257347 16540.75374694
0.16100001 563019.39423237 15049.50911823
0.16200001 555326.00741291 14935.49367442
0.16300001 547688.58213238 13473.13975649
0.16400001 540105.91310597 14704.38417850
0.16500001 532579.42030063 15913.47382988
0.16600001 525108.71424257 15784.76869538
0.16700001 517694.56745137 15655.08445888
0.16800001 510336.64373956 15524.44143557
0.16900001 503038.53924106 12827.48335634
0.17000001 495797.76225502 21619.26244399
0.17100001 488615.58127877 16388.16736996
0.17200001 481492.17264261 12494.72247011
0.17300001 474428.47107233 18573.87551962
0.17400001 467425.45385009 17177.88624023
0.17500001 460481.66991675 17019.40332391
0.17600001 453596.39734811 13247.28341021
0.17700001 446774.50374613 11928.87981343
0.17800001 440012.59301121 16540.07415251
0.17900001 433311.76016949 16379.18530805
0.18000001 426673.43950419 12742.60287269
0.18100001 420097.84657205 16056.14045442
0.18200001 413581.29204733 11352.80700298
0.18300001 407129.62222236 13484.13372499
0.18400001 400738.88765855 12232.55512365
0.18500001 394411.60956650 15405.71819747
0.18600001 388146.86202742 14153.77599250
0.18700001 381944.57778740 14002.08888321
0.18800001 375805.00163599 13850.29398967
0.18900001 369730.23907005 13698.50600477
0.19000001 363714.88006418 10420.43180619
0.19100001 357767.37258162 12364.44098064
0.19200001 351879.61103113 11205.60674277
0.19300001 346057.68916387 15105.41884577
0.19400001 340298.09095355 11944.46355689
0.19500001 334602.42982843 14755.96785273
0.19600001 328968.50739654 9721.01985295
0.19700001 323399.04273181 11525.94242765
0.19800001 317892.91961438 12335.83532861
0.19900001 312450.79905302 11248.22929750
0.20000001 307069.82292204 10183.97115852
0.20100001 301753.81537030 10057.45514163
0.20200001 296499.44727006 10834.09031530
0.20300001 291308.82976212 9805.45567324
0.20400001 286180.93720289 10560.07708192
0.20500001 281114.87691026 8686.45010711
0.20600001 276111.91533266 9430.60291395
0.20700001 271171.10894265 11844.75459851
0.20800001 266292.30898747 8348.26428138
0.20900001 261477.71598855 12354.82266449
0.21000001 256722.62379079 10562.85285520
0.21100001 252029.18018031 8815.98113947
0.21200001 247397.12188637 9485.20610153
0.21300001 242826.08672206 10912.60485319
0.21400001 238317.11799571 9222.87290246
0.21500001 233869.12952448 9850.56820128
0.21600001 229480.11333285 8963.49365056
0.21700001 225151.98081300 7362.47012068
0.21800001 220883.95791922 8707.24603286
0.21900001 216674.21758427 8580.29942203
0.22000001 212523.65225526 8454.19128645
0.22100001 208434.44076448 8329.04064677
0.22200001 204402.63667261 9572.17592799
0.22300001 200428.98963505 8754.73868123
0.22400001 196511.96895613 8621.96304565
0.22500001 192655.82542132 6531.03279062
0.22600001 188854.95584271 8359.66501569
0.22700001 185112.13786467 7597.00249722
0.22800001 181425.33685474 8724.74486194
0.22900001 177794.51852872 6747.30229725
0.23000001 174219.62433622 7847.72334936
0.23100001 170701.92985303 9504.68390372
0.23200001 167237.41864942 7013.93766987
0.23300001 163828.81628511 12075.82261949
0.23400001 160474.40456428 6788.06763411
0.23500001 157172.93733094 5563.92224467
0.23600001 153925.88592467 8208.09825515
0.23700001 150731.58161577 6457.34126184
0.23800001 147590.25720535 6349.33316529
0.23900001 144501.09378239 6242.44754666
0.24000001 141463.61869801 7159.47408095
0.24100001 138478.83838749 7037.49489973
0.24200001 135544.28423358 7410.88409102
0.24300001 132660.40570812 6311.98240217
0.24400001 129826.09776208 4771.10931845
0.24500001 127041.93349633 5156.63232455
0.24600001 124307.24427025 5987.25870350
0.24700001 121621.64655764 5881.62310576
0.24800001 118983.63402388 7554.86619974
0.24900001 116393.23342417 4801.22110588
0.25000001 113850.95284877 5572.43515081
0.25100001 111354.86136856 5892.89954241
0.25200001 108906.51632900 4133.00249022
0.25300001 106504.17280865 4869.37101118
0.25400001 104146.47517545 4780.32343672
0.25500001 101834.29811705 4301.48095598
0.25600001 99566.96593484  4222.13739023
0.25700001 97343.52889876  3767.19474662
0.25800001 95163.83959132  4806.24994596
0.25900001 93027.55198068  4716.49710858
0.26000001 90934.50656741  3560.08610056
0.26100001 88881.70947676  5239.57702157
0.26200001 86873.15096451  4112.57516125
0.26300001 84904.57940380  4707.11010488
0.26400001 82976.58175200  5277.31084914
0.26500001 81089.96430583  4529.68562046
0.26600001 79242.21402472  3491.01590405
0.26700001 77435.08025916  4669.33556058
0.26800001 75666.51790055  4274.40179847
0.26900001 73935.76118413  3892.71801055
0.27000001 72243.82306685  3230.38270130
0.27100001 70589.23820550  3168.04516058
0.27200001 68971.98820124  3106.84335555
0.27300001 67390.84707957  3046.74034065
0.27400001 65844.73948376  2987.70519547
0.27500001 64336.39688280  2929.87965270
0.27600001 62861.35275241  4179.02292876
0.27700001 61422.57809649  3073.58595341
0.27800001 60016.93638424  2762.87979721
0.27900001 58645.68140598  2955.74248275
0.28000001 57307.47489666  2657.06119934
0.28100001 56001.82780279  2605.76517099
0.28200001 54729.28227100  2787.90977084
0.28300001 53488.36973163  2278.60465841
0.28400001 52279.18795571  2234.93539089
0.28500001 51101.23252523  3069.14017073
0.28600001 49953.03616347  2580.57397035
0.28700001 48835.53251432  2109.69510448
0.28800001 47747.12471639  2690.78934076
0.28900001 46689.36022865  3655.77707894
0.29000001 45659.14941006  2590.92855591
0.29100001 44658.29881417  1956.03358065
0.29200001 43684.91600353  3455.91386863
0.29300001 42738.92157783  2450.22249004
0.29400001 41820.06493007  1850.53796075
0.29500001 40928.75528662  2907.57891320
0.29600001 40062.65222488  2677.18686166
0.29700001 39222.14859511  1928.55313772
0.29800001 38407.64290038  3272.90744469
0.29900001 37618.03959710  2200.65542061
0.30000001 36852.85067613  3494.20320227
0.30100001 36112.69971068  2617.44859894
0.30200001 35395.04591857  1769.57540447
0.30300001 34701.34198159  1740.61939620
0.30400001 34031.14482208  2024.00243411
0.30500001 33382.44617718  1532.25435207
0.30600001 32756.05764067  1810.09983092
0.30700001 32152.01129624  1633.96529143
0.30800001 31569.24419844  1609.55799166
0.30900001 31007.17092502  1874.38357116
0.31000001 30466.62572087  1705.52178860
0.31100001 29944.68537246  1681.69361014
0.31200001 29443.83601146  1935.34343266
0.31300001 28961.66486439  1500.50392767
0.31400001 28500.22618367  1481.29932603
0.31500001 28056.47714763  1861.82791167
0.31600002 27631.36131544  1708.03268059
0.31700002 27223.81065480  1298.57582972
0.31800002 26834.44468023  1540.83388650
0.31900002 26462.64726146  1397.22784156
0.32000002 26107.45043441  1885.61069691
0.32100002 25769.44449645  1618.06349655
0.32200002 25447.86130884  1602.83362043
0.32300002 25141.54092828  1588.44263106
0.32400002 24851.41941481  1332.65742922
0.32500002 24575.95603441  1321.94073769
0.32600002 24316.20211579  1311.98074728
0.32700002 24070.81208743  1894.85441725
0.32800002 23840.60373575  2117.76093013
0.32900002 23623.24666887  1520.15599513
0.33000002 23421.28145342  1511.72668300
0.33100002 23230.44906547  1388.25170189
0.33200002 23055.01429450  1727.39702782
0.33300002 22891.40570078  1146.85947992
0.33400002 22740.98669370  1257.00809902
0.33500002 22602.15475210  1366.97838414
0.33600002 22475.52088075  1363.36516119
0.33700002 22359.69220262  1247.00009319
0.33800002 22256.77508010  1244.93277306
0.33900002 22163.73448968  1582.49071751
0.34000002 22082.22657521  1920.16010278
0.34100002 22011.02969615  1693.74881533
0.34200002 21951.21178069  1919.96282933
0.34300002 21899.90012933  1356.04188023
0.34400002 21859.25881724  1131.21669737
0.34500002 21827.82083091  1359.43674573
0.34600002 21806.80173384  1816.07053440
0.34700002 21792.75994385  1706.37318442
0.34800002 21788.92606385  1596.91046685
0.34900002 21793.39943847  1258.56887718
0.35000002 21806.13571029  1377.71171943
0.35100002 21826.91380993  1267.70721412
0.35200002 21854.90300151  1388.66060249
0.35300002 21890.80244389  1394.88199779
0.35400002 21934.51036418  1868.82037154
0.35500002 21985.01694860  1526.19994886
0.35600002 22041.96014623  1416.41642608
0.35700002 22105.78634509  1543.20501784
0.35800002 22176.65826222  1313.63441438
0.35900002 22253.34786391  1201.68084157
0.36000002 22336.77486412  1572.39734104
0.36100002 22425.08407032  1339.45033496
0.36200002 22520.40783861  2084.60165032
0.36300002 22619.26852843  1605.51575620
0.36400002 22724.26221148  1617.39943951
0.36500002 22833.72343788  1504.28577134
0.36600002 22948.75990971  1642.32808073
0.36700002 23067.89178746  1400.68245568
0.36800002 23192.83205252  1412.09564641
0.36900002 23321.12226058  2070.91575484
0.37000002 23452.76752150  1435.66123183
0.37100002 23588.75644686  1316.25267209
0.37200002 23728.98330591  1593.16401463
0.37300002 23872.06411772  1473.14514649
0.37400002 24019.67381550  1756.43873096
0.37500002 24169.38311439  1499.46859945
0.37600002 24323.28526429  1513.03003154
0.37700002 24478.83622858  1804.33510388
0.37800002 24638.16530913  1540.74774060
0.37900002 24799.84581343  1837.66866183
0.38000002 24964.04858772  1854.70407769
0.38100002 25130.13708497  1727.94830782
0.38200002 25298.54426761  1744.08172443
0.38300002 25468.86514922  2053.80938293
0.38400002 25641.70927849  1628.88965908
0.38500002 25815.13764531  2092.57515666
0.38600002 25991.32507049  2263.19473773
0.38700002 26167.92072874  2436.75689370
0.38800002 26345.87837446  1844.73849117
0.38900002 26525.29784584  1706.90299725
0.39000002 26706.33032075  1722.95898227
0.39100002 26887.44438745  1897.17816586
0.39200002 27070.00496611  1914.93224203
0.39300002 27252.82704500  2254.89901653
0.39400002 27437.03231254  2113.33751400
0.39500002 27620.83770129  1804.74562091
0.39600002 27804.90621503  1655.78224355
0.39700002 27989.03155651  2005.13431571
0.39800002 28174.28259966  2192.10016152
0.39900002 28358.56974744  2211.96854510
0.40000002 28542.93044099  1888.54308211
0.40100002 28726.98005274  2078.68437510
0.40200002 28911.70449102  2272.02640507
0.40300002 29095.01960065  1939.47409847
0.40400002 29277.85381348  2134.35564413
0.40500002 29460.40130155  1973.55237670
0.40600002 29642.28290496  1809.66145709
0.40700002 29823.39344178  2190.23011814
0.40800002 30003.80836888  2761.10059597
0.40900002 30182.61742607  2227.47727159
0.41000002 30361.10227727  2058.93824849
0.41100002 30538.22856827  1887.26261494
0.41200002 30713.62959233  2283.25133208
0.41300002 30888.10063499  2493.59648242
0.41400002 31061.33436598  2126.92497149
0.41500002 31233.38605166  2923.44507296
0.41600002 31402.88639944  2357.10076483
0.41700002 31571.57118866  2573.39888953
0.41800002 31739.54751157  2992.24598344
0.41900002 31903.83124131  2813.91804882
0.42000002 32067.11263771  2227.54208493
0.42100002 32229.07559453  2652.13075634
0.42200002 32389.09278489  2260.59683804
0.42300002 32546.63793205  3104.94940585
0.42400002 32702.18634235  2918.67026936
0.42500002 32856.16592795  2309.46001251
0.42600002 33006.63444768  2748.29754752
0.42700002 33156.29495219  2128.63423680
0.42800002 33303.05431052  3214.57746965
0.42900002 33448.22192496  2157.41041639
0.43000002 33591.09269140  2823.16351903
0.43100002 33730.15312022  2404.28542834
0.43200002 33867.72165419  3299.56293852
0.43300002 34002.43785959  2877.62645242
0.43400002 34135.09743143  2227.31521295
0.43500002 34264.73638191  2465.00525213
0.43600002 34392.80992203  3607.11807556
0.43700002 34517.27430325  2721.34203503
0.43800002 34638.27350692  2509.02346037
0.43900002 34757.81820563  3441.02416543
0.44000002 34873.78899655  3460.35187717
0.44100002 34987.77809367  2783.62775705
0.44200002 35098.70686340  3265.23285424
0.44300002 35207.02690491  2579.26691329
0.44400002 35311.73865287  2592.76453346
0.44500002 35413.09750953  2369.13633566
0.44600002 35512.26905218  3809.75640447
0.44700002 35608.76044785  2632.19969705
0.44800002 35701.25235473  2885.37535205
0.44900002 35792.08200678  4348.73816992
0.45000002 35879.50250526  3398.14784332
0.45100002 35962.78070492  2682.10431208
0.45200002 36043.94614276  2939.02350777
0.45300002 36121.59814964  2459.88095057
0.45400002 36196.60008479  2964.50168744
0.45500002 36268.46603269  2728.83951363
0.45600002 36336.82639305  3238.15643748
0.45700002 36402.19260528  3501.16305071
0.45800002 36463.81143152  3263.69359686
0.45900002 36522.67638394  2520.06478993
0.46000002 36579.13176158  2782.39178931
0.46100002 36631.04687273  2792.38483545
0.46200002 36680.76081638  3311.72264727
0.46300002 36726.78493374  2811.80278779
0.46400002 36769.22351684  3590.51484659
0.46500002 36809.40567645  2830.27533660
0.46600002 36845.57367688  2839.13581423
0.46700002 36878.57242582  3106.65108839
0.46800002 36909.03564335  2596.55078058
0.46900002 36935.46290643  2864.34528415
0.47000002 36958.52110898  3133.34356813
0.47100002 36978.88415839  2618.10512250
0.47200002 36995.68120689  2887.32807664
0.47300002 37009.96346777  2894.54938001
0.47400002 37019.60238946  3165.17615432
0.47500002 37027.22591897  3436.86727270
0.47600002 37031.78678223  3179.54936383
0.47700002 37032.12114023  2920.72353277
