# SAXS profile: number of points = 501, q_min = 0, q_max = 0.5, delta_q = 0.001
#    q    intensity    error
0.00000000 1646666.22097351 246.99993315
0.00100000 1646598.32724405 592.77541189
0.00200000 1646394.58645410 740.87758736
0.00300000 1646055.18478441 1185.15977526
0.00400000 1645579.95836785 2221.53302821
0.00500000 1644969.37506727 1776.56699539
0.00600000 1644223.20513969 1899.07787925
0.00700000 1643342.06427557 1972.01055909
0.00800000 1642325.38260521 2660.56723215
0.00900000 1641174.52441774 2954.11427023
0.01000000 1639888.68022409 2976.39808313
0.01100000 1638469.05071578 4128.94218758
0.01200000 1636915.13578396 3830.38158567
0.01300000 1635228.32668918 4807.57149250
0.01400000 1633407.75967964 4777.71790886
0.01500000 1631455.25166043 3915.49277834
0.01600000 1629369.81885230 5816.85051334
0.01700000 1627153.38365780 5271.97719955
0.01800000 1624805.53305238 6019.90477084
0.01900000 1622327.05860149 5840.37767450
0.02000000 1619718.52855707 6632.74767448
0.02100000 1616981.57319392 6403.24732016
0.02200000 1614114.38323891 7796.17282524
0.02300000 1611119.82301251 7540.04111491
0.02400000 1607997.96645813 7838.99044392
0.02500000 1604749.82572770 6884.37706679
0.02600000 1601375.68320675 7134.12899499
0.02700000 1597876.77700839 7382.19104789
0.02800000 1594252.70447898 9015.49945728
0.02900000 1590506.15938085 11451.64487334
0.03000000 1586637.52856758 10329.01078575
0.03100000 1582646.78300481 11395.05736196
0.03200000 1578535.06519229 8595.12382585
0.03300000 1574305.30504128 8028.95742585
0.03400000 1569955.12789768 14011.85016300
0.03500000 1565488.31598810 10144.36475605
0.03600000 1560904.23724648 9529.32080878
0.03700000 1556204.97046157 12418.51623861
0.03800000 1551391.68662070 9983.20596542
0.03900000 1546465.53567778 12990.31110127
0.04000000 1541425.51472517 10427.74409033
0.04100000 1536275.63849975 13549.95175983
0.04200000 1531016.01307667 9875.05374248
0.04300000 1525646.99406120 12083.12475384
0.04400000 1520172.06966145 12313.39433612
0.04500000 1514590.68832327 11495.74385852
0.04600000 1508903.37339060 15956.65391538
0.04700000 1503113.51002265 14069.14310814
0.04800000 1497220.73341937 16506.85935398
0.04900000 1491228.28060522 12302.63388765
0.05000000 1485135.27192160 24994.82779035
0.05100000 1478945.36028496 16150.08408665
0.05200000 1472656.49680071 12878.38166467
0.05300000 1466274.45072623 15439.87068592
0.05400000 1459797.06838660 13247.65901340
0.05500000 1453228.62258271 18310.68149872
0.05600000 1446567.50491274 14841.78329298
0.05700000 1439818.84357444 13779.06697619
0.05800000 1432980.90644544 13950.06977561
0.05900000 1426056.03342818 16684.85637039
0.06000000 1419046.60620964 16879.56016946
0.06100000 1411954.55432431 19696.76695328
0.06200000 1404779.88575620 14602.68759502
0.06300000 1397525.92211076 18782.74927136
0.06400000 1390190.93433672 14909.79846804
0.06500000 1382781.22558219 17796.39520572
0.06600000 1375294.16735593 19350.38984007
0.06700000 1367733.04012592 16741.05319461
0.06800000 1360100.75980821 15484.74787524
0.06900000 1352397.79626682 17040.21303077
0.07000000 1344624.25050732 15752.27383235
0.07100000 1336784.49908862 14437.27326637
0.07200000 1328877.72863040 18916.57535323
0.07300000 1320908.46183203 17594.50153600
0.07400000 1312875.77732633 16246.83850581
0.07500000 1304782.68719047 20824.33266365
0.07600000 1296628.84064591 19468.88295501
0.07700000 1288419.59696374 18089.41198956
0.07800000 1280153.49858924 18203.78360363
0.07900000 1271832.76999278 18314.39274691
0.08000000 1263460.67471493 16886.15270971
0.08100000 1255037.72581993 20068.05417742
0.08200000 1246565.02108845 15519.73524082
0.08300000 1238045.20229582 17159.30730914
0.08400000 1229479.18036625 20378.61837112
0.08500000 1220870.49978143 17324.15320518
0.08600000 1212218.81788067 20565.29321092
0.08700000 1203527.17618683 20652.52731316
0.08800000 1194794.43787607 22330.70909264
0.08900000 1186026.99299052 20814.77470465
0.09000000 1177223.15989602 17676.00657618
0.09100000 1168385.65572540 25797.95649044
0.09200000 1159515.47516706 17792.76580246
0.09300000 1150615.83642604 22713.15767839
0.09400000 1141685.24172517 17895.91700510
0.09500000 1132728.05778358 19573.54175851
0.09600000 1123745.45803056 19620.59661953
0.09700000 1114739.88896991 19664.01256589
0.09800000 1105712.29225491 18061.81114321
0.09900000 1096665.05064428 18094.97418650
0.10000000 1087597.18438266 23067.93736558
0.10100000 1078511.86844947 18151.35559970
0.10200000 1069411.18431526 19826.88428979
0.10300000 1060295.98049771 28119.05072554
0.10400000 1051169.24547956 24833.87459277
0.10500000 1042033.19161490 26509.32564193
0.10600001 1032884.29631806 19893.35248314
0.10700001 1023730.54245546 18242.87912502
0.10800001 1014568.77922828 18247.02035316
0.10900001 1005403.26117305 21565.90096718
0.11000001 996234.08574843 18246.02813931
0.11100001 987063.49322460 18240.93421345
0.11200001 977893.83531291 18232.83141776
0.11300001 968724.06648318 24847.77347515
0.11400001 959558.24766492 21518.09471705
0.11500001 950397.05879174 18190.60056183
0.11600001 941241.13211741 16518.78264655
0.11700001 932093.85374592 18147.86818711
0.11800001 922953.11422272 26359.54218369
0.11900001 913823.00548855 26318.10379770
0.12000001 904704.53206014 19704.46563645
0.12100001 895599.99499432 16389.48068047
0.12200001 886508.63878025 17991.69367166
0.12300001 877433.65820930 17952.29349277
0.12400001 868374.68607636 17910.22874421
0.12500001 859334.37557960 22737.98864926
0.12600001 850314.65163133 17818.34436460
0.12700001 841315.80831450 19383.91713706
0.12800001 832337.64649438 17716.30764059
0.12900001 823383.86080008 25689.57766777
0.13000001 814454.13839960 20805.23194607
0.13100001 805549.74900842 22329.84009509
0.13200001 796673.03604498 20661.71616383
0.13300001 787825.91066977 15835.30155099
0.13400001 779006.25734324 17352.36520041
0.13500001 770218.27047178 17283.69880428
0.13600001 761460.69658083 17212.81985781
0.13700001 752736.56533236 18697.97716453
0.13800001 744045.01468190 20167.34107396
0.13900001 735390.63044121 16987.52436429
0.14000001 726770.71911692 18445.44172109
0.14100001 718188.17246520 16827.14967448
0.14200001 709642.20205059 21310.55633270
0.14300001 701137.94624868 19687.95445930
0.14400001 692669.56543453 21091.78926238
0.14500001 684245.62579329 16483.47790292
0.14600001 675860.75549848 16393.00339794
0.14700001 667522.11060653 23710.38648732
0.14800001 659224.13100382 17680.39202766
0.14900001 650970.05741335 14646.82698285
0.15000001 642762.12876258 24749.55693576
0.15100001 634600.18853943 15915.77347955
0.15200001 626485.97664396 23004.56614788
0.15300001 618419.39960390 14285.48880497
0.15400001 610399.07422660 15610.95706004
0.15500001 602429.78561033 16916.22917827
0.15600001 594508.29015391 15400.73798327
0.15700001 586641.24965311 25026.11689136
0.15800001 578820.52346252 13804.87013615
0.15900001 571054.90554231 19187.44573188
0.16000001 563339.23677595 19046.50049444
0.16100001 555679.63148219 17553.92038714
0.16200001 548071.78735249 13400.35583335
0.16300001 540519.19269682 14626.45004486
0.16400001 533021.21626551 14511.50329791
0.16500001 525578.73832707 18321.67568307
0.16600001 518192.23224657 14278.78763370
0.16700001 510861.34209442 14161.07707147
0.16800001 503586.26814481 15319.09500028
0.16900001 496370.72451099 12657.45407269
0.17000001 489212.10438431 15057.94928398
0.17100001 482111.65621036 17413.87384462
0.17200001 475069.65079175 22190.50443638
0.17300001 468086.95251967 18325.60505656
0.17400001 461164.13742897 13316.11509713
0.17500001 454300.29970770 14392.23417445
0.17600001 447494.51787622 17821.47001611
0.17700001 440751.84239623 15298.49717213
0.17800001 434068.29955871 12820.20783299
0.17900001 427445.65776029 12695.13663512
0.18000001 420884.82750416 11427.02360649
0.18100001 414386.27091823 13575.29487653
0.18200001 407946.36333615 11198.12820255
0.18300001 401570.87473436 17733.37066598
0.18400001 395255.66186178 10968.34513482
0.18500001 389003.50133387 13023.83783993
0.18600001 382813.27438938 12885.49542470
0.18700001 376684.94212825 11684.76745686
0.18800001 370619.00579585 15760.57396609
0.18900001 364617.25122916 18704.86587181
0.19000001 358674.33985073 12331.22438670
0.19100001 352798.84649383 10160.60725911
0.19200001 346982.21409412 15067.70335901
0.19300001 341231.14592558 12908.77486034
0.19400001 335541.85861602 13740.43975961
0.19500001 329916.00347999 10669.48405673
0.19600001 324351.24662716 11501.49574892
0.19700001 318850.49092682 11363.83203366
0.19800001 313412.26105388 11226.42772150
0.19900001 308037.55376506 10165.23975466
0.20000001 302723.53467098 13690.67250253
0.20100001 297473.91081486 10816.15190842
0.20200001 292285.36227498 11570.11661250
0.20300001 287159.84958655 12301.92853773
0.20400001 282096.48109824 11276.80736491
0.20500001 277094.46246027 8562.21929473
0.20600001 272154.91259902 10140.49252276
0.20700001 267276.96625263 8339.04174126
0.20800001 262460.53180240 9050.95186705
0.20900001 257707.57016852 12176.68326607
0.21000001 253013.48828292 8007.87728271
0.21100001 248380.58462952 8688.35326107
0.21200001 243808.33527001 10126.57968417
0.21300001 239296.74100233 8449.56832425
0.21400001 234846.36145000 7573.79551483
0.21500001 230456.49252114 11200.18606604
0.21600001 226124.96999701 11776.58899422
0.21700001 221853.89443890 8705.54722938
0.21800001 217642.12673141 8579.45304139
0.21900001 213488.05243009 7045.10606330
0.22000001 209392.65396550 9023.77684931
0.22100001 205357.86180234 13676.83424272
0.22200001 201380.08899802 6736.16429550
0.22300001 197459.68012636 11278.89746215
0.22400001 193595.50653340 7840.61838536
0.22500001 189791.50765772 7077.32565522
0.22600001 186042.09743421 6968.20708891
0.22700001 182350.22992014 8107.29160564
0.22800001 178713.75835492 6752.69967878
0.22900001 175132.70094075 7250.49416183
0.23000001 171606.88127354 9513.88594773
0.23100001 168137.74939763 5851.19395576
0.23200001 164721.24804557 8635.51183719
0.23300001 161359.95640027 9061.97558002
0.23400001 158052.36362463 6685.61529752
0.23500001 154797.15450863 9863.67515180
0.23600001 151595.52918434 6467.06558088
0.23700001 148446.47483050 7419.35516295
0.23800001 145349.43023487 6252.93278446
0.23900001 142304.25424783 5122.95339524
0.24000001 139309.91222434 5539.65892163
0.24100001 136367.95346063 6930.21972268
0.24200001 133475.54758639 5351.70233362
0.24300001 130633.23755889 6693.64740915
0.24400001 127839.80227724 7516.98072948
0.24500001 125096.06154311 5539.25386716
0.24600001 122401.23858482 5895.45593532
0.24700001 119754.96486419 4900.37339406
0.24800001 117155.59342287 4813.33778348
0.24900001 114603.43103000 5157.15464032
0.25000001 112098.78890978 5064.62352254
0.25100001 109639.65890404 4144.37930264
0.25200001 107227.82886201 4883.15555740
0.25300001 104861.48687004 5193.78969039
0.25400001 102539.15585272 5883.18434539
0.25500001 100261.87133749 4235.06164566
0.25600001 98028.79819269  4912.71345386
0.25700001 95839.12790950  5192.56419581
0.25800001 93692.64546486  4003.95539338
0.25900001 91589.17817028  3929.17592941
0.26000001 89528.32160573  3855.53735238
0.26100001 87507.24368597  3782.93832354
0.26200001 85529.81327655  5398.64206946
0.26300001 83591.79020576  3641.25855366
0.26400001 81694.07773869  4221.54166690
0.26500001 79837.15719535  4141.15353968
0.26600001 78018.38074342  3124.63629663
0.26700001 76239.94129726  4903.75325629
0.26800001 74499.52565892  3006.05600259
0.26900001 72796.46018316  2948.25677693
0.27000001 71131.70761953  3180.65445672
0.27100001 69503.63998049  4537.19783264
0.27200001 67912.60947980  3059.12363879
0.27300001 66357.17697673  3545.46413365
0.27400001 64836.42388596  2941.95287305
0.27500001 63352.83163673  2885.08808927
0.27600001 61901.96000144  3600.83718370
0.27700001 60487.17153010  2774.54668940
0.27800001 59104.89873574  3462.95618082
0.27900001 57756.74711797  3638.67524064
0.28000001 56440.86873514  3092.67754871
0.28100001 55157.38372207  3966.36765118
0.28200001 53906.37504280  2745.99087465
0.28300001 52686.61419842  2917.78483241
0.28400001 51498.27829155  2201.55150116
0.28500001 50340.64864499  3239.42089363
0.28600001 49212.40499830  2330.45354900
0.28700001 48114.38828107  2494.25000655
0.28800001 47044.99864256  2447.28094522
0.28900001 46005.79344757  3202.00337551
0.29000001 44993.88338517  2945.97465409
0.29100001 44011.02873846  2120.45146499
0.29200001 43055.03293255  2649.17630174
0.29300001 42126.14348280  2600.86822174
0.29400001 41223.97374817  2736.24138706
0.29500001 40349.18206055  2328.95489878
0.29600001 39498.81936723  1935.63973472
0.29700001 38673.97991953  2247.34507951
0.29800001 37874.66693368  1868.54678163
0.29900001 37099.97130473  2003.39854529
0.30000001 36349.25322634  1805.28574695
0.30100001 35623.17384624  1775.10283679
0.30200001 34919.28395514  2539.33044943
0.30300001 34239.06134573  1717.43139841
0.30400001 33581.97486224  1536.37542268
0.30500001 32946.06306006  1663.44680265
0.30600001 32332.14236548  2084.45331699
0.30700001 31740.24222481  1613.03918623
0.30800001 31169.10383974  2167.03204705
0.30900001 30618.61965203  2135.64882184
0.31000001 30089.28711460  1544.03184139
0.31100001 29578.10820714  1522.68108260
0.31200001 29087.90170832  1638.81245984
0.31300001 28615.93400896  2021.71583345
0.31400001 28164.31390338  1863.06945292
0.31500001 27730.48405359  1314.42500637
0.31600002 27314.58557035  1818.33204751
0.31700002 26916.18015121  1797.46259560
0.31800002 26535.63779637  2412.48762448
0.31900002 26172.32608409  1633.15322498
0.32000002 25825.36063747  1492.18940829
0.32100002 25495.43775276  1724.00158247
0.32200002 25181.63809360  1220.05042340
0.32300002 24882.84307981  1572.09810022
0.32400002 24599.85310179  1559.01576415
0.32500002 24331.51534593  1308.79227243
0.32600002 24078.53885307  1299.15762534
0.32700002 23839.66729830  1290.20285528
0.32800002 23615.77377260  1515.07003812
0.32900002 23404.47181795  1158.52140985
0.33000002 23208.23874979  1382.74693019
0.33100002 23023.12189533  1375.86182962
0.33200002 22853.06118529  1598.11464437
0.33300002 22694.57307657  1250.69798148
0.33400002 22549.11410913  1586.33025270
0.33500002 22415.12399591  1694.58345434
0.33600002 22293.01944553  1464.98584224
0.33700002 22181.64750773  1237.07054009
0.33800002 22082.83746304  1347.49480581
0.33900002 21993.73999719  1346.01695157
0.34000002 21916.08901834  1121.00800638
0.34100002 21848.54562244  1232.91348786
0.34200002 21792.07700612  1233.32265657
0.34300002 21744.13455010  1346.39687511
0.34400002 21706.49876548  1797.29818290
0.34500002 21677.94283019  1575.11940064
0.34600002 21659.69827909  1578.34228835
0.34700002 21648.23917955  1243.04195256
0.34800002 21646.95835381  1246.54015584
0.34900002 21653.67902772  1364.18184336
0.35000002 21668.49426097  1597.18478762
0.35100002 21691.36189727  1259.83435866
0.35200002 21721.21604194  1380.16613267
0.35300002 21758.83326092  1270.93351097
0.35400002 21804.09687339  1509.38867755
0.35500002 21856.09075349  1283.82683167
0.35600002 21914.34126549  1408.21563642
0.35700002 21979.36533125  1416.35036903
0.35800002 22051.29758176  1781.19364653
0.35900002 22128.97065838  1792.44670823
0.36000002 22213.23891590  1202.84694427
0.36100002 22302.26201191  1816.51932691
0.36200002 22398.15860104  1829.36969039
0.36300002 22497.55372914  1351.20314097
0.36400002 22602.89703015  1237.50867102
0.36500002 22712.77747774  1246.93154259
0.36600002 22827.93747015  1508.01362071
0.36700002 22947.17602890  1393.35259448
0.36800002 23072.15405745  1787.86130260
0.36900002 23200.49062083  1545.15274854
0.37000002 23331.92769125  1428.26402128
0.37100002 23467.75765259  1702.35122076
0.37200002 23607.55421820  1452.92699318
0.37300002 23750.29319919  1732.10896507
0.37400002 23897.43778229  1478.65403282
0.37500002 24046.66842513  1898.72502879
0.37600002 24199.88355998  1505.35382816
0.37700002 24354.89389334  1933.29156884
0.37800002 24513.45995747  1393.59026460
0.37900002 24674.23540543  1547.07463321
0.38000002 24837.69709096  1561.42190159
0.38100002 25002.86415167  2005.72985726
0.38200002 25170.31665837  1735.24171263
0.38300002 25339.64958242  1897.43305062
0.38400002 25511.31800997  1767.93442185
0.38500002 25683.56557538  1487.07851726
0.38600002 25858.65273093  1951.42332079
0.38700002 26034.12281796  1818.22322374
0.38800002 26210.85704355  2905.86680380
0.38900002 26388.92268377  1852.50246016
0.39000002 26568.66689782  1558.25238738
0.39100002 26748.40152200  1572.80608401
0.39200002 26929.51162944  2698.74113580
0.39300002 27110.99734672  2082.93802483
0.39400002 27293.74247582  1940.58518197
0.39500002 27476.07044481  2284.91012644
0.39600002 27658.74869752  1647.07856297
0.39700002 27841.27760568  1828.33678699
0.39800002 28024.91343340  2348.20760784
0.39900002 28207.77266964  1692.46644037
0.40000002 28390.57832272  1878.46270372
0.40100002 28572.93328025  1895.24275427
0.40200002 28756.10198982  1912.13709241
0.40300002 28937.81688749  1928.99496512
0.40400002 29119.05420952  2830.37220327
0.40500002 29299.93702467  2319.67612415
0.40600002 29480.18433578  2519.67147456
0.40700002 29659.65570663  2541.23942135
0.40800002 29838.50548415  2379.77011764
0.40900002 30015.49635009  2399.73904689
0.41000002 30192.37011789  2047.49567656
0.41100002 30367.86993013  1876.73445061
0.41200002 30541.67241309  2648.87937390
0.41300002 30714.52012593  2479.58332726
0.41400002 30886.01643982  2307.18553738
0.41500002 31056.53245999  2131.72048906
0.41600002 31224.34804788  2343.69967553
0.41700002 31391.47983165  2558.71964232
0.41800002 31557.86100633  2181.75282405
0.41900002 31720.48104887  2198.22944085
0.42000002 31882.12983395  2617.36357274
0.42100002 32042.59900034  2231.12627412
0.42200002 32201.11978527  2043.16114719
0.42300002 32357.01571804  2263.69692690
0.42400002 32511.14518403  2901.61984517
0.42500002 32663.59402537  2504.64450855
0.42600002 32812.62341634  2311.81349235
0.42700002 32960.77057502  2962.51419967
0.42800002 33106.10023521  2130.37765109
0.42900002 33249.92522295  2573.54433421
0.43000002 33391.37643612  2158.75258889
0.43100002 33529.00214667  3910.82299571
0.43200002 33665.29845257  2842.52960954
0.43300002 33798.74670656  2640.35821784
0.43400002 33930.06373713  2878.11779289
0.43500002 34058.53971161  3118.40004377
0.43600002 34185.34298375  2913.10414041
0.43700002 34308.51853160  2704.88372921
0.43800002 34428.47371331  2267.11510146
0.43900002 34546.82580365  2964.11779442
0.44000002 34661.67170590  2522.15666120
0.44100002 34774.58413301  3688.88805965
0.44200002 34884.48031262  2549.88120929
0.44300002 34991.78483780  2563.49827870
0.44400002 35095.60331687  2342.63163242
0.44500002 35195.98982038  2825.53419668
0.44600002 35294.24211631  2603.12695065
0.44700002 35389.80049866  2378.19470622
0.44800002 35481.51745551  3584.52047082
0.44900002 35571.55882106  3841.72853474
0.45000002 35658.28074303  2653.51108725
0.45100002 35740.78542235  2665.54790313
0.45200002 35821.27073398  2920.86655408
0.45300002 35898.27060402  2933.60681279
0.45400002 35972.72547863  3437.19408238
0.45500002 36044.03986487  2465.41244360
0.45600002 36111.87382964  2475.46906834
0.45700002 36176.80431787  3230.95054676
0.45800002 36237.94559276  3742.47400846
0.45900002 36296.38719636  4007.12133639
0.46000002 36352.51798853  2513.77673805
0.46100002 36404.24185478  3531.93971215
0.46200002 36453.63532236  3544.38713038
0.46300002 36499.35801999  3810.53315789
0.46400002 36541.64448544  3568.29175312
0.46500002 36581.64867655  3068.46883642
0.46600002 36617.78602225  2821.58363568
0.46700002 36650.71273050  4373.89626456
0.46800002 36681.16739022  3096.62429785
0.46900002 36707.63641261  2846.67733872
0.47000002 36730.80281759  3114.03761047
0.47100002 36751.25477458  3642.78454591
0.47200002 36768.25654643  3130.44951074
0.47300002 36782.63746069  2876.77021215
0.47400002 36792.59449227  3932.20872274
0.47500002 36800.47351898  2890.30932717
0.47600002 36805.36623948  3950.13611888
0.47700002 36806.15945720  2902.90193398
