# SAXS profile: number of points = 501, q_min = 0, q_max = 0.5, delta_q = 0.001
#    q    intensity    error
0.00000000 1664650.74656090 324.60689558
0.00100000 1664582.28665402 499.37469786
0.00200000 1664376.85039807 1048.55744895
0.00300000 1664034.61675345 998.42080562
0.00400000 1663555.43972144 1871.49994080
0.00500000 1662939.77597743 1795.97502914
0.00600000 1662187.39419874 1919.82651846
0.00700000 1661298.90656487 2591.62640195
0.00800000 1660273.77018103 3586.19149500
0.00900000 1659113.30744142 2488.67006755
0.01000000 1657816.73876027 3008.93751077
0.01100000 1656385.27973204 3577.79236000
0.01200000 1654818.41415114 3872.27525889
0.01300000 1653117.52560997 3818.70165258
0.01400000 1651281.77246560 3715.38415275
0.01500000 1649312.97579081 5145.85671361
0.01600000 1647210.10672289 5880.54034388
0.01700000 1644975.18042190 6218.00646093
0.01800000 1642607.71786349 7958.43475116
0.01900000 1640108.45388324 4920.32558367
0.02000000 1637478.12114496 5673.86194643
0.02100000 1634718.24166168 5934.02748627
0.02200000 1631827.05223090 7318.74466176
0.02300000 1628807.35710745 6450.07742774
0.02400000 1625659.31072570 6096.22269319
0.02500000 1622383.90818656 8858.21654326
0.02600000 1618981.43502111 7868.25013408
0.02700000 1615453.12133010 8141.88410441
0.02800000 1611798.59465197 9114.72147075
0.02900000 1608020.48520228 8683.31101878
0.03000000 1604119.21631556 9696.90110835
0.03100000 1600094.85691579 8448.50123326
0.03200000 1595948.42552025 8689.93957720
0.03300000 1591682.90748814 9741.09984290
0.03400000 1587295.95577205 10833.29539800
0.03500000 1582791.33487546 11965.90304422
0.03600000 1578168.38343358 11386.48541269
0.03700000 1573429.28450722 11659.11153740
0.03800000 1568575.14111461 9176.16500019
0.03900000 1563607.18752542 10319.80791558
0.04000000 1558524.28631037 14377.38720745
0.04100000 1553330.51880762 11743.17926668
0.04200000 1548026.09987539 18971.06073409
0.04300000 1542611.21333433 12217.48137672
0.04400000 1537089.45728508 10375.35431853
0.04500000 1531460.31332898 14793.90731416
0.04600000 1525724.24256823 16134.53461520
0.04700000 1519884.69341008 12037.48733165
0.04800000 1513941.34019834 11127.46936820
0.04900000 1507897.31183223 15832.92251122
0.05000000 1501751.91356995 13786.08320854
0.05100000 1495508.62358892 22163.43883405
0.05200000 1489165.38090602 17758.29799486
0.05300000 1482728.06226176 24020.19572841
0.05400000 1476194.67622813 17050.04930554
0.05500000 1469569.20776249 19751.01107370
0.05600000 1462850.24130528 16259.58119085
0.05700000 1456042.77830839 15201.08731510
0.05800000 1449145.26282884 15389.92340983
0.05900000 1442159.79798912 16873.27042455
0.06000000 1435089.25312487 21009.70764730
0.06100000 1427935.03943477 13279.79648733
0.06200000 1420697.42512643 18795.82781301
0.06300000 1413379.74000876 16282.13536618
0.06400000 1405980.10409418 16449.96798721
0.06500000 1398505.04199373 15229.72061972
0.06600000 1390951.79299138 15376.97279099
0.06700000 1383323.74456385 16931.88342586
0.06800000 1375623.86065392 15661.47838664
0.06900000 1367852.35525767 17234.94048317
0.07000000 1360009.67731302 14484.10374165
0.07100000 1352099.99716066 17523.21678395
0.07200000 1344122.56288781 22077.21412968
0.07300000 1336081.88876097 20762.71352419
0.07400000 1327977.20495744 22409.61638386
0.07500000 1319811.29467859 16550.43441103
0.07600000 1311584.05135109 25752.95405559
0.07700000 1303300.65340860 19823.20386783
0.07800000 1294959.80262914 19948.85669503
0.07900000 1286563.58878339 16982.64016849
0.08000000 1278115.50734763 23293.65621414
0.08100000 1269615.89832656 17177.90391031
0.08200000 1261066.01837590 21980.38173173
0.08300000 1252468.19450740 17359.20999058
0.08400000 1243823.61488918 30131.62848503
0.08500000 1235135.89596131 25493.20608942
0.08600000 1226404.65262017 16004.58146813
0.08700000 1217632.61111423 20894.57658788
0.08800000 1208819.27932817 16137.73813692
0.08900000 1199970.54125888 19439.52368146
0.09000000 1191084.87861294 24387.46403521
0.09100000 1182165.01250393 22839.42911460
0.09200000 1173211.95864194 22912.83062888
0.09300000 1164228.95346978 19698.75481840
0.09400000 1155214.68134713 23046.53397600
0.09500000 1146173.26686145 16504.89581858
0.09600000 1137105.80350090 21508.35728428
0.09700000 1128015.04887791 19898.18639768
0.09800000 1118901.99710830 26585.11270126
0.09900000 1109768.59916169 18311.18274721
0.10000000 1100614.31490367 28346.32301339
0.10100000 1091442.10911273 18368.97156029
0.10200000 1082254.32337938 21737.07910751
0.10300000 1073051.58332119 20087.52658470
0.10400000 1063836.92404895 16755.43234203
0.10500000 1054612.61305770 18445.17547021
0.10600001 1045375.21542765 18456.10029680
0.10700001 1036132.32172683 25178.01660278
0.10800001 1026881.27934844 20147.41164899
0.10900001 1017626.27592977 20149.00121174
0.11000001 1008367.38888362 23505.04494125
0.11100001 999106.65007088 21820.49026471
0.11200001 989846.67453523 21811.27250020
0.11300001 980586.06832260 23475.23158088
0.11400001 971329.48801109 26808.69513138
0.11500001 962077.29163958 16740.14566279
0.11600001 952830.24670245 18394.38877881
0.11700001 943591.36625695 20041.88156317
0.11800001 934359.06222307 25017.46506930
0.11900001 925137.12022320 16652.46894838
0.12000001 915926.53796655 18286.47419188
0.12100001 906729.99253091 24889.73946748
0.12200001 897546.15776281 21527.64560814
0.12300001 888378.83376650 16523.84708657
0.12400001 879227.36153959 21431.16794731
0.12500001 870094.33611347 21378.21884566
0.12600001 860981.96089091 18041.87784066
0.12700001 851890.15339978 22898.80840252
0.12800001 842819.21661953 30986.24995938
0.12900001 833772.23010400 17884.41517866
0.13000001 824749.92034112 19447.60403830
0.13100001 815752.15629592 16151.89345602
0.13200001 806782.58486492 27362.03265555
0.13300001 797842.33416376 17640.29483998
0.13400001 788929.70608113 17573.41003147
0.13500001 780048.52037660 19095.58867914
0.13600001 771197.98121333 15848.11926118
0.13700001 762380.80397059 20515.66840223
0.13800001 753596.34672914 20426.22994131
0.13900001 744849.19331561 21898.56731618
0.14000001 736136.31591951 17126.21219755
0.14100001 727461.01209236 17044.41231719
0.14200001 718822.51161063 18502.49232153
0.14300001 710225.69165892 16874.96322977
0.14400001 701664.79145451 15261.20993400
0.14500001 693148.43824784 19733.93696781
0.14600001 684671.57967660 16606.70994847
0.14700001 676240.79488023 19516.31026096
0.14800001 667850.92587016 23882.35023585
0.14900001 659505.24504252 20774.41619899
0.15000001 651205.69753559 17699.77169414
0.15100001 642952.37932245 19057.10942233
0.15200001 634747.01635134 18937.67812645
0.15300001 626589.57977292 15921.64197336
0.15400001 618478.50577760 23007.40150067
0.15500001 610418.70177520 18568.93778432
0.15600001 602407.07437171 17024.02472519
0.15700001 594449.83248143 15497.30786421
0.15800001 586539.36719908 13988.96456796
0.15900001 578684.09857977 18054.94472789
0.16000001 570879.33332647 13786.73655060
0.16100001 563130.95388667 15052.49110793
0.16200001 555434.33594624 20370.55523244
0.16300001 547793.44806939 16170.86335040
0.16400001 540207.29271492 18718.18357625
0.16500001 532677.31022028 18569.13191095
0.16600001 525203.28437512 15787.61147370
0.16700001 517785.30208407 16962.64729716
0.16800001 510423.66751224 18114.93681533
0.16900001 503121.70169394 15395.52479878
0.17000001 495877.20845992 15263.10119712
0.17100001 488691.19118061 13869.05666062
0.17200001 481564.01257015 14995.90405958
0.17300001 474496.39806816 12384.35657442
0.17400001 467489.23863529 15953.07102183
0.17500001 460541.26222451 14589.94787632
0.17600001 453652.01628349 16862.24624165
0.17700001 446826.10734191 13123.28339245
0.17800001 440059.94375052 17723.41507167
0.17900001 433354.95348647 14040.70115615
0.18000001 426712.25549835 11585.23828401
0.18100001 420132.26750592 14910.49487810
0.18200001 413611.37568442 13624.35935863
0.18300001 407155.38564326 11237.48917461
0.18400001 400760.12229527 12233.20331097
0.18500001 394428.65176269 14305.92787527
0.18600001 388159.18914539 13065.43892389
0.18700001 381952.33063561 10771.05623280
0.18800001 375808.22391952 11719.58001664
0.18900001 369728.99776522 14752.18770784
0.19000001 363708.99172944 12504.31572647
0.19100001 357756.94797149 16485.44094146
0.19200001 351864.40858897 19354.30270895
0.19300001 346037.87699467 14097.58377491
0.19400001 340273.48990195 12938.90006493
0.19500001 334573.26308451 12787.39071936
0.19600001 328934.76489178 12636.02959045
0.19700001 323360.57881910 10564.19060926
0.19800001 317849.68300337 10436.59483464
0.19900001 312402.65519413 14058.12014812
0.20000001 307017.10315767 10182.22270745
0.20100001 301696.25198861 10969.67624076
0.20200001 296437.23118680 11734.46835114
0.20300001 291241.80042896 8911.99951435
0.20400001 286109.14588219 8797.85665171
0.20500001 281038.33328382 10420.90189073
0.20600001 276030.68942168 11141.97930517
0.20700001 271085.09379029 9303.64085866
0.20800001 266201.71480236 9179.96656890
0.20900001 261382.34078557 10703.60736114
0.21000001 256622.51949276 10558.73406367
0.21100001 251924.37102297 13619.03214132
0.21200001 247287.69077223 8690.92630305
0.21300001 242712.19956631 11686.59296161
0.21400001 238198.53486368 8450.09342378
0.21500001 233745.85980762 8330.70283740
0.21600001 229352.25304898 9705.04104661
0.21700001 225019.73101942 8829.77466267
0.21800001 220747.12824272 8701.85220676
0.21900001 216532.79864839 10718.37403988
0.22000001 212377.86433584 9152.42449630
0.22100001 208284.18516604 8323.03643278
0.22200001 204248.07318338 7515.30820814
0.22300001 200270.07718791 10766.51985872
0.22400001 196348.76368728 7952.12530536
0.22500001 192488.36284171 7830.42697068
0.22600001 188683.38445459 7709.60345339
0.22700001 184936.42052432 8222.27364534
0.22800001 181245.43369474 6848.35903602
0.22900001 177610.49758374 6740.31870206
0.23000001 174031.56472994 9648.31040491
0.23100001 170509.85342598 8307.24045179
0.23200001 167041.45042586 5838.09896849
0.23300001 163629.06867476 6317.71864033
0.23400001 160270.91620985 6214.50506995
0.23500001 156965.71420863 6667.90385495
0.23600001 153714.81215948 6557.47419687
0.23700001 150517.04552518 5910.80465734
0.23800001 147372.16378282 5283.29232151
0.23900001 144279.57982345 6232.87814319
0.24000001 141238.59219332 5105.77534929
0.24100001 138250.52655997 7025.89209211
0.24200001 135312.65270544 5918.57570930
0.24300001 132425.64184166 5331.45659274
0.24400001 129588.15925466 5714.83809346
0.24500001 126800.88091841 7018.42909084
0.24600001 124063.20718400 6435.15886105
0.24700001 121374.73326521 6772.71043659
0.24800001 118733.91404549 4878.18308933
0.24900001 116140.68434303 4355.27586890
0.25000001 113595.81849871 5132.25932257
0.25100001 111097.19802367 4619.42171236
0.25200001 108646.29301562 4535.43971651
0.25300001 106241.53565692 5262.14351004
0.25400001 103881.57768733 5165.51169489
0.25500001 101567.12933395 5460.24913133
0.25600001 99297.65783407  3827.92489061
0.25700001 97072.13246166  5259.36838561
0.25800001 94890.45692135  4792.44275356
0.25900001 92752.27487746  3979.07278051
0.26000001 90657.36843283  5323.85421312
0.26100001 88602.90256096  3482.09423541
0.26200001 86592.81483111  4782.52138942
0.26300001 84622.64245732  3351.05679987
0.26400001 82693.33078154  3615.76605951
0.26500001 80805.40600190  3868.96302245
0.26600001 78956.34707986  3794.64222022
0.26700001 77148.04319346  4962.16237301
0.26800001 75378.47275555  3041.52151961
0.26900001 73646.83113987  4474.04520347
0.27000001 71954.11720497  3217.42850308
0.27100001 70298.70967950  4589.09998505
0.27200001 68680.76017700  2812.47726234
0.27300001 67099.09092957  2757.77276771
0.27400001 65552.61220280  4056.06807200
0.27500001 64043.88760801  2651.41707245
0.27600001 62568.53151009  2599.72260728
0.27700001 61129.61332101  3823.65749419
0.27800001 59724.02788251  2999.34082221
0.27900001 58352.92005196  2695.90503399
0.28000001 57014.73304770  3364.43955638
0.28100001 55709.49762261  3063.46541926
0.28200001 54437.17132726  3004.11544188
0.28300001 53196.68966775  2946.03281324
0.28400001 51988.13949559  2666.99168235
0.28500001 50810.80342942  2397.76192732
0.28600001 49663.52551313  3420.82379926
0.28700001 48546.77544668  2726.38703813
0.28800001 47459.35964030  2263.09967157
0.28900001 46402.64180302  2220.36651537
0.29000001 45373.50358768  2376.66423042
0.29100001 44374.03094869  2332.29917706
0.29200001 43401.97549086  3242.77875230
0.29300001 42457.46475602  2059.61171281
0.29400001 41540.13941703  2021.96638184
0.29500001 40650.52148602  1804.88323942
0.29600001 39786.09689167  3190.44726077
0.29700001 38947.41653127  2263.23448177
0.29800001 38134.96501628  2394.49456672
0.29900001 37347.31366297  1848.69211383
0.30000001 36584.34244806  2312.49639561
0.30100001 35846.43884170  1786.22813204
0.30200001 35131.09017449  2235.39137363
0.30300001 34439.74836935  1727.49785999
0.30400001 33772.15008628  1854.09112751
0.30500001 33126.02506434  2280.72693365
0.30600001 32502.27642539  1796.07588030
0.30700001 31901.01856362  1621.20984016
0.30800001 31321.01287838  1887.24772034
0.30900001 30762.00227887  1430.43317369
0.31000001 30224.45757665  1409.97101271
0.31100001 29705.61729251  1529.24525062
0.31200001 29207.96083274  1508.44520863
0.31300001 28729.14337958  2300.34261932
0.31400001 28271.00619467  1870.12714832
0.31500001 27830.79632777  1583.01577007
0.31600002 27409.11662488  2215.61604728
0.31700002 27005.18149334  1416.96194005
0.31800002 26619.45978861  1401.11533231
0.31900002 26251.40774707  1386.07439467
0.32000002 25900.04924827  1995.33988856
0.32100002 25566.02449281  1605.29075391
0.32200002 25248.36036429  1590.26805284
0.32300002 24946.06002824  1333.61643226
0.32400002 24659.96933539  1683.04298683
0.32500002 24388.72603087  1311.86963532
0.32600002 24133.26291845  1538.85758286
0.32700002 23892.14555923  1175.49361718
0.32800002 23666.28293137  1167.93111797
0.32900002 23453.32604014  1393.12763275
0.33000002 23255.82107401  1270.11672810
0.33100002 23069.53284131  1378.63534788
0.33200002 22898.75063597  1486.93044296
0.33300002 22739.65876114  1822.81113261
0.33400002 22593.94431986  1248.88033142
0.33500002 22459.88423512  1358.37386287
0.33600002 22337.99971999  1467.94172112
0.33700002 22227.08733546  1126.91338127
0.33800002 22129.04900490  1575.36707326
0.33900002 22040.91499173  1124.08671781
0.34000002 21964.35737486  1348.17231952
0.34100002 21898.19040817  1235.71494325
0.34200002 21843.33102638  1573.37520834
0.34300002 21797.17744364  1349.68129123
0.34400002 21761.62186207  1689.24597705
0.34500002 21735.32106252  1240.86953823
0.34600002 21719.46123961  1582.69721549
0.34700002 21710.58947326  1473.28067143
0.34800002 21712.03819543  1136.62525336
0.34900002 21721.70208483  1140.38941346
0.35000002 21739.73079140  1259.05656842
0.35100002 21765.89624350  1379.08725131
0.35200002 21799.12133693  1154.26352946
0.35300002 21840.44391770  1275.70038965
0.35400002 21889.41750211  1282.17269091
0.35500002 21945.34761674  1640.63426553
0.35600002 22007.63987240  1414.21100518
0.35700002 22076.89049425  1659.74070597
0.35800002 22153.08892461  1431.53267411
0.35900002 22235.29484426  1560.91777200
0.36000002 22324.02348707  1813.26889362
0.36100002 22417.74134137  1704.19677749
0.36200002 22518.42709992  1226.12841367
0.36300002 22622.75838153  1729.28373260
0.36400002 22733.13563974  1493.56708228
0.36500002 22848.03337671  1505.22851016
0.36600002 22968.38926758  1896.61483361
0.36700002 23092.91788734  1274.72912776
0.36800002 23223.28952176  1542.49096310
0.36900002 23356.97106494  1944.46793326
0.37000002 23493.95688214  2091.90201988
0.37100002 23635.26832725  1318.84803513
0.37200002 23780.72316952  1862.74413411
0.37300002 23929.16926446  1476.66910526
0.37400002 24082.04344258  2167.38401250
0.37500002 24237.00165696  2187.14713313
0.37600002 24396.11480840  2483.28064398
0.37700002 24556.94379732  1670.85453512
0.37800002 24721.35952235  1545.95029097
0.37900002 24888.16664426  1560.48812252
0.38000002 25057.55304099  1432.03922413
0.38100002 25228.68835840  1879.28508484
0.38200002 25402.21115832  1459.35710018
0.38300002 25577.51395827  2062.57082331
0.38400002 25755.23458325  1933.57432794
0.38500002 25933.58641113  1801.86566921
0.38600002 26114.73194541  1970.74833962
0.38700002 26296.16498035  1836.52424923
0.38800002 26478.95741614  2163.06613380
0.38900002 26663.09553158  1715.77027874
0.39000002 26848.83004123  1889.62074782
0.39100002 27034.59163824  1907.56087637
0.39200002 27221.69297785  1925.66265248
0.39300002 27409.14535545  2105.84473743
0.39400002 27597.83412131  2289.24044882
0.39500002 27786.08192722  1815.54267914
0.39600002 27974.60445874  1832.47655189
0.39700002 28162.94613503  2521.99194588
0.39800002 28352.52207372  2036.27823181
0.39900002 28541.11203246  2054.96016370
0.40000002 28729.55651353  2073.69948740
0.40100002 28917.66343198  2266.85574383
0.40200002 29106.46901780  2463.28058969
0.40300002 29293.70870232  2307.75848091
0.40400002 29480.54628710  2149.13192616
0.40500002 29666.83470974  2168.05238331
0.40600002 29852.47949051  1822.49395925
0.40700002 30037.31683469  2389.76904060
0.40800002 30221.36088820  2410.30475184
0.40900002 30403.68013232  2056.80905841
0.41000002 30585.62550465  2639.84546239
0.41100002 30766.22720937  2281.62351796
0.41200002 30944.93638839  2300.44668011
0.41300002 31122.73724665  2319.26648951
0.41400002 31299.07064862  2532.87741226
0.41500002 31474.29808448  2160.39592288
0.41600002 31646.79876720  2177.45809235
0.41700002 31818.45304487  2394.02052053
0.41800002 31989.32767766  2211.58227379
0.41900002 32156.35135817  2633.60530103
0.42000002 32322.35166542  2653.50358571
0.42100002 32487.01849478  2262.07120498
0.42200002 32649.62782249  2278.78088185
0.42300002 32809.59742828  3547.37384204
0.42400002 32967.57141225  2311.85105483
0.42500002 33123.87387020  2751.60033278
0.42600002 33276.57489479  2557.63766761
0.42700002 33428.29562239  2360.70634872
0.42800002 33577.20649369  2376.76267428
0.42900002 33724.37241441  3045.31097333
0.43000002 33869.13966256  2627.56797953
0.43100002 34009.96967253  2644.61536706
0.43200002 34149.31176602  3105.19706603
0.43300002 34285.72689536  3794.40157532
0.43400002 34419.87405163  3144.25564362
0.43500002 34551.02506255  2485.60086079
0.43600002 34680.46885618  2955.29629363
0.43700002 34806.20189182  2972.79784446
0.43800002 34928.49643403  2300.04159918
0.43900002 35049.12035632  3007.21466908
0.44000002 35166.15732663  3489.36212609
0.44100002 35281.04973267  3040.87382057
0.44200002 35392.88243891  2587.04286447
0.44300002 35502.00104157  2364.43338142
0.44400002 35607.48062318  3565.19916635
0.44500002 35709.42468013  2627.85668675
0.44600002 35809.17667150  2401.00540961
0.44700002 35906.06546296  2654.17648481
0.44800002 35998.87931812  2424.52463698
0.44900002 36090.02485245  2923.29215159
0.45000002 36177.68863360  3181.64697767
0.45100002 36261.06969979  2950.20077059
0.45200002 36342.29435300  3951.13442931
0.45300002 36419.83208441  2976.22881899
0.45400002 36494.74131110  2490.76621253
0.45500002 36566.40106281  3001.37034148
0.45600002 36634.50640358  4018.07285278
0.45700002 36699.51043791  3025.50778389
0.45800002 36760.62072003  3290.25951348
0.45900002 36818.92818927  2794.55678201
0.46000002 36874.76581488  2549.89017695
0.46100002 36926.04244579  3326.66732161
0.46200002 36974.96763740  2567.91162412
0.46300002 37020.08824761  2834.25809057
0.46400002 37061.67253522  2843.55696004
0.46500002 37100.80358358  3630.68481077
0.46600002 37135.92859337  2601.37192126
0.46700002 37167.76209703  4174.68323660
0.46800002 37197.01641127  3925.21534284
0.46900002 37222.15488425  3148.99445246
0.47000002 37243.84087698  3157.53297921
0.47100002 37262.72912811  2638.20134731
0.47200002 37278.02954053  2909.36395339
0.47300002 37290.68999451  3181.64182113
0.47400002 37298.74733303  3986.30381016
0.47500002 37304.63571016  2663.55111595
0.47600002 37307.38600060  3470.14667332
0.47700002 37305.90192935  2942.31662463
