# SAXS profile: number of points = 501, q_min = 0, q_max = 0.5, delta_q = 0.001
#    q    intensity    error
0.00000000 1646666.22097351 419.89988635
0.00100000 1646598.33285725 543.37746275
0.00200000 1646394.61107138 1111.31639766
0.00300000 1646055.23369930 1185.15981048
0.00400000 1645580.04859679 1357.60359168
0.00500000 1644969.52703983 1776.56715952
0.00600000 1644223.43270192 2244.36507701
0.00700000 1643342.35125167 2958.01635519
0.00800000 1642325.76811646 2660.56785668
0.00900000 1641175.00492479 3446.46765767
0.01000000 1639889.26643888 5141.05307227
0.01100000 1638469.77330440 3834.01943646
0.01200000 1636915.97752673 6064.77396264
0.01300000 1635229.32676188 5150.97260648
0.01400000 1633408.91100248 4777.72127648
0.01500000 1631456.59757892 4307.04560940
0.01600000 1629371.34082748 4570.38681533
0.01700000 1627155.09611899 7029.31033056
0.01800000 1624807.48412424 4630.70153812
0.01900000 1622329.19650373 5840.38537095
0.02000000 1619720.86820336 8163.39354502
0.02100000 1616984.15533768 6936.86234091
0.02200000 1614117.21228690 7239.31602601
0.02300000 1611122.91562793 6380.04703630
0.02400000 1608001.34901159 9045.00800062
0.02500000 1604753.46966563 6258.53881753
0.02600000 1601379.64549245 7134.14664697
0.02700000 1597881.05561369 9395.54103733
0.02800000 1594257.29775650 10402.52934492
0.02900000 1590511.07520095 7873.03018373
0.03000000 1586642.75221572 10329.04479170
0.03100000 1582652.40812282 9875.75148110
0.03200000 1578540.99635922 8595.15612105
0.03300000 1574311.63054243 10437.68659168
0.03400000 1569961.79166953 9890.75974388
0.03500000 1565495.35690579 8453.67531767
0.03600000 1560911.67654331 15593.50836930
0.03700000 1556212.79963860 9757.45470499
0.03800000 1551399.94799196 11798.39715050
0.03900000 1546474.21126632 11134.61483676
0.04000000 1541434.65495963 12323.77063747
0.04100000 1536285.24258013 11614.31697242
0.04200000 1531026.09669197 14812.67817270
0.04300000 1525657.47140133 10069.33977865
0.04400000 1520183.04258718 12313.48321682
0.04500000 1514602.15993527 15676.13308372
0.04600000 1508915.28439277 14892.99454929
0.04700000 1503125.89564980 12987.00834241
0.04800000 1497233.64933669 14306.06818505
0.04900000 1491241.68622070 13421.17580071
0.05000000 1485149.22353408 12497.53129800
0.05100000 1478959.86446646 13843.06497627
0.05200000 1472671.44083732 14049.28620030
0.05300000 1466289.96743752 13064.64421891
0.05400000 1459813.19882130 14452.15134229
0.05500000 1453245.26223819 12207.26077226
0.05600000 1446584.68495043 16078.78952353
0.05700000 1439836.60714586 17537.21069365
0.05800000 1432999.19552716 15218.45216708
0.05900000 1426074.96690555 15401.61036192
0.06000000 1419066.13120330 15581.34684855
0.06100000 1411974.53854144 13131.36382208
0.06200000 1404800.58874849 19913.04927632
0.06300000 1397547.21859155 22807.97167381
0.06400000 1390212.74924919 13554.57493908
0.06500000 1382803.67043955 17796.68407105
0.06600000 1375317.15649542 15204.13187644
0.06700000 1367756.74667393 19531.56725656
0.06800000 1360125.05688363 16892.75399723
0.06900000 1352422.69387678 24140.74621594
0.07000000 1344649.84662616 20048.73015205
0.07100000 1336810.76523311 17325.06832889
0.07200000 1328904.58537628 16006.65648072
0.07300000 1320935.88378349 16128.62789671
0.07400000 1312903.93167743 23632.27187770
0.07500000 1304811.34644067 26774.73008396
0.07600000 1296658.23452656 17971.68397306
0.07700000 1288449.57946381 24119.77725850
0.07800000 1280184.20185847 16687.20185379
0.07900000 1271864.02672770 16788.60594025
0.08000000 1263492.70828046 21492.01197606
0.08100000 1255070.36533702 15437.36621794
0.08200000 1246598.47214750 17072.16687717
0.08300000 1238079.21641578 17159.77874487
0.08400000 1229513.78773729 15676.30152947
0.08500000 1220905.77626256 17324.65377847
0.08600000 1212254.78224141 17401.91821612
0.08700000 1203563.77088559 25419.26803473
0.08800000 1194831.75508372 23926.50701923
0.08900000 1186064.96054863 17613.06549143
0.09000000 1177261.83371241 16069.62478505
0.09100000 1168425.03434424 24186.39934723
0.09200000 1159555.42640934 19410.95875015
0.09300000 1150656.42937488 25958.81026656
0.09400000 1141726.46047767 22777.44395701
0.09500000 1132770.13108423 21205.45785061
0.09600000 1123787.99774725 19621.33936302
0.09700000 1114783.10548441 24580.96863155
0.09800000 1105756.17070092 19704.57588835
0.09900000 1096709.52795529 16450.64369288
0.10000000 1087642.35171227 18125.56064368
0.10100000 1078557.52390522 16501.93089187
0.10200000 1069457.57720414 24784.68051749
0.10300000 1060343.09777292 18195.48841371
0.10400000 1051216.92372248 18212.33406029
0.10500000 1042081.52317664 18226.00669788
0.10600001 1032933.28549494 18236.43801350
0.10700001 1023780.13633351 23219.33458469
0.10800001 1014618.87230448 18247.92127717
0.10900001 1005453.99725450 19907.99008262
0.11000001 996285.46918669 24882.23076413
0.11100001 987115.42254576 19900.24785529
0.11200001 977946.53266639 21549.05286177
0.11300001 968777.15487008 19879.30815387
0.11400001 959611.94983823 18208.63760552
0.11500001 950451.36717067 24806.78185126
0.11600001 941296.03710339 23127.64472075
0.11700001 932149.23585440 16499.04225164
0.11800001 923009.10843631 16475.71336157
0.11900001 913879.56821488 18094.81630295
0.12000001 904761.61225512 18063.56643956
0.12100001 895657.64429653 18029.58922903
0.12200001 886566.82081094 21264.30619894
0.12300001 877492.30512548 17953.49340874
0.12400001 868433.92708718 19539.76428013
0.12500001 859394.03200302 19491.05756426
0.12600001 850374.94065381 17819.60772112
0.12700001 841376.46067369 17769.87168686
0.12800001 832398.91609075 17717.61176401
0.12900001 823445.44103926 17662.90554278
0.13000001 814516.37050630 27208.92063925
0.13100001 805612.29028132 19141.34891936
0.13200001 796736.16755725 17484.37602126
0.13300001 787889.37676042 23754.86582920
0.13400001 779070.17537731 17353.78897468
0.13500001 770282.60244035 25142.02532905
0.13600001 761525.50901856 20344.15493267
0.13700001 752801.79355382 20257.89721976
0.13800001 744110.61656621 15514.70708701
0.13900001 735456.67224822 21622.42718377
0.14000001 726837.05217365 18447.12525414
0.14100001 718254.82595162 18358.59421717
0.14200001 709709.31857792 16745.59216166
0.14300001 701205.32833813 16660.63938716
0.14400001 692737.25786186 16573.73967613
0.14500001 684313.57743888 23978.34888457
0.14600001 675929.04097494 19375.50687357
0.14700001 667590.71602169 17784.61751383
0.14800001 659292.89138593 22102.79522649
0.14900001 651039.20322831 16113.22104014
0.15000001 642831.47510822 17472.16031783
0.15100001 634669.88122655 18811.61616718
0.15200001 626555.80879118 17255.34778834
0.15300001 618489.53840564 17144.53081364
0.15400001 610469.44998630 15612.75692018
0.15500001 602500.38617560 16918.21164223
0.15600001 594579.08943147 15402.57203865
0.15700001 586712.06168402 18076.59947364
0.15800001 578891.65214998 15187.22321097
0.15900001 571126.16655212 19189.84010192
0.16000001 563410.55491453 14967.00209778
0.16100001 555751.16973089 14855.22946814
0.16200001 548143.41107643 13402.10703348
0.16300001 540590.94397202 15958.24541941
0.16400001 533092.94355772 14513.45607353
0.16500001 525650.68433002 14397.57292353
0.16600001 518264.17959782 14280.77014306
0.16700001 510933.25821522 14163.07058643
0.16800001 503658.30810581 12767.73871333
0.16900001 496442.68517574 20254.86251157
0.17000001 489284.09779743 15060.16524134
0.17100001 482183.65989501 16172.44071656
0.17200001 475141.80118107 12329.93032290
0.17300001 468158.96657649 14662.73952562
0.17400001 461236.05185611 18161.17039951
0.17500001 454372.11855703 14394.50939570
0.17600001 447566.33034182 16636.04128451
0.17700001 440823.66051401 14123.99074995
0.17800001 434139.95283980 15153.65576961
0.17900001 427517.19311449 13851.55771117
0.18000001 420956.18997142 12571.85720733
0.18100001 414457.55694288 12446.16102291
0.18200001 408017.48145315 12320.08843445
0.18300001 401641.72109527 12193.84322848
0.18400001 395326.42379530 15358.43228999
0.18500001 389074.17012672 13026.20383123
0.18600001 382883.75181438 15035.84564410
0.18700001 376755.11124878 13811.84303092
0.18800001 370688.92285400 10509.03145942
0.18900001 364687.01489521 11432.93845714
0.19000001 358743.70747223 13361.41001611
0.19100001 352868.07053755 16260.16145866
0.19200001 347051.15054438 14065.98379620
0.19300001 341299.68743401 12911.36778572
0.19400001 335610.09350481 11779.91483867
0.19500001 329983.87312643 10671.67896120
0.19600001 324418.91524017 10545.23733821
0.19700001 318917.78786539 13260.60224611
0.19800001 313479.14481910 14971.76466411
0.19900001 308103.98971554 12940.36817961
0.20000001 302789.67066332 13693.66350293
0.20100001 297539.58450153 9916.99482014
0.20200001 292350.67144849 8902.07836635
0.20300001 287224.70346829 14062.52214647
0.20400001 282160.87848167 9544.09216575
0.20500001 277158.31207351 10277.03069745
0.20600001 272218.45997562 10142.86029812
0.20700001 267339.91539491 9175.10633005
0.20800001 262523.11800204 9053.11015224
0.20900001 257769.60751065 8119.74302042
0.21000001 253074.93898831 11213.75107667
0.21100001 248441.43561299 9480.52563117
0.21200001 243868.75912048 10129.08938892
0.21300001 239356.62385300 11525.02198337
0.21400001 234905.68784446 11363.56318671
0.21500001 230515.16971418 8215.56103703
0.21600001 226183.10867785 11043.39080331
0.21700001 221911.41631577 7256.50365661
0.21800001 217699.03609153 10727.12051059
0.21900001 213544.26842972 7751.65731051
0.22000001 209448.31225301 7637.53306743
0.22100001 205412.84752192 9576.34740428
0.22200001 201434.38911990 6737.98063466
0.22300001 197513.31652782 9954.67162371
0.22400001 193648.47645705 9803.45458421
0.22500001 189843.77622753 7079.27475028
0.22600001 186093.71998253 10138.38634407
0.22700001 182401.16755185 6861.93224780
0.22800001 178763.99345219 7982.70650511
0.22900001 175182.09477071 8461.29557757
0.23000001 171655.57954114 6542.65272362
0.23100001 168185.64345748 8194.00493677
0.23200001 164768.43034859 7486.25398694
0.23300001 161406.39508893 6231.90120912
0.23400001 158098.09029188 7802.14112491
0.23500001 154842.01088706 6029.54818912
0.23600001 151639.62419866 6468.94667428
0.23700001 148489.72424038 6891.40842795
0.23800001 145391.90145703 7818.44987065
0.23900001 142345.88202566 6149.34239437
0.24000001 139350.75716851 7556.29516488
0.24100001 136407.90017375 6932.24981473
0.24200001 133514.64002923 5353.26974519
0.24300001 130671.50599762 6695.60828404
0.24400001 127877.24929531 4699.48913391
0.24500001 125132.59647030 5540.87163381
0.24600001 122436.97887245 5897.17736636
0.24700001 119789.70654961 6238.64821223
0.24800001 117189.48296343 5252.43287490
0.24900001 114636.38988239 5158.63778875
0.25000001 112130.85890224 5488.24514861
0.25100001 109670.88042911 4145.55947634
0.25200001 107258.11265403 5698.62379491
0.25300001 104890.84907258 3996.34153873
0.25400001 102567.65824138 4707.85573601
0.25500001 100289.40860784 4621.33616729
0.25600001 98055.43260694  4914.04823759
0.25700001 95864.84103593  3709.96952362
0.25800001 93717.37827815  4005.01235021
0.25900001 91612.95621760  5716.64873846
0.26000001 89551.15262333  5258.89168663
0.26100001 87529.11154449  4127.87309575
0.26200001 85550.75449243  4387.47065175
0.26300001 83611.74355744  4966.53780232
0.26400001 81713.15230146  3572.90775345
0.26500001 79855.18770557  3186.22214022
0.26600001 78035.48033515  3125.32113531
0.26700001 76255.98667638  3372.03989040
0.26800001 74514.63140895  3908.66517552
0.26900001 72810.58510894  3538.59460375
0.27000001 71144.87210109  3181.24310654
0.27100001 69515.81801988  4537.99281509
0.27200001 67923.81353869  3337.77635525
0.27300001 66367.36687730  4364.31825239
0.27400001 64845.61149343  2942.36976076
0.27500001 63361.00076245  2885.46011128
0.27600001 61909.20002743  3086.79285945
0.27700001 60493.39122705  2774.83198691
0.27800001 59110.16866040  3215.88887817
0.27900001 57761.03514521  2668.55995001
0.28000001 56444.15275143  2854.94538129
0.28100001 55159.70017597  2566.58097066
0.28200001 53907.65954392  3661.40840952
0.28300001 52686.94501788  2917.80315319
0.28400001 51497.60566595  2201.52274642
0.28500001 50338.94149172  2375.49476143
0.28600001 49209.80975957  3601.42009772
0.28700001 48110.73265637  2078.38374913
0.28800001 47040.43727640  2854.88427343
0.28900001 46000.22577723  2201.11090763
0.29000001 44987.33173734  2552.80626027
0.29100001 44003.53905494  2312.82612220
0.29200001 43046.55904242  2081.08599541
0.29300001 42116.71020833  2414.55111054
0.29400001 41213.51811120  2188.43791530
0.29500001 40337.73741483  2686.49343900
0.29600001 39486.50251669  2286.86090151
0.29700001 38660.63146464  2419.38243159
0.29800001 37860.47202818  1867.84647593
0.29900001 37084.75346319  2169.45818030
0.30000001 36333.06489452  2624.70073223
0.30100001 35606.06777196  1935.54593571
0.30200001 34901.30052011  2538.02269397
0.30300001 34220.10621583  1872.52430078
0.30400001 33562.13526728  1842.56131340
0.30500001 32925.24055208  1813.52233546
0.30600001 32310.41248381  1487.89456532
0.30700001 31717.59275639  2198.02928208
0.30800001 31145.62046210  2309.75932282
0.30900001 30594.20597938  1564.89370993
0.31000001 30063.98895306  1682.98218127
0.31100001 29551.90923333  1383.02941760
0.31200001 29060.84210323  1364.40660135
0.31300001 28588.02518678  2154.39368008
0.31400001 28135.59185303  1329.40677800
0.31500001 27700.87039480  1444.32345077
0.31600002 27284.14593048  1816.30568059
0.31700002 26884.88516944  1795.37271662
0.31800002 26503.49099447  1268.19210413
0.31900002 26139.38418615  1756.56670048
0.32000002 25791.63977110  1614.42776791
0.32100002 25460.83975944  1967.61378978
0.32200002 25146.28407298  1340.17127313
0.32300002 24846.67073889  1207.54825509
0.32400002 24562.96454964  1676.42240989
0.32500002 24293.82057866  1900.74861208
0.32600002 24040.09683417  1415.00016666
0.32700002 23800.44778203  1170.98208633
0.32800002 23575.81353160  1628.85303403
0.32900002 23363.75252057  1850.40928725
0.33000002 23166.85249921  1150.23428105
0.33100002 22980.98574190  1487.78908738
0.33200002 22810.23654827  1481.18278040
0.33300002 22651.08124212  1702.22883595
0.33400002 22504.93530548  1243.96035792
0.33500002 22370.22107265  1240.20511500
0.33600002 22247.51465808  1124.61191922
0.33700002 22135.48411888  1122.26909797
0.33800002 22036.06605288  1232.58741304
0.33900002 21946.32849948  1343.11536778
0.34000002 21868.08381922  1677.82881049
0.34100002 21799.88932513  1230.16781288
0.34200002 21742.82322708  1454.26880042
0.34300002 21694.28648307  1567.19532976
0.34400002 21656.13314183  1120.70494317
0.34500002 21627.01941433  1571.41930507
0.34600002 21608.26236427  1349.65213119
0.34700002 21596.23498985  1240.05587185
0.34800002 21594.39974676  1130.46688028
0.34900002 21600.61489533  1247.43556929
0.35000002 21614.95229400  1251.83002140
0.35100002 21637.31581816  1713.67549396
0.35200002 21666.67480425  1147.25048522
0.35300002 21703.83878731  1267.72128361
0.35400002 21748.66104935  1389.73950688
0.35500002 21800.25504751  1513.37377708
0.35600002 21858.10550065  1287.55176550
0.35700002 21922.70910891  1530.42439538
0.35800002 21994.21468003  1539.70507160
0.35900002 22071.56716258  1906.98349317
0.36000002 22155.45577943  1559.63338347
0.36100002 22244.09443445  1449.42526200
0.36200002 22339.64915454  1459.67274490
0.36300002 22438.71318994  1592.69993766
0.36400002 22543.74309291  1357.69699208
0.36500002 22653.30572429  1368.03319749
0.36600002 22768.20257483  1253.38961112
0.36700002 22887.15482730  1642.38230820
0.36800002 23011.88450102  1783.19101445
0.36900002 23139.97023074  1284.26840864
0.37000002 23271.17845706  1554.04937098
0.37100002 23406.81207153  1959.15026319
0.37200002 23546.40295856  2107.87409270
0.37300002 23688.95523173  1594.74054174
0.37400002 23835.91302040  1743.00122218
0.37500002 23984.98171757  2029.12954943
0.37600002 24138.03047374  1638.00682554
0.37700002 24292.88503233  1515.14731124
0.37800002 24451.34689947  1668.07096450
0.37900002 24612.05653704  1543.17601798
0.38000002 24775.42158828  1415.91541085
0.38100002 24940.48924548  2143.63515220
0.38200002 25107.89461643  1875.18319826
0.38300002 25277.11995657  1455.96217847
0.38400002 25448.79222747  2204.50173114
0.38500002 25620.98408749  2076.83706852
0.38600002 25796.12160056  2246.19739478
0.38700002 25971.53371412  2418.46933403
0.38800002 26148.30793716  2136.05537658
0.38900002 26326.44193346  2156.13569650
0.39000002 26506.23712850  1865.50905748
0.39100002 26686.03337993  1726.05272079
0.39200002 26867.22533830  1742.20530960
0.39300002 27048.77104171  1918.29893316
0.39400002 27231.57035121  1613.47061975
0.39500002 27414.03826612  2116.91213520
0.39600002 27596.81466763  1807.72943045
0.39700002 27779.51757385  1824.28100551
0.39800002 27963.33812509  2510.40879912
0.39900002 28146.34967916  2026.53727291
0.40000002 28329.34990588  2215.21362084
0.40100002 28511.89209981  1719.26717508
0.40200002 28695.29280599  1908.09358554
0.40300002 28877.20916972  2799.93433376
0.40400002 29058.66340808  2294.90805139
0.40500002 29239.80494488  2492.98588772
0.40600002 29420.28841685  1796.10869295
0.40700002 29600.04664699  1992.67523469
0.40800002 29779.14003370  2557.73045868
0.40900002 29956.49351586  2395.02177007
0.41000002 30133.61412794  2600.83235861
0.41100002 30309.48568387  2060.43893442
0.41200002 30483.59991477  2266.15092504
0.41300002 30656.84729922  2665.30643048
0.41400002 30828.71863154  3262.44930377
0.41500002 30999.57532764  2708.12302894
0.41600002 31167.78511168  2924.31757667
0.41700002 31335.29383343  2161.19531810
0.41800002 31502.06233523  2375.88565390
0.41900002 31665.13345909  1994.90350245
0.42000002 31827.24847016  2009.89083613
0.42100002 31988.17671977  2024.85168231
0.42200002 32147.10955739  2243.70761788
0.42300002 32303.54564178  3081.75840026
0.42400002 32458.05990032  2483.04170004
0.42500002 32611.02787496  2917.38269194
0.42600002 32760.54678443  2517.97574517
0.42700002 32909.19416147  3591.70962098
0.42800002 33055.09409537  2977.93356817
0.42900002 33199.40185548  2355.49767327
0.43000002 33341.38282267  3017.72870228
0.43100002 33479.59636025  2386.42574165
0.43200002 33616.47337523  2620.06805902
0.43300002 33750.49818972  2856.30479715
0.43400002 33882.37471396  2652.99006582
0.43500002 34011.45280376  2446.78403065
0.43600002 34138.86448018  2237.80267272
0.43700002 34262.65364369  2701.26774128
0.43800002 34383.20848276  2490.54782447
0.43900002 34502.21057795  2504.86060666
0.44000002 34617.70032253  3205.94537880
0.44100002 34731.23092881  3223.75300759
0.44200002 34841.79247153  3009.80838529
0.44300002 34949.78244559  3258.71786966
0.44400002 35054.30506943  3743.79995884
0.44500002 35155.36503789  3527.84104874
0.44600002 35254.28920668  2600.18022366
0.44700002 35350.56284901  2613.11372964
0.44800002 35442.99683398  2625.79454489
0.44900002 35533.71116889  3357.93586460
0.45000002 35621.12192708  3373.67661760
0.45100002 35704.42744732  2904.91235478
0.45200002 35785.64254027  3404.28833619
0.45300002 35863.37816943  2930.75540290
0.45400002 35938.55865121  2943.36809303
0.45500002 36010.63054788  3202.06542007
0.45600002 36079.20313220  2967.87539031
0.45700002 36144.93412394  3973.05134720
0.45800002 36206.80985995  2492.83897700
0.45900002 36266.04416615  3002.82859927
0.46000002 36322.94260018  3516.42423978
0.46100002 36375.44606380  3024.98223803
0.46200002 36425.65770185  3794.64307094
0.46300002 36472.17282001  3046.15601830
0.46400002 36515.28110344  2801.63507545
0.46500002 36556.08506857  3066.32456088
0.46600002 36592.98895198  2819.67289734
0.46700002 36626.76410920  3342.55865103
0.46800002 36658.03159145  2836.78190916
0.46900002 36685.33121428  3103.57916783
0.47000002 36709.32794673  2593.51414236
0.47100002 36730.57699035  2860.57747159
0.47200002 36748.39524542  3910.94814936
0.47300002 36763.64168166  4182.23207593
0.47400002 36774.46577465  3144.21697276
0.47500002 36783.19054399  4202.11188692
0.47600002 36788.93452502  3421.92290704
0.47700002 36790.54349353  3165.45851222
