# SAXS profile: number of points = 501, q_min = 0, q_max = 0.5, delta_q = 0.001
#    q    intensity    error
0.00000000 1628779.37420969 293.18028736
0.00100000 1628712.30257528 488.61370238
0.00200000 1628511.03529279 732.82998909
0.00300000 1628175.75388509 1074.59603584
0.00400000 1627706.29443371 1831.16965082
0.00500000 1627103.11683030 1903.71072204
0.00600000 1626366.01135995 2732.29501032
0.00700000 1625495.53608511 2730.83261412
0.00800000 1624491.21051043 2412.36954946
0.00900000 1623354.31789622 2678.53473903
0.01000000 1622084.08859926 3747.01440646
0.01100000 1620681.68368656 3208.94987341
0.01200000 1619146.57459641 4104.53674656
0.01300000 1617480.21447615 3736.37946023
0.01400000 1615681.79723545 5452.92630740
0.01500000 1613752.98533308 5034.90953844
0.01600000 1611692.77929673 4931.78012512
0.01700000 1609503.21266094 4780.22475604
0.01800000 1607183.91473939 6412.66410836
0.01900000 1604735.43316928 6258.46847176
0.02000000 1602158.51313808 7065.51936255
0.02100000 1599454.71827404 6333.84097153
0.02200000 1596622.23602901 6059.18166101
0.02300000 1593664.08632466 6310.91006911
0.02400000 1590580.02644795 7754.07798250
0.02500000 1587371.19388517 8047.97232055
0.02600000 1584038.02725463 8339.96059495
0.02700000 1580581.38233088 7966.13053181
0.02800000 1577001.16479169 6859.95538144
0.02900000 1573300.00512322 8495.82041774
0.03000000 1569478.22170650 10947.11109959
0.03100000 1565535.80542063 8266.02943297
0.03200000 1561473.88002413 9275.15527454
0.03300000 1557295.21725672 13501.75015605
0.03400000 1552997.70810097 9783.88601247
0.03500000 1548584.84940692 13379.77371673
0.03600000 1544056.28222240 9426.46403860
0.03700000 1539413.72639857 10529.59037553
0.03800000 1534658.71247358 13466.63082519
0.03900000 1529792.05230026 11932.37856053
0.04000000 1524812.89470262 11253.11968436
0.04100000 1519725.20364573 13403.97691765
0.04200000 1514529.15553828 15629.94161027
0.04300000 1509224.91785620 12949.15039628
0.04400000 1503816.04715613 11165.83466870
0.04500000 1498302.04912709 13439.77000515
0.04600000 1492683.40196973 13680.44401501
0.04700000 1486963.21803187 14988.58993485
0.04800000 1481141.49239679 11975.02952320
0.04900000 1475221.30199461 12170.57630797
0.05000000 1469201.76182487 12363.33340147
0.05100000 1463086.32386616 12553.28124355
0.05200000 1456873.15417786 13898.57053855
0.05300000 1450567.96553915 14099.52128233
0.05400000 1444168.58451260 16680.14792898
0.05500000 1437679.02211203 13284.15478401
0.05600000 1431098.14264798 14683.06762874
0.05700000 1424430.50986674 18588.81902146
0.05800000 1417674.77558790 15055.70681973
0.05900000 1410832.97173021 13967.24707248
0.06000000 1403907.93123758 20553.21307354
0.06100000 1396900.73595752 14290.29519665
0.06200000 1389812.18354759 14447.09832329
0.06300000 1382645.36652382 17255.41498100
0.06400000 1375398.18142192 17433.17276482
0.06500000 1368077.29708094 17607.15563706
0.06600000 1360679.84301802 23247.21620567
0.06700000 1353209.32559634 22084.37722726
0.06800000 1345668.13979042 16713.19907853
0.06900000 1338057.53624857 15454.56526724
0.07000000 1330376.93903095 17002.21807700
0.07100000 1322630.93372016 17141.29770387
0.07200000 1314818.41395017 14397.26230722
0.07300000 1306944.31619955 18859.20736642
0.07400000 1299007.59666194 17536.60337677
0.07500000 1291010.86192016 16189.27696731
0.07600000 1282954.08034298 25190.80454849
0.07700000 1274842.70831452 19390.35850265
0.07800000 1266675.12981988 22515.15148842
0.07900000 1258453.26780350 15101.43992196
0.08000000 1250180.72141168 24303.51436435
0.08100000 1241857.99683572 19857.31030107
0.08200000 1233485.92363714 16892.59051690
0.08300000 1225066.94182769 18523.01302976
0.08400000 1216602.71736943 18614.02244947
0.08500000 1208096.22572989 17142.88624788
0.08600000 1199546.89735235 20350.31406906
0.08700000 1190958.27765901 20436.84500430
0.08800000 1182328.90435736 20519.31909879
0.08900000 1173665.11047801 20597.82365636
0.09000000 1164965.23557599 20672.30907639
0.09100000 1156232.26247364 20742.80776330
0.09200000 1147466.51249375 24010.73790212
0.09300000 1138671.90181445 16055.27457006
0.09400000 1129846.38888732 17710.34297815
0.09500000 1120994.87015746 17756.55957790
0.09600000 1112117.86567176 19417.57884741
0.09700000 1103218.18410074 21082.50048931
0.09800000 1094296.70400278 19500.36818219
0.09900000 1085355.56715118 21164.43455465
0.10000000 1076393.99813011 19568.84380627
0.10100000 1067414.97987091 22864.02994417
0.10200000 1058420.96420941 21258.38606606
0.10300000 1049412.46692909 21282.08583045
0.10400000 1040392.24425143 21302.03220320
0.10500000 1031363.11239784 29517.61366561
0.10600001 1022320.81336282 27894.02470512
0.10700001 1013274.03587017 21339.55219962
0.10800001 1004218.69533394 24628.46466212
0.10900001 995159.74949016 19704.16396729
0.11000001 986097.26191410 24627.78027552
0.11100001 977032.80865814 29545.47352463
0.11200001 967969.83369837 21329.21628966
0.11300001 958906.18156055 21316.48541969
0.11400001 949846.61098068 21300.31125415
0.11500001 940791.32075622 26191.63160316
0.11600001 931741.14777843 24528.08687033
0.11700001 922699.26933996 19598.13340375
0.11800001 913663.81498656 17939.78985219
0.11900001 904638.99741881 16283.50272052
0.12000001 895625.19100041 17881.15778061
0.12100001 886625.30241264 21092.81693804
0.12200001 877638.29182253 22669.39814576
0.12300001 868667.19647455 19388.65273880
0.12400001 859711.98700211 20955.48067055
0.12500001 850774.74427151 17687.60776685
0.12600001 841858.25593757 22452.36074389
0.12700001 832961.98810311 17592.15801779
0.12800001 824086.19849424 25513.70990782
0.12900001 815234.16794880 17486.77372669
0.13000001 806405.69730355 22184.22177847
0.13100001 797602.31580719 18951.03191689
0.13200001 788826.30537464 22031.91974771
0.13300001 780079.02071800 26655.30139454
0.13400001 771359.07348915 20306.02856694
0.13500001 762670.04590946 15558.46967011
0.13600001 754011.08118710 15494.92844899
0.13700001 745385.03049833 20058.31211652
0.13800001 736791.18980011 18434.51643809
0.13900001 728233.79574026 24468.65669077
0.14000001 719710.16630305 19788.43195574
0.14100001 711223.40900744 27268.30678740
0.14200001 702772.92133788 24119.16779790
0.14300001 694363.19373780 16498.07026138
0.14400001 685989.13581905 16412.29084864
0.14500001 677658.55186775 22261.08447896
0.14600001 669366.73687297 14759.53724432
0.14700001 661120.19881165 20547.61674843
0.14800001 652913.75263192 17511.14767174
0.14900001 644750.89884909 20309.65427197
0.15000001 636633.09736403 17303.68840279
0.15100001 628561.12419602 17197.43316946
0.15200001 620535.51712134 19937.80710591
0.15300001 612557.16784557 14150.07124496
0.15400001 604624.57725088 15463.27429292
0.15500001 596742.17059176 22342.02792134
0.15600001 588906.55385143 16642.49999728
0.15700001 581125.03307256 15149.93032723
0.15800001 573389.01240595 17777.92716874
0.15900001 565707.29051804 19007.76585858
0.16000001 558074.77317647 16173.00769006
0.16100001 550497.75302520 14714.80563297
0.16200001 542971.39886083 17258.34672749
0.16300001 535499.86967354 14490.62715744
0.16400001 528081.93775451 14377.03143410
0.16500001 520718.71790736 15559.07602564
0.16600001 513411.01316363 14147.04113565
0.16700001 506157.66706639 14030.69119354
0.16800001 498959.73550817 13913.49288159
0.16900001 491820.47278954 18812.13397247
0.17000001 484737.10005451 13676.85792385
0.17100001 477711.22088038 16022.43510493
0.17200001 470743.22580921 14658.94474394
0.17300001 463833.39016096 14527.26246588
0.17400001 456982.63905396 13195.37432585
0.17500001 450190.23481535 13073.52503647
0.17600001 443455.03739525 15305.85133858
0.17700001 436782.11238643 15160.70783698
0.17800001 430167.51737308 12704.99822570
0.17900001 423612.94840622 13725.06017665
0.18000001 417119.37928065 11324.79168240
0.18100001 410687.18848448 13454.11293028
0.18200001 404312.96652769 16647.58718317
0.18300001 398002.30179592 15378.80966788
0.18400001 391751.12151792 10871.09413568
0.18500001 385561.92437134 13984.33165760
0.18600001 379434.14283635 15964.69231407
0.18700001 373367.13110395 11581.84895403
0.18800001 367362.03063543 11456.18546663
0.18900001 361420.21140924 13390.61946539
0.19000001 355536.09978762 13241.94266226
0.19100001 349719.09968903 12086.29265633
0.19200001 343959.56563293 10953.39288514
0.19300001 338265.01552028 10827.86365845
0.19400001 332631.46629698 9729.47084894
0.19500001 327060.46534221 12500.25157608
0.19600001 321549.93584428 12352.34136918
0.19700001 316102.48144344 11265.89297104
0.19800001 310716.61870310 12984.84810925
0.19900001 305393.59254792 11910.35067225
0.20000001 300130.46316059 9953.82728115
0.20100001 294930.95878762 8936.40847362
0.20200001 289791.53418269 13236.22894938
0.20300001 284714.39705198 11325.93925004
0.20400001 279698.83502011 9460.81354173
0.20500001 274743.66269109 11036.45345196
0.20600001 269850.41441783 13406.16922196
0.20700001 265017.65032918 9095.40618923
0.20800001 260245.81191200 11422.18922475
0.20900001 255536.73076820 11269.17035959
0.21000001 250885.44341535 8734.57712541
0.21100001 246294.92092777 10181.83251248
0.21200001 241764.17849762 14676.29514951
0.21300001 237293.43668810 9902.25558113
0.21400001 232882.81602889 9012.56540640
0.21500001 228532.28441732 11106.66954778
0.21600001 224239.49709825 8758.79517076
0.21700001 220006.18888981 7194.20271684
0.21800001 215831.43905144 7799.06941887
0.21900001 211713.86942237 8383.86962553
0.22000001 207654.19319669 8260.48419594
0.22100001 203654.12034883 7459.85078111
0.22200001 199710.73923109 6680.32454316
0.22300001 195823.97534493 9211.56023580
0.22400001 191992.66988283 8423.67878943
0.22500001 188220.95785416 6380.69077298
0.22600001 184502.84734312 8167.01892385
0.22700001 180841.90212964 6184.79334531
0.22800001 177235.59379423 6696.84722821
0.22900001 173684.06299945 7190.52054822
0.23000001 170187.29088841 8845.48486224
0.23100001 166746.37983491 7543.60658049
0.23200001 163357.44847315 5709.34309415
0.23300001 160023.13242564 6178.49343516
0.23400001 156741.94338764 8840.24602517
0.23500001 153512.44017921 7064.64283118
0.23600001 150336.02033593 7482.22408601
0.23700001 147211.68261657 5255.45731798
0.23800001 144138.30598726 5167.35851405
0.23900001 141116.68035069 5080.20073292
0.24000001 138145.14141202 4993.94709826
0.24100001 135225.52355098 5399.55541080
0.24200001 132354.68075987 4824.32834190
0.24300001 129533.60548372 5689.11622196
0.24400001 126760.66079141 6987.68175667
0.24500001 124036.87659150 5034.65705901
0.24600001 121361.53678199 4496.44515048
0.24700001 118734.28683517 5741.99038298
0.24800001 116153.26495007 5205.98958134
0.24900001 113619.05857137 5538.92936739
0.25000001 111131.93434080 5439.35278364
0.25100001 108689.66333951 6162.70420290
0.25200001 106294.35258073 4437.25795841
0.25300001 103944.02627835 5544.37462399
0.25400001 101637.14252569 5053.90715120
0.25500001 99374.90587708  4579.19587947
0.25600001 97156.32235681  5618.06460609
0.25700001 94980.69333916  4043.32830675
0.25800001 92847.84784398  5049.99468317
0.25900001 90757.62110108  4955.36634658
0.26000001 88709.74978430  4862.18161573
0.26100001 86701.04642078  4429.55667123
0.26200001 84735.49195872  6017.06756870
0.26300001 82808.88501320  4263.00160219
0.26400001 80922.39824299  3216.66548237
0.26500001 79076.17170702  4101.68122053
0.26600001 77267.65353179  3094.56967038
0.26700001 75499.31844064  3338.58001943
0.26800001 73768.46300628  3571.86914779
0.26900001 72074.61821192  3502.82661086
0.27000001 70418.77170912  3435.02784652
0.27100001 68799.13925105  3649.10651856
0.27200001 67216.31636457  3027.75911393
0.27300001 65668.64248847  2698.98133400
0.27400001 64155.36599334  3440.33166421
0.27500001 62678.98878169  2854.40128420
0.27600001 61234.84328007  3562.03100218
0.27700001 59826.70709299  2993.72856462
0.27800001 58450.56799619  3424.61894097
0.27900001 57108.42487568  3118.12014579
0.28000001 55798.07748909  2587.07798522
0.28100001 54519.95986846  2536.81385274
0.28200001 53273.97975644  2713.77665724
0.28300001 52059.00458139  2883.02781017
0.28400001 50875.22698092  2174.91605638
0.28500001 49721.74290608  2346.36915879
0.28600001 48597.44427711  3347.39212025
0.28700001 47503.26829476  2462.56954496
0.28800001 46437.25139347  2818.27692047
0.28900001 45401.16438780  3159.92119096
0.29000001 44392.32767222  1937.72519461
0.29100001 43412.32732518  2091.60602953
0.29200001 42458.68532094  2239.27116982
0.29300001 41532.23484642  2014.72880777
0.29400001 40632.00663397  2696.94956799
0.29500001 39759.29642558  1941.84412935
0.29600001 38910.52671905  2253.50326161
0.29700001 38087.26830227  2383.50136319
0.29800001 37289.19068936  2174.14636606
0.29900001 36515.67872265  2464.80843046
0.30000001 35765.98772511  2099.28474890
0.30100001 35040.48594956  1587.33408866
0.30200001 34337.17799816  1560.62481390
0.30300001 33657.35495388  1688.25300441
0.30400001 33000.48782862  2264.65858445
0.30500001 32364.68657044  1782.64702069
0.30600001 31750.83785640  1900.76399826
0.30700001 31158.79386016  1583.48997894
0.30800001 30587.15385219  1984.80050744
0.30900001 30036.16087347  1815.68601076
0.31000001 29506.24723982  1651.75979869
0.31100001 28994.26929021  1899.70461384
0.31200001 28503.26942154  1472.05141897
0.31300001 28030.19785425  1452.24461959
0.31400001 27577.44052721  1563.64095193
0.31500001 27142.45298639  1543.86279896
0.31600002 26725.02188695  1779.08479125
0.31700002 26325.24345906  1255.71417245
0.31800002 25943.04668447  1365.51232689
0.31900002 25578.10936333  1841.62396136
0.32000002 25229.39226792  1336.27482474
0.32100002 24897.50169121  1563.31420521
0.32200002 24581.80372451  1310.08729153
0.32300002 24281.01251992  1298.06299078
0.32400002 23995.88654663  1286.77947699
0.32500002 23725.38472291  1740.25705183
0.32600002 23470.18786626  1381.45532322
0.32700002 23228.93773412  1142.86379064
0.32800002 23002.66185389  1589.25398274
0.32900002 22788.93096228  1579.27299047
0.33000002 22590.03823029  1570.23363174
0.33100002 22402.36008980  1896.58389501
0.33200002 22229.71241609  1443.48644409
0.33300002 22068.47566308  1216.19375139
0.33400002 21920.30997455  1211.64519122
0.33500002 21783.55520827  1866.41509863
0.33600002 21658.63436241  1532.78162641
0.33700002 21544.35267214  1310.75847865
0.33800002 21442.60962452  1090.35675104
0.33900002 21350.43838155  1851.08309534
0.34000002 21269.94327526  1087.95765005
0.34100002 21199.42328206  1196.28351246
0.34200002 21139.81266794  1413.93643726
0.34300002 21088.93534440  1305.82693837
0.34400002 21048.18444222  1198.16795612
0.34500002 21016.47763878  1090.75524111
0.34600002 20995.14065440  1529.91597194
0.34700002 20980.46005198  1204.69807324
0.34800002 20976.09898910  1866.76801795
0.34900002 20979.58987992  1321.71422503
0.35000002 20991.19963285  1326.22405562
0.35100002 21010.95030573  1331.25387442
0.35200002 21037.68480567  1448.12910219
0.35300002 21072.04842431  1118.92582433
0.35400002 21114.20713468  1461.63105813
0.35500002 21163.06130078  1130.10752699
0.35600002 21218.09512542  1477.09776212
0.35700002 21279.99151769  1257.00915849
0.35800002 21348.69679854  1724.44106558
0.35900002 21423.21798881  1272.53920881
0.36000002 21504.43057010  1397.35796463
0.36100002 21590.33386215  1406.82622109
0.36200002 21683.08930512  1416.77312230
0.36300002 21779.35220456  1308.06795536
0.36400002 21881.66033645  1437.62515220
0.36500002 21988.58012670  1207.17310614
0.36600002 22100.72485319  1581.63844904
0.36700002 22216.93424010  1226.37482814
0.36800002 22339.02410501  1607.40455562
0.36900002 22464.48878105  1246.77918641
0.37000002 22592.91160921  2137.40250404
0.37100002 22725.94345943  1521.72924613
0.37200002 22862.92015189  1407.09848740
0.37300002 23002.91292870  1935.69521464
0.37400002 23147.26284532  1562.44031607
0.37500002 23293.82541996  1839.28054229
0.37600002 23444.37316559  1458.35730185
0.37700002 23596.71065886  2675.86711548
0.37800002 23752.82251694  1350.34802406
0.37900002 23911.03246423  1908.10048104
0.38000002 24071.98105041  1925.99929508
0.38100002 24234.70658002  1527.51362810
0.38200002 24399.88427971  2102.66012741
0.38300002 24566.78269673  2122.57012555
0.38400002 24736.16908353  1571.36521547
0.38500002 24906.11253816  2163.09597641
0.38600002 25079.16477717  2329.35293486
0.38700002 25252.49980732  1910.60422594
0.38800002 25427.19912681  2522.25113688
0.38900002 25603.22194102  1797.34626541
0.39000002 25781.13118873  1663.26975744
0.39100002 25958.99578120  1831.66682910
0.39200002 26138.19215438  1694.93115055
0.39300002 26317.96945996  1710.93127565
0.39400002 26499.05354058  1570.06899666
0.39500002 26679.79854574  1743.25811957
0.39600002 26860.99203814  2079.44379715
0.39700002 27041.99270935  1775.84774536
0.39800002 27224.28625780  1792.31097070
0.39900002 27405.84583077  2466.52624163
0.40000002 27587.43220047  2157.19936312
0.40100002 27768.52642497  2009.33066731
0.40200002 27950.72431529  2196.50777439
0.40300002 28131.42943189  2216.19411565
0.40400002 28311.72400014  2063.92477740
0.40500002 28491.69338329  2082.17305111
0.40600002 28671.21069015  1925.41524512
0.40700002 28849.94670337  2295.30186847
0.40800002 29028.28120863  2137.06216384
0.40900002 29204.66904429  2155.30467759
0.41000002 29381.14186866  1811.34748203
0.41100002 29556.23039343  2557.20517481
0.41200002 29729.82317687  2025.93889638
0.41300002 29902.53939443  2785.42167657
0.41400002 30073.87944933  2246.51890131
0.41500002 30244.51890242  2453.43548962
0.41600002 30412.32452745  2092.52008826
0.41700002 30579.64354188  2109.07811502
0.41800002 30746.28704603  2125.64465565
0.41900002 30909.27882463  2531.47005569
0.42000002 31071.33456301  2158.37035769
0.42100002 31232.48501990  2372.41967453
0.42200002 31391.51391747  2589.32914818
0.42300002 31548.19595834  2207.11189383
0.42400002 31703.17528359  2021.07752010
0.42500002 31856.48121128  2646.31801962
0.42600002 32006.64662816  3280.04130188
0.42700002 32155.92133820  2683.73332206
0.42800002 32302.46310446  2910.12903898
0.42900002 32447.68189498  2302.16313954
0.43000002 32590.46720394  2739.06594595
0.43100002 32729.58813631  2757.14063526
0.43200002 32867.56692834  2348.22343047
0.43300002 33002.74155958  2793.02215054
0.43400002 33135.88268693  2810.75138212
0.43500002 33266.35061295  2610.74331982
0.43600002 33395.14514457  2845.76742835
0.43700002 33520.40183828  2862.97765668
0.43800002 33642.62354742  2879.97692526
0.43900002 33763.35229525  2451.21949280
0.44000002 33880.63756929  2465.32470956
0.44100002 33996.06390187  2479.33305786
0.44200002 34108.56577111  2719.81716348
0.44300002 34218.64932965  3190.54701470
0.44400002 34325.43143828  2749.46718851
0.44500002 34428.72845430  2533.61024702
0.44600002 34530.05426811  2546.76427324
0.44700002 34628.73007586  3257.87107993
0.44800002 34723.77644876  2572.51110012
0.44900002 34817.13533802  2585.17242136
0.45000002 34907.38905709  3306.07897428
0.45100002 34993.37561536  3321.57137083
0.45200002 35077.54733487  2860.22334524
0.45300002 35158.39779837  3352.00180496
0.45400002 35236.67206594  4088.33507021
0.45500002 35312.04206637  4589.15320444
0.45600002 35383.87227446  3153.23392718
0.45700002 35453.06261254  2679.18806861
0.45800002 35518.49724923  2934.53838181
0.45900002 35581.28412783  4419.19569812
0.46000002 35641.95940914  2957.56993194
0.46100002 35698.33878514  3216.06349358
0.46200002 35752.36521566  3724.50282286
0.46300002 35802.85430186  3737.81816627
0.46400002 35850.04470514  2500.54073670
0.46500002 35895.02478324  2759.96858639
0.46600002 35936.24491811  3020.80089099
0.46700002 35974.37290469  3030.48131712
0.46800002 36010.08879536  2533.30986682
0.46900002 36041.99412573  3303.24891819
0.47000002 36070.65732139  3567.74888476
0.47100002 36096.61647751  3577.89679483
0.47200002 36119.30587261  3331.46433506
0.47300002 36139.28160296  2826.45334813
0.47400002 36155.13380142  2833.65874599
0.47500002 36168.89961778  3357.19742165
0.47600002 36179.81824727  3624.13256561
0.47700002 36186.78687449  2594.59274188
