# SAXS profile: number of points = 501, q_min = 0, q_max = 0.5, delta_q = 0.001
#    q    intensity    error
0.00000000 1646666.22097351 296.39991978
0.00100000 1646598.58201802 740.96937951
0.00200000 1646395.61544441 814.96585545
0.00300000 1646057.50000489 1382.68834926
0.00400000 1645584.07571490 1727.86334516
0.00500000 1644975.80722071 1628.52611361
0.00600000 1644232.46346648 2244.37740401
0.00700000 1643354.63687956 2760.83590470
0.00800000 1642341.84186310 2882.31005416
0.00900000 1641195.33642530 2461.79310987
0.01000000 1639914.34820387 3247.03054965
0.01100000 1638500.09161471 3244.23032265
0.01200000 1636952.01039819 3192.05656023
0.01300000 1635271.52558787 3777.47739071
0.01400000 1633457.89773415 4777.86456268
0.01500000 1631512.74742335 5090.31999863
0.01600000 1629435.08560516 4986.07158485
0.01700000 1627226.99019968 5272.21568475
0.01800000 1624887.98225488 5094.02405359
0.01900000 1622418.70573034 6327.43323786
0.02000000 1619819.93643036 5102.43303057
0.02100000 1617093.18667214 5336.40775796
0.02200000 1614236.66119583 5569.11673414
0.02300000 1611253.33289401 8700.76839367
0.02400000 1608142.98955340 6633.59013438
0.02500000 1604906.90274566 8762.79208919
0.02600000 1601545.28814841 8432.13632777
0.02700000 1598059.19083939 7383.03379983
0.02800000 1594448.43929007 8323.02123478
0.02900000 1590715.67336599 14316.44171762
0.03000000 1586861.21146703 7378.90497250
0.03100000 1582885.03092297 8357.63334783
0.03200000 1578788.38351173 8596.50314416
0.03300000 1574573.92437059 9636.39286139
0.03400000 1570239.56199461 9892.50969701
0.03500000 1565788.80179324 11837.36388818
0.03600000 1561221.34724720 9531.25676542
0.03700000 1556538.87959995 12421.18083366
0.03800000 1551742.91514792 11801.00541585
0.03900000 1546834.32938651 10209.10704673
0.04000000 1541812.20960350 13275.00373984
0.04100000 1536680.54383329 14521.63181254
0.04200000 1531439.60403835 11853.34308517
0.04300000 1526089.44584486 11079.40989112
0.04400000 1520633.68358849 13343.56119319
0.04500000 1515071.78724337 13590.19456304
0.04600000 1509404.32268190 11705.43106655
0.04700000 1503634.41648412 12991.40196263
0.04800000 1497762.02100017 12109.40650321
0.04900000 1491790.18459359 15663.79766734
0.05000000 1485718.11660833 12502.31853344
0.05100000 1479549.17489197 13848.58092211
0.05200000 1473281.62902307 12883.84844621
0.05300000 1466921.06938396 14258.47345911
0.05400000 1460465.50170939 20483.02961668
0.05500000 1453918.94742609 13434.21170091
0.05600000 1447280.11937369 16086.51927750
0.05700000 1440553.61484506 20052.50725466
0.05800000 1433738.22774094 15226.30068956
0.05900000 1426835.74899711 21830.58797927
0.06000000 1419849.39530542 15589.94708880
0.06100000 1412780.09315788 15766.62657644
0.06200000 1405628.49027978 15939.82782486
0.06300000 1398397.82934553 16109.54374727
0.06400000 1391085.95225666 14919.39753568
0.06500000 1383699.60889385 23287.66550703
0.06600000 1376236.01897425 17980.52442918
0.06700000 1368698.40176551 15356.79678649
0.06800000 1361089.54614399 15496.00520820
0.06900000 1353410.44903038 19895.13453222
0.07000000 1345660.54975243 14331.28552598
0.07100000 1337844.48778770 15893.59325934
0.07200000 1329961.25092577 21844.61456981
0.07300000 1322015.77656142 19076.68854963
0.07400000 1314006.90156333 14782.57833536
0.07500000 1305937.42645581 17865.22483130
0.07600000 1297807.06997335 16488.63959701
0.07700000 1289621.63074108 19615.14592330
0.07800000 1281379.15687320 19739.64683735
0.07900000 1273081.86700988 24443.17299307
0.08000000 1264733.23661331 23049.76431857
0.08100000 1256333.80422411 20088.77847207
0.08200000 1247884.37681213 18643.39346442
0.08300000 1239387.60811587 17177.91305468
0.08400000 1230844.70102093 20401.25187703
0.08500000 1222259.18546477 20497.28750249
0.08600000 1213630.22679471 19005.45024394
0.08700000 1204961.17910069 20677.13480432
0.08800000 1196251.07511374 27148.91942472
0.08900000 1187506.03129621 16031.33217549
0.09000000 1178724.31078132 19307.50511758
0.09100000 1169908.97077681 17759.21901074
0.09200000 1161060.44797578 17816.47341133
0.09300000 1152182.45595998 22744.08274944
0.09400000 1143273.25097926 17920.80905133
0.09500000 1134337.32369223 19601.34987472
0.09600000 1125375.59926082 21286.48046065
0.09700000 1116390.81244013 19693.13485727
0.09800000 1107383.90980933 26311.44293417
0.09900000 1098356.66996570 21417.95607146
0.10000000 1089308.65705709 16503.02693051
0.10100000 1080242.92837457 23138.80461404
0.10200000 1071161.77013765 19859.34015246
0.10300000 1062065.73820333 18225.04892489
0.10400000 1052957.77973241 23217.72013538
0.10500000 1043840.34518945 19916.47472327
0.10600001 1034709.52965095 24910.63309848
0.10700001 1025573.64244668 18275.72316841
0.10800001 1016429.36913549 18280.48306421
0.10900001 1007280.94791445 23268.19099196
0.11000001 998128.75460680 21604.49791038
0.11100001 988974.34430455 23260.67767300
0.11200001 979820.97028275 29894.33921067
0.11300001 970666.80165124 19918.08370764
0.11400001 961516.49839473 19903.39245391
0.11500001 952370.35538070 21542.61845311
0.11600001 943229.09859479 19864.40575185
0.11700001 934095.82496938 24800.24532090
0.11800001 924968.85359849 19812.83377723
0.11900001 915852.36875945 24728.01512124
0.12000001 906746.60472238 21394.68714622
0.12100001 897654.89101690 18069.79380740
0.12200001 888575.62113611 16394.22098231
0.12300001 879512.40902002 21266.61105207
0.12400001 870464.81760409 17953.33770900
0.12500001 861435.12923237 22793.57459353
0.12600001 852426.04732389 17862.58866342
0.12700001 843437.08381190 21052.19060406
0.12800001 834468.65480683 17761.66615466
0.12900001 825523.77047713 17707.48571133
0.13000001 816602.76695979 25673.99220336
0.13100001 807706.41220415 17591.84648704
0.13200001 798837.52996578 19124.17136890
0.13300001 789997.43126501 19054.73894041
0.13400001 781184.75994055 23728.48820189
0.13500001 772402.88141457 17332.72147615
0.13600001 763651.10014232 18831.63701744
0.13700001 754932.46465466 17189.81303074
0.13800001 746245.85897948 18671.07227211
0.13900001 737595.98684121 24783.22632660
0.14000001 728979.77634856 16959.71529658
0.14100001 720400.62675109 15344.53407349
0.14200001 711857.72177053 16796.28373738
0.14300001 703356.02774588 15192.49091590
0.14400001 694889.70830052 15113.85186845
0.14500001 686467.15716757 22550.44717671
0.14600001 678083.57436252 14951.74352003
0.14700001 669745.20069112 20815.68181949
0.14800001 661447.40134989 14783.35011763
0.14900001 653193.01520109 26454.31836378
0.15000001 644984.20233424 20452.45002102
0.15100001 636821.16673823 15971.47561541
0.15200001 628704.97326854 18757.41376257
0.15300001 620636.03867706 27239.71702295
0.15400001 612613.05069773 18516.23033114
0.15500001 604640.41211775 15563.44494240
0.15600001 596715.13013238 14052.64197783
0.15700001 588843.99444646 22328.96532327
0.15800001 581018.54286253 19400.21006184
0.15900001 573247.74743803 17885.33056426
0.16000001 565526.52396093 16388.95943799
0.16100001 557861.10518830 16267.23059517
0.16200001 550246.57651050 13453.52943077
0.16300001 542687.19549434 17355.13733121
0.16400001 535181.72531663 17219.47282499
0.16500001 527731.38525634 14454.56332459
0.16600001 520336.55508121 14337.87445220
0.16700001 512997.00273961 12927.52507941
0.16800001 505712.80656811 19229.73037771
0.16900001 498487.74705069 17796.01341000
0.17000001 491319.05114406 15122.80110831
0.17100001 484208.17216275 18738.85714757
0.17200001 477155.37560318 13620.40083979
0.17300001 470161.26459730 12271.20958549
0.17400001 463226.79870809 17023.58565648
0.17500001 456350.96496502 13252.43264846
0.17600001 449532.77548443 13128.60532807
0.17700001 442777.10762098 15368.79413140
0.17800001 436080.47263344 12879.63736756
0.17900001 429444.26793956 13913.99493845
0.18000001 422869.47063966 14925.17867122
0.18100001 416356.44765039 14776.49102510
0.18200001 409901.94573950 13502.17073047
0.18300001 403511.43721840 13364.29943199
0.18400001 397180.91734858 14328.30227023
0.18500001 390912.87325014 14178.41058260
0.18600001 384706.63257614 12949.22586428
0.18700001 378561.81996030 13878.07697541
0.18800001 372479.10423303 12671.73972470
0.18900001 366460.43954727 13577.35992672
0.19000001 360500.10829950 18590.99146341
0.19100001 354607.04601196 12255.22008923
0.19200001 348772.45901448 11106.65948212
0.19300001 343003.16181451 13973.94947263
0.19400001 337295.22756322 9865.88587243
0.19500001 331650.60142102 14625.79221381
0.19600001 326066.94584571 14452.91805760
0.19700001 320546.83676234 12376.31395227
0.19800001 315089.07782332 10345.95035927
0.19900001 309694.58473841 13936.25697186
0.20000001 304360.54174721 13764.70615105
0.20100001 299090.74708279 9968.69507141
0.20200001 293881.50430078 9843.56145180
0.20300001 288735.32123979 8835.30124753
0.20400001 283651.18125345 8722.27423581
0.20500001 278628.12598107 8609.60949976
0.20600001 273667.37376606 11896.32129993
0.20700001 268767.98903351 12578.34248133
0.20800001 263929.78975182 12411.29894976
0.20900001 259155.18762447 11428.74431449
0.21000001 254439.08670680 8858.29722245
0.21100001 249784.23817738 7943.13914954
0.21200001 245189.80536690 8617.19611699
0.21300001 240655.87823824 8497.55946232
0.21400001 236182.90550453 9140.27887515
0.21500001 231770.48065398 10513.10949950
0.21600001 227416.30167584 7402.40096952
0.21700001 223122.42793009 9484.93485975
0.21800001 218887.71791041 8628.55424799
0.21900001 214710.81018249 9919.63989945
0.22000001 210592.36660088 7679.25101120
0.22100001 206534.28479680 11004.14721429
0.22200001 202533.49687922 10162.11868643
0.22300001 198589.96800979 8674.41021284
0.22400001 194702.50349319 7228.33078399
0.22500001 190875.13630598 8411.86765478
0.22600001 187102.39667389 6370.83690801
0.22700001 183387.26562710 7526.21373724
0.22800001 179727.29677840 6790.99622992
0.22900001 176122.88347291 6683.86374388
0.23000001 172573.85562645 5979.68438025
0.23100001 169081.29538090 6472.43229328
0.23200001 165641.29885579 7525.91276944
0.23300001 162256.73627897 6264.73288402
0.23400001 158925.90197715 7282.77980254
0.23500001 155647.40683824 6611.90215521
0.23600001 152422.56932364 9211.65841276
0.23700001 149250.44416759 6926.71344144
0.23800001 146130.13000974 8382.02465382
0.23900001 143062.03434372 6695.30352397
0.24000001 140044.74976368 6075.14153210
0.24100001 137079.90633801 5473.60091898
0.24200001 134164.65992066 4890.30208543
0.24300001 131299.63541535 7208.35032528
0.24400001 128483.58117338 6138.30338092
0.24500001 125717.25286117 5102.86353502
0.24600001 122999.87017830 7291.43264909
0.24700001 120331.45868855 4476.33047497
0.24800001 117709.85054246 4836.10943832
0.24900001 115135.73750590 4317.59036073
0.25000001 112609.11464590 4239.73336699
0.25100001 110128.25064978 4579.13287865
0.25200001 107694.77415087 4904.42024686
0.25300001 105306.99843992 5617.07556253
0.25400001 102963.39788498 3938.35015543
0.25500001 100664.91394772 3865.53287848
0.25600001 98410.74163377  5311.22797726
0.25700001 96200.20395468  4839.83248995
0.25800001 94033.06843059  4383.82185765
0.25900001 91909.07709128  4301.34501139
0.26000001 89828.06155952  3516.76877645
0.26100001 87786.86089209  3795.02617593
0.26200001 85789.56035476  3722.83814775
0.26300001 83831.69593437  3651.70884769
0.26400001 81914.47290859  3256.10045219
0.26500001 80038.18375647  4470.93315620
0.26600001 78200.24613308  4697.88000875
0.26700001 76402.98707647  4299.96031614
0.26800001 74643.89089034  4819.00982392
0.26900001 72922.35261922  3248.69096292
0.27000001 71239.33841052  3185.46716777
0.27100001 69593.22217279  3975.16503863
0.27200001 67984.43917683  2783.96291604
0.27300001 66411.37818075  4640.16321308
0.27400001 64873.19237483  2943.62124331
0.27500001 63372.68289438  3935.44379399
0.27600001 61904.83660647  3858.21912409
0.27700001 60473.52456876  3530.44453141
0.27800001 59074.76637895  2966.73490796
0.27900001 57710.56403388  3393.38132579
0.28000001 56378.76965071  3802.18440520
0.28100001 55079.70224656  2562.85866683
0.28200001 53813.24618791  2741.24689055
0.28300001 52578.34931595  2463.82156556
0.28400001 51375.18850900  2855.17623653
0.28500001 50202.86557957  2584.44364236
0.28600001 49060.23206736  2323.24739951
0.28700001 47948.22039274  3107.04482851
0.28800001 46864.88955773  2031.59305849
0.28900001 45812.06489756  2590.67239258
0.29000001 44786.79736900  2150.43817746
0.29100001 43790.90751991  2301.65020819
0.29200001 42822.04093830  2070.23166716
0.29300001 41880.76626742  2216.33025578
0.29400001 40966.10324794  2356.57520089
0.29500001 40079.41175342  2135.43115931
0.29600001 39217.28596185  2620.69525846
0.29700001 38380.98043398  1715.62990661
0.29800001 37570.35563686  3201.55800715
0.29900001 36784.71710077  2317.43728705
0.30000001 36023.37300737  2277.03751559
0.30100001 35286.77250501  1758.33995716
0.30200001 34572.67162914  2199.85919991
0.30300001 33882.47700199  2008.55333177
0.30400001 33215.75746177  2279.43146373
0.30500001 32570.36721731  2242.46988908
0.30600001 31947.44506495  1471.17991489
0.30700001 31346.64382769  1593.03651474
0.30800001 30766.76775209  1853.85167867
0.30900001 30207.95487235  1685.60396168
0.31000001 29670.47461276  1660.95324746
0.31100001 29151.39827587  1909.99970546
0.31200001 28653.59090545  1479.81477238
0.31300001 28174.22811908  1725.10806941
0.31400001 27715.49204370  1440.51276717
0.31500001 27274.79616366  1292.82539937
0.31600002 26852.14284530  1659.86528857
0.31700002 26447.42717721  1513.85080330
0.31800002 26060.62665536  1621.10135785
0.31900002 25691.37625704  1479.82334247
0.32000002 25338.83918783  2440.13032933
0.32100002 25003.38351246  1449.19617700
0.32200002 24684.37729535  1554.74557757
0.32300002 24380.59574555  1658.85581308
0.32400002 24092.80658755  1291.97681443
0.32500002 23819.93880620  1281.27456906
0.32600002 23562.66598134  1733.62323167
0.32700002 23319.64341194  1262.05916122
0.32800002 23091.92117204  1253.54500018
0.32900002 22876.96322617  1245.65070665
0.33000002 22677.22116951  1238.51649282
0.33100002 22488.80195216  1343.93086830
0.33200002 22315.79021919  1449.07590650
0.33300002 22154.38475834  1220.92820185
0.33400002 22006.33832980  1105.81855344
0.33500002 21869.93375302  1322.69365602
0.33600002 21745.56276648  1099.23824990
0.33700002 21632.17310455  1754.80196534
0.33800002 21531.44557284  2518.21033623
0.33900002 21440.58684275  1421.51097499
0.34000002 21361.50622897  1201.90520489
0.34100002 21292.74342550  1201.54956840
0.34200002 21235.07040785  1201.79886665
0.34300002 21186.22591414  1530.49303252
0.34400002 21147.82349843  1313.27990145
0.34500002 21118.55272417  1315.26352595
0.34600002 21099.90734504  1647.37534398
0.34700002 21088.03405159  1431.03405852
0.34800002 21086.74695274  1545.44775736
0.34900002 21093.38219780  1661.10392675
0.35000002 21108.37304335  1333.62707204
0.35100002 21131.59206622  1338.89773673
0.35200002 21161.91975965  1232.57607478
0.35300002 21200.16187432  1688.59297327
0.35400002 21246.22529081  1244.49770535
0.35500002 21299.09406104  1478.58317975
0.35600002 21358.35389454  1601.23586732
0.35700002 21424.57888253  1610.69991668
0.35800002 21497.78072195  1157.65554671
0.35900002 21576.80531417  1281.66229637
0.36000002 21662.64658336  1290.33560486
0.36100002 21753.34253239  1181.20655546
0.36200002 21850.93456838  1427.74013233
0.36300002 21952.21143324  2037.60436175
0.36400002 22059.56569582  2657.07481392
0.36500002 22171.59637140  1460.66483814
0.36600002 22288.94565013  1472.40781939
0.36700002 22410.45792012  1360.76306937
0.36800002 22537.93102655  1372.22199555
0.36900002 22668.74087107  1383.92669573
0.37000002 22802.66916108  1268.96859892
0.37100002 22941.16677470  1792.16403333
0.37200002 23083.77688452  1678.99859123
0.37300002 23229.35598643  1303.16693257
0.37400002 23379.40782876  1578.11010320
0.37500002 23531.64383991  1725.34020807
0.37600002 23688.00796770  1741.42398824
0.37700002 23846.06750129  1487.27930051
0.37800002 24007.89554196  1501.33381884
0.37900002 24171.97690956  2066.70412367
0.38000002 24338.75925078  1530.05617278
0.38100002 24507.31844267  1825.55023728
0.38200002 24678.35875714  1559.54895554
0.38300002 24851.09328357  1574.56534504
0.38400002 25026.32379735  1734.32432132
0.38500002 25202.23821449  1459.20966175
0.38600002 25381.03921335  1620.70633575
0.38700002 25560.21916452  2380.16772136
0.38800002 25740.75075655  1501.97287780
0.38900002 25922.59723857  1819.76641236
0.39000002 26106.26661479  1990.47239235
0.39100002 26289.87125535  1700.42895336
0.39200002 26474.86343444  2653.17856478
0.39300002 26660.28520701  1890.74751646
0.39400002 26847.05531682  1749.75691317
0.39500002 27033.36834963  1766.36037165
0.39600002 27220.16796677  2593.53772675
0.39700002 27406.70737179  2290.65271066
0.39800002 27594.54386751  2146.99358733
0.39900002 27781.52128349  2000.26962718
0.40000002 27968.39723036  2018.75900773
0.40100002 28154.88100605  2207.06122663
0.40200002 28342.35648222  2398.61374274
0.40300002 28528.26202668  2420.33786502
0.40400002 28713.72742176  2616.53853528
0.40500002 28898.78111653  2111.92302406
0.40600002 29083.29666397  1953.08888001
0.40700002 29266.96670682  2149.36613679
0.40800002 29450.10033959  2168.11648973
0.40900002 29631.30941140  2186.79073817
0.41000002 29812.51117219  2205.52968102
0.41100002 29992.21080808  2038.87058734
0.41200002 30170.24152762  2055.95120632
0.41300002 30347.45229206  2261.49225196
0.41400002 30523.11754758  2090.07057310
0.41500002 30698.04551142  2873.33719602
0.41600002 30870.04717871  1930.92154252
0.41700002 31041.39494062  2335.55466600
0.41800002 31212.04452462  2354.01250959
0.41900002 31378.93547075  2372.24763400
0.42000002 31544.82680883  2589.67267958
0.42100002 31709.61645654  2207.94069849
0.42200002 31872.23305111  2224.52261121
0.42300002 32032.37998715  2444.71135646
0.42400002 32190.76064837  2052.16108858
0.42500002 32347.30119220  2273.69190854
0.42600002 32500.58738626  2289.82899281
0.42700002 32652.88710445  2934.84163202
0.42800002 32802.43531197  2744.08785606
0.42900002 32950.39513324  2125.30058681
0.43000002 33095.91156106  2139.65078381
0.43100002 33237.64609083  2584.55948250
0.43200002 33378.06718304  2384.69612290
0.43300002 33515.62213180  2400.05381459
0.43400002 33651.00864343  2634.87410164
0.43500002 33783.51521204  2872.27459944
0.43600002 33914.33899062  2445.39352880
0.43700002 34041.50452744  2907.48503947
0.43800002 34165.45107412  2699.75407182
0.43900002 34287.79224471  2262.99439539
0.44000002 34406.62898007  2958.79819936
0.44100002 34523.41636143  2288.90261323
0.44200002 34637.17567172  2992.13256220
0.44300002 34748.40029351  3471.36535383
0.44400002 34856.16891879  3489.97407839
0.44500002 34960.36171037  3274.38763297
0.44600002 35062.48617464  2586.03379037
0.44700002 35161.84091020  2362.87582115
0.44800002 35257.30463405  2374.57957964
0.44900002 35351.12757254  2863.44146908
0.45000002 35441.65761652  3356.67955194
0.45100002 35527.80233693  4094.93469142
0.45200002 35612.01697527  3629.75500223
0.45300002 35692.67186973  3159.87239038
0.45400002 35770.75517252  2929.62498747
0.45500002 35845.74223181  2697.03377334
0.45600002 35917.16872636  3446.97084603
0.45700002 35985.69508229  2719.43910625
0.45800002 36050.41495969  2482.07118761
0.45900002 36112.37700572  2990.10495779
0.46000002 36172.00540836  3251.68258030
0.46100002 36227.23121606  3012.65669071
0.46200002 36280.07857937  2519.65157676
0.46300002 36329.30193324  4804.18711535
0.46400002 36375.02820773  3552.02167283
0.46500002 36418.42700966  3309.34261922
0.46600002 36457.92454184  2553.87773520
0.46700002 36494.24718955  3330.46515637
0.46800002 36528.02845730  2569.74692377
0.46900002 36557.88372491  4123.72947962
0.47000002 36584.31908756  3618.55517246
0.47100002 36607.98520640  3628.58366564
0.47200002 36628.28309258  2858.65448945
0.47300002 36645.86353244  2866.07312272
0.47400002 36658.98944508  3917.92968264
0.47500002 36670.05226615  2880.06604149
0.47600002 36678.18121416  3936.48598539
0.47700002 36682.09975349  3156.12801238
