# SAXS profile: number of points = 501, q_min = 0, q_max = 0.5, delta_q = 0.001
#    q    intensity    error
0.00000000 1664650.74656091 399.51617917
0.00100000 1664582.47310046 499.37475379
0.00200000 1664377.59954400 823.86693786
0.00300000 1664036.30387885 1098.26399968
0.00400000 1663558.43288383 1497.20264649
0.00500000 1662944.45685201 1795.98008449
0.00600000 1662194.11108651 1919.83427647
0.00700000 1661308.04051494 2192.92670462
0.00800000 1660285.70401469 3137.94011307
0.00900000 1659128.43937425 3484.16987163
0.01000000 1657835.38981051 3556.05706469
0.01100000 1656407.82764618 3875.99448545
0.01200000 1654845.19703148 5485.81206868
0.01300000 1653148.87643912 4513.09663173
0.01400000 1651318.16079455 4458.55923180
0.01500000 1649354.71493509 3958.45149211
0.01600000 1647257.52076092 4200.50686572
0.01700000 1645028.63195926 5774.05075719
0.01800000 1642667.52682187 7022.40399315
0.01900000 1640174.97756680 6888.73521662
0.02000000 1637551.70476699 6705.77453436
0.02100000 1634799.26913448 6473.80539929
0.02200000 1631915.80660844 7319.14272516
0.02300000 1628904.27964145 7036.86680836
0.02400000 1625764.53043878 7925.60244728
0.02500000 1622497.92951940 7593.29065694
0.02600000 1619104.50457255 7868.84825213
0.02700000 1615585.47652278 8142.55117461
0.02800000 1611940.62304188 7713.13623498
0.02900000 1608172.50193867 7960.45425009
0.03000000 1604281.50867072 7459.90935822
0.03100000 1600267.64390410 9217.54205302
0.03200000 1596132.16356729 11061.19640298
0.03300000 1591877.73288107 9742.29217436
0.03400000 1587502.31398337 11668.14254615
0.03500000 1583009.22587911 10257.90025739
0.03600000 1578398.38305531 9636.12257387
0.03700000 1573671.41902034 10763.91300390
0.03800000 1568829.71305609 9177.65424612
0.03900000 1563874.42165687 10321.57166093
0.04000000 1558804.48275027 9586.64801315
0.04100000 1553623.88584459 12724.18021504
0.04200000 1548332.96418180 14980.12212343
0.04300000 1542931.71855450 11201.68479667
0.04400000 1537423.84047391 10377.61140516
0.04500000 1531808.70511954 16911.16889030
0.04600000 1526087.03560348 13986.58833150
0.04700000 1520261.83213107 12040.47427046
0.04800000 1514333.19468424 13356.41939856
0.04900000 1508304.04407830 13574.73702857
0.05000000 1502173.69056165 16088.28097508
0.05100000 1495945.49687999 14002.05050307
0.05200000 1489617.74331625 13026.70777236
0.05300000 1483195.94415907 13215.27647853
0.05400000 1476678.09821849 14619.11385411
0.05500000 1470068.47074069 14818.29087633
0.05600000 1463365.52988456 12511.77586436
0.05700000 1456574.01764690 16473.85290856
0.05800000 1449692.68082410 19244.67123652
0.05900000 1442723.43776809 12984.51154637
0.06000000 1435669.29193662 14450.01209843
0.06100000 1428531.44261730 13285.34303718
0.06200000 1421310.44728231 18803.93809651
0.06300000 1414009.48401956 19004.28835377
0.06400000 1406626.48918990 16457.53069319
0.06500000 1399168.11883696 16622.11802933
0.06600000 1391631.67857027 16783.07882881
0.06700000 1384020.49516177 15528.71068244
0.06800000 1376337.36618539 24216.65709159
0.06900000 1368583.09347904 17244.14778519
0.07000000 1360757.23201393 18839.68475947
0.07100000 1352864.56345886 18994.21936061
0.07200000 1344903.85434279 20617.37705293
0.07300000 1336880.33023194 22259.05854132
0.07400000 1328792.51723803 19433.59147534
0.07500000 1320643.49501327 16560.87020372
0.07600000 1312432.92475779 16674.46109076
0.07700000 1304166.62619336 21362.25033869
0.07800000 1295842.52440428 16891.30809775
0.07900000 1287463.03506635 16994.51285998
0.08000000 1279031.74918568 18648.28377794
0.08100000 1270548.74090749 20316.07532030
0.08200000 1262015.30125866 15712.09123796
0.08300000 1253434.07749081 18951.92414111
0.08400000 1244805.87802704 22219.78596575
0.08500000 1236134.57560070 22324.59148338
0.08600000 1227419.42704692 17619.60670253
0.08700000 1218663.51561782 19303.63099384
0.08800000 1209866.06562388 17766.88400809
0.08900000 1201033.24412241 19456.73946866
0.09000000 1192163.11931132 17900.33007734
0.09100000 1183258.94509653 17961.87163044
0.09200000 1174321.24486171 18019.96034910
0.09300000 1165353.53333146 16431.48559212
0.09400000 1156354.35086517 18125.85530168
0.09500000 1147327.83197555 16521.52155700
0.09600000 1138275.14505373 26499.04662251
0.09700000 1129199.02410107 23238.91700853
0.09800000 1120100.46166811 24950.23895676
0.09900000 1110981.10091929 18331.18902715
0.10000000 1101840.82126502 23370.04491806
0.10100000 1092682.46207734 26748.86792970
0.10200000 1083508.19197527 18414.22258876
0.10300000 1074318.95042418 16759.37641499
0.10400000 1065117.33539047 20130.71858593
0.10500000 1055906.02731171 20146.68794900
0.10600001 1046681.17792322 18479.15706574
0.10700001 1037450.81101230 21848.71510807
0.10800001 1028212.04025066 23535.77470897
0.10900001 1018968.90855888 25219.48167380
0.11000001 1009721.75144339 23536.61513400
0.11100001 1000472.45547668 28573.49467346
0.11200001 991223.57327711 16801.24035800
0.11300001 981973.88478302 16791.75422036
0.11400001 972727.89856494 18457.51274433
0.11500001 963486.11218034 26823.45462616
0.11600001 954249.03277300 25120.60697072
0.11700001 945019.83520421 20072.22224504
0.11800001 935796.84200280 21715.16674142
0.11900001 926584.43898922 18346.37275613
0.12000001 917382.50460538 23310.69054007
0.12100001 908194.84101565 24929.94956028
0.12200001 899019.35241511 18245.59861684
0.12300001 889859.87694624 18206.53394011
0.12400001 880716.09880557 18164.77039374
0.12500001 871590.34082116 18120.36403951
0.12600001 862485.06238451 21359.44357648
0.12700001 853399.97815257 22939.39249379
0.12800001 844335.46306742 16337.89198035
0.12900001 835294.60321426 17917.07008341
0.13000001 826277.89621709 19483.63371116
0.13100001 817285.72490535 16182.25811592
0.13200001 808321.30128557 16126.01072083
0.13300001 799385.54444456 22494.71028114
0.13400001 790477.49200482 20809.32095810
0.13500001 781600.36467594 17539.11301027
0.13600001 772753.51831712 17468.09410519
0.13700001 763940.02158896 23720.33878883
0.13800001 755158.56962461 17319.56261106
0.13900001 746414.20791429 21944.57874755
0.14000001 737703.71606600 20283.16462980
0.14100001 729030.51063656 17081.18566981
0.14200001 720393.65795774 23178.66703802
0.14300001 711798.57623233 16912.33496899
0.14400001 703238.75432487 16824.98799086
0.14500001 694723.24967952 16735.88387425
0.14600001 686246.77006162 18158.09039243
0.14700001 677815.79678555 19561.76481809
0.14800001 669425.81450063 20946.33472394
0.14900001 661079.61037826 16361.72112882
0.15000001 652779.18856891 14785.44931871
0.15100001 644524.81608905 17634.19980027
0.15200001 636317.90980790 16063.84639111
0.15300001 628158.49918436 15961.50821748
0.15400001 620045.21539574 24507.28829504
0.15500001 611982.85620917 15752.43946223
0.15600001 603968.34782096 14223.45526246
0.15700001 596007.98134906 18363.00677204
0.15800001 588093.98085922 26649.48000046
0.15900001 580234.90697436 15318.20226715
0.16000001 572425.98566850 19353.72348899
0.16100001 564673.36426946 17838.03241930
0.16200001 556971.92269264 14979.76056795
0.16300001 549326.06241263 16216.10612795
0.16400001 541734.57092166 16089.51751595
0.16500001 534198.92679040 23942.79702912
0.16600001 526718.85305705 15833.16947043
0.16700001 519294.88836374 19629.34770694
0.16800001 511926.64748215 18168.27757698
0.16900001 504618.12850907 15441.31546149
0.17000001 497366.46169378 15308.94041382
0.17100001 490173.01180176 17705.05002234
0.17200001 483038.27298681 18802.26566391
0.17300001 475962.77678794 12422.62906082
0.17400001 468947.45684206 19695.79411752
0.17500001 461991.29588159 15855.54202347
0.17600001 455093.22914163 22957.17902830
0.17700001 448258.35159449 14362.19826342
0.17800001 441483.09276891 14224.58592087
0.17900001 434768.73888738 12912.63215486
0.18000001 428116.45527818 16272.70723377
0.18100001 421526.56866964 11507.67586826
0.18200001 414995.66853647 12530.79480339
0.18300001 408529.36422294 14658.03428075
0.18400001 402123.70373227 13390.71996687
0.18500001 395781.25432897 12146.52726918
0.18600001 389500.96519544 16388.25388484
0.18700001 383283.04906625 14051.15724261
0.18800001 377127.44529695 10691.56357930
0.18900001 371036.70030583 12689.45575000
0.19000001 365005.07218139 12548.87497452
0.19100001 359041.09199487 11374.42233184
0.19200001 353136.60564450 10223.30521647
0.19300001 347297.80522194 14148.91325331
0.19400001 341520.93156138 11987.38526425
0.19500001 335808.02164467 11847.30756347
0.19600001 330156.95991086 11707.36635169
0.19700001 324569.84982817 13495.61499363
0.19800001 319045.93901378 13332.93042148
0.19900001 313585.85822693 9407.57619141
0.20000001 308186.85593916 11150.20097485
0.20100001 302852.71179272 10094.08136112
0.20200001 297580.17063333 10873.57994886
0.20300001 292371.08141972 8946.55551430
0.20400001 287224.74584981 14131.45816374
0.20500001 282140.07782742 10461.75458034
0.20600001 277118.45122262 12046.33964405
0.20700001 272158.89503257 11038.76530431
0.20800001 267261.28595136 8378.64171064
0.20900001 262427.80470204 9919.77148666
0.21000001 257653.63589317 11416.63314612
0.21100001 252941.24979295 8043.53212366
0.21200001 248290.16881854 7932.87126877
0.21300001 243700.13728480 7822.77477667
0.21400001 239171.96024010 8484.62569064
0.21500001 234704.83205742 7604.43691818
0.21600001 230296.58294913 9745.00036822
0.21700001 225949.33082302 8866.25216069
0.21800001 221662.00560910 8737.91667424
0.21900001 217433.11016115 10045.41016441
0.22000001 213263.42721539 9897.55612505
0.22100001 209155.00783202 8357.83450816
0.22200001 205104.15798374 10977.17505434
0.22300001 201111.58024006 7433.08435715
0.22400001 197175.48462860 9982.00938134
0.22500001 193300.29535933 7208.16835480
0.22600001 189480.54611345 6451.81290026
0.22700001 185718.96164717 7621.90654643
0.22800001 182013.22729354 10003.44744512
0.22900001 178363.63884602 6768.90041431
0.23000001 174770.18947840 6055.78735182
0.23100001 171233.94841693 8342.51836141
0.23200001 167750.92008166 6449.18442754
0.23300001 164323.96944527 7498.10308041
0.23400001 160951.37843568 6808.24362983
0.23500001 157631.74141247 7254.21308290
0.23600001 154366.59586221 6036.50601670
0.23700001 151154.61663485 7015.08608982
0.23800001 147995.43909191 5305.63674239
0.23900001 144888.80483719 5737.59694294
0.24000001 141833.82957858 6665.48113633
0.24100001 138831.73976238 5543.55163093
0.24200001 135879.94678995 5448.10672425
0.24300001 132979.15403047 5353.74099451
0.24400001 130127.96224654 5738.64340653
0.24500001 127327.08958202 5168.20681061
0.24600001 124575.81589483 5077.08761697
0.24700001 121874.03659479 4533.71437580
0.24800001 119219.84312661 4898.14748657
0.24900001 116613.60471895 4810.31142222
0.25000001 114055.53900731 4723.61037145
0.25100001 111543.88787121 5481.26690930
0.25200001 109080.16978449 4967.51116700
0.25300001 106662.82850901 6095.78093768
0.25400001 104290.24605741 4388.01231047
0.25500001 101963.30343015 5481.54745175
0.25600001 99681.43725001  5379.80742292
0.25700001 97443.75269519  3771.07340773
0.25800001 95249.91655645  5180.64320662
0.25900001 93099.88031909  4357.07460509
0.26000001 90993.22885077  4631.10060148
0.26100001 88927.14506421  4892.77175294
0.26200001 86905.53504478  4456.95057566
0.26300001 84923.97605607  4035.58753314
0.26400001 82983.40359262  3298.59044889
0.26500001 81084.36055886  4529.37259514
0.26600001 79224.46576787  5076.70400663
0.26700001 77405.46103267  4356.37955306
0.26800001 75625.30386160  3661.77738626
0.26900001 73883.20488513  3590.72392734
0.27000001 72180.06888952  2934.11993921
0.27100001 70514.59963865  3164.69538154
0.27200001 68886.77754548  3103.00504138
0.27300001 67295.23182719  4148.75123848
0.27400001 65739.00987512  2711.73428568
0.27500001 64220.96906787  3190.49789428
0.27600001 62736.27541374  2606.69236681
0.27700001 61288.28203882  3066.86577837
0.27800001 59873.50537542  2756.27695040
0.27900001 58493.63219473  2456.73266845
0.28000001 57146.78710211  4094.85322360
0.28100001 55832.98829890  2597.90906850
0.28200001 54552.37316072  2315.74835028
0.28300001 53303.78818713  2497.81563267
0.28400001 52087.20752826  2449.40104995
0.28500001 50902.05221901  3930.65665840
0.28600001 49746.98645942  2569.92944213
0.28700001 48622.84739586  2520.60852831
0.28800001 47528.03510556  2884.47658709
0.28900001 46464.13303577  2223.30887100
0.29000001 45428.02267825  2577.81326890
0.29100001 44421.66459523  2334.80280164
0.29200001 43442.95138884  2100.24958431
0.29300001 42492.00514399  3373.01552799
0.29400001 41568.13239066  2023.32893989
0.29500001 40672.44274450  2167.02785201
0.29600001 39802.07348870  2659.77368679
0.29700001 38957.49840057  2612.10039141
0.29800001 38139.16504344  1881.59579649
0.29900001 37346.12635946  1680.57576573
0.30000001 36577.65715798  1816.62942875
0.30100001 35834.44253184  1623.30032354
0.30200001 35113.95986108  1915.11546149
0.30300001 34417.65331419  2354.16759814
0.30400001 33745.25278509  1852.61446561
0.30500001 33094.37434207  1519.03185422
0.30600001 32466.29397560  2093.10207170
0.30700001 31860.65862465  2060.74749740
0.30800001 31276.39710309  1594.62718180
0.30900001 30713.27765710  1570.98422654
0.31000001 30171.79358134  1970.51993209
0.31100001 29649.12408157  1526.33697998
0.31200001 29147.83015255  1642.18882855
0.31300001 28665.45187488  1620.17141668
0.31400001 28203.96477058  1865.69235791
0.31500001 27760.43011938  1710.59778495
0.31600002 27335.55375587  1559.76677116
0.31700002 26928.65899815  1412.94680453
0.31800002 26539.99353082  1396.93262564
0.31900002 26169.18052870  1256.12072485
0.32000002 25815.22213112  1367.30330492
0.32100002 25478.56747883  1845.92230125
0.32200002 25158.52709374  1462.71683449
0.32300002 24853.96382926  1449.48323916
0.32400002 24565.64143526  1556.84759968
0.32500002 24292.26517048  1187.89182309
0.32600002 24034.83293521  1768.36291694
0.32700002 23791.78667032  1521.72274749
0.32800002 23564.26860948  1511.76572423
0.32900002 23349.60183344  1502.54694913
0.33000002 23150.54103967  1149.42441705
0.33100002 22962.67325919  1715.31177369
0.33200002 22790.49101128  1138.38507992
0.33300002 22630.18231575  1700.65828156
0.33400002 22483.22541225  1242.76034351
0.33500002 22348.02962327  1576.87704489
0.33600002 22225.11519205  1572.87147663
0.33700002 22113.22339309  1345.36857495
0.33800002 22014.26191878  1343.31032590
0.33900002 21925.26627454  1789.10181273
0.34000002 21848.03558432  1229.27978037
0.34100002 21781.22364962  1452.58987399
0.34200002 21725.79570619  1229.57146622
0.34300002 21679.07336814  1677.96035816
0.34400002 21643.09929960  1232.03348598
0.34500002 21616.27339325  1234.07310647
0.34600002 21600.13874029  1236.71600215
0.34700002 21590.89260201  1803.27143552
0.34800002 21592.19876430  1469.45715650
0.34900002 21601.61254514  1134.08471233
0.35000002 21619.53027418  1707.40248427
0.35100002 21645.55702318  1142.88546495
0.35200002 21678.81859867  1147.89349917
0.35300002 21720.06495268  1499.33615470
0.35400002 21769.19283604  1159.20957342
0.35500002 21825.09463007  1515.09814098
0.35600002 21887.60271663  1640.91365339
0.35700002 21957.01343471  1414.91001275
0.35800002 22033.47909748  1305.15319616
0.35900002 22115.73943562  1313.67498470
0.36000002 22204.83000160  1442.86992185
0.36100002 22298.82058977  1574.07381999
0.36200002 22399.80525596  1707.53723554
0.36300002 22504.42139143  1351.61561279
0.36400002 22615.20523923  1238.18254550
0.36500002 22730.54311332  1747.06962644
0.36600002 22851.26923137  1257.96243077
0.36700002 22976.23768170  1395.11721812
0.36800002 23107.05447970  1406.87307864
0.36900002 23241.14503603  1676.84869378
0.37000002 23378.49716901  1561.21611490
0.37100002 23520.31443831  1837.40705096
0.37200002 23666.36574253  1853.78651643
0.37300002 23815.21043860  1469.63670578
0.37400002 23968.59730858  1752.70376122
0.37500002 24124.03812438  1768.77455907
0.37600002 24283.68962644  1647.89125611
0.37700002 24444.91536187  1386.02676668
0.37800002 24609.93186544  1958.70456996
0.37900002 24777.22027500  1553.53178484
0.38000002 24947.09584581  1996.01723318
0.38100002 25118.69288908  1727.16140487
0.38200002 25292.75809014  2324.91043379
0.38300002 25468.49845924  2347.17692920
0.38400002 25646.74065186  1481.09934281
0.38500002 25825.56473845  1495.30026920
0.38600002 26007.18575961  1962.63236633
0.38700002 26189.01711267  1524.20086817
0.38800002 26372.27777071  2923.76271356
0.38900002 26556.85637817  2019.64902324
0.39000002 26743.06859698  2039.02536178
0.39100002 26929.23835731  2058.47107756
0.39200002 27116.76105939  2397.79971028
0.39300002 27304.48958701  2097.80403436
0.39400002 27493.60214689  1791.89560482
0.39500002 27682.14684669  1808.75156066
0.39600002 27871.08517080  2157.64016072
0.39700002 28059.74840713  2010.20047113
0.39800002 28249.70505135  2028.89391291
0.39900002 28438.56444095  1876.94534203
0.40000002 28627.23863781  2066.31418278
0.40100002 28815.62168342  2085.09848380
0.40200002 29004.71337349  2104.00200780
0.40300002 29192.23000643  2122.85906665
0.40400002 29379.22121357  2141.74532795
0.40500002 29565.75004878  2160.66511594
0.40600002 29751.57566061  1816.33378014
0.40700002 29936.61358156  2015.33292180
0.40800002 30120.72586271  2032.69728116
0.40900002 30303.17389728  2236.37433958
0.41000002 30485.30450749  2819.12866791
0.41100002 30665.91949354  2463.70008885
0.41200002 30844.67928041  2292.99356635
0.41300002 31022.55371393  2119.15074461
0.41400002 31198.90947699  2913.19831045
0.41500002 31374.19626594  2349.29992771
0.41600002 31546.65442720  1973.24332792
0.41700002 31718.30708342  2187.61174320
0.41800002 31889.10102349  2805.92213201
0.41900002 32056.10148725  2625.39483621
0.42000002 32222.07371528  2848.75367215
0.42100002 32386.70296415  4305.16462902
0.42200002 32549.07826890  2684.81084823
0.42300002 32708.96903434  2704.37768791
0.42400002 32866.85618550  2514.31461733
0.42500002 33022.95532701  2532.20033447
0.42600002 33175.50444289  2762.35850834
0.42700002 33327.08686716  2781.47880174
0.42800002 33475.82438929  3015.83716214
0.42900002 33622.77248641  2819.26960658
0.43000002 33767.26009918  2401.35881575
0.43100002 33907.93311143  3076.12783764
0.43200002 34047.00498649  2874.75900226
0.43300002 34183.21514942  2670.39289402
0.43400002 34317.14694248  2687.03273293
0.43500002 34448.01081758  2928.77001850
0.43600002 34577.16658839  2946.49339046
0.43700002 34702.61323065  2963.95033649
0.43800002 34824.57225394  2522.51801075
0.43900002 34944.92658397  2767.63831661
0.44000002 35061.68758522  2783.19689241
0.44100002 35176.28437080  2565.40654074
0.44200002 35287.74701141  2579.35799004
0.44300002 35396.55386663  3064.63377901
0.44400002 35501.71392488  3791.58322686
0.44500002 35603.34603699  3572.79594413
0.44600002 35702.79509667  3590.80878702
0.44700002 35799.36566362  3127.43273259
0.44800002 35891.83371171  2659.04662655
0.44900002 35982.61587822  3157.47469295
0.45000002 36069.96313874  2440.13312198
0.45100002 36153.04276067  2696.29405687
0.45200002 36233.91762465  4185.56119278
0.45300002 36311.14246913  3461.90448708
0.45400002 36385.68746400  2731.65561582
0.45500002 36457.02067046  3491.12446486
0.45600002 36524.79726402  2503.77497111
0.45700002 36589.51777732  3519.17998661
0.45800002 36650.31250503  2523.37413556
0.45900002 36708.35254796  2786.16409044
0.46000002 36763.84809816  3304.88628142
0.46100002 36814.82875785  3316.64807999
0.46200002 36863.42316274  3584.23080399
0.46300002 36908.38075311  2568.82342217
0.46400002 36949.64728102  3092.68562400
0.46500002 36988.55787072  2844.05034948
0.46600002 37023.37829294  3371.53410404
0.46700002 37054.98518934  3121.51210030
0.46800002 37084.01112105  3130.63236722
0.46900002 37108.99252042  4447.51296437
0.47000002 37130.43761325  3147.91865005
0.47100002 37149.13767991  3156.19088688
0.47200002 37164.27743084  3427.84729130
0.47300002 37176.84463746  3171.92853481
0.47400002 37184.62939112  2649.40496969
0.47500002 37190.41364992  3452.01435860
0.47600002 37193.10251683  3725.63325570
0.47700002 37191.47712627  2933.29193998
