# SAXS profile: number of points = 501, q_min = 0, q_max = 0.5, delta_q = 0.001
#    q    intensity    error
0.00000000 1646666.22097351 321.09991309
0.00100000 1646598.51512026 543.37752289
0.00200000 1646395.34061217 1111.31689010
0.00300000 1646056.87904559 987.63416261
0.00400000 1645582.97239400 1234.18727619
0.00500000 1644974.09010923 2368.76278352
0.00600000 1644229.98153991 1899.08570599
0.00700000 1643351.26272861 2366.42591668
0.00800000 1642337.40037299 2438.87114252
0.00900000 1641189.74798300 2461.78472721
0.01000000 1639907.45498362 3517.60164283
0.01100000 1638491.74978738 4423.92791704
0.01200000 1636942.08929884 3830.44465690
0.01300000 1635259.89273826 3777.45051883
0.01400000 1633444.39353959 4777.82506291
0.01500000 1631497.29160512 3915.59367421
0.01600000 1629417.54159408 4155.01491681
0.01700000 1627207.18292514 5272.15150918
0.01800000 1624865.80055632 5093.95451396
0.01900000 1622394.04651882 5840.61883101
0.02000000 1619792.63111998 5612.58172072
0.02100000 1617063.13948370 5869.93946246
0.02200000 1614203.73223862 7239.70406801
0.02300000 1611217.37914097 6960.45939472
0.02400000 1608103.91829792 7839.50695916
0.02500000 1604864.59122978 9388.45828747
0.02600000 1601499.60834248 6486.07371045
0.02700000 1598010.03689297 9396.29944729
0.02800000 1594395.72418907 6935.62171829
0.02900000 1590659.20086370 9305.35675230
0.03000000 1586800.89760578 8116.48696433
0.03100000 1582820.78658948 9117.04815026
0.03200000 1578720.04929228 13284.92982667
0.03300000 1574501.41225060 8832.95332993
0.03400000 1570162.85376510 11540.69750767
0.03500000 1565707.66058639 10145.78610911
0.03600000 1561135.71536088 8664.30362066
0.03700000 1556448.68268938 13307.63685244
0.03800000 1551647.91306883 10892.56885385
0.03900000 1546734.55267615 12992.57084417
0.04000000 1541707.58239652 11377.80248532
0.04100000 1536570.96778056 9680.39754586
0.04200000 1531324.94029814 12840.16022009
0.04300000 1525969.62401722 10071.39998601
0.04400000 1520508.65713296 17447.83765091
0.04500000 1514941.41133360 11498.40584629
0.04600000 1509268.56614697 15960.51582896
0.04700000 1503493.07405705 14072.69582767
0.04800000 1497615.12502229 12108.21884918
0.04900000 1491637.64917925 14543.46775646
0.05000000 1485559.80523582 11364.53303926
0.05100000 1479385.13286717 16154.88640347
0.05200000 1473111.76883213 17566.85866196
0.05300000 1466745.32157513 11880.63765861
0.05400000 1460283.71928537 19275.74599347
0.05500000 1453731.07192869 12211.34157385
0.05600000 1447086.08591625 14847.10393433
0.05700000 1440353.44816728 15037.29070078
0.05800000 1433531.79227971 16492.78404027
0.05900000 1426623.20601608 14123.57039921
0.06000000 1419630.37129082 15587.54220500
0.06100000 1412554.66553137 14450.43490367
0.06200000 1405396.74427293 18593.39979585
0.06300000 1398159.60146427 16106.79936195
0.06400000 1390841.31787059 13560.70348343
0.06500000 1383448.40426466 13696.13984290
0.06600000 1375978.12763889 15211.43891277
0.06700000 1368434.03576117 19541.23894518
0.06800000 1360818.61378726 16901.36797438
0.06900000 1353132.84355616 19891.05373155
0.07000000 1345376.29531848 17193.90985933
0.07100000 1337553.68677331 15890.13854313
0.07200000 1329663.70458086 16015.80007197
0.07300000 1321711.54283548 17605.19857547
0.07400000 1313695.93866744 16256.98800288
0.07500000 1305619.67231426 14884.06496204
0.07600000 1297482.68469089 14985.92571073
0.07700000 1289290.43715453 19610.10846861
0.07800000 1281041.28006971 22770.50982109
0.07900000 1272737.21509444 16800.13202724
0.08000000 1264381.99188523 16898.46611427
0.08100000 1255975.72317722 18538.20254388
0.08200000 1247519.67886941 18637.94487690
0.08300000 1239016.24602046 18733.92651905
0.08400000 1230466.76345951 20394.98756165
0.08500000 1221874.50978140 15762.18191614
0.08600000 1213238.94808074 17416.04591741
0.08700000 1204563.50650724 15900.23903253
0.08800000 1195846.83550111 19157.46720443
0.08900000 1187095.25417966 16025.78668415
0.09000000 1178307.00491286 17692.28050987
0.09100000 1169485.22659228 20980.56595076
0.09200000 1160630.29939402 21048.03146849
0.09300000 1151745.92632428 17863.58015674
0.09400000 1142830.53611423 17913.86949550
0.09500000 1133888.41389185 26124.79028400
0.09600000 1124920.49549331 19641.11277460
0.09700000 1115929.47997685 21325.41336492
0.09800000 1106916.38101357 18081.47993401
0.09900000 1097883.11154164 19761.89693700
0.10000000 1088829.28846821 18145.34094565
0.10100000 1079757.66641011 18172.32238036
0.10200000 1070670.57418302 19850.23337903
0.10300000 1061568.86497131 31464.90263788
0.10400000 1052455.05595088 18233.78470216
0.10500000 1043332.04517176 16588.98029873
0.10600001 1034195.76423630 18258.72707673
0.10700001 1025054.48052878 21587.64837580
0.10800001 1015904.65400113 19932.05024954
0.10900001 1006751.03892468 18272.53221649
0.11000001 997593.62012707 18270.92801263
0.11100001 988434.30431011 18266.26680351
0.11200001 979275.83862032 21578.34411985
0.11300001 970116.68380537 21565.69489632
0.11400001 960961.46130187 18234.24458675
0.11500001 951810.57720104 24842.25723472
0.11600001 942664.60568466 19852.51753060
0.11700001 933526.82728815 16523.42562117
0.11800001 924395.38420342 18150.50422369
0.11900001 915274.67038786 21417.42829587
0.12000001 906164.70755706 23025.64630365
0.12100001 897068.91143194 22982.90659357
0.12200001 887985.72954883 16383.33748202
0.12300001 878918.41654114 16347.88331789
0.12400001 869867.04373798 22834.01097400
0.12500001 860833.76957176 19523.71081385
0.12600001 851821.09240392 19472.63108997
0.12700001 842828.69509157 27509.92990423
0.12800001 833856.94645783 22589.18574415
0.12900001 824908.92126861 17694.29719518
0.13000001 815984.80027071 17637.51228919
0.13100001 807085.66304445 17578.32656971
0.13200001 798214.12572633 17516.80981481
0.13300001 789371.21725384 19039.63465775
0.13400001 780555.93195843 17386.88420409
0.13500001 771771.64948015 17318.55663087
0.13600001 763017.67307764 17248.01531318
0.13700001 754296.82174308 17175.33944096
0.13800001 745608.15295006 15545.93072209
0.13900001 736956.31540888 27856.95003614
0.14000001 728338.43843281 26187.40978887
0.14100001 719757.69012600 16863.92347500
0.14200001 711213.30490987 18306.63133182
0.14300001 702710.23274246 18214.25009181
0.14400001 694242.66848903 16609.75662708
0.14500001 685819.19123001 16521.38509608
0.14600001 677434.58716070 16431.17668671
0.14700001 669095.42918441 17824.70307438
0.14800001 660796.82346219 16245.69067127
0.14900001 652542.20567113 19086.86041641
0.15000001 644332.87712564 18972.38246214
0.15100001 636169.58958754 15955.13405970
0.15200001 628053.34131344 14413.82486329
0.15300001 619984.53960987 17185.97224897
0.15400001 611961.72214548 17073.73285359
0.15500001 603989.59317421 16960.02857673
0.15600001 596064.85865808 16844.79370067
0.15700001 588194.13480082 16728.24198326
0.15800001 580369.60350676 16610.17883634
0.15900001 572599.66536254 13742.39261735
0.16000001 564879.54116727 13641.84156312
0.16100001 557215.27787031 14894.36508055
0.16200001 549602.11812320 14781.54966470
0.16300001 542044.16524387 20001.43064172
0.16400001 534540.31645063 17198.83549375
0.16500001 527091.77305149 14437.04434547
0.16600001 519698.90776976 13018.45825427
0.16700001 512361.22442025 14202.65381150
0.16800001 505079.32326152 15364.51373907
0.16900001 497856.60424137 16503.94720989
0.17000001 490690.35666048 16362.07071546
0.17100001 483581.97592681 18714.62335210
0.17200001 476532.11770067 13602.60994212
0.17300001 469540.94994652 14706.02324681
0.17400001 462609.36574565 13357.84606674
0.17500001 455736.70417937 18047.17433783
0.17600001 448921.71677046 11918.87214317
0.17700001 442169.62696002 14167.11551692
0.17800001 435476.47752734 11692.54397387
0.17900001 428843.87095871 12736.66356907
0.18000001 422272.84150647 14904.12064497
0.18100001 415763.82358118 14755.45879589
0.18200001 409313.27591501 14606.34494100
0.18300001 402926.87504268 13344.93873182
0.18400001 396600.66608479 12106.23590415
0.18500001 390337.10456124 17424.64917079
0.18600001 384135.41504708 17239.99824179
0.18700001 377995.33431445 14923.25650378
0.18800001 371917.42200617 15815.78911805
0.18900001 365903.59883770 11471.07836554
0.19000001 359948.24381904 10312.51767267
0.19100001 354060.40913669 11216.63429144
0.19200001 348231.07458071 10081.29008547
0.19300001 342467.07874109 12955.53020096
0.19400001 336764.67331146 11820.44059179
0.19500001 331125.40845994 11682.10496251
0.19600001 325547.55646600 13467.90304744
0.19700001 320033.22970106 11405.98484556
0.19800001 314581.29033495 9390.25196027
0.19900001 309192.73909167 9275.78261112
0.20000001 303864.75289066 9161.52273264
0.20100001 298600.97553277 10857.13198350
0.20200001 293398.29200104 8933.97841368
0.20300001 288258.37255898 14113.13058754
0.20400001 283180.67105588 14803.27027913
0.20500001 278163.99380304 11173.84815922
0.20600001 273209.91960495 12724.75260707
0.20700001 268317.15050964 10045.79458994
0.20800001 263485.92012197 10738.36918218
0.20900001 258718.04050020 8964.58052710
0.21000001 254008.85018912 8039.38048853
0.21100001 249360.83517659 13480.44738691
0.21200001 244773.54177658 10948.72104126
0.21300001 240246.78931672 8483.11453182
0.21400001 235781.09296301 10645.51685056
0.21500001 231375.95901585 10495.21399715
0.21600001 227029.13670534 8867.75849897
0.21700001 222742.58587467 13110.62922445
0.21800001 218515.27916379 10049.51816389
0.21900001 214345.86890956 8488.09681015
0.22000001 210235.00244052 7666.21972647
0.22100001 206184.66671448 8925.73464411
0.22200001 202191.41047022 6763.30300003
0.22300001 198255.65232549 7993.66827975
0.22400001 194375.85789841 7872.22261713
0.22500001 190556.35926358 9043.80523831
0.22600001 186791.41783247 8268.32250135
0.22700001 183084.06819823 8139.91805702
0.22800001 179432.11802197 9861.58967284
0.22900001 175835.56261301 6672.95991673
0.23000001 172294.47138498 7761.00483057
0.23100001 168809.88350677 7049.50106863
0.23200001 165378.06412134 7513.95269872
0.23300001 162001.46082076 5686.25154374
0.23400001 158678.69557942 6152.76671209
0.23500001 155408.18108510 8252.17480592
0.23600001 152191.52548136 6492.49078411
0.23700001 149027.41442289 6384.33473584
0.23800001 145915.28570338 6277.27588787
0.23900001 142855.24545915 5657.06798776
0.24000001 139846.10308353 7077.61161183
0.24100001 136889.40384585 6459.81127304
0.24200001 133982.16848293 6348.74535387
0.24300001 131125.34427894 5759.02539315
0.24400001 128317.37974719 4715.66392878
0.24500001 125559.21990457 5096.44897701
0.24600001 122850.10718543 5917.07569249
0.24700001 120189.62152548 5812.37037193
0.24800001 117576.13353113 7026.35007221
0.24900001 115009.94623841 6038.02246316
0.25000001 112491.42525778 5082.36283358
0.25100001 110018.55818450 6653.92271379
0.25200001 107593.10054652 4899.79003070
0.25300001 105213.32583076 6012.94185570
0.25400001 102877.62113489 4722.08303350
0.25500001 100587.05632916 3862.54314578
0.25600001 98340.84782715  4170.14384941
0.25700001 96138.23299829  5208.76971029
0.25800001 93978.81970662  4381.29278202
0.25900001 91862.67714908  3940.90903616
0.26000001 89789.33738813  4218.30327009
0.26100001 87755.84599875  4828.32687531
0.26200001 85766.15364100  5413.55987397
0.26300001 83815.96059032  3319.11219643
0.26400001 81906.25652985  4558.08339157
0.26500001 80037.42857123  3832.19226133
0.26600001 78207.07748828  3758.63232194
0.26700001 76417.12466116  3993.55912377
0.26800001 74665.30791983  3615.29438056
0.26900001 72951.06165642  3249.96995059
0.27000001 71275.27085283  4925.47782537
0.27100001 69636.41049252  3693.51538731
0.27200001 68034.67590066  3343.22413197
0.27300001 66468.64696689  3005.04767158
0.27400001 64937.45512491  2946.53716574
0.27500001 63443.74077105  3151.88519067
0.27600001 61982.89141338  2832.92818612
0.27700001 60558.23124595  2777.80619872
0.27800001 59166.19822293  3961.76882051
0.27900001 57808.54241882  2913.55067580
0.28000001 56483.31997184  2856.92645939
0.28100001 55190.61205943  2801.47560073
0.28200001 53930.56835620  2518.28800858
0.28300001 52702.10663245  2469.62083368
0.28400001 51505.02644740  2862.39198029
0.28500001 50338.84727228  2375.49031521
0.28600001 49202.27233994  4024.50005653
0.28700001 48096.16159317  2493.30513500
0.28800001 47018.76354252  2242.08984565
0.28900001 45971.76004801  3399.61181647
0.29000001 44952.24114818  3531.89775419
0.29100001 43961.93019905  3273.40547757
0.29200001 42998.59375664  1889.78828506
0.29300001 42062.63813564  2596.94740142
0.29400001 41153.36837977  2913.65861921
0.29500001 40271.83625423  1788.06961433
0.29600001 39414.92747666  1931.52861243
0.29700001 38583.55639645  2069.62206308
0.29800001 37778.02974366  2541.51707132
0.29900001 36997.18540513  1831.36076425
0.30000001 36240.51222765  1963.51104545
0.30100001 35508.54985144  1608.53738442
0.30200001 34799.06355682  2056.10276759
0.30300001 34113.34484795  2488.90975793
0.30400001 33450.91543147  1530.37945344
0.30500001 32809.78588490  1505.96924341
0.30600001 32190.95723880  1630.63301613
0.30700001 31594.21292772  1897.54851828
0.30800001 31018.36992764  2587.86272558
0.30900001 30463.25770799  1841.50401563
0.31000001 29929.49650063  2233.93772457
0.31100001 29414.09681123  1927.21171432
0.31200001 28919.77072753  1357.78329994
0.31300001 28443.82867990  1741.61571253
0.31400001 27988.51419558  1586.94883003
0.31500001 27550.86897665  1567.09350159
0.31600002 27131.37740847  1290.09705686
0.31700002 26729.63459455  2167.50617190
0.31800002 26345.71199135  1512.77085417
0.31900002 25979.37272510  1621.11293480
0.32000002 25629.42810591  1851.08553260
0.32100002 25296.47996012  1832.73005989
0.32200002 24979.94788611  1452.33423887
0.32300002 24678.54111548  1319.31487050
0.32400002 24393.08231240  1308.07910094
0.32500002 24122.24041702  1179.57761225
0.32600002 23867.00792961  1638.94751213
0.32700002 23626.00003158  1743.59888489
0.32800002 23400.07072934  1385.75225421
0.32900002 23186.79801314  1377.29586720
0.33000002 22988.77853949  1369.67149024
0.33100002 22801.85450293  1816.85185283
0.33200002 22630.14673450  1469.48864779
0.33300002 22470.21228741  1125.75768891
0.33400002 22323.33409623  1121.74759146
0.33500002 22187.96568930  1118.27352370
0.33600002 22064.64887905  1449.97846975
0.33700002 21952.08862089  1224.26804036
0.33800002 21852.29531022  1222.30819606
0.33900002 21762.13113850  1220.85561469
0.34000002 21683.69899800  1330.94550753
0.34100002 21615.30031976  1219.75145481
0.34200002 21558.13723008  1552.83269822
0.34300002 21509.56483419  1331.87231761
0.34400002 21471.43747747  1444.49102471
0.34500002 21442.35363030  1224.14402673
0.34600002 21423.71029507  1449.63542577
0.34700002 21411.85213074  1117.69873416
0.34800002 21410.29328190  1232.91179703
0.34900002 21416.76145244  1236.81803246
0.35000002 21431.45549000  1579.71265899
0.35100002 21454.17227798  1472.61445491
0.35200002 21484.01037993  1251.33624385
0.35300002 21521.62986756  1142.79860009
0.35400002 21566.98035569  1263.28593417
0.35500002 21619.12536702  1385.35361913
0.35600002 21677.59589153  1160.83531497
0.35700002 21742.81884324  1167.58942718
0.35800002 21815.00368271  1409.68560475
0.35900002 21892.96542820  1418.66422694
0.36000002 21977.61744865  1190.08804121
0.36100002 22067.02472601  1318.06344932
0.36200002 22163.36901392  1568.83414996
0.36300002 22263.15632017  1458.68207119
0.36400002 22369.09110004  1592.12013446
0.36500002 22479.48412540  1604.36085802
0.36600002 22595.23603385  1368.25458284
0.36700002 22715.07120610  1379.25918897
0.36800002 22840.70480187  2149.19622014
0.36900002 22969.64503368  1402.29689573
0.37000002 23101.71027909  1285.61023793
0.37100002 23238.25880967  1426.36439330
0.37200002 23378.84038724  1438.85079979
0.37300002 23522.29744367  1847.44132874
0.37400002 23670.19580496  1597.73829252
0.37500002 23820.15886881  1477.80272623
0.37600002 23974.18002615  1898.03592258
0.37700002 24129.88937463  1504.98127159
0.37800002 24289.33763679  1380.84891007
0.37900002 24450.97557030  1951.18794294
0.38000002 24615.19694911  2250.81371565
0.38100002 24781.20868634  1987.94865499
0.38200002 24949.54932306  1863.35717947
0.38300002 25119.66046978  2025.64951625
0.38400002 25292.27386657  2044.88043899
0.38500002 25465.35450024  1474.44409541
0.38600002 25641.38734958  1786.17912739
0.38700002 25817.57925262  1803.09982043
0.38800002 25995.22252643  2275.23195942
0.38900002 26174.15396771  1990.54450355
0.39000002 26354.82225657  2318.56559787
0.39100002 26535.45616083  1716.31338580
0.39200002 26717.39317359  2047.48752286
0.39300002 26899.64758299  1748.74617222
0.39400002 27083.26862350  1765.15211616
0.39500002 27266.46262594  2105.51634373
0.39600002 27449.97478501  1961.57529107
0.39700002 27633.34215942  1814.68166559
0.39800002 27817.91039436  1997.88241918
0.39900002 28001.54743290  2520.13938836
0.40000002 28185.12903804  1864.86915116
0.40100002 28368.31964038  2736.97560858
0.40200002 28552.35670868  2243.78705826
0.40300002 28734.88169007  1741.33391292
0.40400002 28916.87145508  2108.04002895
0.40500002 29098.51651457  2480.93963558
0.40600002 29279.55116222  3038.77836135
0.40700002 29459.79881202  1983.23374999
0.40800002 29639.35641509  2727.56190333
0.40900002 29817.18308111  2017.13253101
0.41000002 29994.79578657  2588.85094700
0.41100002 30170.98335956  2051.02354596
0.41200002 30345.50118563  2443.87505378
0.41300002 30519.06586032  2463.80430365
0.41400002 30691.29847698  2865.80013108
0.41500002 30862.48526352  3081.31067471
0.41600002 31030.98710076  2329.18600215
0.41700002 31198.76387102  2347.39510488
0.41800002 31365.77193850  2957.00828962
0.41900002 31529.11122675  2383.60092169
0.42000002 31691.41494515  2801.83812806
0.42100002 31852.57931736  3024.40254949
0.42200002 32011.61796210  2437.36470713
0.42300002 32168.23216088  2250.48962862
0.42400002 32322.88006114  2678.75881200
0.42500002 32475.94118266  2282.73401390
0.42600002 32625.60148917  2925.53782416
0.42700002 32774.34388365  2945.75816785
0.42800002 32920.30310530  2965.79024730
0.42900002 33064.64615197  2345.93675565
0.43000002 33206.62612370  2576.17017675
0.43100002 33344.87210723  3241.12172241
0.43200002 33481.71414525  2392.10118046
0.43300002 33615.74361601  3282.57751966
0.43400002 33747.60442417  3303.04693954
0.43500002 33876.61287037  2658.63670406
0.43600002 34003.97057425  3566.33660283
0.43700002 34127.71186199  2690.62893071
0.43800002 34248.12669888  2931.81102499
0.43900002 34367.06559971  2948.69436819
0.44000002 34482.47676057  2737.21913497
0.44100002 34595.87773086  2981.81884293
0.44200002 34706.28235197  2536.85582874
0.44300002 34814.13578888  2318.62155342
0.44400002 34918.54518773  3030.05690226
0.44500002 35019.43018807  3045.63998779
0.44600002 35118.29646307  3296.55464522
0.44700002 35214.37433848  2839.68728123
0.44800002 35306.61832956  2853.48102863
0.44900002 35397.15062812  3583.96167095
0.45000002 35484.41584842  2400.52084591
0.45100002 35567.51656315  2652.62551099
0.45200002 35648.54520742  3149.01439014
0.45300002 35726.14553695  4136.01606483
0.45400002 35801.07164288  2932.10790651
0.45500002 35872.97755612  2453.71178113
0.45600002 35941.34452526  2956.53514077
0.45700002 36006.92277153  2968.41085397
0.45800002 36068.63558808  2731.65824573
0.45900002 36127.68145119  2742.09115210
0.46000002 36184.40558129  4253.65799971
0.46100002 36236.73647556  2762.32655245
0.46200002 36286.71384705  3024.13487534
0.46300002 36333.11215928  3540.29861659
0.46400002 36376.05469476  2790.95292873
0.46500002 36416.71268376  3054.63400469
0.46600002 36453.45613483  2808.92119560
0.46700002 36487.05136392  3329.80846529
0.46800002 36518.18782701  3082.86556247
0.46900002 36545.39887083  2834.09581676
0.47000002 36569.28392110  3358.70604092
0.47100002 36590.42671098  3108.72280071
0.47200002 36608.15621945  3376.55344894
0.47300002 36623.29263432  3124.69947566
0.47400002 36634.00428903  3915.25939396
0.47500002 36642.66960250  3401.17275371
0.47600002 36648.36896879  3671.06729360
0.47700002 36649.92164939  2890.57945750
