# SAXS profile: number of points = 501, q_min = 0, q_max = 0.5, delta_q = 0.001
#    q    intensity    error
0.00000000 1646666.22097351 271.69992646
0.00100000 1646598.50911960 740.96934670
0.00200000 1646395.31708108 814.96570776
0.00300000 1646056.82420351 1086.39754268
0.00400000 1645582.87772514 1604.44336675
0.00500000 1644973.94961156 1628.52427457
0.00600000 1644229.75852705 2589.66197511
0.00700000 1643350.97697234 2169.22337976
0.00800000 1642337.02522954 2660.58609320
0.00900000 1641189.26078047 2707.96239605
0.01000000 1639906.86236058 4058.76965960
0.01100000 1638491.02724816 4423.92596618
0.01200000 1636941.24508163 3830.44268143
0.01300000 1635258.91124224 4807.66141109
0.01400000 1633443.23076038 4777.82166178
0.01500000 1631495.95394129 4307.14951020
0.01600000 1629416.04977135 4570.51222393
0.01700000 1627205.48847510 5711.49152076
0.01800000 1624863.87750111 4630.86225926
0.01900000 1622391.93322314 5353.89362122
0.02000000 1619790.26375128 6122.80747395
0.02100000 1617060.57319105 5336.30013347
0.02200000 1614200.90886892 5568.99338861
0.02300000 1611214.27418343 8120.52031152
0.02400000 1608100.57388679 7839.49065516
0.02500000 1604860.95999026 7510.74963578
0.02600000 1601495.64202876 9080.48070563
0.02700000 1598005.81675026 10738.59958040
0.02800000 1594391.19185109 9709.84280366
0.02900000 1590654.33923117 8589.53382623
0.03000000 1586795.69706148 7378.60033050
0.03100000 1582815.24757211 8357.26489172
0.03200000 1578714.12540213 12503.41644907
0.03300000 1574495.15118552 9635.91076948
0.03400000 1570156.22286719 8243.32055040
0.03500000 1565700.68324298 10991.21930392
0.03600000 1561128.32154383 9530.68884347
0.03700000 1556440.87473551 9758.88473592
0.03800000 1551639.69696807 9077.09264735
0.03900000 1546725.91307399 12992.49827150
0.04000000 1541698.52377820 13274.02490484
0.04100000 1536561.41178978 12584.43854606
0.04200000 1531314.97841395 15803.17131039
0.04300000 1525959.18876138 12085.59733598
0.04400000 1520497.81734501 14368.70504122
0.04500000 1514930.08696847 12543.62170294
0.04600000 1509256.72655957 10640.26041688
0.04700000 1503480.79051893 11907.56841471
0.04800000 1497602.34033298 12108.11548496
0.04900000 1491624.33532368 11187.18303566
0.05000000 1485545.95524468 17046.64063023
0.05100000 1479370.75155186 18462.54783943
0.05200000 1473096.93075877 14053.34537434
0.05300000 1466729.91284885 14256.61541750
0.05400000 1460267.66378513 15661.37142445
0.05500000 1453714.59739361 17095.68446285
0.05600000 1447068.98476627 18558.66059565
0.05700000 1440335.81255571 18796.38323124
0.05800000 1433513.60360748 17761.23437801
0.05900000 1426604.50394418 15407.32936221
0.06000000 1419611.02140240 15587.32974322
0.06100000 1412534.74306406 14450.23109682
0.06200000 1405376.24890069 18593.12864206
0.06300000 1398138.48147856 17448.76906467
0.06400000 1390819.56482340 14916.54053033
0.06500000 1383426.15402100 16435.10347857
0.06600000 1375955.24386529 23508.19644135
0.06700000 1368410.47341877 18145.12372671
0.06800000 1360794.46269514 18309.49035261
0.06900000 1353108.02681654 19890.68892546
0.07000000 1345350.91628177 25790.37827285
0.07100000 1337527.61268264 17334.35867227
0.07200000 1329637.03055906 14559.52616669
0.07300000 1321684.26059103 22006.04396995
0.07400000 1313667.96713649 17734.51838746
0.07500000 1305591.05467426 14883.73872092
0.07600000 1297453.43678930 17982.70547694
0.07700000 1289260.60636671 16592.78478195
0.07800000 1281010.75947858 16697.97603288
0.07900000 1272706.11012070 27490.45326801
0.08000000 1264350.23399943 18434.22727648
0.08100000 1255943.25169788 20082.53353689
0.08200000 1247486.60048616 18637.45068583
0.08300000 1238982.48250610 20294.53401591
0.08400000 1230432.30429598 20394.41640099
0.08500000 1221839.42047357 20490.24804326
0.08600000 1213203.16765160 17415.53228932
0.08700000 1204527.06083252 20669.68533449
0.08800000 1195809.73592485 19156.87286919
0.08900000 1187057.52861884 16025.27738906
0.09000000 1178268.56708573 17691.70336587
0.09100000 1169446.11823489 20979.86434679
0.09200000 1160590.57637566 19428.28716140
0.09300000 1151705.66562052 22734.67090770
0.09400000 1142789.56957509 17913.22734497
0.09500000 1133846.73330664 16327.39372705
0.09600000 1124878.14383365 16366.97776216
0.09700000 1115886.53070215 21324.59260425
0.09800000 1106872.73049124 18080.76690269
0.09900000 1097838.80765712 26348.13262273
0.10000000 1088784.32876814 16495.08335655
0.10100000 1079712.19005965 16519.59728486
0.10200000 1070624.40273614 21503.49214040
0.10300000 1061521.98222371 26495.58992268
0.10400000 1052407.61006422 23205.58889363
0.10500000 1043283.94159244 21564.68008732
0.10600001 1034146.99268526 16598.06001360
0.10700001 1025005.06719534 18265.59115696
0.10800001 1015854.77066683 18270.14891027
0.10900001 1006700.50152417 21593.72677402
0.11000001 997542.41260974 28235.43931795
0.11100001 988382.57271619 24907.24200492
0.11200001 979223.49347496 21577.19069451
0.11300001 970063.79047175 23223.32823727
0.11400001 960907.84336413 24863.49161773
0.11500001 951756.43879812 24840.84422234
0.11600001 942609.92860046 21505.64653375
0.11700001 933471.46122811 16522.44564186
0.11800001 924339.59352459 18149.40877366
0.11900001 915218.31561126 21416.10959404
0.12000001 906107.81991622 23024.20078862
0.12100001 897011.50944777 21339.90481505
0.12200001 887927.73693363 19658.72102186
0.12300001 878859.84544884 17981.47328507
0.12400001 869808.03089810 21201.57175211
0.12500001 860774.33183917 17895.49920218
0.12600001 851761.01663356 21093.86257095
0.12700001 842768.11042919 19417.37817936
0.12800001 833795.81645350 27427.71467489
0.12900001 824847.29406446 19301.42759082
0.13000001 815922.81367417 20842.74925773
0.13100001 807023.15265957 19174.87101105
0.13200001 798151.14108288 17515.42761675
0.13300001 789307.84987068 19038.10623639
0.13400001 780492.12370509 22126.95275023
0.13500001 771707.45939326 20465.68278803
0.13600001 762953.03285031 18814.42267720
0.13700001 754231.80056466 18735.11880945
0.13800001 745542.69231111 24871.30538832
0.13900001 736890.43341747 18569.63979783
0.14000001 728272.17490206 20023.84439327
0.14100001 719691.12130975 21461.19024963
0.14200001 711146.33325221 21355.72539481
0.14300001 702643.06580258 19730.21821836
0.14400001 694175.09748930 25667.12544038
0.14500001 685751.25260772 21025.13439675
0.14600001 677366.26231889 20910.29750421
0.14700001 669026.88462680 14852.39753940
0.14800001 660727.98711448 17720.72545045
0.14900001 652473.00381112 14680.64327839
0.15000001 644263.43717320 17511.08104859
0.15100001 636099.84620178 20304.30804882
0.15200001 627983.39170208 18735.88537552
0.15300001 619914.36858755 21480.03388518
0.15400001 611891.27842437 17071.76747367
0.15500001 603918.99437103 16958.04616224
0.15600001 595994.02636574 16842.79197999
0.15700001 588123.02224065 22301.62605593
0.15800001 580298.34839350 19376.16276739
0.15900001 572528.23115300 21985.08511398
0.16000001 564807.97039877 19096.15838057
0.16100001 557143.59078986 14892.44888480
0.16200001 549530.34077062 20154.02619915
0.16300001 541972.17012627 14665.76761596
0.16400001 534468.29990606 18519.32746603
0.16500001 527019.66677646 15747.34838673
0.16600001 519626.72802709 14318.31516680
0.16700001 512288.95124291 16782.58683510
0.16800001 505006.98363604 15362.31316756
0.16900001 497784.26216585 12693.49928459
0.17000001 490617.84562838 13842.78316806
0.17100001 483509.51389618 18711.81907138
0.17200001 476459.78073940 14836.95827287
0.17300001 469468.51976718 14703.75473349
0.17400001 462537.02314599 16998.23640337
0.17500001 455664.41699412 12029.54117677
0.17600001 448849.50921781 11916.95503256
0.17700001 442097.40500658 15345.20165254
0.17800001 435404.31924839 15197.78848119
0.17900001 428771.75847832 15049.88943345
0.18000001 422200.89801768 13755.30590715
0.18100001 415692.05308072 12483.23294368
0.18200001 409241.60970741 15727.15580397
0.18300001 402855.33375253 16678.21160522
0.18400001 396529.28057301 11003.68805572
0.18500001 390265.86849806 13066.10189458
0.18600001 384064.36897177 11850.30666447
0.18700001 377924.57618974 12788.96826247
0.18800001 371846.77670703 12650.22794125
0.18900001 365833.21813391 10426.24720943
0.19000001 359878.09285557 14434.71098646
0.19100001 353990.47910113 13253.40416377
0.19200001 348161.42422099 12095.12844895
0.19300001 342397.76559860 12952.90808465
0.19400001 336695.56667846 9848.34579072
0.19500001 331056.69373351 12652.98743241
0.19600001 325479.11241644 11541.48987170
0.19700001 319965.14784215 12353.85494200
0.19800001 314513.50962742 9388.22870605
0.19900001 309125.29649650 11128.51119981
0.20000001 303797.69655860 10075.45108254
0.20100001 298534.22274221 9950.14611426
0.20200001 293331.97753542 8931.95913811
0.20300001 288192.52374449 10582.42997207
0.20400001 283115.16691731 13058.68769129
0.20500001 278098.92404954 9452.58287524
0.20600001 273145.33270516 10177.39557766
0.20700001 268253.03704704 10043.39418178
0.20800001 263422.24662361 8258.28782202
0.20900001 258654.94008738 10591.92029727
0.21000001 253946.21351133 9644.87764510
0.21100001 249298.70603001 11098.77891713
0.21200001 244711.95311879 11727.82090764
0.21300001 240185.62787652 10022.94672513
0.21400001 235720.44513004 10642.77860078
0.21500001 231315.81355381 8244.09598482
0.21600001 226969.57735488 11820.57614750
0.21700001 222683.74192605 8009.93457579
0.21800001 218456.94619702 8611.57322625
0.21900001 214288.07135679 8485.80802695
0.22000001 210177.79050397 9057.61231004
0.22100001 206128.17867412 7550.47554185
0.22200001 202135.51492047 8113.71995256
0.22300001 198200.39605183 6659.53362224
0.22400001 194321.25960999 11149.18279733
0.22500001 190502.38162430 7103.83414669
0.22600001 186738.11931665 7630.11991609
0.22700001 183031.59580804 10015.48939624
0.22800001 179380.26822243 9858.74000772
0.22900001 175784.43329608 6671.01955906
0.23000001 172243.94759737 8355.55429310
0.23100001 168760.13843229 7634.70902374
0.23200001 165328.91532594 8667.36879587
0.23300001 161953.08878382 6821.46442219
0.23400001 158631.11276593 8946.79518314
0.23500001 155361.26092554 7699.70445564
0.23600001 152145.38379959 5949.64551488
0.23700001 148982.08691598 5318.66075446
0.23800001 145870.79134670 7321.25536398
0.23900001 142811.52805962 8225.94440532
0.24000001 139803.22463070 6064.66417134
0.24100001 136847.22052514 4967.55434003
0.24200001 133940.75608953 5370.35486944
0.24300001 131084.83734830 6237.01685606
0.24400001 128277.76387945 7542.73287291
0.24500001 125520.37025267 5558.04225771
0.24600001 122812.02483881 5005.20430908
0.24700001 120152.42520414 4469.67042904
0.24800001 117539.71739490 4829.11951762
0.24900001 114974.48884514 5605.00659636
0.25000001 112456.88253176 4657.40201039
0.25100001 109984.89865783 4157.42936595
0.25200001 107560.22476964 4898.29286775
0.25300001 105181.37979392 4808.89291169
0.25400001 102846.53581378 4720.65621719
0.25500001 100556.77125846 7336.62237813
0.25600001 98311.55075844  4547.89255326
0.25700001 96109.87109107  4835.28784337
0.25800001 93951.28763470  4015.00846704
0.25900001 91836.04849162  4297.92727276
0.26000001 89763.58791866  3514.24463329
0.26100001 87730.97656579  3792.61029639
0.26200001 85742.27318909  4397.29268857
0.26300001 83792.97615595  4645.48281790
0.26400001 81884.25532173  3905.87916367
0.26500001 80016.38633283  3831.18475890
0.26600001 78186.86661381  4070.79940288
0.26700001 76397.85629459  3071.19396837
0.26800001 74647.03919627  5421.61471338
0.26900001 72933.73617913  3544.57974604
0.27000001 71258.91971979  3476.01026842
0.27100001 69620.94382234  3124.58810661
0.27200001 68020.16790489  3899.59641053
0.27300001 66455.11214562  3004.43576229
0.27400001 64924.89987230  3481.59792042
0.27500001 63432.07852585  2888.69699278
0.27600001 61972.16665459  3089.93237563
0.27700001 60548.43152850  2777.35668566
0.27800001 59157.41204240  2723.31159226
0.27900001 57800.71694281  2670.39324914
0.28000001 56476.34945202  2856.57389048
0.28100001 55184.78950831  3268.04338936
0.28200001 53925.59415783  2975.88405445
0.28300001 52698.00395600  2693.92208973
0.28400001 51501.91211569  2421.87753187
0.28500001 50336.64866804  2807.27502909
0.28600001 49201.06122122  2541.72694299
0.28700001 48095.89378633  2701.06552289
0.28800001 47019.38745519  2649.77770546
0.28900001 45973.36703525  2199.82571676
0.29000001 44954.72504900  1962.27384127
0.29100001 43965.41540405  3081.09645736
0.29200001 43003.04571036  2456.97913296
0.29300001 42067.97881346  2597.27713489
0.29400001 41159.61568473  2003.44438829
0.29500001 40278.98078158  2503.74156390
0.29600001 39423.02302367  2107.55491061
0.29700001 38592.56032648  1725.08752826
0.29800001 37787.90204000  2033.74498407
0.29900001 37007.98327101  2331.50305645
0.30000001 36252.25615783  2455.18416452
0.30100001 35521.24700894  2413.66884852
0.30200001 34812.57977365  1898.67819074
0.30300001 34127.68319653  2801.20036938
0.30400001 33466.22698833  1837.29594864
0.30500001 32825.93423106  1506.71045254
0.30600001 32207.95599181  2521.39995419
0.30700001 31612.09200431  1460.47871974
0.30800001 31037.08915515  1582.42606549
0.30900001 30482.85965008  1984.43425717
0.31000001 29949.94926609  1676.59823929
0.31100001 29435.36303893  1928.60507762
0.31200001 28941.87816324  1494.70336851
0.31300001 28466.80860257  1474.86542353
0.31400001 28012.21417838  1588.29261911
0.31500001 27575.52917815  1699.20418841
0.31600002 27156.77300953  1678.69600307
0.31700002 26755.85163635  1403.87960183
0.31800002 26372.77160756  1388.13089929
0.31900002 26007.11804785  1747.67841557
0.32000002 25657.95984373  1729.60315496
0.32100002 25325.80746889  1345.56021453
0.32200002 25010.00205505  2181.12238250
0.32300002 24709.36656406  1320.96279906
0.32400002 24424.58983137  1190.69881066
0.32500002 24154.51037702  1771.73342005
0.32600002 23900.06332575  1289.52797780
0.32700002 23659.67063781  1396.86702060
0.32800002 23434.52334469  1156.49378182
0.32900002 23221.88597276  1609.27677412
0.33000002 23024.55107347  2057.70422688
0.33100002 22838.27988940  1592.28494929
0.33200002 22667.33194943  1245.45661294
0.33300002 22507.91902839  1465.94083574
0.33400002 22361.74923361  1573.14913308
0.33500002 22227.05893486  1568.34135271
0.33600002 22104.32714465  1229.11116908
0.33700002 21992.36149836  1449.51661500
0.33800002 21893.20184234  1113.26936640
0.33900002 21803.61006562  1556.77783241
0.34000002 21725.76575953  1555.78215972
0.34100002 21657.99257154  1333.26608585
0.34200002 21601.30519926  1333.66464616
0.34300002 21553.29450586  1112.15004917
0.34400002 21515.69205304  1224.78082812
0.34500002 21487.10679171  1784.28943249
0.34600002 21468.99184062  1564.44550952
0.34700002 21457.59414540  1568.12105441
0.34800002 21456.53194744  1123.24950065
0.34900002 21463.46241233  1915.61411103
0.35000002 21478.59475716  1243.93287428
0.35100002 21501.83763402  1362.35649702
0.35200002 21532.09767450  1254.13708845
0.35300002 21570.13066948  1488.98619064
0.35400002 21615.91694226  1266.15239486
0.35500002 21668.42282582  1388.51260044
0.35600002 21727.19873333  1396.18985673
0.35700002 21792.91870255  1170.27978976
0.35800002 21865.42316206  1648.43433027
0.35900002 21943.68657120  1540.44687026
0.36000002 22028.64565691  1312.13634070
0.36100002 22118.40066886  1321.13213453
0.36200002 22215.03861397  1451.53069179
0.36300002 22315.15580173  1949.45210318
0.36400002 22421.35487018  1595.84000848
0.36500002 22532.02302515  1237.00812268
0.36600002 22647.97901744  1620.80269516
0.36700002 22768.07272405  1508.15720868
0.36800002 22893.97520686  1267.18158772
0.36900002 23023.18016819  1533.34387183
0.37000002 23155.33485044  1546.31333456
0.37100002 23292.09758484  1299.69910680
0.37200002 23432.81640933  1704.38598227
0.37300002 23576.41725156  1983.95560570
0.37400002 23724.46060369  1868.30136104
0.37500002 23874.62000576  1615.83435853
0.37600002 24028.76839382  1902.35768386
0.37700002 24184.60693580  1508.39400604
0.37800002 24344.10349121  1660.75481884
0.37900002 24505.80933384  1536.51431802
0.38000002 24670.11829729  1550.88706023
0.38100002 24836.18202171  1565.42462699
0.38200002 25004.59920161  1580.16572140
0.38300002 25174.68020078  2030.08630756
0.38400002 25347.25127978  1902.94497998
0.38500002 25520.36408190  1773.15498041
0.38600002 25696.30233560  2088.33858975
0.38700002 25872.55096525  2108.09555252
0.38800002 26050.13068813  1672.02771743
0.38900002 26229.00687657  1994.71606746
0.39000002 26409.54218755  1858.70366722
0.39100002 26590.12015750  1563.49913933
0.39200002 26771.91530206  1893.84537819
0.39300002 26954.07686835  2070.88182391
0.39400002 27137.58585003  1929.48244535
0.39500002 27320.62058871  1947.41392783
0.39600002 27504.00507781  1801.64993798
0.39700002 27687.15497976  1818.21555366
0.39800002 27871.56855919  1834.92480303
0.39900002 28055.04184244  1851.63284933
0.40000002 28238.43955092  1868.39644141
0.40100002 28421.32723466  3256.23161555
0.40200002 28605.19318295  1902.10241082
0.40300002 28787.41078679  2267.87232923
0.40400002 28969.19700045  2287.84244151
0.40500002 29150.50565646  2485.37223003
0.40600002 29331.31768232  2148.81243522
0.40700002 29511.25593737  2347.91563362
0.40800002 29690.51572555  2003.66454868
0.40900002 29867.95050163  2204.25485146
0.41000002 30045.28022132  2037.52077475
0.41100002 30221.09317339  2801.49546991
0.41200002 30395.20229245  2071.28115836
0.41300002 30568.42912244  2088.12949229
0.41400002 30740.30133543  3253.09254296
0.41500002 30911.11788893  2893.28077150
0.41600002 31079.19171025  2138.40388695
0.41700002 31246.56272906  2155.07553354
0.41800002 31413.10218608  1974.31356595
0.41900002 31575.98634188  1989.28723380
0.42000002 31737.84424408  2004.24495898
0.42100002 31898.59566413  2826.85368171
0.42200002 32057.11422660  2644.23119228
0.42300002 32213.19606958  3687.76686079
0.42400002 32367.40146523  2269.76413530
0.42500002 32519.92040218  2078.02301217
0.42600002 32669.05496048  2720.18899018
0.42700002 32817.28117223  2317.55650620
0.42800002 32962.70592945  3181.72534061
0.42900002 33106.51194824  2348.90713404
0.43000002 33247.87322651  2364.42261655
0.43100002 33385.56512625  3028.73861178
0.43200002 33521.83782082  2177.24346964
0.43300002 33655.29434754  2848.24769561
0.43400002 33786.54733484  3086.40124530
0.43500002 33914.96348130  2439.84258846
0.43600002 34041.65579263  4016.57515731
0.43700002 34164.72109872  2693.54673907
0.43800002 34284.55491535  2257.63804816
0.43900002 34402.88328646  2270.59040451
0.44000002 34517.59428547  3196.67455827
0.44100002 34630.34847810  3673.58754065
0.44200002 34740.10059366  2308.47979385
0.44300002 34847.24608547  3017.07470906
0.44400002 34951.01029886  2566.27805281
0.44500002 35051.17036058  3986.36979403
0.44600002 35149.30339115  2592.43699447
0.44700002 35244.66574689  2605.28581548
0.44800002 35336.18018666  3807.82695737
0.44900002 35426.04376479  2869.50968094
0.45000002 35512.59344848  2402.42706065
0.45100002 35594.93390611  3378.67128649
0.45200002 35675.24238626  2666.54611854
0.45300002 35752.03668501  2921.65657636
0.45400002 35826.27635891  2934.17217285
0.45500002 35897.37469417  3191.99470908
0.45600002 35965.02192832  2465.40237003
0.45700002 36029.79099930  3217.82078665
0.45800002 36090.70792429  2484.84535835
0.45900002 36148.93857919  3491.98763225
0.46000002 36204.87654914  3504.99426484
0.46100002 36256.43105657  2763.82787043
0.46200002 36305.61476976  3782.13759789
0.46300002 36351.26199360  2530.04795467
0.46400002 36393.35817450  3553.81159417
0.46500002 36433.17092580  3056.01452210
0.46600002 36469.10862400  4342.92400633
0.46700002 36501.89475931  3074.91976026
0.46800002 36532.25541485  4369.07529342
0.46900002 36558.60203099  3092.85787841
0.47000002 36581.65547486  4135.19053087
0.47100002 36601.98377033  3627.98880327
0.47200002 36618.86124553  3637.35165992
0.47300002 36633.15432784  2865.07913578
0.47400002 36643.01730816  2610.81510695
0.47500002 36650.79987717  3401.92740584
0.47600002 36655.69563124  2884.98666140
0.47700002 36656.45737889  3416.74855423
