# SAXS profile: number of points = 501, q_min = 0, q_max = 0.5, delta_q = 0.001
#    q    intensity    error
0.00000000 1646666.22097351 296.39991978
0.00100000 1646598.53592925 493.97957251
0.00200000 1646395.42491631 740.87796467
0.00300000 1646057.06745743 1283.92455835
0.00400000 1645583.30367016 1357.60627711
0.00500000 1644974.61160076 1776.57265085
0.00600000 1644230.72721125 2417.01926740
0.00700000 1643352.29806760 1972.02283964
0.00800000 1642338.75674869 2882.30463978
0.00900000 1641191.43519909 2707.96598384
0.01000000 1639909.54976642 3517.60613614
0.01100000 1638494.27765535 3539.14779383
0.01200000 1636945.11184313 3192.04310805
0.01300000 1635263.46539318 4120.86411454
0.01400000 1633448.49162100 4042.78519598
0.01500000 1631501.98744984 4307.16543866
0.01600000 1629422.89391629 4570.53142175
0.01700000 1627213.23020563 7029.56146983
0.01800000 1624872.56710783 6483.24183449
0.01900000 1622401.59194165 5353.92549499
0.02000000 1619800.95867329 6633.08522582
0.02100000 1617072.35431575 6403.60681342
0.02200000 1614213.79019257 7239.74917793
0.02300000 1611228.36265585 11600.84473917
0.02400000 1608115.91936451 8442.60896163
0.02500000 1604877.57110901 6884.92509450
0.02600000 1601513.56420180 8431.96930119
0.02700000 1598025.17253255 8054.04723845
0.02800000 1594411.93504527 7629.26145907
0.02900000 1590676.56959722 8589.65387021
0.03000000 1586819.49203266 7378.71097712
0.03100000 1582840.61801711 7597.63531607
0.03200000 1578741.13378537 10159.19966382
0.03300000 1574523.88411696 10439.09383294
0.03400000 1570186.56204902 9067.82781423
0.03500000 1565732.85796459 10145.94938813
0.03600000 1561162.30319578 8664.45118315
0.03700000 1556476.71906482 12420.68479256
0.03800000 1551677.51803376 9077.31390059
0.03900000 1546765.68258154 12992.83233538
0.04000000 1541740.27667799 14222.55471141
0.04100000 1536605.19306630 10648.67448169
0.04200000 1531360.85573519 11852.73357327
0.04300000 1526007.24928861 12085.97797537
0.04400000 1520548.01452013 12316.43948961
0.04500000 1514982.49920743 10453.37973025
0.04600000 1509311.37005892 10640.64565357
0.04700000 1503537.81652776 14073.11461721
0.04800000 1497661.65974003 12108.59508239
0.04900000 1491686.08945310 13425.17542999
0.05000000 1485610.14018624 13637.90172197
0.05100000 1479437.39100483 15001.49584362
0.05200000 1473166.04222895 12882.83763965
0.05300000 1466801.51802489 20197.85784478
0.05400000 1460341.95013788 13252.60381552
0.05500000 1453791.42957549 14654.21829373
0.05600000 1447148.44772967 17322.36772766
0.05700000 1440418.00990146 18797.45590665
0.05800000 1433598.54117755 16493.55198637
0.05900000 1426692.12444204 14124.25269166
0.06000000 1419701.52694018 14289.29653623
0.06100000 1412628.06531794 15764.92994566
0.06200000 1405472.37315683 14609.88600188
0.06300000 1398237.49409707 20134.62085640
0.06400000 1390921.40758993 18986.07810152
0.06500000 1383530.98425006 21915.13181566
0.06600000 1376063.11119928 15212.37840607
0.06700000 1368521.33753941 15354.81012578
0.06800000 1360908.34787619 16902.48247181
0.06900000 1353224.94030064 15629.74879224
0.07000000 1345470.96895650 18628.04643753
0.07100000 1337650.67987268 14446.62801927
0.07200000 1329763.31227273 14560.90895152
0.07300000 1321813.68629061 23475.41216848
0.07400000 1313800.59999385 17736.30893111
0.07500000 1305726.92177109 19350.87388767
0.07600000 1297592.54028203 22480.79181430
0.07700000 1289402.89132629 21120.42035023
0.07800000 1281156.32812522 16699.87352027
0.07900000 1272855.02858803 19856.53937732
0.08000000 1264502.42062034 15363.70513126
0.08100000 1256098.82370345 21630.02275902
0.08200000 1247645.52911946 23299.78134965
0.08300000 1239144.74878739 21858.51439447
0.08400000 1230597.94556581 18828.14945092
0.08500000 1222008.47935345 20493.08316081
0.08600000 1213375.69056086 15834.55350528
0.08700000 1204702.89320755 19082.49472448
0.08800000 1195989.01269022 17563.09947619
0.08900000 1187240.26553804 17630.51877134
0.09000000 1178454.82961148 20911.68193379
0.09100000 1169635.82949455 19369.17024642
0.09200000 1160783.76818470 21050.81462514
0.09300000 1151902.30011518 19490.18783383
0.09400000 1142989.70000260 17916.36438956
0.09500000 1134050.36345402 21229.42380170
0.09600000 1125085.20526989 22917.98670867
0.09700000 1116097.07074223 18047.29048236
0.09800000 1107086.86888099 21372.31300862
0.09900000 1098056.48383984 19765.01763852
0.10000000 1089005.43141925 21447.96298044
0.10100000 1079936.74575512 18175.33628588
0.10200000 1070852.63507150 23162.54358608
0.10300000 1061753.67321377 24845.03712193
0.10400000 1052642.80535248 26526.59994283
0.10500000 1043522.61014442 19910.41233833
0.10600001 1034389.23803635 19922.33766200
0.10700001 1025250.71106157 26574.49968125
0.10800001 1016103.96589907 18274.63068673
0.10900001 1006953.12422214 23260.61826431
0.11000001 997798.53229425 23258.68488255
0.11100001 988642.10421499 18270.10694593
0.11200001 979486.56410602 16602.29804319
0.11300001 970330.19398356 19911.17651798
0.11400001 961177.75316337 18238.34872502
0.11500001 952029.73722875 18221.85002859
0.11600001 942886.63373878 16547.66120137
0.11700001 933751.56983215 19832.88427726
0.11800001 924623.19990230 18154.97738515
0.11900001 915505.08479614 18127.00153277
0.12000001 906398.00871262 19741.34955968
0.12100001 897304.95172842 24631.02208527
0.12200001 888224.44215327 27859.16094062
0.12300001 879159.97010519 21258.08907871
0.12400001 870111.49284197 21208.96863734
0.12500001 861080.90722142 19529.31589601
0.12600001 852070.93210798 16231.95202156
0.12700001 843081.21217195 17805.87604020
0.12800001 834112.14920425 19368.08501733
0.12900001 825166.66006171 25745.20100735
0.13000001 816245.37459751 16039.22236685
0.13100001 807348.69300135 19182.60584993
0.13200001 798479.65082286 17522.63676333
0.13300001 789639.47870038 22220.45597817
0.13400001 780826.79758325 18974.09207582
0.13500001 772045.06721603 22049.60815929
0.13600001 763293.56432368 18822.82018373
0.13700001 754575.33362572 21867.59419960
0.13800001 745889.10575697 18662.14630607
0.13900001 737239.71321432 15482.03470761
0.14000001 728624.15880976 18492.48202271
0.14100001 720045.93117559 24539.16649180
0.14200001 711503.83580311 21366.46119692
0.14300001 703003.28299075 15184.87162883
0.14400001 694537.94363752 18127.44118401
0.14500001 686116.58590475 19533.74012216
0.14600001 677734.26603725 25404.87016086
0.14700001 669397.47817150 14860.62471648
0.14800001 661101.05977451 17730.73125966
0.14900001 652848.44311627 17626.90879579
0.15000001 644641.31511468 18981.46441915
0.15100001 636480.12312492 18865.27173958
0.15200001 628365.91292656 23073.59741144
0.15300001 620299.17113650 18627.58498825
0.15400001 612278.20351812 15659.01579394
0.15500001 604308.13106943 16968.97312125
0.15600001 596385.30925374 16853.84963493
0.15700001 588516.36067994 19526.97376897
0.15800001 580693.76174685 22159.27499415
0.15900001 572925.62092427 13750.21555120
0.16000001 565207.19764915 17744.68080779
0.16100001 557544.73322946 14903.17142272
0.16200001 549933.24134306 17479.62890123
0.16300001 542376.86176979 17345.21285823
0.16400001 534874.64167477 18533.40720899
0.16500001 527427.70362815 14446.24548440
0.16600001 520036.30522580 16934.98307923
0.16700001 512700.12664047 15504.05256163
0.16800001 505419.67222086 15374.86715490
0.16900001 498198.20086212 15244.86566621
0.17000001 491033.21579790 13854.50283794
0.17100001 483926.28683865 19976.47806401
0.17200001 476877.63663519 14849.97030608
0.17300001 469887.54048257 15943.28500149
0.17400001 462957.27975801 13367.89208433
0.17500001 456085.63776809 14448.79368687
0.17600001 449271.78190437 17892.24955938
0.17700001 442520.57170988 18904.47971632
0.17800001 435828.32427634 15212.58837739
0.17900001 429196.64928892 13905.97209379
0.18000001 422626.52313960 17211.46596784
0.18100001 416118.34720715 13632.03769844
0.18200001 409668.49316242 14619.02086907
0.18300001 403282.82414087 12243.66711930
0.18400001 396957.19222423 14320.23138599
0.18500001 390694.23746534 15260.51763633
0.18600001 384493.09636338 11863.53504877
0.18700001 378353.51139679 12803.48343057
0.18800001 372275.96505141 11609.42651863
0.18900001 366262.58785030 16701.57479508
0.19000001 360307.48018035 12387.37175389
0.19100001 354419.92346433 12248.75313368
0.19200001 348590.71042475 12110.04185237
0.19300001 342826.94817836 10973.89112973
0.19400001 337124.61593045 10846.98503012
0.19500001 331485.53256595 12669.37765336
0.19600001 325907.48003819 11556.67978828
0.19700001 320393.11221044 11418.81105881
0.19800001 314941.04652224 14101.48602445
0.19900001 309552.38136465 13001.20063175
0.20000001 304224.18121285 11924.06734618
0.20100001 298960.02710843 10870.18709941
0.20200001 293756.93030739 11628.36863582
0.20300001 288616.65126639 12364.33792465
0.20400001 283538.38437032 12206.32802408
0.20500001 278521.22015117 10327.56733136
0.20600001 273566.61816266 11042.51706409
0.20700001 268673.19664118 10059.12495773
0.20800001 263841.19192591 8271.42175787
0.20900001 259072.64533499 11425.10419935
0.21000001 254362.64383643 12075.86708699
0.21100001 249713.77784717 7940.89851093
0.21200001 245125.53288010 9398.11337491
0.21300001 240597.63168242 11584.77651318
0.21400001 236130.91713450 10661.31141265
0.21500001 231724.54178210 8258.66305956
0.21600001 227376.57551218 8141.21867112
0.21700001 223088.94930522 10942.51348078
0.21800001 218860.34194972 9346.43134487
0.21900001 214689.49203836 7084.75357224
0.22000001 210577.21659062 6980.63506004
0.22100001 206525.47441368 8940.48821011
0.22200001 202530.64535999 6774.65040763
0.22300001 198593.23712690 8007.27969958
0.22400001 194711.83610292 7885.82973506
0.22500001 190890.62867716 10353.90818906
0.22600001 187123.93400076 7008.72727943
0.22700001 183414.92863427 8781.90719830
0.22800001 179761.03456465 8027.22937809
0.22900001 176162.55103606 6685.36912798
0.23000001 172619.38325376 6579.38810387
0.23100001 169132.85627725 6474.40604449
0.23200001 165698.73621158 7528.52243582
0.23300001 162320.03722294 5697.43357598
0.23400001 158995.13801726 9527.78409630
0.23500001 155722.29665629 8820.11129977
0.23600001 152503.33829263 6505.79271927
0.23700001 149336.82128564 6930.72220368
0.23800001 146222.34609555 5766.27849102
0.23900001 143159.78147326 6184.50285217
0.24000001 140148.15206503 5572.99153047
0.24100001 137188.71775782 5975.94082820
0.24200001 134278.86820386 4894.46497755
0.24300001 131419.37757247 4809.94944668
0.24400001 128608.77973636 7089.55931833
0.24500001 125847.73405535 5108.15976694
0.24600001 123135.68626456 5018.39513111
0.24700001 120472.28813704 4929.72626377
0.24800001 117855.82169336 5282.29817818
0.24900001 115286.71018368 5187.90220369
0.25000001 112765.20789681 4245.61027817
0.25100001 110289.27574773 5836.50874869
0.25200001 107860.57542789 4502.63993426
0.25300001 105477.61374448 4420.56700117
0.25400001 103138.67167820 4339.55981617
0.25500001 100844.75686614 5034.17050093
0.25600001 98595.29421624  4941.10340342
0.25700001 96389.27397675  4476.31809527
0.25800001 94226.44703265  4026.76740446
0.25900001 92106.77449992  4310.59725055
0.26000001 90029.91249181  5287.00686124
0.26100001 87992.84292470  6224.61400302
0.26200001 85999.63776345  3731.95445733
0.26300001 84045.76819035  6656.42515564
0.26400001 82132.47053772  3917.71903003
0.26500001 80259.97114043  3842.84760004
0.26600001 78425.71534008  3455.04505280
0.26700001 76632.05311601  3388.66954914
0.26800001 74876.43468352  5136.14928016
0.26900001 73158.30575896  3259.20267579
0.27000001 71478.66696795  3196.16874472
0.27100001 69835.80913141  3704.09149162
0.27200001 68230.16710606  4191.03821282
0.27300001 66660.16699734  3561.65289122
0.27400001 65124.94235971  4298.24639915
0.27500001 63627.14913227  2897.58050861
0.27600001 62162.19074105  3357.69089178
0.27700001 60733.40433902  2532.58308080
0.27800001 59337.28842642  3973.22502107
0.27900001 57975.43081783  3895.94913534
0.28000001 56645.93490293  3342.67677683
0.28100001 55349.20347271  2341.27141771
0.28200001 54084.82113119  2984.67099539
0.28300001 52851.96026174  3377.24042057
0.28400001 51650.64871195  2428.87187064
0.28500001 50480.12374133  2382.15715210
0.28600001 49339.24350796  2336.45998691
0.28700001 48228.77110664  2708.52791355
0.28800001 47146.97991394  2248.20384361
0.28900001 46095.57781053  2406.18927560
0.29000001 45071.57913004  3147.79923544
0.29100001 44076.88195446  1930.56752099
0.29200001 43109.11906205  2273.57504695
0.29300001 42168.66741072  2045.60215292
0.29400001 41254.91368091  2738.29502519
0.29500001 40368.86237670  2330.09084668
0.29600001 39507.43233871  1936.06181341
0.29700001 38671.55877577  2074.34251093
0.29800001 37861.43671522  2547.12827559
0.29900001 37076.08831783  2335.79367460
0.30000001 36314.91758391  2295.46604915
0.30100001 35578.48772151  1934.04668410
0.30200001 34864.36461219  2535.33671462
0.30300001 34174.02425990  1870.00269603
0.30400001 33507.13393386  2452.72232007
0.30500001 32861.35667255  2111.67087975
0.30600001 32237.93800512  1929.92425004
0.30700001 31636.66856458  1900.09840395
0.30800001 31056.22261627  2159.18397962
0.30900001 30496.54858929  1559.89853419
0.31000001 29958.26009162  1397.55289944
0.31100001 29438.24937014  1515.48114933
0.31200001 28939.38812977  2173.92693923
0.31300001 28458.91311901  1742.53933278
0.31400001 27998.94879990  1455.24543278
0.31500001 27556.92253914  1436.81800922
0.31600002 27132.82499376  1419.18247849
0.31700002 26726.56443040  1402.34290206
0.31800002 26338.18398915  1512.33859626
0.31900002 25967.22402099  1744.99753683
0.32000002 25612.82190545  1726.56040640
0.32100002 25275.42244423  1709.12414661
0.32200002 24954.41601001  1813.56226940
0.32300002 24648.54085464  1677.08679916
0.32400002 24358.60495447  1543.72666209
0.32500002 24083.39499573  1177.67807106
0.32600002 23823.83898921  1168.55935775
0.32700002 23578.32018232  1508.06943027
0.32800002 23348.08420012  1152.22800984
0.32900002 23130.45803472  1259.45349963
0.33000002 22928.11087394  1479.89498644
0.33100002 22736.86519617  1358.75512847
0.33200002 22561.02075911  1690.38456042
0.33300002 22396.67969730  1122.07370597
0.33400002 22245.67620577  1676.76792341
0.33500002 22106.15828693  1225.56547347
0.33600002 21978.63224668  1222.12190395
0.33700002 21861.92422687  1551.75945511
0.33800002 21758.02324793  1438.31419492
0.33900002 21663.80291647  1436.31020138
0.34000002 21581.27522013  1435.04696372
0.34100002 21508.95388179  1544.77314095
0.34200002 21447.74313298  1655.22965468
0.34300002 21395.22457804  1103.99364051
0.34400002 21353.18041140  1436.53528021
0.34500002 21320.19824092  1549.12567755
0.34600002 21297.71994577  1551.96492595
0.34700002 21282.01004804  1333.10517255
0.34800002 21276.68977737  1336.60171512
0.34900002 21279.42510944  1564.03781962
0.35000002 21290.37355756  1345.12586507
0.35100002 21309.54859041  1462.68748452
0.35200002 21335.74591659  1355.67335975
0.35300002 21369.79510958  1248.20979147
0.35400002 21411.64746165  1140.17028134
0.35500002 21460.26807504  1375.17404338
0.35600002 21515.19355323  1497.78027015
0.35700002 21577.15080701  1622.17027450
0.35800002 21645.92618019  1398.75981602
0.35900002 21720.54185020  1172.90931547
0.36000002 21801.91135538  1298.63091139
0.36100002 21888.11906101  1426.22990557
0.36200002 21981.26508832  1196.87994075
0.36300002 22077.99879779  1326.00467060
0.36400002 22180.82934110  1578.72060313
0.36500002 22288.19622425  1590.70863987
0.36600002 22400.93406448  1603.12292226
0.36700002 22517.84079397  1615.88033192
0.36800002 22640.65781627  1378.47651644
0.36900002 22766.81215438  1768.98138819
0.37000002 22896.01441614  1528.99591514
0.37100002 23029.85990477  1542.07949227
0.37200002 23167.74047463  1425.85865505
0.37300002 23308.58799912  1569.13421843
0.37400002 23453.90192155  1451.21025014
0.37500002 23601.42668283  1730.45668636
0.37600002 23753.02561117  2149.17385911
0.37700002 23906.33774671  1491.03835590
0.37800002 24063.41004574  1504.80541850
0.37900002 24222.75675460  2485.25496075
0.38000002 24384.77280674  1672.30779831
0.38100002 24548.58856904  2109.95128746
0.38200002 24714.88441224  2413.77930047
0.38300002 24882.87184417  1576.57883474
0.38400002 25053.41467787  1591.51824281
0.38500002 25224.60229095  2482.85772112
0.38600002 25398.67420850  2064.15035071
0.38700002 25573.15366852  1488.35761402
0.38800002 25748.97834786  2253.67943667
0.38900002 25926.23134842  1668.35306631
0.39000002 26105.18952845  2449.71110141
0.39100002 26284.23491417  2627.37224650
0.39200002 26464.58994974  1716.09641659
0.39300002 26645.42908354  2204.64290682
0.39400002 26827.63064826  1748.49091034
0.39500002 27009.46344118  2727.41574751
0.39600002 27191.68613473  1943.11798325
0.39700002 27373.76684780  1797.63535406
0.39800002 27557.16761280  1649.29655977
0.39900002 27739.72569635  2496.57543096
0.40000002 27922.27834157  1847.47763400
0.40100002 28104.39764997  1864.16478445
0.40200002 28287.54484398  1709.98216684
0.40300002 28469.11951323  1725.22872424
0.40400002 28650.34953234  2262.66146152
0.40500002 28831.20202027  2282.56637209
0.40600002 29011.58209730  2125.38860515
0.40700002 29191.14633346  1965.14806428
0.40800002 29370.15024945  2522.60232445
0.40900002 29547.40011974  1817.16519346
0.41000002 29724.59044475  2748.78163162
0.41100002 29900.35149358  2217.41017183
0.41200002 30074.45785513  1863.11275240
0.41300002 30247.79484637  1878.38814896
0.41400002 30419.84539909  2082.99901240
0.41500002 30590.87431637  2672.41890691
0.41600002 30759.24547490  2308.78907474
0.41700002 30926.96271466  2520.85685032
0.41800002 31093.95919449  2149.68097077
0.41900002 31257.34988086  2363.05576297
0.42000002 31419.78934391  2579.40772841
0.42100002 31581.15849459  2198.99617018
0.42200002 31740.38401880  2416.71295371
0.42300002 31897.27150071  2434.39987629
0.42400002 32052.34331860  2247.67068172
0.42500002 32205.73686301  3086.92002460
0.42600002 32355.86106144  2901.35019886
0.42700002 32505.13454871  2086.82973691
0.42800002 32651.66934006  2101.13502160
0.42900002 32796.64010012  2538.46006404
0.43000002 32939.26438143  2555.42825181
0.43100002 33078.23296150  2357.81655723
0.43200002 33215.88381699  2157.37175615
0.43300002 33350.74063145  2388.24664979
0.43400002 33483.50725489  3495.67832306
0.43500002 33613.46022014  2637.98448309
0.43600002 33741.78217362  2875.30610418
0.43700002 33866.53132472  2892.54057752
0.43800002 33988.07426844  4028.60663395
0.43900002 34108.19149534  2926.48296899
0.44000002 34224.75512009  3169.55472188
0.44100002 34339.41491624  2732.04398021
0.44200002 34451.11331542  2518.20424713
0.44300002 34560.27869084  4373.25787279
0.44400002 34666.09529477  2545.35816764
0.44500002 34768.40521617  2326.00641919
0.44600002 34868.67999540  2337.94510449
0.44700002 34966.29879375  3524.60308545
0.44800002 35060.10652382  4250.33691531
0.44900002 35152.31650050  2372.78147623
0.45000002 35241.24630849  2860.88451091
0.45100002 35325.98460638  3592.65280473
0.45200002 35408.78385711  3368.43776797
0.45300002 35488.12320595  3141.76369632
0.45400002 35564.94945772  2912.76949863
0.45500002 35638.67653534  3412.75982677
0.45600002 35708.97430823  4161.34551823
0.45700002 35776.44119182  2703.62578900
0.45800002 35840.15754953  3207.87345350
0.45900002 35901.16012856  2972.61619953
0.46000002 35959.96368464  3232.62108864
0.46100002 36014.37189528  2994.95530876
0.46200002 36066.53146564  3256.26694771
0.46300002 36115.09945236  3519.05545742
0.46400002 36160.21968006  3026.61053067
0.46500002 36203.07226266  2783.65435821
0.46600002 36242.08280079  2792.63382257
0.46700002 36278.00942438  3565.40293521
0.46800002 36311.52345467  3320.87053494
0.46900002 36341.02393780  3330.65500176
0.47000002 36367.31310272  3340.15603023
0.47100002 36390.86686936  2834.12084611
0.47200002 36411.04191168  3616.70896451
0.47300002 36428.62419221  3367.09789368
0.47400002 36441.81589258  3115.77540650
0.47500002 36452.97951836  2602.74286097
0.47600002 36461.25861264  3130.56381286
0.47700002 36465.45311584  2614.57311233
