# SAXS profile: number of points = 501, q_min = 0, q_max = 0.5, delta_q = 0.001
#    q    intensity    error
0.00000000 1646666.22097351 271.69992646
0.00100000 1646598.56654846 543.37753987
0.00200000 1646395.54955311 740.87802076
0.00300000 1646057.34978846 1185.16133407
0.00400000 1645583.81087906 1234.18790506
0.00500000 1644975.38880276 1628.52569937
0.00600000 1644231.85647560 1899.08787155
0.00700000 1643353.82828310 2169.22714349
0.00800000 1642340.75421330 2882.30814534
0.00900000 1641193.97163944 3446.50748777
0.01000000 1639912.66633093 3517.61282117
0.01100000 1638498.05322771 3834.08561149
0.01200000 1636949.61486121 4788.07783340
0.01300000 1635268.70742057 3777.47088075
0.01400000 1633454.61158753 3675.27303900
0.01500000 1631508.96096093 4307.18384873
0.01600000 1629430.82264321 6232.57317523
0.01700000 1627222.17679072 6150.90010419
0.01800000 1624882.56542854 6946.37327978
0.01900000 1622412.69293208 6327.40978794
0.02000000 1619813.28474705 7143.37690887
0.02100000 1617085.89592672 5336.38369850
0.02200000 1614228.66117808 6682.90696090
0.02300000 1611244.52630710 7540.62472635
0.02400000 1608133.44249656 6030.50068434
0.02500000 1604896.57963341 8136.82603036
0.02600000 1601534.10164146 7134.83474915
0.02700000 1598047.19673309 11410.05750727
0.02800000 1594435.58300019 9710.11314577
0.02900000 1590701.87538036 7873.97464466
0.03000000 1586846.45939180 11068.25456301
0.03100000 1582869.31527886 9877.10498182
0.03200000 1578771.65760149 8596.41207157
0.03300000 1574556.18094178 9636.28427160
0.03400000 1570220.79120383 8243.65953419
0.03500000 1565768.96004776 11837.21388458
0.03600000 1561200.38173653 11264.06127478
0.03700000 1556516.83806086 9759.36102599
0.03800000 1551719.61537251 13616.34025505
0.03900000 1546809.86623416 13921.28944080
0.04000000 1541786.54839107 10430.18648319
0.04100000 1536653.61502769 9680.91822355
0.04200000 1531411.43110789 14816.40628334
0.04300000 1526060.01813247 14100.79522207
0.04400000 1520602.97700239 12316.88468574
0.04500000 1515039.70850982 10453.77447445
0.04600000 1509370.91862992 17025.70475362
0.04700000 1503599.63956309 14073.69328085
0.04800000 1497725.84906487 13209.94260339
0.04900000 1491752.61658593 11188.14514517
0.05000000 1485679.06237924 14775.07896338
0.05100000 1479508.70637176 12694.18529202
0.05200000 1473239.71447699 12883.48190349
0.05300000 1466877.69546167 11881.70988714
0.05400000 1460420.54898079 16867.85812734
0.05500000 1453872.49472452 18318.79428809
0.05600000 1447232.10905660 12373.83510985
0.05700000 1440504.04020752 17545.34002872
0.05800000 1433687.12422113 19032.19746269
0.05900000 1426783.11717682 16693.36325065
0.06000000 1419795.10982606 15589.35103421
0.06100000 1412724.21693132 14452.16941458
0.06200000 1405570.96282945 19923.96932942
0.06300000 1398338.61979693 13424.05137770
0.06400000 1391025.08329868 13562.49519644
0.06500000 1383637.14103493 13698.00833701
0.06600000 1376171.82621365 19362.73850078
0.06700000 1368632.48222217 19544.07276077
0.06800000 1361022.03821622 18312.55238139
0.06900000 1353341.12354274 28420.16492500
0.07000000 1345589.48193907 17196.63438447
0.07100000 1337771.70621899 21671.90265581
0.07200000 1329886.77135902 16018.48691143
0.07300000 1321939.57936235 23477.64802953
0.07400000 1313928.88791883 19216.21088636
0.07500000 1305857.70652605 16375.45640739
0.07600000 1297725.67863332 23981.97166543
0.07700000 1289538.40458626 15087.60004109
0.07800000 1281294.13029599 16701.66977165
0.07900000 1272995.15035334 18331.13102489
0.08000000 1264644.77317403 19975.06512934
0.08100000 1256243.45405054 30903.59041958
0.08200000 1247792.29435673 20195.51923184
0.08300000 1239293.78527292 18738.12291274
0.08400000 1230749.10945711 17261.25707036
0.08500000 1222161.73055359 15765.88706427
0.08600000 1213531.05043844 17420.23904695
0.08700000 1204860.35773547 15904.15746893
0.08800000 1196148.38406632 17565.43984495
0.08900000 1187401.54983528 17632.91384327
0.09000000 1178618.09741192 17696.95156396
0.09100000 1169800.96990735 17757.57955747
0.09200000 1160950.79523572 21053.84366085
0.09300000 1152070.96197108 17868.62145986
0.09400000 1143160.17855945 16290.03331006
0.09500000 1134222.43511216 24499.20574995
0.09600000 1125259.06887359 16372.52022175
0.09700000 1116272.44715963 22972.88804256
0.09800000 1107263.86923121 23020.01692366
0.09900000 1098234.86061931 21415.58078909
0.10000000 1089185.29369400 18151.27377301
0.10100000 1080117.91322225 26441.28775926
0.10200000 1071035.05076470 19856.99077518
0.10300000 1061937.32245202 19879.46761145
0.10400000 1052827.74587167 16582.03777758
0.10500000 1043708.63185796 16594.96802732
0.10600001 1034576.26718739 19925.93984362
0.10700001 1025438.66126422 23256.94993189
0.10800001 1016292.91309407 23262.94587552
0.10900001 1007143.00851522 19941.43250716
0.11000001 997989.14216838 16616.51999924
0.11100001 988833.46915823 24918.60459579
0.11200001 979678.40542510 18266.10472907
0.11300001 970522.77500556 24893.91035092
0.11400001 961370.84487042 19900.37742582
0.11500001 952223.30818590 18225.55497688
0.11600001 943080.55195329 16551.06446619
0.11700001 933945.94251793 19837.01275330
0.11800001 924817.55519438 23111.19179281
0.11900001 915699.65667517 21427.37297546
0.12000001 906592.68247568 21391.05535064
0.12100001 897499.64453659 26278.79082998
0.12200001 888419.03111975 19669.59827565
0.12300001 879354.42623067 19627.19171819
0.12400001 870305.63183083 17950.05450227
0.12500001 861274.75024082 24417.14031987
0.12600001 852264.41004524 17859.20155409
0.12700001 843274.32485192 17809.95458019
0.12800001 834304.62450152 19372.55429394
0.12900001 825358.61211143 19313.39243369
0.13000001 816436.55545134 19251.57488496
0.13100001 807539.16271972 22384.98664577
0.13200001 798669.14586749 20713.48527451
0.13300001 789828.08075887 17463.09968884
0.13400001 781014.40571300 15815.54246132
0.13500001 772231.62651719 15753.52592370
0.13600001 763478.84024870 18827.38908826
0.13700001 754759.32856924 18748.22260570
0.13800001 746071.77217022 20222.27633827
0.13900001 737421.04141230 18583.01111993
0.14000001 728804.06005062 20038.46857612
0.14100001 720224.21651756 21477.08714948
0.14200001 711680.46657816 19845.21074654
0.14300001 703178.16187925 16707.51391430
0.14400001 694711.01771060 15109.96534794
0.14500001 686287.88231438 18035.64639800
0.14600001 677903.56503381 17937.32917698
0.14700001 669564.67309959 14864.33644406
0.14800001 661266.28436807 17735.16258347
0.14900001 653011.40764079 14692.75736513
0.15000001 644801.96519606 14604.76520079
0.15100001 636638.50414002 15966.89443723
0.15200001 628521.92959160 15867.03686126
0.15300001 620452.64769012 15765.70252177
0.15400001 612429.24418753 14238.98059931
0.15500001 604456.35571191 19801.99114764
0.15600001 596530.78720666 16857.96084207
0.15700001 588659.26565269 13951.22525442
0.15800001 580833.70018661 13852.88440329
0.15900001 573062.61630223 20630.25516064
0.16000001 565341.30628293 17748.89114854
0.16100001 557675.64404358 20327.27818492
0.16200001 550061.12118135 14793.89455253
0.16300001 542501.57514523 22687.41694360
0.16400001 534996.14978529 13241.15533230
0.16500001 527545.82224668 17076.65907234
0.16600001 520151.08779186 15635.74243723
0.16700001 512811.65275807 14215.13968562
0.16800001 505527.59101055 14096.63754092
0.16900001 498302.61760296 16518.73255352
0.17000001 491134.18411464 17636.62938435
0.17100001 484023.52100823 16234.14966121
0.17200001 476970.98715857 16090.61701164
0.17300001 469977.29670743 15946.33043034
0.17400001 463043.18961807 20663.30331255
0.17500001 456167.76041073 14451.39533232
0.17600001 449349.87002780 14316.28753523
0.17700001 442594.73784262 16544.19208195
0.17800001 435898.49117526 15215.03755311
0.17900001 429262.82940223 16226.13571782
0.18000001 422688.59017075 11475.99576520
0.18100001 416176.26987289 12497.77397463
0.18200001 409722.40518258 12371.56860890
0.18300001 403332.41494840 12245.17269629
0.18400001 397002.59522879 17626.91606087
0.18500001 390735.37410035 14171.97268813
0.18600001 384529.81445151 15100.48652691
0.18700001 378385.94319975 11737.53251259
0.18800001 372304.05382770 16887.71267950
0.18900001 366286.20973305 15658.73620592
0.19000001 360326.83115309 14452.70988042
0.19100001 354434.69214588 15311.57942418
0.19200001 348601.10903377 12110.40310007
0.19300001 342832.87283294 12969.36819211
0.19400001 337125.98013254 12819.21600030
0.19500001 331482.47032524 10720.14359690
0.19600001 325899.88367640 9630.34201773
0.19700001 320380.93127990 10466.84551955
0.19800001 314924.37110310 14100.73938253
0.19900001 309531.08363006 14857.49271641
0.20000001 304198.27148057 11923.05181418
0.20100001 298929.61992965 9057.56791195
0.20200001 293721.93340269 12521.36661276
0.20300001 288577.05071972 13245.68725409
0.20400001 283494.26189142 10460.93875824
0.20500001 278472.55789154 12046.72342380
0.20600001 273513.20288483 11040.36095630
0.20700001 268615.31207268 12571.19719923
0.20800001 263778.74374986 8269.46400746
0.20900001 259005.54091080 8158.67492436
0.21000001 254291.10954505 12072.47099635
0.21100001 249637.68952194 11907.71835312
0.21200001 245044.86094663 8612.10204510
0.21300001 240512.54863622 8492.49849383
0.21400001 236041.41893167 8373.56973247
0.21500001 231630.58419675 10506.76379590
0.21600001 227278.13727318 8877.48446161
0.21700001 222985.95151997 8020.80505539
0.21800001 218753.05604130 7186.03823072
0.21900001 214577.90117231 8497.28528819
0.22000001 210461.25140242 7674.46989526
0.22100001 206405.18364172 8247.95152831
0.22200001 202406.07658642 9478.67701474
0.22300001 198464.44461772 10002.60848171
0.22400001 194578.85935077 6567.03681362
0.22500001 190753.53224994 7113.19955396
0.22600001 186982.73292991 7003.43859307
0.22700001 183269.60997669 8774.94934064
0.22800001 179611.68475715 8020.56016212
0.22900001 176009.22963781 11537.40554837
0.23000001 172462.18965091 6573.39666941
0.23100001 168971.75417577 7644.28252043
0.23200001 165533.92493599 7521.03423516
0.23300001 162151.42702268 6829.81842921
0.23400001 158822.64273930 6718.19810561
0.23500001 155546.32330218 6056.97411586
0.23600001 152323.66837620 7581.14933365
0.23700001 149153.60855984 6389.74089292
0.23800001 146035.63351269 5758.91547996
0.23900001 142969.62704959 5661.59749895
0.24000001 139954.59846923 7083.10256356
0.24100001 136991.92337356 5470.08775905
0.24200001 134078.89872885 5864.61130781
0.24300001 131216.14947683 5282.76242783
0.24400001 128402.41624996 5662.54682448
0.24500001 125638.38146054 5099.66214472
0.24600001 122923.44717254 5465.17671982
0.24700001 120257.16209750 7605.06329081
0.24800001 117637.95296904 6151.28885175
0.24900001 115066.10534432 4746.47707000
0.25000001 112541.89006729 5932.08330608
0.25100001 110063.37386262 4992.47487460
0.25200001 107632.12930912 4493.10345058
0.25300001 105246.78319819 6014.85394434
0.25400001 102905.54823196 4329.75114671
0.25500001 100609.43094602 4636.08279733
0.25600001 98357.73403786  4929.19807452
0.25700001 96149.66505412  4465.19065638
0.25800001 93984.81795121  3651.31035016
0.25900001 91863.28386599  4657.46871237
0.26000001 89784.57616263  3866.57295539
0.26100001 87745.82915066  3448.41124879
0.26200001 85750.88012374  4397.73409523
0.26300001 83795.51271387  4313.79319863
0.26400001 81880.68088338  3254.75721912
0.26500001 80006.78085705  3511.49777798
0.26600001 78171.38572350  4383.06980492
0.26700001 76376.49498982  3684.40229266
0.26800001 74619.75854999  3613.08887997
0.26900001 72900.58693377  3247.72130159
0.27000001 71220.05321179  3184.60483007
0.27100001 69576.41612916  3406.46149489
0.27200001 67970.03749874  3340.04780075
0.27300001 66399.39693830  3001.91687764
0.27400001 64863.59990154  2943.18598482
0.27500001 63365.41199059  3934.99227084
0.27600001 61900.13320251  2571.95065628
0.27700001 60471.11666810  3278.13938972
0.27800001 59074.79167903  2719.50816365
0.27900001 57712.91609666  3635.91388617
0.28000001 56383.48888328  2614.22058580
0.28100001 55086.74897873  2563.18655129
0.28200001 53822.69855819  2741.72839432
0.28300001 52590.21437513  2464.37756226
0.28400001 51389.27784014  2196.89173165
0.28500001 50219.32026381  3016.17251780
0.28600001 49079.06016892  2324.13900431
0.28700001 47969.29844971  2486.72854934
0.28800001 46888.36400210  3658.69921626
0.28900001 45837.83592866  2990.91893592
0.29000001 44814.82793188  2934.25099773
0.29100001 43821.15527716  2687.11336879
0.29200001 42854.62070232  3201.88313734
0.29300001 41915.52056289  3327.25417978
0.29400001 41003.20601997  2177.27034272
0.29500001 40118.60188482  2315.64581041
0.29600001 39258.74787646  1923.87503076
0.29700001 38424.52800601  2576.36472476
0.29800001 37616.13940701  1855.79232550
0.29900001 36832.64413290  1823.21597089
0.30000001 36073.37732811  1954.45567616
0.30100001 35338.95360863  2401.28201138
0.30200001 34626.93554485  1573.79429502
0.30300001 33938.86678349  2321.41859789
0.30400001 33274.25013416  2283.44552356
0.30500001 32630.82728599  2246.63256500
0.30600001 32009.89380084  1768.86681518
0.30700001 31411.10989221  1886.55134944
0.30800001 30833.35251332  2143.68893498
0.30900001 30276.37084915  1548.63644225
0.31000001 29740.83467464  1664.89200391
0.31100001 29223.74317969  1641.20549467
0.31200001 28727.80814914  1483.64772211
0.31300001 28250.40196813  1862.83159398
0.31400001 27793.55339827  2232.51728242
0.31500001 27354.63037639  1555.93144948
0.31600002 26933.81906853  1792.98442029
0.31700002 26530.88011147  1645.17995361
0.31800002 26145.92199248  1501.29891189
0.31900002 25778.49721974  1608.57830268
0.32000002 25427.57423999  1224.33775763
0.32100002 25093.80842660  1212.03100439
0.32200002 24776.52128221  1560.54926685
0.32300002 24474.37727209  1784.18218762
0.32400002 24188.29752074  1532.93342796
0.32500002 23916.91763735  1286.49106063
0.32600002 23661.26408832  1276.64356434
0.32700002 23419.79035486  1267.47911402
0.32800002 23193.55670458  1716.90311636
0.32900002 22980.08731693  1478.76868887
0.33000002 22781.87600948  1244.23221718
0.33100002 22594.92223781  1350.27261687
0.33200002 22423.23588673  1120.04068558
0.33300002 22263.36242827  1561.55231467
0.33400002 22116.63157256  1111.36078915
0.33500002 21981.50642201  1218.65477375
0.33600002 21858.47186293  1215.44038550
0.33700002 21746.30954158  1874.31450815
0.33800002 21646.93959088  1210.82162336
0.33900002 21557.33271025  1209.36642232
0.34000002 21479.42821636  1098.67280530
0.34100002 21411.70903272  1318.10487048
0.34200002 21355.26570385  1318.47416700
0.34300002 21307.44311986  1319.35694047
0.34400002 21270.17066669  1210.80452254
0.34500002 21241.98395210  1322.95082319
0.34600002 21224.31182631  1436.14312774
0.34700002 21213.52617086  1328.81534228
0.34800002 21213.05667518  1221.55392649
0.34900002 21220.72185102  1559.72312992
0.35000002 21236.66452456  1565.35461624
0.35100002 21260.71386340  1234.82231967
0.35200002 21291.86954131  1352.88545473
0.35300002 21330.89390948  1699.00578036
0.35400002 21377.71875608  1252.19993545
0.35500002 21431.34396309  1373.32058620
0.35600002 21491.38268164  1496.12267625
0.35700002 21558.25311679  1852.28519553
0.35800002 21632.15276933  1281.38062998
0.35900002 21711.79024226  1289.68040148
0.36000002 21798.22987228  1652.52388489
0.36100002 21889.44787159  1545.17619844
0.36200002 21987.67592634  1197.22901090
0.36300002 22089.40125425  1688.51391185
0.36400002 22197.31352220  2187.54535123
0.36500002 22309.70368196  1469.76334819
0.36600002 22427.48937197  1605.02335293
0.36700002 22549.40445830  1618.14534058
0.36800002 22677.19150813  1380.70087037
0.36900002 22808.30753007  1519.03335346
0.37000002 22942.57482709  1915.13152441
0.37100002 23081.32371174  1545.52550895
0.37200002 23224.20616743  2468.84935358
0.37300002 23369.94447146  1442.15934165
0.37400002 23520.19070654  1587.61294790
0.37500002 23672.54661004  1869.18436887
0.37600002 23829.01264731  1482.28380194
0.37700002 23987.15973117  1904.10082966
0.37800002 24149.03334885  1372.87261092
0.37900002 24313.20961910  1385.85301394
0.38000002 24479.91872275  1958.63838979
0.38100002 24648.44990014  1694.82749542
0.38200002 24819.38758534  1568.46127276
0.38300002 24992.05611562  2015.35950064
0.38400002 25167.24898933  1453.40869799
0.38500002 25342.96566188  1907.56511574
0.38600002 25521.60037580  2370.44635520
0.38700002 25700.52480279  1944.50179870
0.38800002 25880.81864965  1661.16042373
0.38900002 26062.40521613  1677.11585511
0.39000002 26245.75942576  1847.17663590
0.39100002 26429.11106521  1709.43498468
0.39200002 26613.77141888  1725.77008942
0.39300002 26798.81594706  1742.19110726
0.39400002 26985.14245954  2238.41767307
0.39500002 27171.08659862  2259.54766859
0.39600002 27357.36385994  1629.13109504
0.39700002 27543.49005402  2137.65036437
0.39800002 27730.76011042  1825.65467837
0.39900002 27917.18108235  2010.03713316
0.40000002 28103.51121854  2197.55416385
0.40100002 28289.47026254  1876.44065142
0.40200002 28476.27107421  2065.66880159
0.40300002 28661.53491762  2084.26691796
0.40400002 28846.28940393  1927.65338075
0.40500002 29030.71215680  2298.36159035
0.40600002 29214.43977355  2140.24995922
0.40700002 29397.48014076  2698.68880479
0.40800002 29579.78964618  1814.72018078
0.40900002 29760.31571528  2379.33735417
0.41000002 29940.63225696  2215.00807932
0.41100002 30119.52207297  2233.66386277
0.41200002 30296.67582239  2439.94290297
0.41300002 30472.95254230  2081.60748680
0.41400002 30647.86367078  1907.82960390
0.41500002 30821.72087115  2307.93056819
0.41600002 30992.82899019  2132.46169971
0.41700002 31163.21593015  2149.32710455
0.41800002 31332.85510966  2363.12404435
0.41900002 31498.79276307  3175.07846097
0.42000002 31663.62534902  2399.46964265
0.42100002 31827.31346072  2820.53665254
0.42200002 31988.92281379  2638.60642333
0.42300002 32147.97752288  2044.61146734
0.42400002 32305.21389686  2677.29472857
0.42500002 32460.66812817  2696.50782918
0.42600002 32612.79242574  2924.38923539
0.42700002 32763.92883900  2103.44433114
0.42800002 32912.26420450  2965.06602269
0.42900002 33058.98124374  3624.91746515
0.43000002 33203.33649015  2575.91496697
0.43100002 33343.85526736  3024.95469320
0.43200002 33482.99277039  3479.55277359
0.43300002 33619.30842094  2626.34049830
0.43400002 33753.35496325  3523.85042515
0.43500002 33884.59236111  2659.26293452
0.43600002 34014.06584034  2452.58433364
0.43700002 34139.97652410  2691.59587671
0.43800002 34262.51799306  3158.66168347
0.43900002 34383.51944676  2723.17486923
0.44000002 34500.97187976  3195.13515720
0.44100002 34616.38890576  2524.57336254
0.44200002 34728.76576266  2307.72659429
0.44300002 34838.55974741  2552.27300805
0.44400002 34944.87085608  3032.34131224
0.44500002 35047.64244680  2579.15612989
0.44600002 35148.30889172  3063.70248974
0.44700002 35246.22409185  3079.11028259
0.44800002 35340.22166400  2618.18044606
0.44900002 35432.53681260  2870.03561784
0.45000002 35521.48739928  3123.93735738
0.45100002 35606.24862000  2896.92452502
0.45200002 35688.92150565  3395.08726373
0.45300002 35768.11406486  3166.55128823
0.45400002 35844.64473209  3669.59567836
0.45500002 35918.03742218  3685.19081417
0.45600002 35987.90173477  2960.36493700
0.45700002 36054.87975464  2972.36442784
0.45800002 36118.06967999  2984.07505839
0.45900002 36178.46393742  2496.31412999
0.46000002 36236.51689329  3508.05736670
0.46100002 36290.12866946  3269.37784678
0.46200002 36341.41497234  3028.69366734
0.46300002 36389.03088333  2785.94433647
0.46400002 36433.13845335  4065.93844410
0.46500002 36474.94300866  2804.55850086
0.46600002 36512.82519306  2813.49587860
0.46700002 36547.50496831  3078.76196445
0.46800002 36579.63054179  4117.40340893
0.46900002 36607.82773584  4645.53355986
0.47000002 36632.69221584  2588.09982772
0.47100002 36654.76903769  3373.70510213
0.47200002 36673.39007887  3382.57029425
0.47300002 36689.37875458  3130.33794371
0.47400002 36700.87630784  3660.91258523
0.47500002 36710.32131981  4193.78730635
0.47600002 36716.77600685  2889.79399259
0.47700002 36719.05847835  3949.13492653
