# SAXS profile: number of points = 501, q_min = 0, q_max = 0.5, delta_q = 0.001
#    q    intensity    error
0.00000000 1646666.22097351 321.09991309
0.00100000 1646598.40848857 839.76520827
0.00200000 1646394.91712406 814.96550978
0.00300000 1646055.92200652 1086.39694723
0.00400000 1645581.25979254 1234.18599174
0.00500000 1644971.42655794 1924.61664525
0.00600000 1644226.14732105 1899.08127747
0.00700000 1643346.05934595 2366.41842381
0.00800000 1642330.60041582 2660.57568500
0.00900000 1641181.14424670 2461.77182161
0.01000000 1639896.84885343 4329.32786791
0.01100000 1638478.93291509 3539.11464919
0.01200000 1636926.83378313 5426.41269191
0.01300000 1635242.05686675 3777.40931796
0.01400000 1633423.67905867 4410.24412897
0.01500000 1631473.55268917 4307.09037089
0.01600000 1629390.55413118 5401.42992841
0.01700000 1627176.77423249 4832.71523626
0.01800000 1624831.76331210 5556.92488058
0.01900000 1622356.14860530 5840.48239852
0.02000000 1619750.73776374 8673.76559309
0.02100000 1617017.03622419 6403.38775377
0.02200000 1614153.20400586 7239.47744887
0.02300000 1611162.27606141 6380.20290362
0.02400000 1608044.06585730 7839.21517850
0.02500000 1604799.74153738 6884.59120562
0.02600000 1601429.67110084 9080.10665045
0.02700000 1597934.74380767 8724.72410079
0.02800000 1594314.94207696 10402.90547413
0.02900000 1590572.71485517 7873.33530003
0.03000000 1586708.65055493 8116.01512064
0.03100000 1582722.53598508 10635.89593121
0.03200000 1578615.63562061 12502.63640996
0.03300000 1574390.66349028 8832.33202936
0.03400000 1570045.60843429 11539.83575444
0.03500000 1565583.85514883 10144.98384984
0.03600000 1561005.09012009 8663.57865054
0.03700000 1556311.12682192 11532.26598309
0.03800000 1551503.32413942 14522.07178602
0.03900000 1546582.77771924 11135.39651526
0.04000000 1541548.43091527 10428.57561839
0.04100000 1536404.37129488 10647.28278675
0.04200000 1531150.73472375 10863.51496685
0.04300000 1525787.62892329 12084.23858200
0.04400000 1520318.84545941 13340.79848848
0.04500000 1514743.70627971 13587.25167666
0.04600000 1509062.75407298 11702.78220186
0.04700000 1503279.15129825 11905.97143200
0.04800000 1497392.83996652 12106.42167442
0.04900000 1491406.95136713 11185.55265591
0.05000000 1485320.71275626 18180.32637072
0.05100000 1479137.39969507 18459.63560812
0.05200000 1472855.33666027 11709.20047211
0.05300000 1466480.14792741 15442.03667755
0.05400000 1460009.84728459 18067.62270271
0.05500000 1453448.24541959 13429.86241417
0.05600000 1446794.31741987 12370.09199118
0.05700000 1440052.60844369 12528.45827827
0.05800000 1433221.95410494 15220.81786329
0.05900000 1426304.15933368 15404.08564026
0.06000000 1419302.13739937 12986.61516392
0.06100000 1412217.33173527 17073.70833856
0.06200000 1405050.06061589 18588.81317085
0.06300000 1397803.66905388 18786.48219045
0.06400000 1390476.08319326 18979.99942322
0.06500000 1383073.71203498 17800.15950654
0.06600000 1375594.12494336 16589.66592302
0.06700000 1368040.64056296 20931.02278016
0.06800000 1360415.69719702 23936.51531263
0.06900000 1352720.55987296 17044.27985239
0.07000000 1344954.63044036 21485.65122743
0.07100000 1337122.49398965 18773.20069491
0.07200000 1329223.16342619 16010.49375351
0.07300000 1321261.54454361 16132.60421478
0.07400000 1313236.63419118 22160.86924053
0.07500000 1305151.11220679 17854.46805187
0.07600000 1297004.75425257 22470.60842086
0.07700000 1288803.29287776 18094.79908044
0.07800000 1280544.80489680 19726.79364455
0.07900000 1272231.39785272 19846.81073739
0.08000000 1263866.96718113 16891.58280878
0.08100000 1255451.58910942 18530.46632467
0.08200000 1246986.52351010 18629.97953546
0.08300000 1238474.06832577 21846.68359058
0.08400000 1229915.58743963 15681.42447592
0.08500000 1221314.42719063 17330.45253542
0.08600000 1212670.05492133 18990.41395170
0.08700000 1203985.84616826 19071.13669884
0.08800000 1195260.57738764 20743.74829477
0.08900000 1186500.50045187 19221.30901014
0.09000000 1177703.74874483 17683.22261808
0.09100000 1168873.51586129 17743.50080438
0.09200000 1160010.42468603 17800.36080319
0.09300000 1151117.91960923 21099.99245797
0.09400000 1142194.21170146 19531.52193803
0.09500000 1133244.24907876 24478.07693064
0.09600000 1124268.55430545 24537.16235115
0.09700000 1115269.71564595 18033.91214982
0.09800000 1106249.11363735 19713.36013189
0.09900000 1097208.37320660 16458.12637200
0.10000000 1088147.32716783 19782.51933823
0.10100000 1079068.36598130 19811.69613120
0.10200000 1069974.27219238 16531.10328293
0.10300000 1060865.56186498 21514.35460667
0.10400000 1051745.15620060 18221.48568841
0.10500000 1042615.43101805 21550.86197310
0.10600001 1033472.65442401 16587.23688399
0.10700001 1024325.19246620 18253.47578871
0.10800001 1015169.19763110 18257.81887864
0.10900001 1006009.47498195 21578.90425399
0.11000001 996846.30914792 16597.49182855
0.11100001 987681.26786305 24889.56912178
0.11200001 978517.38877489 24878.80578082
0.11300001 969353.00583197 21548.71833418
0.11400001 960192.71022135 19875.99003743
0.11500001 951036.86598415 23167.25914627
0.11600001 941886.04403602 26448.16136201
0.11700001 932743.96103696 19811.48266545
0.11800001 923608.08692971 18135.04564099
0.11900001 914483.16730440 24691.04668021
0.12000001 905369.22960755 19718.94274971
0.12100001 896269.61312001 22962.42856985
0.12200001 887182.71452363 19642.22622492
0.12300001 878112.10602776 19599.46312996
0.12400001 869057.53561858 19553.79547274
0.12500001 860021.32635799 19505.28460090
0.12600001 851005.86200256 17832.82867861
0.12700001 842010.85220449 17783.27003662
0.12800001 833036.66635830 20955.03832984
0.12900001 824086.46662126 20890.59291347
0.13000001 815160.59632990 19221.48776746
0.13100001 806259.65233257 25542.30698990
0.13200001 797386.52234653 17498.64805779
0.13300001 788542.36068763 22189.58307583
0.13400001 779726.06688317 23684.18039818
0.13500001 770940.84085872 20445.35206353
0.13600001 762186.33925170 18795.51601217
0.13700001 753464.96613246 17156.39808782
0.13800001 744776.11883415 18634.29937194
0.13900001 736124.27438322 18550.33258926
0.14000001 727506.50923381 23080.14509392
0.14100001 718926.27987970 15313.13048365
0.14200001 710382.60910290 22856.56152592
0.14300001 701880.34044909 16676.67767567
0.14400001 693413.80419208 18098.10114310
0.14500001 684991.69307583 18001.58254321
0.14600001 676608.72166768 14919.22301658
0.14700001 668271.34176548 22253.43673063
0.14800001 659974.79825107 22125.65615523
0.14900001 651722.25987916 17596.50184695
0.15000001 643515.44337812 17490.75057628
0.15100001 635354.77630280 17383.30749988
0.15200001 627241.24514264 17274.22470635
0.15300001 619175.57268138 18593.84332505
0.15400001 611156.01143234 15630.31572999
0.15500001 603187.40237174 16937.50305793
0.15600001 595266.25213203 14018.52089931
0.15700001 587399.62213893 18097.78321226
0.15800001 579579.16053765 20734.44544687
0.15900001 571813.57613170 15095.87912241
0.16000001 564098.01181511 13622.96762837
0.16100001 556438.49970974 18930.03865370
0.16200001 548830.29535580 20128.35203235
0.16300001 541277.44454340 13315.42576436
0.16400001 533779.00406789 14532.13407180
0.16500001 526335.95288633 17037.49559929
0.16600001 518948.84283114 14299.63603934
0.16700001 511617.07372416 12892.75086658
0.16800001 504341.24808529 16620.56661541
0.16900001 497124.93934267 13944.35520699
0.17000001 489965.14964059 18851.41002258
0.17100001 482863.37126973 21178.38846396
0.17200001 475820.48817082 14817.05070134
0.17300001 468836.25644621 13460.28955823
0.17400001 461911.91935553 14550.22614685
0.17500001 455046.57609351 14415.87621147
0.17600001 448239.23130601 20231.27866050
0.17700001 441494.79967979 12966.70287902
0.17800001 434809.61138883 12842.10247893
0.17900001 428185.00177001 12717.09515324
0.18000001 421622.21145168 21749.38280507
0.18100001 415121.55235664 12466.10080612
0.18200001 408679.51006824 15705.55431382
0.18300001 402301.89229969 14434.59257759
0.18400001 395984.31277180 10988.56519852
0.18500001 389729.70197757 10873.45919886
0.18600001 383537.14604811 10758.21745490
0.18700001 377406.27708458 12771.42901993
0.18800001 371337.74826712 14738.39592505
0.18900001 365333.42542849 15618.00467498
0.19000001 359387.55488611 11326.09932738
0.19100001 353509.46081363 15271.60942873
0.19200001 347690.06023172 20131.25543865
0.19300001 341936.05075291 10945.37350180
0.19400001 336243.68295430 12785.66664851
0.19500001 330614.67274821 15552.11494099
0.19600001 325046.99205317 11526.16688289
0.19700001 319543.08491776 12337.55909172
0.19800001 314101.60485238 10313.52668273
0.19900001 308723.64123664 12966.39354473
0.20000001 303406.32567315 11892.01149679
0.20100001 298153.18567442 11744.25453878
0.20200001 292961.23678548 9812.73708991
0.20300001 287832.24104723 9688.43369157
0.20400001 282765.57021577 11303.55420365
0.20500001 277759.92081578 11157.61654656
0.20600001 272816.91245157 9318.06208523
0.20700001 267935.33428878 8359.58282496
0.20800001 263115.19367894 9898.39405410
0.20900001 258358.57200388 18718.07942651
0.21000001 253660.70478263 9634.03402307
0.21100001 249024.13648693 11086.55508050
0.21200001 244448.17403558 7810.11952966
0.21300001 239932.77134648 10012.39502163
0.21400001 235478.48007635 11391.27201223
0.21500001 231084.77902481 8235.86191382
0.21600001 226749.36573519 8118.76142399
0.21700001 222474.55918006 9457.39395789
0.21800001 218258.75098714 7169.80030892
0.21900001 214100.82838329 11304.52427313
0.22000001 210001.56837989 8353.86278514
0.22100001 205962.74983545 9601.98385134
0.22200001 201981.08142203 9458.77449025
0.22300001 198056.80283095 10647.53422366
0.22400001 194188.52093952 7864.63546994
0.22500001 190380.61809844 7099.29358460
0.22600001 186627.07659911 8896.51316218
0.22700001 182931.20867036 6881.87239562
0.22800001 179290.76489627 8006.22948506
0.22900001 175705.62666782 7274.21328805
0.23000001 172175.90302433 6562.48485412
0.23100001 168702.75728925 7045.02747758
0.23200001 165282.12514695 5776.61054708
0.23300001 161916.91531325 6819.94079554
0.23400001 158605.34533674 7827.17416256
0.23500001 155346.03005423 7149.02464122
0.23600001 152140.42464263 5949.45158704
0.23700001 148987.44248272 5850.73714302
0.23800001 145886.29551752 5230.02394168
0.23900001 142837.24858428 7198.99766916
0.24000001 139839.02427309 6066.21715990
0.24100001 136893.12726040 5466.14283006
0.24200001 133996.63718038 4884.17765626
0.24300001 131150.49760644 5760.13012734
0.24400001 128353.10642238 7547.16301464
0.24500001 125605.42549467 6952.26063000
0.24600001 122906.63446266 5009.06012448
0.24700001 120256.57195598 5815.60809490
0.24800001 117653.20675834 5712.65172440
0.24900001 115097.19682751 5610.98861078
0.25000001 112588.83658603 7206.24882660
0.25100001 110125.90856390 4579.03549472
0.25200001 107710.27834016 5722.64735895
0.25300001 105340.15088382 5618.84391397
0.25400001 103014.13104021 4728.34883845
0.25500001 100732.99782905 4254.96202961
0.25600001 98496.30272675  4556.43917972
0.25700001 96302.85429014  4099.61270110
0.25800001 94152.63652907  5120.96214311
0.25900001 92045.51529870  4307.73031980
0.26000001 89981.12978650  5284.14209673
0.26100001 87956.40754585  4493.69307414
0.26200001 85975.41805414  4409.24952354
0.26300001 84033.73876749  4658.83069771
0.26400001 82132.50725240  4244.19751310
0.26500001 80272.04276361  3843.42558939
0.26600001 78449.75313827  3141.91276186
0.26700001 76667.81923402  4623.06971858
0.26800001 74923.88709479  3325.49688607
0.26900001 73217.44115184  3261.83715767
0.27000001 71549.22852651  4071.86678813
0.27100001 69917.76464746  4278.96739892
0.27200001 68323.32452072  3077.62429868
0.27300001 66764.52148192  3567.22855160
0.27400001 65240.41941043  3767.63439925
0.27500001 63753.53410145  2903.33608038
0.27600001 62299.33329044  2588.53742072
0.27700001 60881.31680435  2792.62613398
0.27800001 59495.73888278  3236.86582711
0.27900001 58144.43029732  3418.89266329
0.28000001 56825.23971105  4071.81274421
0.28100001 55538.60489333  3288.99633745
0.28200001 54284.37794080  3226.12073371
0.28300001 53061.48318827  2712.50314897
0.28400001 51869.96647054  2439.18528873
0.28500001 50709.13493744  2392.96419096
0.28600001 49577.75900358  2347.75488874
0.28700001 48476.81358629  2303.61829066
0.28800001 47404.28148724  2465.97083969
0.28900001 46362.00590796  2218.42208770
0.29000001 45347.07016627  2177.33967710
0.29100001 44361.18208808  3108.83178789
0.29200001 43402.11109397  2479.77973474
0.29300001 42470.26707086  2060.23275313
0.29400001 41564.99063854  2023.17601510
0.29500001 40687.22334690  1806.51280212
0.29600001 39833.91218240  1952.06095890
0.29700001 39006.14019477  2266.64691402
0.29800001 38203.86992310  2570.16547074
0.29900001 37426.21894031  2357.85190486
0.30000001 36672.73269303  1986.92875137
0.30100001 35943.70219909  1791.07476537
0.30200001 35236.79272735  1761.66353580
0.30300001 34553.63311652  2048.33946812
0.30400001 33893.71350968  2015.82870642
0.30500001 33254.87736670  2136.95852075
0.30600001 32638.09137458  1653.28259685
0.30700001 32043.44338126  2072.57001602
0.30800001 31469.31057696  1750.32313716
0.30900001 30915.92345608  1581.34955965
0.31000001 30383.65096690  1700.87686165
0.31100001 29869.73167176  1537.69385926
0.31200001 29376.64118760  2068.85005359
0.31300001 28901.85890363  1361.27761881
0.31400001 28447.40871713  1478.55413808
0.31500001 28010.63078919  1991.55594341
0.31600002 27591.82052296  1443.19024078
0.31700002 27190.58732946  1296.99107703
0.31800002 26807.16321997  1924.08423122
0.31900002 26441.05767482  1649.92207703
0.32000002 26091.21799703  1381.92142665
0.32100002 25758.36522538  1492.95491915
0.32200002 25441.64714052  1232.64786232
0.32300002 25140.02190094  1466.16614669
0.32400002 24854.14322132  1453.96744729
0.32500002 24582.86704867  1322.31248116
0.32600002 24327.10288301  1909.19112466
0.32700002 24085.26551003  1658.99316689
0.32800002 23858.49398367  1295.15840723
0.32900002 23644.25314305  1404.46870320
0.33000002 23445.07976552  1513.26274512
0.33100002 23256.97213582  1158.19726721
0.33200002 23084.06239476  1268.35386834
0.33300002 22922.51556054  1492.94350916
0.33400002 22774.09042112  1258.83790764
0.33500002 22637.17836197  1711.37076521
0.33600002 22512.06994202  1479.38074630
0.33700002 22397.65907371  1249.11750570
0.33800002 22295.89509341  1247.12095111
0.33900002 22203.66726273  1245.62579243
0.34000002 22123.00626465  1357.91018883
0.34100002 22052.42995265  1244.41868116
0.34200002 21992.82985916  1470.99049479
0.34300002 21941.93762233  1245.42443843
0.34400002 21901.21720978  1586.74326200
0.34500002 21869.55790248  1475.53914156
0.34600002 21848.17188772  1250.91714068
0.34700002 21833.50856055  1253.68012092
0.34800002 21829.13821754  1142.75543981
0.34900002 21832.60010936  1146.21156003
0.35000002 21844.24061575  1495.12911976
0.35100002 21863.98749469  1500.74417271
0.35200002 21890.59777460  1275.01792777
0.35300002 21925.00015288  1397.06107591
0.35400002 21967.04972027  1520.66908891
0.35500002 22015.81436027  1293.20899677
0.35600002 22070.73667504  1181.88800493
0.35700002 22132.55628813  1307.37016186
0.35800002 22201.12311734  1195.53053650
0.35900002 22275.45226633  1323.16192729
0.36000002 22356.40482567  1210.59937865
0.36100002 22442.16819446  1584.19272788
0.36200002 22534.64491981  1227.01147400
0.36300002 22630.63146094  1977.01205807
0.36400002 22732.64883759  1244.61258281
0.36500002 22839.12381118  1880.80193494
0.36600002 22950.86023727  1263.44491591
0.36700002 23066.66966446  1527.93627095
0.36800002 23188.27553212  1540.16533380
0.36900002 23313.16579174  1552.65691528
0.37000002 23441.05007630  1434.94394839
0.37100002 23573.41029193  1841.55489924
0.37200002 23709.76902871  1591.87396799
0.37300002 23849.04051392  1605.51748345
0.37400002 23992.62424993  1349.58517799
0.37500002 24138.29409488  1497.53983659
0.37600002 24288.01626214  2334.92855397
0.37700002 24439.42521596  2217.14476062
0.37800002 24594.48759160  1538.01635440
0.37900002 24751.73201427  2398.44294580
0.38000002 24911.56228196  1566.06543704
0.38100002 25073.10018220  1724.02645020
0.38200002 25237.07933741  1739.84433194
0.38300002 25402.76119131  1463.19911394
0.38400002 25570.79579834  1919.72758551
0.38500002 25739.45697894  1490.31462968
0.38600002 25910.99182238  1955.37309051
0.38700002 26082.77537872  1518.01759896
0.38800002 26255.89900839  1685.23495769
0.38900002 26430.27640781  1546.17124311
0.39000002 26606.43941870  2184.65484417
0.39100002 26782.56463052  2362.22231232
0.39200002 26959.90705625  1907.14391551
0.39300002 27137.75691663  1764.22566073
0.39400002 27316.89038593  2427.78874807
0.39500002 27495.59728100  1959.88626704
0.39600002 27674.63986975  1812.82737056
0.39700002 27853.45911589  1829.13674680
0.39800002 28033.54841713  1845.58874748
0.39900002 28212.76664081  2031.31929438
0.40000002 28391.89062523  2390.88122283
0.40100002 28570.58611287  2239.64835150
0.40200002 28750.21036150  1737.95029870
0.40300002 28928.26980412  1753.05323319
0.40400002 29105.95646512  1945.00563294
0.40500002 29283.07373367  2318.34105734
0.40600002 29459.80766478  1798.52134315
0.40700002 29635.67738380  1813.70354182
0.40800002 29810.97164341  2011.79351668
0.40900002 29984.32921721  2766.05450135
0.41000002 30157.72421683  2231.06854327
0.41100002 30329.61142501  2624.11810483
0.41200002 30499.90990318  2078.41645883
0.41300002 30669.24010760  2666.38386130
0.41400002 30837.19489736  2879.42320998
0.41500002 31004.28346470  2515.06759383
0.41600002 31168.55467104  2534.47114317
0.41700002 31332.21435433  3536.15387959
0.41800002 31495.15916804  2375.36501701
0.41900002 31654.34803706  2193.64642291
0.42000002 31812.59863228  2008.96569882
0.42100002 31969.70682663  2630.78729942
0.42200002 32124.80341331  2242.15076048
0.42300002 32277.33189990  2052.83840611
0.42400002 32428.15016605  3100.94200657
0.42500002 32577.23676237  2081.68552776
0.42600002 32723.07429554  2515.09560954
0.42700002 32867.90995152  2743.15589454
0.42800002 33009.96607361  2124.19141750
0.42900002 33150.61011914  3421.14312641
0.43000002 33288.83296803  3012.97241471
0.43100002 33423.31129854  2815.57987721
0.43200002 33556.48754959  2833.34216052
0.43300002 33686.82181977  2631.61464527
0.43400002 33815.03601656  3089.00368650
0.43500002 33940.50440619  2663.65091202
0.43600002 34064.23732417  3126.07520738
0.43700002 34184.38937283  2695.09738587
0.43800002 34301.41574466  2484.62316721
0.43900002 34416.81888874  2725.81218516
0.44000002 34528.79244953  2740.89567453
0.44100002 34638.81549907  2526.20893406
0.44200002 34745.86080383  3232.40758377
0.44300002 34850.35981280  2321.03407353
0.44400002 34951.47234266  2799.61306732
0.44500002 35049.05842911  3282.69496804
0.44600002 35144.65738425  3063.38420608
0.44700002 35237.51512686  2841.55335449
0.44800002 35326.59419489  3568.86934767
0.44900002 35414.04105090  3107.58224949
0.45000002 35498.23414492  2641.60121909
0.45100002 35578.15813157  2894.63908277
0.45200002 35656.20952975  3149.69141808
0.45300002 35730.76232001  2676.59153224
0.45400002 35802.75577114  3665.30729578
0.45500002 35871.74478152  3189.71569714
0.45600002 35937.24917472  2956.19825722
0.45700002 35999.92259905  3957.11167963
0.45800002 36058.78737242  3227.44191673
0.45900002 36114.97974077  2491.93372022
0.46000002 36168.98750724  2501.08560466
0.46100002 36218.56680044  3011.93615787
0.46200002 36265.79582201  2770.52560313
0.46300002 36309.53223275  3285.28663213
0.46400002 36349.80472117  3296.01869931
0.46500002 36387.83628225  3560.91382735
0.46600002 36422.06430150  3827.04858787
0.46700002 36453.05491242  2559.00457614
0.46800002 36481.73226861  2566.48998674
0.46900002 36506.40342755  2831.07171999
0.47000002 36527.81292477  2580.69010545
0.47100002 36546.54245909  4916.24112461
0.47200002 36561.86742610  3112.87754020
0.47300002 36574.53992790  3120.53989455
0.47400002 36582.93057334  3127.84071227
0.47500002 36589.20642445  3396.21030129
0.47600002 36592.64492411  3141.84464210
0.47700002 36592.01409008  3673.10654846
