# SAXS profile: number of points = 501, q_min = 0, q_max = 0.5, delta_q = 0.001
#    q    intensity    error
0.00000000 1682732.95097189 277.65093691
0.00100000 1682663.93310164 656.23894949
0.00200000 1682456.82110157 832.81615282
0.00300000 1682111.79653018 1211.12053665
0.00400000 1681628.69833456 1765.71020034
0.00500000 1681008.02327628 1815.48873700
0.00600000 1680249.46657405 1764.26201173
0.00700000 1679353.73194230 2418.26947450
0.00800000 1678320.20857747 2945.45209041
0.00900000 1677150.31382452 3018.87069393
0.01000000 1675843.12740434 2765.14127961
0.01100000 1674399.96161179 3315.31206834
0.01200000 1672820.27087780 3588.19963835
0.01300000 1671105.41931406 3860.25368887
0.01400000 1669254.65862077 6009.31703743
0.01500000 1667269.77413462 4801.73716332
0.01600000 1665149.66358660 4246.13183196
0.01700000 1662896.43572474 4938.80263565
0.01800000 1660509.49114077 6625.43316778
0.01900000 1657989.67467370 5471.36617331
0.02000000 1655337.76210409 5735.74560515
0.02100000 1652555.25169564 5998.77583563
0.02200000 1649640.27987758 6260.38514656
0.02300000 1646595.78764733 8891.61765803
0.02400000 1643421.72026036 7395.39807838
0.02500000 1640119.44038947 7675.75933158
0.02600000 1636688.92409493 8617.16757949
0.02700000 1633131.41943866 10288.72841370
0.02800000 1629446.75916773 9214.52184567
0.02900000 1625637.36380953 8778.44216763
0.03000000 1621703.88008229 9803.20040570
0.03100000 1617646.05929411 7764.70144189
0.03200000 1613465.40540423 9583.98494952
0.03300000 1609164.39919501 9848.08657707
0.03400000 1604741.14213581 9267.38052343
0.03500000 1600198.91486922 14689.82671685
0.03600000 1595537.65892481 9740.75785789
0.03700000 1590758.99000873 9974.05932863
0.03800000 1585864.25438652 11132.76758101
0.03900000 1580854.77368101 12330.66780575
0.04000000 1575729.32927380 17443.32448337
0.04100000 1570492.07791325 11872.92065953
0.04200000 1565143.32338597 10095.17490418
0.04300000 1559682.85402229 11323.29804581
0.04400000 1554114.74149304 12588.32999072
0.04500000 1548438.15657442 17094.75804289
0.04600000 1542653.84752228 16313.56519591
0.04700000 1536764.87394725 13277.64912842
0.04800000 1530771.27949141 15751.63719886
0.04900000 1524676.10530091 16009.09985084
0.05000000 1518478.71058104 13939.63521225
0.05100000 1512182.28552553 15333.52908953
0.05200000 1505785.25543140 14365.19200625
0.05300000 1499293.03585159 15787.55640350
0.05400000 1492703.94131080 14777.76970812
0.05500000 1486021.84914078 23716.90981866
0.05600000 1479245.50428368 16441.81454736
0.05700000 1472379.51860071 16652.61313269
0.05800000 1465422.86365675 15562.79153870
0.05900000 1458377.13626203 19688.09225909
0.06000000 1451245.72158906 13278.89897291
0.06100000 1444029.79676291 14772.42551122
0.06200000 1436729.68115373 20365.64418232
0.06300000 1429348.66343048 15093.92259155
0.06400000 1421884.78392935 13863.37729166
0.06500000 1414344.51616316 19602.81591100
0.06600000 1406725.49091015 19792.62858317
0.06700000 1399030.92582739 15697.12772239
0.06800000 1391263.58557195 17279.49454164
0.06900000 1383424.27212440 23241.52885983
0.07000000 1375512.62371498 20508.89417999
0.07100000 1367533.35694267 14769.36094674
0.07200000 1359485.32729492 16375.00153438
0.07300000 1351373.81284557 18000.30003052
0.07400000 1343197.31266093 18133.16457072
0.07500000 1334958.95569198 16740.38608904
0.07600000 1326658.39530060 21452.06725770
0.07700000 1318301.44978274 24678.60429708
0.07800000 1309885.93811115 17074.36400400
0.07900000 1301414.48450222 18740.36945583
0.08000000 1292890.71791924 20421.20984751
0.08100000 1284314.57953225 17376.77707636
0.08200000 1275687.57462143 19058.77325918
0.08300000 1267012.24000975 17560.79047070
0.08400000 1258289.37251041 22460.46635357
0.08500000 1249522.83418700 19342.61438126
0.08600000 1240712.10330904 19429.55245007
0.08700000 1231860.09982937 21138.72030570
0.08800000 1222966.27113597 24489.90072964
0.08900000 1214036.51870025 22945.29128117
0.09000000 1205069.00065784 18094.11189486
0.09100000 1196066.99784880 21457.44294950
0.09200000 1187031.32554209 18214.99654631
0.09300000 1177965.17416207 16609.30973619
0.09400000 1168867.26182729 21653.26704300
0.09500000 1159741.76767816 20040.33868743
0.09600000 1150589.77221399 18415.19016994
0.09700000 1141413.96095558 20134.54321784
0.09800000 1132215.67706233 18494.74395439
0.09900000 1122996.14881671 20213.93162921
0.10000000 1113755.79485265 20248.08130263
0.10100000 1104496.76517647 18588.68143218
0.10200000 1095221.89725439 18613.29701934
0.10300000 1085931.89246987 16940.53831943
0.10400000 1076629.44711901 20348.29750784
0.10500000 1067316.92932703 22061.44196717
0.10600001 1057991.07479189 18678.83330436
0.10700001 1048659.30302443 18687.10965927
0.10800001 1039319.36977912 18692.15974516
0.10900001 1029974.88629566 16994.58642374
0.11000001 1020626.35864217 23790.80153977
0.11100001 1011275.87232721 25484.15318227
0.11200001 1001925.52498002 22077.42998228
0.11300001 992574.52548573 18670.32770340
0.11400001 983227.18633014 20352.80371533
0.11500001 973884.23713829 18640.14517655
0.11600001 964545.96052579 22006.11712570
0.11700001 955215.82450317 21979.51715694
0.11800001 945891.86893803 16884.17065576
0.11900001 936578.68513620 16858.41712651
0.12000001 927275.91357468 31977.11138590
0.12100001 917987.86522606 21838.93234252
0.12200001 908711.96127952 18442.31012301
0.12300001 899452.33460665 23421.73989666
0.12400001 890208.58987418 18360.55303126
0.12500001 880983.18688770 21645.75792179
0.12600001 871778.37753493 26571.80619942
0.12700001 862593.94312980 23186.52628403
0.12800001 853430.36569735 19816.65402544
0.12900001 844290.87716646 18110.04016878
0.13000001 835175.95706587 18052.32916287
0.13100001 826085.58743556 19627.79448268
0.13200001 817023.56375772 17929.58295187
0.13300001 807990.24160449 17864.66508407
0.13400001 798985.16224459 16179.45029824
0.13500001 790011.20855899 19339.47529735
0.13600001 781068.12295150 17656.04575181
0.13700001 772158.59724430 17582.05208830
0.13800001 763281.66736071 23871.63527239
0.13900001 754442.12947402 22180.59965253
0.14000001 745636.85965380 15770.22032541
0.14100001 736869.62962542 18834.38862151
0.14200001 728139.05260134 17180.44175645
0.14300001 719450.61572763 23310.20104906
0.14400001 710797.77047519 17005.83746078
0.14500001 702189.96936558 16915.75715997
0.14600001 693621.87482168 19882.67197972
0.14700001 685099.43571325 15209.20819035
0.14800001 676618.77456652 18146.91639002
0.14900001 668182.30904131 15034.10266275
0.15000001 659792.14851176 19427.58072958
0.15100001 651448.45028610 20794.23551431
0.15200001 643152.99699186 20664.50676844
0.15300001 634905.62687432 21999.48100933
0.15400001 626704.88092506 16027.97808603
0.15500001 618555.50812679 27500.97918917
0.15600001 610455.00502303 14376.21604678
0.15700001 602408.93444586 17132.51090424
0.15800001 594409.73612635 18429.67473845
0.15900001 586466.27364476 21112.78684775
0.16000001 578573.77351907 15369.81301903
0.16100001 570738.03900750 15255.82850281
0.16200001 562954.14150854 20646.34411446
0.16300001 555226.27236480 16390.28033396
0.16400001 547553.80497097 16262.34877538
0.16500001 539937.68848497 20166.67361701
0.16600001 532377.66170353 16003.27326637
0.16700001 524874.65767005 13226.84199779
0.16800001 517427.83841175 17051.83521999
0.16900001 510041.74031913 14306.67149148
0.17000001 502713.07430557 18052.42735074
0.17100001 495443.12939089 15338.92001027
0.17200001 488232.89737466 20271.43085627
0.17300001 481082.58943944 12556.25617733
0.17400001 473993.00898098 14930.78048802
0.17500001 466963.19646851 12327.82896898
0.17600001 459992.51845408 17097.92271846
0.17700001 453085.58027694 13307.12412124
0.17800001 446239.13867563 20368.58644690
0.17900001 439454.23498310 17797.89735747
0.18000001 432732.21553993 12923.54822754
0.18100001 426073.20779533 12794.97903448
0.18200001 419474.06689980 17271.84552049
0.18300001 412940.24410118 13676.58153070
0.18400001 406467.61695084 14663.31997421
0.18500001 400059.22999195 15626.31426171
0.18600001 393713.70844709 15461.13806115
0.18700001 387431.18776002 12018.11601211
0.18800001 381211.76674175 16211.03114660
0.18900001 375058.02039594 11758.06949495
0.19000001 368964.06462370 14799.14933130
0.19100001 362938.55037164 11497.89381905
0.19200001 356973.66922971 12401.26585502
0.19300001 351074.75471636 11237.90342949
0.19400001 345238.62816713 14137.52249150
0.19500001 339467.23873232 11976.40474842
0.19600001 333758.50546971 10848.82073297
0.19700001 328114.47867786 10719.50052498
0.19800001 322534.38478404 11553.18220895
0.19900001 317018.85139862 10461.62259057
0.20000001 311565.16700312 12211.79729783
0.20100001 306176.99906818 10204.87986125
0.20200001 300851.41941878 10993.11138513
0.20300001 295589.92601922 9045.05216370
0.20400001 290392.05214700 9822.51162814
0.20500001 285256.47528205 9695.86805313
0.20600001 280184.56907450 13049.59692147
0.20700001 275175.68937689 9444.03010583
0.20800001 270229.44184947 11860.37076342
0.20900001 265347.95365097 10865.99921566
0.21000001 260526.72411669 11543.93969132
0.21100001 255767.73230058 8946.75569882
0.21200001 251071.08938056 9626.06602192
0.21300001 246435.98251676 8701.65495404
0.21400001 241863.67786718 9360.12477597
0.21500001 237352.92917124 8459.25879560
0.21600001 232901.65880820 7580.94935262
0.21700001 228512.41840320 8219.59207858
0.21800001 224183.59244781 11046.64704016
0.21900001 219913.99952173 7982.87856008
0.22000001 215704.31022239 7150.59822197
0.22100001 211556.71098383 11976.22597507
0.22200001 207467.20697353 8327.73408169
0.22300001 203436.68976630 10936.75695899
0.22400001 199463.23593803 10097.82679685
0.22500001 195551.43217058 7955.03263687
0.22600001 191695.89333207 7179.97002428
0.22700001 187899.02163618 7068.76152823
0.22800001 184158.74463605 8223.60913062
0.22900001 180475.14788048 6849.03218596
0.23000001 176848.33361314 7353.35405939
0.23100001 173279.52607659 6633.14057191
0.23200001 169764.50341371 6526.59664241
0.23300001 166306.28030715 7004.82085783
0.23400001 162902.86054125 5742.32610566
0.23500001 159553.15634663 6777.81840217
0.23600001 156258.39061963 5554.98604926
0.23700001 153017.50687651 7647.81535541
0.23800001 149830.10039129 6445.69122371
0.23900001 146695.75698272 6337.25700140
0.24000001 143613.76469009 5710.80162302
0.24100001 140584.99353860 11227.11811505
0.24200001 137607.37924831 8025.26273737
0.24300001 134681.24252461 5422.26708053
0.24400001 131805.17637604 5328.22450705
0.24500001 128979.97197889 6187.16954851
0.24600001 126204.93454340 6546.25026444
0.24700001 123480.07125316 5971.49652829
0.24800001 120803.27442510 4512.00251323
0.24900001 118174.95039976 5317.87301956
0.25000001 115595.35945607 6093.03168518
0.25100001 113062.73642509 4273.77163906
0.25200001 110578.40587474 5035.74084177
0.25300001 108140.96809289 4944.20529512
0.25400001 105748.89672602 4449.38504025
0.25500001 103402.87035052 4367.73745025
0.25600001 101102.57123658 4677.00516669
0.25700001 98846.80306393  3825.37145957
0.25800001 96635.29645546  4505.13773391
0.25900001 94468.13814252  4421.10907425
0.26000001 92344.72668732  3976.82584295
0.26100001 90262.31882711  3902.04022753
0.26200001 88225.01341354  3828.52463823
0.26300001 86228.11527710  5121.95028982
0.26400001 84272.59881992  4019.80315392
0.26500001 82359.01890205  4600.57501356
0.26600001 80485.12412709  3223.42937382
0.26700001 78652.26085960  4110.36734703
0.26800001 76858.75238930  3101.25080566
0.26900001 75103.88593172  4258.39053384
0.27000001 73388.21097580  3878.20019254
0.27100001 71710.56317669  3218.37022767
0.27200001 70070.96739134  4017.16875065
0.27300001 68468.07198869  3095.44168110
0.27400001 66900.82235837  3311.59086346
0.27500001 65371.99567958  2706.40074922
0.27600001 63877.06385334  3981.13819307
0.27700001 62418.91963835  2602.86907210
0.27800001 60994.63265514  3318.41314665
0.27900001 59605.28065049  2503.42190580
0.28000001 58249.35781460  3437.29476732
0.28100001 56926.87603774  2889.60836444
0.28200001 55637.82104971  2598.00817688
0.28300001 54381.14729252  3243.29177803
0.28400001 53156.59498185  2954.17790594
0.28500001 51963.97582596  2229.25466845
0.28600001 50801.57679401  2843.11037985
0.28700001 49670.45784369  4076.95137278
0.28800001 48568.95250177  2526.55702873
0.28900001 47498.68610207  2892.67012054
0.29000001 46456.22446262  2838.94001129
0.29100001 45443.87913257  2587.57460029
0.29200001 44459.49898283  3712.59063830
0.29300001 43503.03189274  2685.87731620
0.29400001 42573.91282954  2637.45402464
0.29500001 41673.04748379  2220.34007504
0.29600001 40797.84916089  2362.80754600
0.29700001 39948.67625102  2321.41768684
0.29800001 39125.94805493  2105.75862400
0.29900001 38328.67404293  1724.79041358
0.30000001 37556.19882911  1865.22870315
0.30100001 36809.28027856  1834.20652311
0.30200001 36085.10224664  1804.07477223
0.30300001 35385.24700271  2743.06447751
0.30400001 34709.57254275  1905.55562281
0.30500001 34055.56738352  1719.46567860
0.30600001 33424.40873002  1847.03291386
0.30700001 32816.07267537  1667.71289232
0.30800001 32229.02640832  2838.24934502
0.30900001 31663.43161067  2650.22935129
0.31000001 31119.54549726  1451.72686618
0.31100001 30594.63918524  1575.01209983
0.31200001 30091.10843215  1977.88865089
0.31300001 29606.93660879  1533.93545833
0.31400001 29143.51200236  1652.43720877
0.31500001 28698.13723442  1496.32094625
0.31600002 28271.70597619  1747.61558766
0.31700002 27863.29259463  1461.98703166
0.31800002 27473.18380033  1314.59190709
0.31900002 27101.02005806  1691.10373169
0.32000002 26745.80863346  1931.71612002
0.32100002 26408.02852065  1275.50783794
0.32200002 26086.88041170  1769.47318211
0.32300002 25781.39691884  1754.16632942
0.32400002 25492.10208231  1864.11005304
0.32500002 25217.90527495  1233.15562634
0.32600002 24959.70373391  1224.27352612
0.32700002 24715.93495061  1216.02405715
0.32800002 24487.79672789  1208.47282575
0.32900002 24272.53240962  1682.08657564
0.33000002 24072.96466391  1553.78957781
0.33100002 23884.59860273  1189.45306674
0.33200002 23711.98604609  1539.73788682
0.33300002 23551.20646065  1769.87324933
0.33400002 23403.85834457  1411.25272501
0.33500002 23268.39509147  1641.81803540
0.33600002 23145.12982789  1403.98364185
0.33700002 23033.05198425  1634.88610727
0.33800002 22933.82556864  1282.80359393
0.33900002 22844.68524059  1398.09480293
0.34000002 22767.13667889  1746.80864441
0.34100002 22700.17832441  1280.97112351
0.34200002 22644.60842691  1514.58470636
0.34300002 22597.71804856  1749.06345979
0.34400002 22561.67790178  1284.32357538
0.34500002 22534.66842390  1169.54934659
0.34600002 22518.35997245  1172.08069208
0.34700002 22508.98015979  1527.45946599
0.34800002 22510.20912526  1296.25045387
0.34900002 22519.44619579  1891.63357004
0.35000002 22537.20495349  1898.53423520
0.35100002 22563.19845175  1310.47062815
0.35200002 22596.14448464  1435.75908856
0.35300002 22637.25173076  1202.03812384
0.35400002 22686.15033742  1932.86010030
0.35500002 22741.79776858  1700.17688171
0.35600002 22804.05448203  1587.50432796
0.35700002 22873.25103526  1473.95236653
0.35800002 22949.40955266  1235.82576295
0.35900002 23031.27659552  2238.64019112
0.36000002 23119.98538349  1377.14199460
0.36100002 23213.74088627  1386.55680881
0.36200002 23314.20174367  1904.18751761
0.36300002 23418.48365000  1662.24404821
0.36400002 23528.73669131  1417.01823435
0.36500002 23643.53878626  1557.63640902
0.36600002 23763.64428146  1831.46415152
0.36700002 23888.04989002  1582.34449967
0.36800002 24018.24729689  1728.23306611
0.36900002 24151.67199889  2144.66857509
0.37000002 24288.22418867  1351.63974013
0.37100002 24429.24767647  1635.78250190
0.37200002 24574.45446427  1924.91710937
0.37300002 24722.45388441  1386.92972861
0.37400002 24874.89794153  1958.89830569
0.37500002 25029.35032175  2117.48313753
0.37600002 25187.94643481  1566.81628220
0.37700002 25348.14574426  1580.96392496
0.37800002 25511.88296326  1885.45579972
0.37900002 25677.98786128  1610.00991517
0.38000002 25846.59609120  1477.13303659
0.38100002 26016.88627630  1639.84441968
0.38200002 26189.52962803  1955.96511293
0.38300002 26363.91345377  1822.27378425
0.38400002 26540.57917820  2145.80592821
0.38500002 26717.93166183  2320.45247476
0.38600002 26897.78985078  2185.98348473
0.38700002 27077.97668151  1733.53214928
0.38800002 27259.45190837  1749.64800363
0.38900002 27442.12948712  2247.51051147
0.39000002 27626.45522656  1782.32084338
0.39100002 27810.63508054  2289.37158829
0.39200002 27996.14055711  2310.52158964
0.39300002 28181.75042331  2498.31229339
0.39400002 28368.72492153  2017.01643748
0.39500002 28554.97166117  1865.78193674
0.39600002 28741.56829413  2225.02861491
0.39700002 28927.82004397  1899.69003229
0.39800002 29115.33762821  2091.06364753
0.39900002 29301.77436512  2461.34916329
0.40000002 29487.73775454  2305.79376296
0.40100002 29673.45187670  2683.96384941
0.40200002 29859.79257796  2527.03436560
0.40300002 30044.40831442  2002.76035313
0.40400002 30228.59170163  1836.38703288
0.40500002 30412.04398690  2222.51227987
0.40600002 30594.92431705  2241.38426167
0.40700002 30776.76524819  2448.59955916
0.40800002 30957.66464483  2279.10337914
0.40900002 31136.80837154  2489.38794726
0.41000002 31315.59710410  2702.84931412
0.41100002 31492.83272733  2335.50858572
0.41200002 31668.03228704  2158.01816245
0.41300002 31842.38896722  2175.15369342
0.41400002 32014.93090456  2590.80840621
0.41500002 32186.53428238  2610.97178470
0.41600002 32355.17036304  2630.96080273
0.41700002 32522.95731697  2650.94637652
0.41800002 32689.82722085  2054.55573818
0.41900002 32852.81154112  2690.64539271
0.42000002 33014.61293335  2501.84748664
0.42100002 33175.02604930  2519.97509811
0.42200002 33333.16700880  2960.98536570
0.42300002 33488.62798818  2555.85220917
0.42400002 33642.12113051  2573.62238844
0.42500002 33793.71861147  2159.41872160
0.42600002 33941.70439733  2826.15615056
0.42700002 34088.54335708  2407.33304595
0.42800002 34232.53369175  2863.72274169
0.42900002 34374.69996808  3104.03555421
0.43000002 34514.34221648  2900.75802904
0.43100002 34650.04038377  3143.45181258
0.43200002 34784.02541459  3162.91158083
0.43300002 34915.17095760  3409.46660558
0.43400002 35043.89899310  2743.93742119
0.43500002 35169.48841566  2990.11004680
0.43600002 35293.28698227  2544.82257845
0.43700002 35413.32088476  3024.65188010
0.43800002 35529.83255046  2807.56750119
0.43900002 35644.56732305  2352.54155481
0.44000002 35755.70461412  2838.28796677
0.44100002 35864.65743533  3566.74035097
0.44200002 35970.33111820  3107.29720090
0.44300002 36073.26531185  3843.96733380
0.44400002 36172.54772258  2655.96944240
0.44500002 36268.09799311  2911.60304487
0.44600002 36361.48900216  3657.05692970
0.44700002 36452.00305744  2694.53219370
0.44800002 36538.15843801  2706.92959617
0.44900002 36622.71729852  2719.23688829
0.45000002 36703.76295281  3724.51452215
0.45100002 36780.43192511  2743.08474298
0.45200002 36854.84127841  3005.14390026
0.45300002 36925.46222590  3017.54891611
0.45400002 36993.41595880  3534.72106238
0.45500002 37058.08364885  3041.72765006
0.45600002 37119.24819604  3053.42950132
0.45700002 37177.09411120  4086.50637838
0.45800002 37231.04002179  3076.02867239
0.45900002 37282.15161401  2829.71544162
0.46000002 37330.63758286  3613.97919568
0.46100002 37374.55132250  3108.06783528
0.46200002 37415.97146685  2858.39327568
0.46300002 37453.85767396  2867.46747942
0.46400002 37487.88916274  3137.73647164
0.46500002 37519.57470316  3671.66575447
0.46600002 37547.03436176  3419.22084621
0.46700002 37571.19750663  3692.49746596
0.46800002 37592.82586824  3966.98313777
0.46900002 37610.28162654  3181.82997641
0.47000002 37624.14306234  2923.96041668
0.47100002 37635.25327203  3197.49126954
0.47200002 37642.74778282  4006.12962267
0.47300002 37647.66793676  3747.44904404
0.47400002 37647.58943172  2682.39087415
0.47500002 37645.57566168  4300.63076743
0.47600002 37640.47268885  3501.12873310
0.47700002 37630.92534212  3507.57871739
