# SAXS profile: number of points = 501, q_min = 0, q_max = 0.5, delta_q = 0.001
#    q    intensity    error
0.00000000 1682732.95097189 328.13292544
0.00100000 1682663.92518115 555.27910850
0.00200000 1682456.79124028 908.52669604
0.00300000 1682111.72257044 1312.04719034
0.00400000 1681628.57594538 1513.46577586
0.00500000 1681007.83329965 2118.06995379
0.00600000 1680249.18792404 2293.54023489
0.00700000 1679353.35374892 2216.74651908
0.00800000 1678319.71053197 2492.30487536
0.00900000 1677149.68394710 2515.72463346
0.01000000 1675842.36700959 2765.14002496
0.01100000 1674399.01613145 3918.09386834
0.01200000 1672819.15312677 5545.39573575
0.01300000 1671104.10858922 3860.25066110
0.01400000 1669253.12789145 3755.81970425
0.01500000 1667268.03197571 6802.45387337
0.01600000 1665147.69581152 4670.73949555
0.01700000 1662894.19010039 4938.79596615
0.01800000 1660506.97452973 4732.44509036
0.01900000 1657986.90870575 7958.33752089
0.02000000 1655334.66186500 6778.59574697
0.02100000 1652551.83996591 5998.76345105
0.02200000 1649636.56907768 6829.49570626
0.02300000 1646591.71119048 5927.73043011
0.02400000 1643417.29081136 6779.09663371
0.02500000 1640114.64442714 7675.73688647
0.02600000 1636683.72015002 9279.99711770
0.02700000 1633125.83593121 8916.86747259
0.02800000 1629440.76449807 9214.48794581
0.02900000 1625630.92096412 9509.94132428
0.03000000 1621697.00368274 8294.98055512
0.03100000 1617638.69605234 10094.06592783
0.03200000 1613457.54724892 10382.59979475
0.03300000 1609156.04435845 13130.71392730
0.03400000 1604732.37434357 10109.81442484
0.03500000 1600189.56660899 12097.43368220
0.03600000 1595527.79699448 12397.25155557
0.03700000 1590748.56095409 9973.99393845
0.03800000 1585853.25039014 12060.41452737
0.03900000 1580843.20423280 12330.57756405
0.04000000 1575717.19316574 11628.79342443
0.04100000 1570479.34221738 9894.02031472
0.04200000 1565129.97491045 11104.59768716
0.04300000 1559668.80979412 11323.19608470
0.04400000 1554100.08158092 11539.19364164
0.04500000 1548422.83383112 10684.11804987
0.04600000 1542637.87391974 13050.71702005
0.04700000 1536748.19138261 17703.33998807
0.04800000 1530753.93687460 12376.14615547
0.04900000 1524658.05532476 16008.91032608
0.05000000 1518459.92216111 13939.46273455
0.05100000 1512162.74172869 16512.81790891
0.05200000 1505764.99903669 13167.91553022
0.05300000 1499272.04400062 13358.51453479
0.05400000 1492682.11763751 13546.09084927
0.05500000 1485999.23188500 14978.87295615
0.05600000 1479222.09629694 16441.55436757
0.05700000 1472355.31866389 15371.39024436
0.05800000 1465397.82726186 19453.15706522
0.05900000 1458351.30871231 23625.29230458
0.06000000 1451218.94995011 17262.25021613
0.06100000 1444002.17467321 20143.83127804
0.06200000 1436701.29187411 13576.82784284
0.06300000 1429319.32113325 20582.19918665
0.06400000 1421854.59087730 16635.69949126
0.06500000 1414313.43165559 22402.72580537
0.06600000 1406693.53219333 18378.45185801
0.06700000 1398998.02235064 14269.78049579
0.06800000 1391229.71246657 20158.91947726
0.06900000 1383389.44181750 14525.58981916
0.07000000 1375476.87076108 16113.71229555
0.07100000 1367496.67287361 23630.34361405
0.07200000 1359447.65373622 14885.95250577
0.07300000 1351335.19620539 17999.78565685
0.07400000 1343157.64745852 19643.68151467
0.07500000 1334918.27808764 15218.06908351
0.07600000 1326616.70874107 21451.39318600
0.07700000 1318258.74348268 16965.99082413
0.07800000 1309842.20893912 17073.79399422
0.07900000 1301369.72881381 20301.36872171
0.08000000 1292844.93179886 18849.67998989
0.08100000 1284267.75706280 20535.44239892
0.08200000 1275639.60984894 17469.88527666
0.08300000 1266963.23010065 19156.48493817
0.08400000 1258239.28054915 17646.80673802
0.08500000 1249471.60157699 19341.82130042
0.08600000 1240659.89535368 27524.04107072
0.08700000 1231806.76369829 16259.85004434
0.08800000 1222911.89217576 17958.46198000
0.08900000 1213980.95304443 22944.24109022
0.09000000 1205012.33642061 18093.26108130
0.09100000 1196009.20732964 18155.42062023
0.09200000 1186972.38278619 19869.91862146
0.09300000 1177905.11408276 18269.30917794
0.09400000 1168806.07957979 18321.03615846
0.09500000 1159679.45319805 18369.32340206
0.09600000 1150526.23512491 18414.17325878
0.09700000 1141349.30164151 23488.96973206
0.09800000 1132149.82673502 20174.91086100
0.09900000 1122929.20505029 26950.30218848
0.10000000 1113687.63036191 18559.60523279
0.10100000 1104427.52582369 20277.29032780
0.10200000 1095151.42252289 21996.11735599
0.10300000 1085860.30418465 22021.24800476
0.10400000 1076556.61274432 23738.07442777
0.10500000 1067242.89384606 23756.82793476
0.10600001 1057915.85297245 22073.41531090
0.10700001 1048582.87801177 20384.45210779
0.10800001 1039241.75483402 22089.08453855
0.10900001 1029896.10867831 25489.92988949
0.11000001 1020546.34114914 20390.51685593
0.11100001 1011194.68255604 20385.68575995
0.11200001 1001843.19395610 22075.61581808
0.11300001 992491.02893987 16971.59739391
0.11400001 983142.42912843 18655.12847108
0.11500001 973798.29618298 23721.72761203
0.11600001 964458.84024837 27082.00550951
0.11700001 955127.49406474 16905.75744112
0.11800001 945802.33235918 25323.85864163
0.11900001 936487.97595086 21913.81966943
0.12000001 927184.07935209 16828.39183294
0.12100001 917894.80163548 16797.47566123
0.12200001 908617.73978563 23469.59732435
0.12300001 899356.85340185 25092.05739211
0.12400001 890111.97988998 16689.60040931
0.12500001 880885.35066817 24973.10086819
0.12600001 871679.34507614 18266.04153683
0.12700001 862493.78589521 23183.83405743
0.12800001 853328.98453553 23116.68328054
0.12900001 844188.40631807 19754.00963889
0.13000001 835072.20681872 19691.00356492
0.13100001 825980.88991650 24531.63358688
0.13200001 816917.66038426 22816.51133011
0.13300001 807883.21302781 16238.45334739
0.13400001 798876.89606133 21030.43528031
0.13500001 789901.85004827 19336.79820088
0.13600001 780957.70368629 17653.54972421
0.13700001 772046.94813322 22373.92161190
0.13800001 763168.95623152 19094.48818533
0.13900001 754328.20510801 19009.07166516
0.14000001 745521.89455231 22074.90433876
0.14100001 736753.63836893 17262.13856112
0.14200001 728022.00684344 20300.89461833
0.14300001 719332.46157347 21752.61466400
0.14400001 710678.60262465 24731.61653793
0.14500001 702069.71527896 15375.32748990
0.14600001 693500.54067341 18350.02517187
0.14700001 684977.10547169 16727.14170475
0.14800001 676495.43770343 19655.57586980
0.14900001 668057.93504023 15031.30424759
0.15000001 659666.77108817 20918.03429818
0.15100001 651322.00095256 14850.14232242
0.15200001 643025.66089210 17708.92753660
0.15300001 634777.27878885 19062.36258156
0.15400001 626575.62176187 21851.82584016
0.15500001 618425.36386494 20259.61587633
0.15600001 610323.94917971 15810.44264967
0.15700001 602276.88176085 21410.94415713
0.15800001 594276.74670657 18425.55140130
0.15900001 586332.49613706 15479.17862864
0.16000001 578439.07582120 18160.09564261
0.16100001 570602.52863758 20798.46315062
0.16200001 562817.78393143 23393.52229343
0.16300001 555089.11498023 15020.71216046
0.16400001 547415.83194597 16258.25097634
0.16500001 539798.83987284 17473.28927162
0.16600001 532238.11244588 14665.82188086
0.16700001 524734.31637150 14545.63593659
0.16800001 517286.73201605 17047.18505850
0.16900001 509899.93021258 16903.18348468
0.17000001 502570.49260113 12890.93374392
0.17100001 495299.82383037 16612.35687573
0.17200001 488089.00768854 12665.91034764
0.17300001 480938.04737960 12552.48362939
0.17400001 473847.76082648 24877.00861823
0.17500001 466817.31785928 14788.77332822
0.17600001 459846.17533160 12208.91653167
0.17700001 452938.55407791 15721.49795458
0.17800001 446091.63608890 17966.34149207
0.17900001 439306.08642750 13047.39138317
0.18000001 432583.54702185 18791.43017024
0.18100001 425924.06716546 20929.90964917
0.18200001 419324.38456685 13812.54588011
0.18300001 412790.12409840 19368.11353763
0.18400001 406317.05518247 14657.88845816
0.18500001 399908.25797597 13388.92910956
0.18600001 393562.41851901 14351.25426930
0.18700001 387279.45900650 17474.05001593
0.18800001 381059.69333482 16204.56422467
0.18900001 374905.61656142 14958.73480756
0.19000001 368811.33962480 12679.73445540
0.19100001 362785.59911618 11493.04832305
0.19200001 356820.59243796 16527.93062269
0.19300001 350921.28133844 15317.71465423
0.19400001 345085.04120365 11103.11172539
0.19500001 339313.35873156 14963.71982717
0.19600001 333604.53046214 15772.82294562
0.19700001 327960.35644500 9740.42304673
0.19800001 322380.16880533 10585.35334297
0.19900001 316864.50030381 11407.12255004
0.20000001 311410.73324809 9389.03405117
0.20100001 306022.55109790 9272.48373651
0.20200001 300697.00449380 14649.95875135
0.20300001 295435.53078094 9944.36043610
0.20400001 290237.60680398 8924.80683106
0.20500001 285102.08083222 11452.55112836
0.20600001 280030.31683985 9564.43592376
0.20700001 275021.59564391 12871.01128454
0.20800001 270075.46010452 9313.55268196
0.20900001 265194.20031717 10024.34124585
0.21000001 260373.13839166 9064.89124162
0.21100001 255614.31831791 8941.38927745
0.21200001 250917.94268636 9620.19437738
0.21300001 246283.13756565 11858.53363440
0.21400001 241711.18762967 11692.77925438
0.21500001 237200.78277226 15370.61145033
0.21600001 232749.84173177 9091.20924786
0.21700001 228361.04178300 9707.62834517
0.21800001 224032.51536445 9567.30902099
0.21900001 219763.39645603 9427.85015373
0.22000001 215554.19767826 10718.43298635
0.22100001 211407.12703123 7743.84342931
0.22200001 207318.14467064 7628.27149385
0.22300001 203288.18848555 10245.72518415
0.22400001 199315.37045397 10090.34110637
0.22500001 195404.14802063 6624.20093114
0.22600001 191549.26997809 7826.70354142
0.22700001 187753.05548990 7705.38576169
0.22800001 184013.52778201 8217.12447169
0.22900001 180330.64093968 6221.40740664
0.23000001 176704.53125425 7347.37475702
0.23100001 173136.52592876 7832.69680345
0.23200001 169622.33674145 8299.62132928
0.23300001 166164.93237777 5832.38940230
0.23400001 162762.39528239 8032.32458708
0.23500001 159413.50245724 6771.88590467
0.23600001 156119.70198081 9435.09463546
0.23700001 152879.88271226 7095.15569226
0.23800001 149693.41926127 6439.81120121
0.23900001 146560.12573987 5276.16477620
0.24000001 143479.10618625 7261.47790756
0.24100001 140451.38952438 6118.06281707
0.24200001 137474.89515830 6514.24821521
0.24300001 134549.95721484 4924.52866701
0.24400001 131674.99700334 4839.05636878
0.24500001 128851.03010665 5705.52388302
0.24600001 126077.13273205 6539.62118417
0.24700001 123353.55365235 6424.25337812
0.24800001 120677.95461185 4958.05399978
0.24900001 118051.02211545 5312.29624651
0.25000001 115472.71365937 5217.05744994
0.25100001 112941.43862230 4696.10524008
0.25200001 110458.46526705 4191.89895520
0.25300001 108022.42414256 4115.65455454
0.25400001 105631.81468467 4444.45881313
0.25500001 103287.18976739 5949.34241208
0.25600001 100988.40990416 3893.10338600
0.25700001 98734.20054094  5731.52061258
0.25800001 96524.15871630  4874.95286662
0.25900001 94358.59977525  3679.98556535
0.26000001 92236.75730278  4333.28306312
0.26100001 90155.95014932  4960.38061192
0.26200001 88120.25081009  3476.34405895
0.26300001 86125.08698405  4092.66432714
0.26400001 84171.17780849  4349.54581907
0.26500001 82259.33390933  4266.79185178
0.26600001 80387.13836771  3863.40605277
0.26700001 78556.01608343  3473.74719559
0.26800001 76764.31206825  4336.41619394
0.26900001 75011.29808315  4860.73234581
0.27000001 73297.40040891  4469.30920143
0.27100001 71621.59058027  3506.59324075
0.27200001 69983.81763953  3152.42121476
0.27300001 68382.83873519  4215.80220753
0.27400001 66817.56899374  3307.46982172
0.27500001 65290.60645311  2973.33435859
0.27600001 63797.63166784  3711.10840975
0.27700001 62341.44824534  3119.56621784
0.27800001 60919.19730915  3824.20279207
0.27900001 59531.84293061  3000.40502571
0.28000001 58177.96197755  2452.20121341
0.28100001 56857.55245291  3126.59695736
0.28200001 55570.54072636  2358.96956548
0.28300001 54315.96154860  3008.01809293
0.28400001 53093.48459064  3177.64520315
0.28500001 51903.02481344  2671.96784386
0.28600001 50742.70065642  3058.26271332
0.28700001 49613.78640453  3000.64194377
0.28800001 48514.36701901  3154.64686473
0.28900001 47446.36592802  2476.70041867
0.29000001 46406.11259254  2025.62691055
0.29100001 45396.01323647  3380.18730559
0.29200001 44413.84300022  1951.98849226
0.29300001 43459.59559538  2874.85238472
0.29400001 42532.72066282  2823.10946763
0.29500001 41634.17478672  2218.26893764
0.29600001 40761.22529981  2905.46027691
0.29700001 39914.35434584  2319.42324083
0.29800001 39093.96149217  1928.70068152
0.29900001 38299.00785875  1723.45543523
0.30000001 37528.82639478  1694.42659194
0.30100001 36784.23189025  2166.22351857
0.30200001 36062.41455135  1966.84418274
0.30300001 35364.91802363  2418.96050733
0.30400001 34691.59279964  2856.85280230
0.30500001 34040.00724910  1718.68004737
0.30600001 33411.23515883  1692.44619710
0.30700001 32805.32037693  1970.28763512
0.30800001 32220.62768028  1792.11139642
0.30900001 31657.43731779  1766.48508597
0.31000001 31115.95232256  1887.02701794
0.31100001 30593.47312209  1574.95207089
0.31200001 30092.32019993  1977.96830039
0.31300001 29610.60012227  1813.05713133
0.31400001 29149.57996064  1652.78126202
0.31500001 28706.64229614  1632.83389111
0.31600002 28282.67479485  1613.80950020
0.31700002 27876.70181355  1329.71873947
0.31800002 27489.01235534  1315.34930348
0.31900002 27119.27173613  1692.24263646
0.32000002 26766.47867648  1417.68661023
0.32100002 26431.11574604  1531.94754118
0.32200002 26112.40520486  1518.17531050
0.32300002 25809.39105050  1254.33646445
0.32400002 25522.47817815  1741.90921814
0.32500002 25250.73018460  1481.71291739
0.32600002 24994.89374969  1471.19951577
0.32700002 24753.62775807  1705.02996071
0.32800002 24527.85301135  2299.85424651
0.32900002 24315.01480097  1323.95261861
0.33000002 24117.83589964  1915.92097459
0.33100002 23931.88835233  1430.16971566
0.33200002 23761.63901103  1899.03027969
0.33300002 23603.22358693  2010.28664810
0.33400002 23458.22962413  1532.40892276
0.33500002 23325.20142271  1410.70824885
0.33600002 23204.23106023  1759.46090346
0.33700002 23094.51277229  1639.24859421
0.33800002 22997.59985055  1754.14201167
0.33900002 22910.80445733  1402.14129919
0.34000002 22835.56204862  1168.03905410
0.34100002 22770.92911587  2102.66769414
0.34200002 22717.63820789  1402.58704938
0.34300002 22673.00834564  1520.90547185
0.34400002 22639.26408841  1288.74016927
0.34500002 22614.45875065  1173.69046475
0.34600002 22600.38583987  1529.25518028
0.34700002 22593.23196174  1297.30344068
0.34800002 22596.67681285  1301.22969590
0.34900002 22608.09929362  1899.08043061
0.35000002 22627.97190501  1429.63533267
0.35100002 22656.15610488  1794.36764849
0.35200002 22691.21055557  1321.64962141
0.35300002 22734.41285239  1569.35659353
0.35400002 22785.41576426  1455.98813630
0.35500002 22843.12986785  1463.78783126
0.35600002 22907.45674056  1349.36380321
0.35700002 22978.69914635  1480.74744313
0.35800002 23056.82950589  2607.38168817
0.35900002 23140.68894873  1374.55698866
0.36000002 23231.34970793  1509.57317552
0.36100002 23327.08343598  1266.66069057
0.36200002 23429.44952096  1403.30694553
0.36300002 23535.61390957  1542.05349640
0.36400002 23647.70831830  1424.18330093
0.36500002 23764.37603405  1435.13073668
0.36600002 23886.31877203  1577.93029282
0.36700002 24012.50429840  2518.43157011
0.36800002 24144.44728088  1737.31378639
0.36900002 24279.69961241  1751.78041002
0.37000002 24417.90375608  2310.05589427
0.37100002 24560.64248812  1507.53230733
0.37200002 24707.46144735  1382.38253346
0.37300002 24857.10619554  1673.38046835
0.37400002 25011.16153934  1688.25348388
0.37500002 25167.19547449  2129.14483800
0.37600002 25327.29515912  1432.25860910
0.37700002 25489.04634234  2023.32059450
0.37800002 25654.22112545  1458.44254007
0.37900002 25821.75458744  1913.39210557
0.38000002 25991.81486297  2525.23489264
0.38100002 26163.50201525  1649.08561014
0.38200002 26337.48421782  1513.08853999
0.38300002 26513.22238317  1985.31018610
0.38400002 26691.13258993  1695.55427810
0.38500002 26869.73929157  1866.90957442
0.38600002 27050.77031480  1727.32702028
0.38700002 27232.21852510  1901.89823190
0.38800002 27414.81665933  1759.62009064
0.38900002 27598.58895513  2260.32454251
0.39000002 27784.02999939  2118.39346766
0.39100002 27969.24675595  2466.88768075
0.39200002 28155.75231533  2157.71618091
0.39300002 28342.29729446  2010.03581935
0.39400002 28530.22187927  2028.49887172
0.39500002 28717.38607511  2217.55665778
0.39600002 28904.85405449  2581.92621074
0.39700002 29091.95299893  2084.14761159
0.39800002 29280.22971252  2628.63274698
0.39900002 29467.47802542  2121.65851835
0.40000002 29654.11464840  2318.80360479
0.40100002 29840.49073492  1979.31984423
0.40200002 30027.53386743  1996.68095912
0.40300002 30212.73072228  2197.06988222
0.40400002 30397.51689465  2769.97385827
0.40500002 30581.43870493  2234.89164645
0.40600002 30764.86934700  2066.01489889
0.40700002 30947.08086639  2651.54601427
0.40800002 31128.42929070  2673.62091846
0.40900002 31307.90629073  2695.61085935
0.41000002 31487.05619670  2717.64794910
0.41100002 31664.57253576  2935.30601315
0.41200002 31840.06358713  2169.74123595
0.41300002 32014.63711033  2385.73087050
0.41400002 32187.32580267  2604.75946400
0.41500002 32359.05608179  2423.04623422
0.41600002 32527.80332107  2848.45987180
0.41700002 32695.67918636  2255.02110033
0.41800002 32862.53163605  3304.65633791
0.41900002 33025.52482051  2080.60816228
0.42000002 33187.25176836  2514.93005818
0.42100002 33347.58985631  2321.99279172
0.42200002 33505.59126795  2551.11584003
0.42300002 33660.85653802  2568.99669271
0.42400002 33814.13622197  2371.21641493
0.42500002 33965.48535802  3472.63138756
0.42600002 34113.16194301  2621.93775118
0.42700002 34259.69740683  2199.47267774
0.42800002 34403.31781686  3320.78040963
0.42900002 34545.01771870  4233.49212204
0.43000002 34684.20916831  2690.80107479
0.43100002 34819.42344501  3158.81824462
0.43200002 34952.88467041  3405.28495038
0.43300002 35083.46056370  2512.32673002
0.43400002 35211.60817310  2757.06905061
0.43500002 35336.50997658  3697.61257917
0.43600002 35459.66999182  2324.38147811
0.43700002 35578.94086710  2805.04383089
0.43800002 35694.71326520  2820.59637588
0.43900002 35808.68909469  3072.38566992
0.44000002 35918.94603952  3088.84991105
0.44100002 36027.05813384  2866.31288096
0.44200002 36131.80736000  2641.05458414
0.44300002 36233.80158960  4102.39121039
0.44400002 36332.18793017  2667.69102520
0.44500002 36426.61409257  3411.71683759
0.44600002 36518.97915760  2448.59766856
0.44700002 36608.42251817  3198.11194275
0.44800002 36693.43995474  2718.43362788
0.44900002 36776.84598518  2978.92466598
0.45000002 36856.73189605  3490.70124331
0.45100002 36932.15090726  3755.99992527
0.45200002 37005.31282640  3268.86446344
0.45300002 37074.62454545  3029.73846144
0.45400002 37141.24578236  3802.33521717
0.45500002 37204.55232440  3053.74979951
0.45600002 37264.35474441  3320.81313043
0.45700002 37320.77901610  2563.93763992
0.45800002 37373.26134130  3602.40883142
0.45900002 37422.87374694  2582.17841092
0.46000002 37469.83738403  5441.18269360
0.46100002 37512.20127477  3379.47437301
0.46200002 37552.04487605  3129.58756830
0.46300002 37588.35556491  3924.22450697
0.46400002 37620.71189227  3411.25821251
0.46500002 37650.79637857  3158.14894992
0.46600002 37676.51442764  2639.23996074
0.46700002 37698.95063700  3175.75975218
0.46800002 37718.86422957  3449.57889161
0.46900002 37734.54774743  3458.37146497
0.47000002 37746.59296219  3200.15630301
0.47100002 37755.85541761  3742.36056637
0.47200002 37761.50666712  3482.93273252
0.47300002 37764.56790667  2685.06090543
0.47400002 37762.55967298  2959.64075465
0.47500002 37758.60829691  3774.35066425
0.47600002 37751.59521385  2971.23944214
0.47700002 37740.05423687  3517.75062215
