# SAXS profile: number of points = 501, q_min = 0, q_max = 0.5, delta_q = 0.001
#    q    intensity    error
0.00000000 1682732.95097189 378.61491397
0.00100000 1682663.94993420 757.19879545
0.00200000 1682456.89191089 984.23731293
0.00300000 1682111.94863063 1211.12064616
0.00400000 1681628.96994132 1639.58830799
0.00500000 1681008.45063475 1815.48919854
0.00600000 1680250.08647014 1940.68892888
0.00700000 1679354.58150199 2216.74813971
0.00800000 1678321.31835475 2492.30726298
0.00900000 1677151.70475964 2515.72766468
0.01000000 1675844.86589833 2765.14414813
0.01100000 1674402.04335857 3013.92380927
0.01200000 1672822.74352865 3588.20494219
0.01300000 1671108.35117283 4562.12599991
0.01400000 1669258.02265075 4131.41378921
0.01500000 1667273.65028548 5602.03971441
0.01600000 1665154.06881882 4670.75737184
0.01700000 1662901.39079121 5387.80074785
0.01800000 1660515.05967709 5205.71494633
0.01900000 1657995.89055767 5968.78547533
0.02000000 1655344.60759004 7300.07004970
0.02100000 1652562.81909493 5998.80330529
0.02200000 1649648.54571244 6260.41651540
0.02300000 1646604.81217700 7113.33311239
0.02400000 1643431.56510543 10476.87670527
0.02500000 1640130.10166287 6396.50768862
0.02600000 1636700.38443715 7954.36423218
0.02700000 1633143.84068155 7545.12488952
0.02800000 1629460.04541017 8505.78182711
0.02900000 1625651.59128076 8046.97574631
0.03000000 1621719.10353622 8295.09359587
0.03100000 1617662.29719624 10094.21319897
0.03200000 1613482.66009567 10382.76139593
0.03300000 1609182.75629312 9027.51567898
0.03400000 1604760.59170047 11794.99089322
0.03500000 1600219.49199778 11233.54135257
0.03600000 1595559.35830381 9740.89033261
0.03700000 1590781.89486197 9067.45722006
0.03800000 1585888.41821528 11132.93721110
0.03900000 1580880.17129408 10433.80961373
0.04000000 1575755.98746655 11629.07972638
0.04100000 1570520.01113075 16820.27009911
0.04200000 1565172.58099793 12114.43633895
0.04300000 1559713.48267701 12352.93135620
0.04400000 1554146.72776069 12588.58907950
0.04500000 1548471.53760143 11752.89951649
0.04600000 1542688.64791227 11963.55102071
0.04700000 1536801.16513469 13277.96268429
0.04800000 1530809.05864092 11251.44710452
0.04900000 1524715.43799741 12578.90294900
0.05000000 1518519.53552241 19748.34747907
0.05100000 1512224.62814550 15333.95844371
0.05200000 1505829.15415006 14365.61080005
0.05300000 1499338.59224208 14573.57179598
0.05400000 1492751.08783991 14778.23645878
0.05500000 1486070.56916167 18724.49004492
0.05600000 1479295.89411640 16442.37463037
0.05700000 1472431.62457268 14091.17130492
0.05800000 1465476.63432272 14266.41570126
0.05900000 1458432.65471254 13125.89450547
0.06000000 1451302.93392875 17263.24920560
0.06100000 1444088.80896985 14773.02920613
0.06200000 1436790.43716778 20366.50539886
0.06300000 1429411.23426051 16466.81818859
0.06400000 1421949.16807618 16636.80604454
0.06500000 1414410.72415437 22404.26691863
0.06600000 1406793.63846834 19793.58741936
0.06700000 1399100.88955657 19979.16163787
0.06800000 1391335.30273690 21600.48158609
0.06900000 1383497.90877048 15979.40159444
0.07000000 1375588.21002937 16115.01663514
0.07100000 1367610.82700736 16247.21738583
0.07200000 1359564.76713730 16375.95838733
0.07300000 1351455.23093035 19501.49989608
0.07400000 1343280.62579386 22667.86162258
0.07500000 1335044.29467952 19785.35737454
0.07600000 1326745.63586028 16856.30409384
0.07700000 1318390.64850416 16967.68844184
0.07800000 1309977.13996435 20180.19878753
0.07900000 1301507.76336767 17179.90328225
0.08000000 1292986.04730461 17280.75933288
0.08100000 1284411.94901328 17378.09448550
0.08200000 1275786.89454748 25413.67613193
0.08300000 1267113.62927738 22351.88546947
0.08400000 1258392.70045515 20857.85998908
0.08500000 1249628.26208098 17732.22587137
0.08600000 1240819.71017719 17811.96777589
0.08700000 1231969.62763636 22766.79978780
0.08800000 1223077.88330121 27757.75386513
0.08900000 1214150.20483248 18030.13138863
0.09000000 1205184.77445386 31256.46859375
0.09100000 1196184.78677740 19808.82099968
0.09200000 1187151.15860488 19872.91132881
0.09300000 1178087.15588704 21594.33858217
0.09400000 1168991.27777721 23321.37708770
0.09500000 1159867.84947946 23382.93694457
0.09600000 1150717.79776873 18417.23921904
0.09700000 1141544.11418395 16780.69926741
0.09800000 1132347.86405924 26904.58651504
0.09900000 1123130.58016865 26955.13519154
0.10000000 1113892.11660914 21938.10626830
0.10100000 1104635.25176409 20281.10417625
0.10200000 1095362.46896749 23692.69131818
0.10300000 1086074.47544425 18637.03887532
0.10400000 1076774.02029961 18655.11077932
0.10500000 1067463.49098684 23761.73842734
0.10600001 1058139.67054401 22078.08526475
0.10700001 1048809.94617155 20388.86631303
0.10800001 1039471.94220066 25493.05058222
0.10900001 1030129.45654806 22096.27788293
0.11000001 1020782.89306450 18695.63956647
0.11100001 1011434.34241292 20390.51730289
0.11200001 1002085.98941583 27176.57331235
0.11300001 992736.90538463 25463.70282197
0.11400001 983391.56198527 30534.30943733
0.11500001 974050.41795272 22033.02149158
0.11600001 964714.03865156 18623.80539319
0.11700001 955385.86980484 23674.46296871
0.11800001 946063.86339380 21953.41298402
0.11900001 936752.35023045 18547.69740819
0.12000001 927451.66779281 23566.54798872
0.12100001 918165.26671748 25203.63775869
0.12200001 908891.11873580 18445.94612376
0.12300001 899633.37896897 21753.13612836
0.12400001 890391.51078596 21703.29409801
0.12500001 881167.73309822 19984.88512837
0.12600001 871964.66863223 21594.20603627
0.12700001 862782.04190363 21535.04078078
0.12800001 853620.14787192 18169.30570376
0.12900001 844482.26876151 19760.88602039
0.13000001 835369.01246796 18056.50205559
0.13100001 826280.32223574 24540.52672718
0.13200001 817219.72086451 17933.88761978
0.13300001 808188.12812939 19493.49856946
0.13400001 799184.51110609 21038.53324674
0.13500001 790212.11388845 20956.42624838
0.13600001 781270.59809158 17660.62270257
0.13700001 772362.52950594 15987.90511465
0.13800001 763487.01454098 19102.44600461
0.13900001 754648.91186702 17432.39068621
0.14000001 745845.07925239 17352.08658714
0.14100001 737079.22514691 18839.74588329
0.14200001 728349.85871274 17185.41572688
0.14300001 719662.87186318 20208.13439509
0.14400001 711011.36000150 20103.84715234
0.14500001 702404.67654862 24612.26102728
0.14600001 693837.76692525 16829.03583067
0.14700001 685316.67462652 19778.24016279
0.14800001 676837.10269815 19665.50294669
0.14900001 668401.59819237 15039.03666888
0.15000001 660012.73058827 19434.07576913
0.15100001 651670.00829812 16343.88457930
0.15200001 643375.55061852 19195.11045846
0.15300001 635129.20626971 14671.48535716
0.15400001 626929.34389618 18948.94031348
0.15500001 618781.10093267 17375.37413419
0.15600001 610681.36464307 21572.32022412
0.15700001 602636.19934037 18567.22217799
0.15800001 594637.85883385 15600.32496282
0.15900001 586695.17849827 16896.82193829
0.16000001 578803.24775248 18171.52882093
0.16100001 570968.44120199 13874.53377615
0.16200001 563185.12287780 17900.83997570
0.16300001 555458.00708931 13664.26761946
0.16400001 547785.96317380 17625.01419719
0.16500001 540170.50038778 13450.24609466
0.16600001 532610.91143074 16010.28475350
0.16700001 525108.43591726 17202.55317286
0.16800001 517662.20100520 17059.55863962
0.16900001 510276.32041248 19518.07017738
0.17000001 502948.01322705 16770.80229297
0.17100001 495678.45891784 14067.35532837
0.17200001 488468.43898016 16478.48356716
0.17300001 481318.28668352 15074.88945083
0.17400001 474228.99301918 13693.36282011
0.17500001 467199.37430242 16034.28328332
0.17600001 460228.89379114 20772.43210233
0.17700001 453321.93018203 16945.17455054
0.17800001 446475.57691264 13186.65678695
0.17900001 439690.61084315 13058.81175886
0.18000001 432968.47158570 15281.62292645
0.18100001 426309.52604125 20948.85109922
0.18200001 419710.10607846 12673.14725169
0.18300001 413176.21128881 12544.03036730
0.18400001 406703.30271941 13543.22062035
0.18500001 400294.71817693 12285.04548122
0.18600001 393948.86994842 13260.31958893
0.18700001 387665.98920082 18584.70840032
0.18800001 381446.12024468 12976.79762383
0.18900001 375292.07489235 12834.98956774
0.19000001 369197.58982961 14808.51602775
0.19100001 363171.57410564 11505.27601129
0.19200001 357206.11212354 11375.22917807
0.19300001 351306.59059054 13289.92895002
0.19400001 345469.84736016 11115.49286406
0.19500001 339697.76564974 11984.53773845
0.19600001 333988.26712873 10856.28913605
0.19700001 328343.38698726 11702.15886524
0.19800001 322762.60400370 11561.35702179
0.19900001 317246.27414476 17131.29961344
0.20000001 311791.65178823 15980.88186768
0.20100001 306402.61065705 10212.39949586
0.20200001 301075.94294741 10084.53918565
0.20300001 295813.54143476 10862.27375489
0.20400001 290614.43460456 10723.67314377
0.20500001 285477.73672586 12349.76747450
0.20600001 280404.79897761 14801.16801365
0.20700001 275394.68961310 11170.00913870
0.20800001 270447.14548704 10174.22209416
0.20900001 265564.43920484 10038.33627647
0.21000001 260741.85593811 11553.47218278
0.21100001 255981.59355403 13838.36560172
0.21200001 251283.44385890 12042.75961625
0.21300001 246646.94488675 8709.10403568
0.21400001 242073.16254141 15613.71972208
0.21500001 237560.90779222 9236.36853163
0.21600001 233108.00905659 9863.96586958
0.21700001 228717.24120616 8974.86496926
0.21800001 224386.79224979 8108.21712131
0.21900001 220115.49079858 12348.47961766
0.22000001 215904.09474844 9304.38740312
0.22100001 211754.75652913 7756.57709842
0.22200001 207663.43824735 9724.87927296
0.22300001 203631.08119837 9578.80651251
0.22400001 199655.86469023 8086.06290231
0.22500001 195742.08413509 7299.22266256
0.22600001 191884.50721586 6533.66777967
0.22700001 188085.74211572 7719.03922146
0.22800001 184343.46410129 6332.19829133
0.22900001 180657.83201863 9349.04324909
0.23000001 177028.92629097 7360.86310329
0.23100001 173458.08844398 7243.61011599
0.23200001 169940.75974562 7127.31580081
0.23300001 166480.45267885 6427.81058193
0.23400001 163074.77680605 6898.06338514
0.23500001 159722.73029751 7350.44039594
0.23600001 156425.80718253 7785.31279170
0.23700001 153182.57772533 7656.06559683
0.23800001 149992.87281678 5914.96921930
0.23900001 146856.15885077 5286.82196869
0.24000001 143771.72042211 6236.81752692
0.24100001 140740.51702431 6641.54531253
0.24200001 137760.35279381 7532.04764528
0.24300001 134831.76540023 5428.32713179
0.24400001 131953.21115037 6304.06496091
0.24500001 129125.56821244 6670.62716940
0.24600001 126347.90090816 5617.42794011
0.24700001 123620.38336734 5058.54632669
0.24800001 120940.92490646 6324.00126253
0.24900001 118309.97271905 5323.94902422
0.25000001 115727.69582479 5664.29234011
0.25100001 113192.37179415 5990.14059873
0.25200001 110705.33867973 6301.90170248
0.25300001 108265.11655801 5362.37147681
0.25400001 105870.33174588 6884.21864748
0.25500001 103521.51493222 5565.31690606
0.25600001 101218.35903939 6243.14868093
0.25700001 98959.73420719  3829.74189502
0.25800001 96745.47659924  5261.98672120
0.25900001 94575.42578040  4426.13013594
0.26000001 92449.01868002  4343.25510309
0.26100001 90363.77401308  4261.55578410
0.26200001 88323.55496626  3832.80084912
0.26300001 86323.74453077  3760.26248969
0.26400001 84365.16922864  3353.51563552
0.26500001 82448.71808276  3947.64480860
0.26600001 80571.73380454  3872.27770988
0.26700001 78735.96980514  3165.18613594
0.26800001 76939.47699063  3414.95884783
0.26900001 75181.51458487  3653.82178173
0.27000001 73462.69011347  3583.51019331
0.27100001 71782.09236408  4685.93521128
0.27200001 70139.43908252  3159.43118299
0.27300001 68533.43964652  3380.06940333
0.27400001 66963.11756400  3314.67447628
0.27500001 65431.32132172  4063.28524638
0.27600001 63933.18196365  3453.35098720
0.27700001 62472.04423341  3386.60967817
0.27800001 61044.50139289  3832.06875630
0.27900001 59652.11030763  2505.38875150
0.28000001 58293.09260436  2948.46476347
0.28100001 56967.49073383  3614.58745814
0.28200001 55675.36676450  3781.47108962
0.28300001 54415.43745653  3245.33684351
0.28400001 53187.87680131  2501.16002496
0.28500001 51992.08997962  2676.55291884
0.28600001 50826.62323325  2188.08623376
0.28700001 49692.27103496  2576.04745238
0.28800001 48587.68084262  2527.53127707
0.28900001 47514.30910822  2893.62156166
0.29000001 46468.78382523  2231.19876098
0.29100001 45453.29111821  2787.19594330
0.29200001 44465.79472106  2540.55330165
0.29300001 43506.23443808  1918.62502954
0.29400001 42573.98093925  2449.06836946
0.29500001 41670.02570668  2590.20892054
0.29600001 40791.77930007  1817.27385384
0.29700001 39939.57848562  2499.41893995
0.29800001 39113.65503314  1754.24751128
0.29900001 38313.33894982  1896.51036780
0.30000001 37537.81655062  2033.79899699
0.30100001 36787.90448954  1666.49215227
0.30200001 36060.62998623  1966.74685256
0.30300001 35357.77909811  1934.77776384
0.30400001 34679.14981770  1745.22829720
0.30500001 34022.12360250  2030.10021147
0.30600001 33387.98714737  2152.52363330
0.30700001 32776.67612767  1817.13901055
0.30800001 32186.71453913  1641.03971847
0.30900001 31618.20256841  1470.24648904
0.31000001 31071.30352717  1739.37165380
0.31100001 30543.57641461  1858.27127705
0.31200001 30037.19166033  1410.24621522
0.31300001 29550.10122386  1391.80983354
0.31400001 29083.88272362  1786.47758088
0.31500001 28635.65548730  1493.06314780
0.31600002 28206.47335588  1743.58323305
0.31700002 27795.14492185  1590.99417066
0.31800002 27402.33133202  1442.32177795
0.31900002 27027.38966121  1427.04624168
0.32000002 26669.50766336  1412.55054027
0.32100002 26329.01297755  1907.53708055
0.32200002 26005.20249406  1385.94733255
0.32300002 25697.02187685  1748.42545129
0.32400002 25405.12510334  1486.19988892
0.32500002 25128.35144194  1597.40937680
0.32600002 24867.58404407  1463.70606614
0.32700002 24621.23998263  1332.50157096
0.32800002 24390.58016058  1444.41022551
0.32900002 24172.81442850  1435.86524505
0.33000002 23970.83239300  1190.15188467
0.33100002 23779.97279394  1302.66697134
0.33200002 23605.04919018  1296.97948917
0.33300002 23441.88499336  1526.77004192
0.33400002 23292.14311313  1755.64537029
0.33500002 23154.36666651  1400.37616231
0.33600002 23028.89067884  1280.52152684
0.33700002 22914.45203784  1394.11532800
0.33800002 22813.02126697  1392.05062363
0.33900002 22721.74945010  1390.57113220
0.34000002 22641.93882842  1273.94874851
0.34100002 22572.94687020  1736.98834392
0.34200002 22515.28779421  1390.09393425
0.34300002 22466.31804582  1854.81930571
0.34400002 22428.20693447  1740.98964574
0.34500002 22399.28951610  1278.77549904
0.34600002 22380.99988383  1630.90353878
0.34700002 22369.67667543  1284.46689554
0.34800002 22368.99400786  1288.11858095
0.34900002 22376.39626083  1409.71303120
0.35000002 22392.35466611  1650.54054061
0.35100002 22416.52424369  1538.67029696
0.35200002 22447.76718774  1188.60932889
0.35300002 22487.14819874  1313.47438850
0.35400002 22534.40453935  1439.94851827
0.35500002 22588.43474597  1447.46696708
0.35600002 22649.07143807  1698.00096614
0.35700002 22716.74451284  2317.78955243
0.35800002 22791.34100060  1350.04514812
0.35900002 22871.79145135  1235.07679687
0.36000002 22959.05376741  1367.55610243
0.36100002 23051.33407817  1752.36249963
0.36200002 23150.47285010  1260.54330640
0.36300002 23253.39525817  1396.59898536
0.36400002 23362.37405219  1406.99904394
0.36500002 23475.88576932  1804.35666570
0.36600002 23594.84021127  1298.89601516
0.36700002 23718.07915409  2094.78085012
0.36800002 23847.09110743  1451.93021085
0.36900002 23979.41946922  1597.02941230
0.37000002 24114.92662554  1610.39487634
0.37100002 24254.88866828  1759.44970734
0.37200002 24399.19002793  1638.16169607
0.37300002 24546.23473109  2754.08766729
0.37400002 24697.79027723  1389.25076890
0.37500002 24851.32509160  1822.09924203
0.37600002 25009.17699285  1414.26902594
0.37700002 25168.53441600  1997.87835659
0.37800002 25331.57753804  2304.16040201
0.37900002 25496.95511805  2470.65506798
0.38000002 25664.92606995  1760.10071326
0.38100002 25834.54569690  1628.35149242
0.38200002 26006.63540792  2241.12191245
0.38300002 26180.48969994  1658.79590597
0.38400002 26356.64088263  1522.09608308
0.38500002 26533.46983022  1843.54557114
0.38600002 26712.94955987  2170.96151358
0.38700002 26892.69976877  1878.18624083
0.38800002 27073.87062058  1895.71251066
0.38900002 27256.29778698  2072.84154490
0.39000002 27440.33482966  1931.25085681
0.39100002 27624.22933646  1949.16571433
0.39200002 27809.47354773  1803.30539764
0.39300002 27994.96483865  1985.40300042
0.39400002 28181.82035203  2337.68210895
0.39500002 28368.01293972  1685.06004845
0.39600002 28554.53098799  2210.54912117
0.39700002 28740.81991414  2058.99243620
0.39800002 28928.35644289  1731.36221514
0.39900002 29114.79390929  2620.33157598
0.40000002 29300.82600034  2291.17819765
0.40100002 29486.73214167  1955.85503562
0.40200002 29673.18955507  1973.11883295
0.40300002 29858.05965847  2352.21805134
0.40400002 30042.46132829  2555.11145703
0.40500002 30226.20595892  3129.31925120
0.40600002 30409.36384448  2970.38680107
0.40700002 30591.54898880  2059.42317550
0.40800002 30772.80910213  2643.07669901
0.40900002 30952.38246698  3045.71457906
0.41000002 31131.63728338  2111.19208240
0.41100002 31309.34904195  2128.40964872
0.41200002 31485.03733324  1950.49815521
0.41300002 31659.89459225  2359.29545680
0.41400002 31833.10424705  2179.77191660
0.41500002 32005.24523261  2596.26561629
0.41600002 32174.51376052  2012.51593108
0.41700002 32342.96168264  2839.06531103
0.41800002 32510.48432789  2247.61244051
0.41900002 32674.17532141  2676.01508562
0.42000002 32836.83164348  3110.46902482
0.42100002 32997.94497097  2297.64701720
0.42200002 33156.91522846  2524.56764512
0.42300002 33313.23079264  2542.46589457
0.42400002 33467.57256458  2773.62520772
0.42500002 33620.05584682  2148.32167041
0.42600002 33768.92536501  2379.18974933
0.42700002 33916.76433793  2395.20201104
0.42800002 34061.72544692  3068.62099092
0.42900002 34204.88839284  3088.70156824
0.43000002 34345.51266867  2220.43749925
0.43100002 34482.29984958  3351.67970421
0.43200002 34617.38603027  2473.23926213
0.43300002 34749.54442365  3167.07362885
0.43400002 34879.45492513  2958.64990423
0.43500002 35006.13395833  2518.34139630
0.43600002 35131.14357628  2302.84657055
0.43700002 35252.35195956  3010.90352355
0.43800002 35370.04817688  2562.02956110
0.43900002 35486.01881677  2810.49282348
0.44000002 35598.41474541  2825.80229640
0.44100002 35708.61955032  3314.47422373
0.44200002 35815.58914019  3093.92981450
0.44300002 35919.83549193  2870.71338856
0.44400002 36020.34406665  2885.22969647
0.44500002 36117.31960115  2657.87367541
0.44600002 36212.04073096  3399.22442451
0.44700002 36303.93679824  2683.58713530
0.44800002 36391.50997530  2941.16197559
0.44900002 36477.49252817  3200.90012104
0.45000002 36559.93022568  3215.26321608
0.45100002 36638.06260772  3477.68506754
0.45200002 36713.92703161  2744.18260603
0.45300002 36786.03221329  3256.66758619
0.45400002 36855.46647184  3521.53998828
0.45500002 36921.61349530  2525.43848277
0.45600002 36984.27826132  4056.43583195
0.45700002 37043.67760937  3308.37100409
0.45800002 37099.13184551  3065.13041835
0.45900002 37151.80541159  2819.82216438
0.46000002 37201.84847663  2572.50794408
0.46100002 37247.25638311  2839.35848865
0.46200002 37290.32544650  3107.77587000
0.46300002 37329.81614114  2857.97085922
0.46400002 37365.42569611  3648.73399216
0.46500002 37398.68535267  3398.41869907
0.46600002 37427.76336583  3146.17793765
0.46700002 37453.54496590  3680.93457371
0.46800002 37476.84154095  3163.79511284
0.46900002 37495.91850444  3172.15485582
0.47000002 37511.38976169  4240.28769964
0.47100002 37524.18088381  3453.72577224
0.47200002 37533.28745714  3728.18161982
0.47300002 37539.90680343  3469.81375030
0.47400002 37541.47911213  3477.27966757
0.47500002 37541.09892989  2948.47804970
0.47600002 37537.66314825  3760.14789578
0.47700002 37529.78903538  2690.88600138
