# SAXS profile: number of points = 501, q_min = 0, q_max = 0.5, delta_q = 0.001
#    q    intensity    error
0.00000000 1664650.74656091 349.57665678
0.00100000 1664582.32429775 499.37470915
0.00200000 1664376.99750550 1348.14541067
0.00300000 1664034.94852146 1397.78940655
0.00400000 1663556.00445752 1621.96716598
0.00500000 1662940.67910434 1795.97600452
0.00600000 1662188.67519820 2617.94727002
0.00700000 1661300.66488370 3189.69740914
0.00800000 1660276.04709254 2689.64730985
0.00900000 1659116.23483798 2986.40935037
0.01000000 1657820.34332158 3556.02478997
0.01100000 1656389.62892776 3577.80175426
0.01200000 1654823.54385053 3872.28726239
0.01300000 1653123.56518521 3818.71560400
0.01400000 1651288.75166051 5573.09978392
0.01500000 1649321.03176872 5937.55597876
0.01600000 1647219.22873945 5880.57290948
0.01700000 1644985.45969058 4885.60703444
0.01800000 1642619.23647967 6554.05104847
0.01900000 1640121.23675412 6396.47311197
0.02000000 1637492.25954015 7737.15127632
0.02100000 1634733.86166608 6473.54638570
0.02200000 1631844.10407175 7881.80738076
0.02300000 1628826.05005457 9382.03847537
0.02400000 1625679.59373501 8534.81825628
0.02500000 1622405.94958936 8225.59854009
0.02600000 1619005.22156211 7868.36573668
0.02700000 1615478.70457702 6785.01086998
0.02800000 1611826.03441968 8413.73228552
0.02900000 1608049.81681577 8683.46940950
0.03000000 1604150.66163318 8205.23101141
0.03100000 1600128.28967375 10752.86260138
0.03200000 1595984.07637672 9480.14585032
0.03300000 1591720.66748445 8117.77577840
0.03400000 1587336.00754712 10833.56875137
0.03500000 1582833.61862090 9402.03212878
0.03600000 1578213.12475585 9634.99157190
0.03700000 1573476.37217492 9865.69730980
0.03800000 1568624.63998756 11929.39093919
0.03900000 1563659.16041659 12196.54201607
0.04000000 1558578.80248340 10543.78608739
0.04100000 1553387.66724907 10764.97703317
0.04200000 1548085.98157221 12980.70155769
0.04300000 1542673.75030948 11199.81194712
0.04400000 1537154.83135013 12450.95471218
0.04500000 1531528.48433683 12681.05643953
0.04600000 1525795.34691312 16135.28654369
0.04700000 1519958.60464479 15321.18344738
0.04800000 1514018.19016064 12240.83763699
0.04900000 1507977.22511646 13571.79565778
0.05000000 1501834.86501299 13786.84470282
0.05100000 1495594.56411727 16331.89340097
0.05200000 1489254.52690389 16575.40365688
0.05300000 1482820.33572743 15614.09886311
0.05400000 1476290.27783309 12179.39536010
0.05500000 1469667.88810735 12345.21083600
0.05600000 1462952.27715069 13759.06680866
0.05700000 1456148.06208976 12668.48873153
0.05800000 1449253.93135512 15391.07746964
0.05900000 1442271.82162402 15576.53640105
0.06000000 1435204.66902109 17071.76033558
0.06100000 1428053.94047589 15937.08272047
0.06200000 1420819.80559535 13426.74779049
0.06300000 1413505.72858930 17640.55231758
0.06400000 1406109.59894727 13709.56923089
0.06500000 1398637.94359225 22154.42606284
0.06600000 1391088.33152263 15378.48222452
0.06700000 1383463.97728155 14111.33322867
0.06800000 1375767.49649839 14239.19425528
0.06900000 1367999.96125845 15800.40029229
0.07000000 1360160.94655801 17382.85771102
0.07100000 1352254.96168525 16064.78969726
0.07200000 1344281.06757857 17663.85405548
0.07300000 1336244.25555840 22248.46789751
0.07400000 1328143.40400101 22412.42099286
0.07500000 1319981.29494784 19562.12370805
0.07600000 1311757.68031514 21211.12268509
0.07700000 1303478.27246040 18300.83580344
0.07800000 1295141.15487811 23021.13510756
0.07900000 1286748.65642016 16985.08306141
0.08000000 1278304.50029805 15531.40040722
0.08100000 1269808.70086453 20304.24207946
0.08200000 1261262.69862108 28264.89840243
0.08300000 1252668.81798728 22097.07898636
0.08400000 1244028.12417161 20619.76712601
0.08500000 1235344.34977606 19123.13143227
0.08600000 1226616.86393920 17608.08590857
0.08700000 1217848.82177951 17683.16572260
0.08800000 1209039.45625328 17754.74524891
0.08900000 1200194.73231395 25924.20743563
0.09000000 1191312.79684309 24392.13066119
0.09100000 1182396.91365563 17948.78599255
0.09200000 1173447.72639907 22917.43517339
0.09300000 1164468.74426528 19702.81207885
0.09400000 1155458.27268286 21404.86550742
0.09500000 1146420.92106803 23111.84685505
0.09600000 1137357.37568355 23167.97083175
0.09700000 1128270.44283819 21561.24917629
0.09800000 1119161.47494482 24929.32302651
0.09900000 1110031.90728686 19980.57527070
0.10000000 1100881.62575245 25017.53612173
0.10100000 1091713.19184765 16703.21262085
0.10200000 1082529.40637442 20070.09613820
0.10300000 1073330.63468262 25115.93803305
0.10400000 1064119.84847903 21787.85492262
0.10500000 1054899.34316905 23482.06048376
0.10600001 1045665.87418135 28530.99471952
0.10700001 1036427.01278974 18469.13023703
0.10800001 1027179.75066841 23512.14559932
0.10900001 1017928.53322724 25193.73238313
0.11000001 1008673.56513217 16794.41564996
0.11100001 999416.69494878 23506.28177172
0.11200001 990160.58935605 18461.54505766
0.11300001 980903.82771021 16773.45624355
0.11400001 971651.07683186 20113.17823744
0.11500001 962402.68483674 25118.71125703
0.11600001 953159.13802686 16727.94366012
0.11700001 943924.25537489 16707.46010697
0.11800001 934695.65781112 20021.18193328
0.11900001 925477.64065976 19990.31797983
0.12000001 916270.65632256 19956.37583475
0.12100001 907078.05698553 21579.38799225
0.12200001 897897.91989658 19879.46088306
0.12300001 888734.27232382 16530.45824405
0.12400001 879586.62503065 18141.47499604
0.12500001 870457.16715759 21387.13360483
0.12600001 861348.55559345 22972.16706021
0.12700001 852260.32556039 19636.07882629
0.12800001 843193.05164383 24473.67947739
0.12900001 834149.73080859 22772.28872438
0.13000001 825131.06307397 25942.12184582
0.13100001 816136.98255095 19391.41561948
0.13200001 807171.12985039 20933.98423950
0.13300001 798234.16453609 17648.95820992
0.13400001 789325.20279229 19180.60333213
0.13500001 780447.46153800 20697.46765584
0.13600001 771600.59079444 15856.39288847
0.13700001 762787.04877870 25263.50824681
0.13800001 754006.04817556 22009.43758412
0.13900001 745262.37802350 18780.61281185
0.14000001 736552.74902335 20251.51878947
0.14100001 727881.14312777 17054.25598781
0.14200001 719245.98865085 18513.39262106
0.14300001 710652.84036281 18420.12249104
0.14400001 702095.25186310 16797.62969317
0.14500001 693582.32132956 15189.45355364
0.14600001 685109.06371721 21149.31779466
0.14700001 676681.45459452 15022.32900070
0.14800001 668295.00622588 17923.67291259
0.14900001 659952.76835997 20788.51318416
0.15000001 651656.70995130 19188.03272986
0.15100001 643406.86128433 16136.64484242
0.15200001 635204.68217071 16035.74295808
0.15300001 627050.60479965 15933.35661984
0.15400001 618942.78057043 17268.50439283
0.15500001 610886.35401514 25730.53444542
0.15600001 602877.98884920 15617.55503821
0.15700001 594924.13514692 14099.70266844
0.15800001 587016.88221299 15400.38863174
0.15900001 579164.89903209 20849.93734928
0.16000001 571363.39626291 20697.64000660
0.16100001 563618.35035262 19174.29718410
0.16200001 555924.95698623 14951.60242395
0.16300001 548287.24182077 13487.86678552
0.16400001 540704.39523819 16058.92129671
0.16500001 533177.50211913 15931.34451546
0.16600001 525706.63565430 17119.63739835
0.16700001 518291.91498847 20897.53099901
0.16800001 510933.41596089 18133.02778863
0.16900001 503634.82599515 16695.49527007
0.17000001 496393.32914038 15278.98739241
0.17100001 489210.35127120 17670.27872233
0.17200001 482086.52189546 12510.14583395
0.17300001 475021.95943272 12398.07372669
0.17400001 468017.84126378 17199.65647872
0.17500001 461073.08396157 14606.79598975
0.17600001 454186.86721583 15676.26046233
0.17700001 447364.03354322 15528.00633768
0.17800001 440601.04298006 15379.18013161
0.17900001 433899.09506413 14058.33134410
0.18000001 427259.47195631 13920.11425385
0.18100001 420682.55125870 11484.63419186
0.18200001 414164.67270963 15916.34912409
0.18300001 407711.91144038 16879.27393100
0.18400001 401319.55394953 13363.94177784
0.18500001 394990.89515812 13224.29579464
0.18600001 388724.79693541 10903.73106917
0.18700001 382520.87903894 11865.79822839
0.18800001 376379.63873911 12804.43591486
0.18900001 370303.52808058 14775.11146850
0.19000001 364286.34049650 16698.88663736
0.19100001 358337.39158124 10320.11736517
0.19200001 352447.97851242 10203.36946006
0.19300001 346624.33129069 15130.15277578
0.19400001 340862.88514818 9970.23986172
0.19500001 335165.42774246 12810.02325366
0.19600001 329529.90958787 12658.89207503
0.19700001 323958.63818029 15394.51521383
0.19800001 318450.56652546 10456.32484602
0.19900001 313006.64204814 14085.29955784
0.20000001 307623.79945019 10202.34379094
0.20100001 302305.76722239 12823.81125166
0.20200001 297049.62230887 10854.19371217
0.20300001 291857.02614483 10716.99050657
0.20400001 286727.24153774 10580.23571283
0.20500001 281659.20344908 11314.25073734
0.20600001 276654.36042069 12026.16561594
0.20700001 271711.64504077 10172.88447119
0.20800001 266830.86619767 9201.66285579
0.20900001 262014.25809159 9078.79447204
0.21000001 257257.16592531 8956.40865508
0.21100001 252561.87579604 9637.76163599
0.21200001 247927.87817667 7921.29608222
0.21300001 243354.93586900 8592.86319177
0.21400001 238843.91434715 9243.25992222
0.21500001 234393.95841298 11391.54691744
0.21600001 230002.76489944 8235.24938658
0.21700001 225673.07891525 8855.41203531
0.21800001 221402.89649466 8000.39404310
0.21900001 217191.22670669 9317.50406626
0.22000001 213038.83417692 7768.46145557
0.22100001 208947.65732022 9741.14024486
0.22200001 204914.08838036 7539.81423847
0.22300001 200938.62535627 7426.69194434
0.22400001 197019.71987812 7314.35744634
0.22500001 193161.66758501 7202.99892486
0.22600001 189358.93427192 7737.20642023
0.22700001 185614.33083877 7617.61249785
0.22800001 181925.72591000 8123.89367469
0.22900001 178293.02596501 8611.55356136
0.23000001 174716.37771284 6659.31505146
0.23100001 171196.96184122 7149.18546459
0.23200001 167730.61105389 7034.62216029
0.23300001 164320.41332562 5767.64678051
0.23400001 160964.40822667 7376.19435585
0.23500001 157661.20089386 5581.20677561
0.23600001 154412.36604820 6587.23184717
0.23700001 151216.57524996 6478.11839011
0.23800001 148073.60168400 6900.97053289
0.23900001 144983.03417556 7307.14526807
0.24000001 141944.05940457 8723.17258332
0.24100001 138957.73921266 6557.41602362
0.24200001 136021.64655065 5949.58710155
0.24300001 133136.39773864 8283.74705914
0.24400001 130300.56364869 4788.54594060
0.24500001 127514.99484583 7528.48565183
0.24600001 124778.72894103 5085.35733856
0.24700001 122091.93411056 4996.00218014
0.24800001 119452.45600559 5353.85933144
0.24900001 116860.85235661 5258.73860483
0.25000001 114317.36593566 4304.04903109
0.25100001 111820.04193209 5072.15734200
0.25200001 109370.48267866 6225.91502103
0.25300001 106966.92311778 6520.70394176
0.25400001 104608.19541071 4401.39003014
0.25500001 102294.75000476 6284.98973765
0.25600001 100026.35427119 5784.02420939
0.25700001 97801.75880111  4163.42106915
0.25800001 95620.92911134  4457.84792609
0.25900001 93483.70860660  5468.79721224
0.26000001 91389.61647143  3935.69401956
0.26100001 89335.84849688  5617.43841928
0.26200001 87326.44567418  3789.53128934
0.26300001 85356.74835954  4732.17835297
0.26400001 83428.00915666  3316.26352090
0.26500001 81540.57723935  4229.50994154
0.26600001 79691.83023467  3829.98954231
0.26700001 77883.90798993  3757.11989922
0.26800001 76114.51253571  3685.46487138
0.26900001 74383.07496789  5723.77788964
0.27000001 72690.28067765  3841.31806419
0.27100001 71034.85032899  3767.68863975
0.27200001 69416.92168942  3411.14769325
0.27300001 67834.99847875  3066.82042636
0.27400001 66288.31199454  3007.83229910
0.27500001 64779.39152943  3218.24032349
0.27600001 63303.51204011  3419.33936467
0.27700001 61864.21683286  2837.71176042
0.27800001 60457.91736815  2783.18035776
0.27900001 59086.24541408  4218.75812223
0.28000001 57747.23917624  3651.06936972
0.28100001 56441.16931834  3819.93852026
0.28200001 55167.91524860  2576.06592446
0.28300001 53926.44008073  2526.99310179
0.28400001 52716.66777356  2929.72895018
0.28500001 51538.21109538  3316.48404096
0.28600001 50389.50602705  2603.12200457
0.28700001 49271.53492492  2767.08953236
0.28800001 48182.59153441  3133.07316282
0.28900001 47124.23742770  3279.84708022
0.29000001 46093.52885484  2816.77568165
0.29100001 45092.23534990  2172.54400199
0.29200001 44118.33938674  2132.90121861
0.29300001 43171.91633194  2284.65792043
0.29400001 42252.39393147  2430.56907596
0.29500001 41360.68794889  2203.69755823
0.29600001 40493.99315735  2525.61047278
0.29700001 39653.03897330  2304.23820382
0.29800001 38837.99910618  1741.88434237
0.29900001 38047.91073984  2568.23409652
0.30000001 37282.28994252  1851.62501765
0.30100001 36541.64114995  2317.47099144
0.30200001 35823.29998203  1790.98596739
0.30300001 35129.03461186  2082.44927038
0.30400001 34458.40954370  2207.06123576
0.30500001 33809.05139429  2017.38619220
0.30600001 33182.11965576  1833.64401899
0.30700001 32577.66911088  1806.10606101
0.30800001 31994.02824622  1779.50793530
0.30900001 31431.45697465  1753.87538222
0.31000001 30890.22367994  1441.02900289
0.31100001 30367.63291730  2558.16951807
0.31200001 29866.14870668  1682.65889780
0.31300001 29383.35071503  1522.35147262
0.31400001 28921.15654274  1366.52471134
0.31500001 28476.73599381  1349.79735002
0.31600002 28050.78433662  1867.34080170
0.31700002 27642.45508828  2109.67227223
0.31800002 27252.27744343  1304.02153741
0.31900002 26879.60920168  1548.26556333
0.32000002 26523.58636056  1404.82181810
0.32100002 26184.70418864  1770.60978107
0.32200002 25862.19803221  1378.32590939
0.32300002 25554.97487552  1366.16902153
0.32400002 25263.77583258  1231.60913016
0.32500002 24987.39187786  1466.26022482
0.32600002 24726.68941392  1455.41300782
0.32700002 24480.18276332  1806.63757348
0.32800002 24248.95162997  1675.36014745
0.32900002 24030.41303531  1308.45605173
0.33000002 23827.27773467  1419.62927466
0.33100002 23635.18377673  1294.73542860
0.33200002 23458.65259703  1874.81560434
0.33300002 23293.57917599  1517.11088358
0.33400002 23141.80015254  1628.02571783
0.33500002 23001.75361130  1275.21728060
0.33600002 22873.65964145  1387.51625956
0.33700002 22756.46915973  1269.12834514
0.33800002 22652.09107036  1267.04477402
0.33900002 22557.47796152  1265.47457357
0.34000002 22474.35680416  1149.56340497
0.34100002 22401.67672849  1379.04728472
0.34200002 22340.12309995  1724.09908189
0.34300002 22287.27290950  1380.02800391
0.34400002 22244.90138260  1266.29107118
0.34500002 22211.61990333  1152.78312758
0.34600002 22188.79122158  1616.89729289
0.34700002 22172.75982758  1388.90174138
0.34800002 22167.23619241  1508.59133052
0.34900002 22169.59099504  1280.29394060
0.35000002 22180.30768338  1401.35190581
0.35100002 22199.18967248  1289.32899724
0.35200002 22225.01693133  1176.81470225
0.35300002 22258.85593856  1654.72342885
0.35400002 22300.37450790  1306.24449867
0.35500002 22348.67217524  1312.76106575
0.35600002 22403.27171275  1679.57335986
0.35700002 22464.90708975  1688.91179500
0.35800002 22533.32343881  1213.41952465
0.35900002 22607.57031696  1587.05151142
0.36000002 22688.55828337  1351.44403816
0.36100002 22774.42962147  1607.64706313
0.36200002 22867.06356735  1743.15633831
0.36300002 22963.40854005  1629.94281538
0.36400002 23065.75923239  1515.42045335
0.36500002 23172.54949815  1526.60763325
0.36600002 23284.78777484  1794.55867881
0.36700002 23401.16097001  1808.44180543
0.36800002 23523.36804684  2083.22957291
0.36900002 23648.83254817  1837.51437603
0.37000002 23777.46257929  1720.18061178
0.37100002 23910.49320172  1601.04670063
0.37200002 24047.69947351  1749.10950406
0.37300002 24187.82236063  1492.63058858
0.37400002 24332.30398624  2189.90746250
0.37500002 24478.87126789  1518.66924540
0.37600002 24629.60791848  2089.20659065
0.37700002 24781.98440375  1405.13858226
0.37800002 24937.99560445  1559.49762900
0.37900002 25096.31162474  1859.63677949
0.38000002 25257.26117890  1876.48830818
0.38100002 25419.88468246  1602.21540744
0.38200002 25585.00252697  1616.84431129
0.38300002 25751.87863233  1779.96993539
0.38400002 25921.04987193  1496.94070102
0.38500002 26090.97142806  1963.86751243
0.38600002 26263.63763272  1524.60423681
0.38700002 26436.57838549  1846.33072191
0.38800002 26610.97652593  2173.85077539
0.38900002 26786.62317801  1880.42103618
0.39000002 26964.01058732  2214.01501422
0.39100002 27141.32230442  2234.27375795
0.39200002 27319.93357085  1932.61219236
0.39300002 27498.97804353  2437.78451905
0.39400002 27679.42126376  1804.00636633
0.39500002 27859.29807157  1820.32662224
0.39600002 28039.55090729  1836.73086920
0.39700002 28219.60497937  2190.12364621
0.39800002 28400.96669337  2039.75752456
0.39900002 28581.40430165  1886.37277328
0.40000002 28761.64458952  2249.01690523
0.40100002 28941.56483091  2617.76466298
0.40200002 29122.29938385  2112.53169740
0.40300002 29301.45852719  1953.23531797
0.40400002 29480.30200843  1970.02127505
0.40500002 29658.54145214  2167.44631202
0.40600002 29836.38552704  2003.66256500
0.40700002 30013.29911866  3122.58378826
0.40800002 30189.48929671  3148.61293539
0.40900002 30363.94716406  2614.33597470
0.41000002 30538.34736142  1882.68920404
0.41100002 30711.23254704  2277.54511360
0.41200002 30882.30957278  2295.79100242
0.41300002 31052.60922627  2314.04054919
0.41400002 31221.40821742  2137.88602899
0.41500002 31389.25318178  2154.55844049
0.41600002 31554.36696256  2368.47089644
0.41700002 31718.76344437  3182.02649952
0.41800002 31882.44570584  2404.57416907
0.41900002 32042.34554970  2018.66786528
0.42000002 32201.28591110  3863.67147312
0.42100002 32358.92941198  2253.15236172
0.42200002 32514.60696552  2063.05190972
0.42300002 32667.67612328  2700.96358986
0.42400002 32818.95755046  2301.42950728
0.42500002 32968.50002521  3370.69960230
0.42600002 33114.67199128  2333.09432570
0.42700002 33259.85915885  2135.28305918
0.42800002 33402.26925822  3439.09780579
0.42900002 33543.13729629  2812.59219557
0.43000002 33681.58554948  2830.76899165
0.43100002 33816.29033701  2410.42528945
0.43200002 33949.54988581  2425.52570653
0.43300002 34079.97595007  3327.90980923
0.43400002 34208.24352418  2455.29679530
0.43500002 34333.62643702  2694.50313047
0.43600002 34457.32549951  2936.28113159
0.43700002 34577.37600833  2498.90708254
0.43800002 34694.21890788  3655.38307736
0.43900002 34809.35354161  2986.64267541
0.44000002 34921.09977934  3234.04320383
0.44100002 35030.78303401  3251.55743531
0.44200002 35137.47873152  3502.32835854
0.44300002 35241.54994224  2581.79607112
0.44400002 35342.12851464  2830.90462818
0.44500002 35439.22182746  3793.41448418
0.44600002 35534.22273741  2859.08369695
0.44700002 35626.50778469  2872.92172391
0.44800002 35714.80102586  2645.93115940
0.44900002 35801.55724791  2658.26575164
0.45000002 35884.93587694  3155.90083526
0.45100002 35964.09202404  3901.38488766
0.45200002 36041.21735659  3183.70108608
0.45300002 36114.74301898  3197.23835100
0.45400002 36185.76389266  2716.64635299
0.45500002 36253.64077900  2975.69897617
0.45600002 36318.11657175  2738.56770988
0.45700002 36379.58178792  3498.98834219
0.45800002 36437.20184203  3010.44175887
0.45900002 36492.15036498  2769.75434397
0.46000002 36544.76428212  3032.48468385
0.46100002 36592.87473051  3803.82950852
0.46200002 36638.67624068  2799.01180407
0.46300002 36681.02636211  3574.19937812
0.46400002 36719.73713866  2561.20178681
0.46500002 36756.19066426  3596.96098888
0.46600002 36788.71819156  2834.75481461
0.46700002 36817.98785363  3101.54744379
0.46800002 36844.95701429  3369.65570345
0.46900002 36867.79879881  2599.17993851
0.47000002 36887.29574472  2606.08756788
0.47100002 36904.13582609  4180.50070452
0.47200002 36917.47771634  3667.01323537
0.47300002 36928.27851590  2625.60072693
0.47400002 36934.46623791  2894.73892860
0.47500002 36938.64019284  4483.61235912
0.47600002 36939.97410882  2907.36080004
0.47700002 36937.04375658  3707.74062803
