# SAXS profile: number of points = 501, q_min = 0, q_max = 0.5, delta_q = 0.001
#    q    intensity    error
0.00000000 1664650.74656091 324.60689558
0.00100000 1664582.31821258 749.06206098
0.00200000 1664376.97241531 1048.55752582
0.00300000 1664034.89091076 1297.94726115
0.00400000 1663555.90554815 1372.43367423
0.00500000 1662940.52899425 2544.29911007
0.00600000 1662188.44486732 1919.82773198
0.00700000 1661300.36647771 2990.34078394
0.00800000 1660275.65984269 3362.05835313
0.00900000 1659115.73300634 3484.14318825
0.01000000 1657819.72604165 3829.56373251
0.01100000 1656388.88259599 3279.65013033
0.01200000 1654822.67061724 4840.35652378
0.01300000 1653122.52362984 3471.55745273
0.01400000 1651287.54450088 4086.93685382
0.01500000 1649319.64258492 5937.55097770
0.01600000 1647217.65860581 4620.44573894
0.01700000 1644983.69284490 6662.18425488
0.01800000 1642617.22759889 5149.60524024
0.01900000 1640119.03143829 5904.42877960
0.02000000 1637489.81448752 6189.71177876
0.02100000 1634731.19399037 5394.61318475
0.02200000 1631841.15014511 5629.85222378
0.02300000 1628822.82615940 9968.39614984
0.02400000 1625676.10477046 6096.28567086
0.02500000 1622402.16292633 8858.31621414
0.02600000 1619001.10686450 7212.65026098
0.02700000 1615474.30735201 8141.99088197
0.02800000 1611821.31355334 11218.27685680
0.02900000 1608044.73865064 7959.82182179
0.03000000 1604145.23609147 10442.98596697
0.03100000 1600122.47273720 9984.76468931
0.03200000 1595977.90957746 10270.11832115
0.03300000 1591714.16781173 8929.51689308
0.03400000 1587329.11147443 11666.86950765
0.03500000 1582826.30560038 9401.98868943
0.03600000 1578205.39933590 10510.84844532
0.03700000 1573468.26106225 9865.64645312
0.03800000 1568616.08075037 9176.40449707
0.03900000 1563650.13975707 14072.85190953
0.04000000 1558569.32294472 11502.24213633
0.04100000 1553377.67142494 15658.04765397
0.04200000 1548075.57240465 14977.63185787
0.04300000 1542662.90466401 12217.89077207
0.04400000 1537143.53057975 14526.00703859
0.04500000 1531516.62337892 15851.19778850
0.04600000 1525782.98818055 11832.44762339
0.04700000 1519945.73745382 12037.97080050
0.04800000 1514004.77017646 13353.52269427
0.04900000 1507963.31946496 14702.64304915
0.05000000 1501820.40725551 13786.71198060
0.05100000 1495579.56180744 16331.72957574
0.05200000 1489239.02488716 13023.39587955
0.05300000 1482804.25111655 12010.71499396
0.05400000 1476273.51909078 18268.88565070
0.05500000 1469650.68224873 12345.06630678
0.05600000 1462934.44347960 15009.70809052
0.05700000 1456129.66138299 16468.82723898
0.05800000 1449234.98317286 14108.30321994
0.05900000 1442252.25098093 12980.27086508
0.06000000 1435184.45339259 17071.51987067
0.06100000 1428033.13768885 17264.92144147
0.06200000 1420798.43161515 18797.16412891
0.06300000 1413483.65398976 17640.27682657
0.06400000 1406086.88127211 13709.34773354
0.06500000 1398614.64138708 18000.17127666
0.06600000 1391064.34824699 16776.23682479
0.06700000 1383439.37089094 15522.19046782
0.06800000 1375742.29559884 21358.40013894
0.06900000 1367974.07618976 15800.10131974
0.07000000 1360134.40027057 23176.69126594
0.07100000 1352227.69269278 18985.27769463
0.07200000 1344253.20936413 17663.48799852
0.07300000 1336215.74392080 14831.99545248
0.07400000 1328114.10809728 20917.79818283
0.07500000 1319951.38109598 16552.19109479
0.07600000 1311727.05539780 18180.53784013
0.07700000 1303446.94979060 18300.39603314
0.07800000 1295109.19798395 21485.86260216
0.07900000 1286716.14167337 18528.71330916
0.08000000 1278271.25477162 17084.09612146
0.08100000 1269774.68693773 18741.87525854
0.08200000 1261227.97778723 18842.74687234
0.08300000 1252633.36128233 22096.45353005
0.08400000 1243992.01785033 17446.98886929
0.08500000 1235307.56705828 22309.65570840
0.08600000 1226579.40852117 20808.92064257
0.08700000 1217810.69713184 17682.61215269
0.08800000 1209000.58153572 17754.17437366
0.08900000 1200155.13523809 17822.30459539
0.09000000 1191272.51110724 24391.30581071
0.09100000 1182355.89466813 21211.46574689
0.09200000 1173406.10504707 19642.81912144
0.09300000 1164426.38468133 24627.61919332
0.09400000 1155415.34765566 23050.53726905
0.09500000 1146377.15878570 19809.39823491
0.09600000 1137312.94491826 18202.69453909
0.09700000 1128225.36352223 16584.91362348
0.09800000 1119115.61461778 18280.75442430
0.09900000 1109985.35601627 16649.78112316
0.10000000 1100834.44096142 26684.22810379
0.10100000 1091665.39999295 23383.47396762
0.10200000 1082480.91985852 20069.19719816
0.10300000 1073281.40863793 20091.82891484
0.10400000 1064069.92083373 26814.56326650
0.10500000 1054848.75106119 28512.56308268
0.10600001 1045614.59739225 20138.53809336
0.10700001 1036375.00328967 18468.20342769
0.10800001 1027127.21370588 20152.23688131
0.10900001 1017875.36316282 21833.42756745
0.11000001 1008619.67359019 20152.22202689
0.11100001 999362.29886520 18468.21615239
0.11200001 990105.43406805 20138.74547702
0.11300001 980848.09881611 18449.75360736
0.11400001 971594.62278939 16760.00803225
0.11500001 962345.60767506 25117.22154304
0.11600001 953101.54406899 21745.01275194
0.11700001 943865.91088442 21718.35563227
0.11800001 934636.74436781 21688.24667453
0.11900001 925418.18474886 23320.53935411
0.12000001 916210.61979002 24943.83529876
0.12100001 907017.40638032 19918.10318242
0.12200001 897836.75967363 21534.61569530
0.12300001 888672.42698891 23141.03108907
0.12400001 879524.25035296 21438.40461248
0.12500001 870394.34038310 18095.49918923
0.12600001 861285.06958562 21329.72575342
0.12700001 852196.29669106 17998.38663431
0.12800001 843128.54048915 19577.44563283
0.12900001 834084.64380648 26023.44211330
0.13000001 825065.44741528 17833.79048647
0.13100001 816070.91570889 21005.66636050
0.13200001 807104.50555688 22542.42990286
0.13300001 798167.09845256 16043.15943522
0.13400001 789257.63046225 15982.46777036
0.13500001 780379.44231170 15919.74137375
0.13600001 771532.00195268 19025.98006524
0.13700001 762718.10491881 15788.26551629
0.13800001 753936.63047014 18863.49538388
0.13900001 745192.45685153 17213.94656505
0.14000001 736482.49190089 17134.26598214
0.14100001 727810.46604111 18602.83638938
0.14200001 719174.82213784 20054.19086118
0.14300001 710581.41436350 18418.27112905
0.14400001 702023.41399772 18322.81196963
0.14500001 693510.12639212 21263.02147820
0.14600001 685036.46459518 18126.06570827
0.14700001 676608.51058930 21028.99350119
0.14800001 668221.74368854 17921.70801125
0.14900001 659879.10465728 19301.46472188
0.15000001 651582.70456789 19185.85364125
0.15100001 643332.50703856 17601.57822310
0.15200001 635130.14064230 23321.97986488
0.15300001 626975.74659330 23173.02468760
0.15400001 618867.62763485 18705.27492798
0.15500001 610810.94224886 15722.27439547
0.15600001 602802.37604863 17035.19595111
0.15700001 594848.17899642 16917.48300911
0.15800001 586940.74414202 18198.09863105
0.15900001 579088.53840023 15287.93813537
0.16000001 571286.77919422 15176.23400565
0.16100001 563541.67774023 13694.06341551
0.16200001 555847.98390978 14949.53223296
0.16300001 548210.12868923 21577.55168384
0.16400001 540627.21056808 17394.68132122
0.16500001 533100.16710944 15929.03374526
0.16600001 525629.07052802 14483.70972222
0.16700001 518214.32378855 15670.80189126
0.16800001 510855.73674424 12950.19353793
0.16900001 503556.94154198 16692.91340032
0.17000001 496315.48153389 16549.64051322
0.17100001 489132.36123892 16405.50017064
0.17200001 482008.49603464 18762.18159415
0.17300001 474943.96374296 13635.64184300
0.17400001 467939.86714980 19653.47534845
0.17500001 460995.04200605 20689.45846234
0.17600001 454108.86463522 16879.22729568
0.17700001 447285.98257417 14331.04355854
0.17800001 440522.98549206 13010.84699104
0.17900001 433821.10114857 11713.17028427
0.18000001 427181.61888864 13917.57780079
0.18100001 420604.74377196 13779.01205684
0.18200001 414087.01020413 15913.36455386
0.18300001 407634.22060048 11250.70502005
0.18400001 401241.98682130 12247.91222632
0.18500001 394913.52014294 16527.13159876
0.18600001 388647.49371475 13081.87525647
0.18700001 382443.78288459 10784.91518688
0.18800001 376302.72548320 10668.18277148
0.18900001 370226.80381244 16882.34305150
0.19000001 364209.80281025 11478.07247789
0.19100001 358261.04938344 10317.91870977
0.19200001 352371.83856619 11221.28172936
0.19300001 346548.39858755 11093.01476296
0.19400001 340787.17330725 11961.63034832
0.19500001 335089.99886969 10836.81107554
0.19600001 329454.70069307 10708.92555209
0.19700001 323883.74908698 15390.95648395
0.19800001 318375.97809490 14255.28509289
0.19900001 312932.37680800 9387.97174792
0.20000001 307549.85104641 9272.62844728
0.20100001 302232.13985528 10073.39769747
0.20200001 296976.38061430 12660.10370395
0.20300001 291784.16650223 9821.45550867
0.20400001 286654.68736443 13221.94807963
0.20500001 281586.99640914 13051.55790047
0.20600001 276582.60370107 11164.25732611
0.20700001 271640.27685560 9322.69474236
0.20800001 266759.97508607 13380.68098282
0.20900001 261943.79755948 9901.47601580
0.21000001 257187.21140647 10581.96831355
0.21100001 252492.21654228 8832.17815218
0.21200001 247858.79169579 8710.99764596
0.21300001 243286.25465006 7809.48914346
0.21400001 238775.88751190 10780.73183084
0.21500001 234326.39447616 9110.61064796
0.21600001 229935.73441989 8981.29021106
0.21700001 225606.45109627 8852.79755957
0.21800001 221336.90639325 7998.00949067
0.21900001 217125.74565437 7881.66493991
0.22000001 212973.88799837 10590.12708145
0.22100001 208883.34040201 9042.56023357
0.22200001 204850.30561825 8222.69165632
0.22300001 200875.35754978 9449.17726595
0.22400001 196957.13665781 8641.49477949
0.22500001 193099.70346852 7200.68828284
0.22600001 189297.61243110 7734.70080970
0.22700001 185553.72942723 6980.53163116
0.22800001 181865.71079141 7496.50495333
0.22900001 178233.69614193 9838.50049231
0.23000001 174657.67925070 6657.07775947
0.23100001 171138.99263710 7742.32839306
0.23200001 167673.30531122 7032.21875733
0.23300001 164263.77924875 6342.22481675
0.23400001 160908.44416521 7373.62980261
0.23500001 157605.96208402 7253.02671815
0.23600001 154357.92351193 6036.16688443
0.23700001 151162.84357875 5396.51377101
0.23800001 148020.61330793 6367.84708570
0.23900001 144930.72931051 5739.25715216
0.24000001 141892.50359911 6155.29709728
0.24100001 138906.86737092 6050.78342889
0.24200001 135971.59477905 5451.78135055
0.24300001 133087.11750933 5845.18647750
0.24400001 130252.11764078 5265.44210470
0.24500001 127467.29632228 4703.54345679
0.24600001 124731.97877231 7394.11205140
0.24700001 122045.85737603 7264.16977466
0.24800001 119407.24044332 4905.84670569
0.24900001 116816.46744030 5256.74128350
0.25000001 114273.77559553 5162.88942565
0.25100001 111777.27648591 5070.21750127
0.25200001 109328.45208494 5393.71943879
0.25300001 106925.88539824 4481.26406905
0.25400001 104567.91679488 5199.63990863
0.25500001 102255.37030214 4319.26704592
0.25600001 99987.78021873  6167.24657568
0.25700001 97764.13441087  3783.47218071
0.25800001 95584.16139561  4456.13381510
0.25900001 93447.81339563  5102.25085281
0.26000001 91354.52486452  5364.79472651
0.26100001 89301.68001678  4211.46742886
0.26200001 87293.18531188  4476.83122055
0.26300001 85324.39869590  4392.50025271
0.26400001 83396.48678695  3315.01050664
0.26500001 81509.93177939  3902.69571827
0.26600001 79662.14067571  3509.51577354
0.26700001 77855.11561568  3755.73095502
0.26800001 76086.54414859  4605.13830251
0.26900001 74356.00678880  4215.98578443
0.27000001 72664.16052541  4135.31757119
0.27100001 71009.70662368  3476.63540082
0.27200001 69392.67780796  3125.79331978
0.27300001 67811.72272348  3901.88671016
0.27400001 66265.83574284  2733.46585375
0.27500001 64757.80410470  2949.07053849
0.27600001 63283.00108444  3418.23146535
0.27700001 61844.58099135  3352.59489421
0.27800001 60439.11980320  3035.25274017
0.27900001 59068.34402339  3473.21879296
0.28000001 57730.27108754  2676.66414566
0.28100001 56425.11986926  2625.46095178
0.28200001 55152.78656234  3043.60667050
0.28300001 53912.27347727  3215.32814237
0.28400001 52703.42184828  2928.99280785
0.28500001 51525.84657426  2873.59659946
0.28600001 50378.06131514  2602.53077072
0.28700001 49260.93733736  2340.87985307
0.28800001 48172.97255570  2297.12830505
0.28900001 47115.54205381  2049.52617635
0.29000001 46085.72297896  2615.13447423
0.29100001 45085.31500129  2567.15795769
0.29200001 44112.30781826  2326.48322446
0.29300001 43166.79926649  1903.65593776
0.29400001 42248.19365085  2617.27572056
0.29500001 41357.37377247  2938.02797187
0.29600001 40491.58927942  2164.68046535
0.29700001 39651.49268326  1949.66398753
0.29800001 38837.35575587  1916.04103692
0.29900001 38048.19455891  2225.81948706
0.30000001 37283.35283337  2188.34649815
0.30100001 36543.61047295  2483.13844919
0.30200001 35826.15930087  1953.95882077
0.30300001 35132.73629794  2082.66870634
0.30400001 34462.96472324  2049.68492395
0.30500001 33814.41128361  1552.08155140
0.30600001 33188.37984160  1681.15746047
0.30700001 32584.70242487  1957.03732029
0.30800001 32001.97169337  1483.29145821
0.30900001 31440.16093651  2339.14808442
0.31000001 30899.80452498  2018.06632907
0.31100001 30377.99921006  1563.85947338
0.31200001 29877.29952446  1683.28713490
0.31300001 29395.32096405  2907.49133421
0.31400001 28933.91847587  1640.55325526
0.31500001 28490.28713078  1755.57157612
0.31600002 28065.09764169  1734.84409286
0.31700002 27657.58900914  1319.26705820
0.31800002 27268.15004615  1696.21535393
0.31900002 26896.29360414  1420.12436954
0.32000002 26541.01289925  1661.33478109
0.32100002 26202.86155331  1645.27775484
0.32200002 25881.10838996  1630.12168913
0.32300002 25574.62672590  1367.21960951
0.32400002 25284.13804669  1355.86196696
0.32500002 25008.37700415  1467.49163209
0.32600002 24748.40622706  1699.47313609
0.32700002 24502.55805580  1567.18368746
0.32800002 24272.06670300  1796.73982277
0.32900002 24054.14986278  1547.88461697
0.33000002 23851.73218768  1421.08627104
0.33100002 23660.27295342  1649.59430843
0.33200002 23484.31276889  1524.95392186
0.33300002 23319.97244076  1518.82987699
0.33400002 23168.84072148  1979.19831236
0.33500002 23029.36222849  1160.67991128
0.33600002 22901.87303105  1389.22768385
0.33700002 22785.25212513  1155.21233745
0.33800002 22681.45941410  1268.68749241
0.33900002 22587.42797772  1382.35065770
0.34000002 22504.88902135  1496.46266634
0.34100002 22432.72148226  1265.87853319
0.34200002 22371.77207483  1381.23327331
0.34300002 22319.34421954  1266.84603790
0.34400002 22277.53305750  1729.29358549
0.34500002 22244.76154741  1616.30445058
0.34600002 22222.40469428  1272.34384103
0.34700002 22206.88902573  1506.95956066
0.34800002 22201.77496870  1510.94186706
0.34900002 22204.64818775  1398.89290208
0.35000002 22215.81782919  1754.49429616
0.35100002 22235.10351053  1291.41487306
0.35200002 22261.38319140  1414.48835498
0.35300002 22295.57762427  1420.67427351
0.35400002 22337.48905427  1308.41848333
0.35500002 22386.14841637  1554.04649667
0.35600002 22441.18613920  1201.72557467
0.35700002 22503.14532499  1691.78654566
0.35800002 22571.95897776  1337.05005338
0.35900002 22646.48245701  1467.49213272
0.36000002 22727.78272646  1476.85139152
0.36100002 22813.95813778  1486.55758267
0.36200002 22906.94348981  1372.01144531
0.36300002 23003.54061728  1255.99337720
0.36400002 23106.20631544  1518.07782683
0.36500002 23213.22991047  1784.16893543
0.36600002 23325.68320752  1540.89470568
0.36700002 23442.30153534  1423.41661665
0.36800002 23564.70321159  1565.16766145
0.36900002 23690.36344446  1840.74132683
0.37000002 23819.17704286  1723.19844479
0.37100002 23952.42147369  1603.85421785
0.37200002 24089.82777287  1617.39111329
0.37300002 24230.02767191  1903.02646350
0.37400002 24374.68658122  1508.18380366
0.37500002 24521.37875682  1383.00582740
0.37600002 24672.20437571  1674.25586825
0.37700002 24824.66973802  1970.58237715
0.37800002 24980.75221637  1704.18699693
0.37900002 25139.16472929  1719.51894894
0.38000002 25300.14578946  1735.08408044
0.38100002 25462.84160165  1750.82507147
0.38200002 25627.94413553  1619.55800637
0.38300002 25794.85631029  1634.36217325
0.38400002 25964.07468907  1649.36792276
0.38500002 26133.98472701  2118.42090233
0.38600002 26306.59528572  1832.51751442
0.38700002 26479.51453222  1541.10781878
0.38800002 26653.81699114  1866.30035414
0.38900002 26829.46158576  1726.47593484
0.39000002 27006.72207904  2534.31091996
0.39100002 27183.99730906  3356.68014675
0.39200002 27362.52978540  2258.22969018
0.39300002 27541.43406554  2441.54824558
0.39400002 27721.70286941  1642.51097283
0.39500002 27901.45497317  1823.08115432
0.39600002 28081.53917867  1839.48131105
0.39700002 28261.43373090  2024.64920841
0.39800002 28442.61206800  2383.20657809
0.39900002 28622.83856219  2060.84447412
0.40000002 28802.85936742  1905.74128034
0.40100002 28982.59524814  2446.71080677
0.40200002 29163.09032496  2291.78156177
0.40300002 29342.03349281  1778.12731391
0.40400002 29520.55712129  2152.04871611
0.40500002 29698.61102042  2532.10369557
0.40600002 29876.10957711  2188.72389132
0.40700002 30052.75603783  2207.07450799
0.40800002 30228.62042139  2039.97854579
0.40900002 30402.83609019  2804.66176221
0.41000002 30576.82912466  2639.08624679
0.41100002 30749.37182624  2850.46690335
0.41200002 30920.09980000  2107.05030071
0.41300002 31089.99311391  2123.75753024
0.41400002 31258.49374979  1945.84132812
0.41500002 31425.91323553  2353.17249458
0.41600002 31590.63120187  1975.99407531
0.41700002 31754.62100953  2389.21779797
0.41800002 31917.84481608  2407.24397009
0.41900002 32077.32443225  2020.87153499
0.42000002 32235.85799742  2646.40288770
0.42100002 32393.03214046  2460.57483798
0.42200002 32548.19279284  2271.70122362
0.42300002 32700.84944789  2703.70636047
0.42400002 32851.61700333  2303.71975152
0.42500002 33000.68386251  3163.11569811
0.42600002 33146.31312236  2123.02145609
0.42700002 33291.00153274  2564.73887962
0.42800002 33432.89916926  3011.97002889
0.42900002 33573.18584381  2382.01764849
0.43000002 33711.10675137  2833.25010118
0.43100002 33845.24350802  3509.07501320
0.43200002 33977.92130282  2427.55270252
0.43300002 34107.79692099  3552.66829564
0.43400002 34235.49395007  2457.25269471
0.43500002 34360.26785684  2921.31011163
0.43600002 34483.36241049  2486.42296444
0.43700002 34602.85381319  3410.11140489
0.43800002 34718.98498853  2286.24526984
0.43900002 34833.56371048  2758.81837661
0.44000002 34944.64770165  2311.58855501
0.44100002 35053.72157486  2788.87422066
0.44200002 35159.74490179  2803.63819133
0.44300002 35263.13837735  3053.08266540
0.44400002 35363.02603278  4720.96419911
0.44500002 35459.48845540  3083.91185712
0.44600002 35553.80507425  4290.98893777
0.44700002 35645.41774641  3113.98384190
0.44800002 35733.02087674  2887.94288412
0.44900002 35819.07596108  2659.56651615
0.45000002 35901.71213803  2671.62603537
0.45100002 35980.20542554  3415.24126085
0.45200002 36056.57957692  2940.05363804
0.45300002 36129.42970886  2460.41427978
0.45400002 36199.69306615  2470.62916886
0.45500002 36266.82420670  3472.91125063
0.45600002 36330.53713673  3237.59597038
0.45700002 36391.22932506  3500.10860237
0.45800002 36448.14237608  2509.45472153
0.45900002 36502.36557252  3274.26234704
0.46000002 36554.17556065  3033.26563178
0.46100002 36601.51355724  4312.02451655
0.46200002 36646.59455388  2799.61672363
0.46300002 36688.13704894  2553.49445963
0.46400002 36726.09076733  3073.97394292
0.46500002 36761.75948303  3083.57653158
0.46600002 36793.46358937  3866.07336989
0.46700002 36821.96770623  2843.39248104
0.46800002 36848.13985269  3369.94678995
0.46900002 36870.15026750  2859.28028876
0.47000002 36888.88209491  3648.67950094
0.47100002 36904.94376962  3135.44417128
0.47200002 36917.45952900  3667.01142882
0.47300002 36927.51738905  3413.21059405
0.47400002 36932.86837463  3157.76039570
0.47500002 36936.28345943  3428.42599320
0.47600002 36936.76559335  4228.52112555
0.47700002 36933.02637002  3972.14717437
