# SAXS profile: number of points = 501, q_min = 0, q_max = 0.5, delta_q = 0.001
#    q    intensity    error
0.00000000 1646666.22097351 271.69992646
0.00100000 1646598.39216736 592.77543526
0.00200000 1646394.84918424 1259.49209951
0.00300000 1646055.76652772 1283.92354363
0.00400000 1645580.98832547 1357.60436695
0.00500000 1644970.99602785 1776.56874603
0.00600000 1644225.53163470 2071.72425420
0.00700000 1643345.22923197 1972.01435704
0.00800000 1642329.49103488 2217.14490650
0.00900000 1641179.75587044 3200.30066075
0.01000000 1639895.13768651 2976.40980342
0.01100000 1638476.84595159 3539.11014135
0.01200000 1636924.38891380 3511.20296816
0.01300000 1635239.17630239 4120.80290603
0.01400000 1633420.33513100 4777.75469206
0.01500000 1631469.69784530 5090.18568394
0.01600000 1629386.20221873 4154.93500140
0.01700000 1627171.86263635 6590.04633930
0.01800000 1624826.24368727 5556.90600346
0.01900000 1622350.01699542 5840.46032472
0.02000000 1619743.94771347 6632.85176593
0.02100000 1617009.58842946 6403.35826050
0.02200000 1614145.04693059 6682.56079790
0.02300000 1611153.28636880 6960.18251393
0.02400000 1608034.32474882 9648.20638843
0.02500000 1604789.21888466 8136.28171133
0.02600000 1601418.27295812 8431.46759277
0.02700000 1597922.50298086 8724.65726587
0.02800000 1594301.80461703 9709.29843538
0.02900000 1590558.65328813 7873.26569527
0.03000000 1586693.61302029 11067.18845952
0.03100000 1582706.48703195 9876.08893351
0.03200000 1578598.58658737 8595.46969986
0.03300000 1574372.56001738 8832.23046887
0.03400000 1570026.42196887 12363.95864348
0.03500000 1565563.56867920 10990.25675964
0.03600000 1560983.68707052 10396.15183633
0.03700000 1556288.61913291 9757.93009324
0.03800000 1551479.55554844 10891.38698400
0.03900000 1546557.81199097 11135.21676201
0.04000000 1541522.24737295 14220.54339098
0.04100000 1536376.90221915 11615.00991932
0.04200000 1531122.02169594 10863.31124791
0.04300000 1525757.59914275 10070.00062177
0.04400000 1520287.53862690 12314.32963478
0.04500000 1514710.99880528 12541.80765286
0.04600000 1509028.67821379 13830.24847875
0.04700000 1503243.65603315 10823.35482681
0.04800000 1497355.95435815 14307.23680958
0.04900000 1491368.62886394 12303.79176084
0.05000000 1485280.86999725 13634.87902150
0.05100000 1479096.13582664 12690.64543657
0.05200000 1472812.50339801 18734.17591626
0.05300000 1466435.83169358 21380.63542281
0.05400000 1459963.98274778 12044.70341936
0.05500000 1453400.82573960 14650.28100688
0.05600000 1446745.32342268 13606.64040173
0.05700000 1440002.03179706 13780.82008757
0.05800000 1433169.74704262 15220.26342426
0.05900000 1426250.38518416 20538.00650590
0.06000000 1419246.74384061 16881.94080669
0.06100000 1412160.29929285 19699.63709573
0.06200000 1404991.39350319 14604.88621815
0.06300000 1397743.22396083 18785.66980836
0.06400000 1390413.89406218 25757.41859209
0.06500000 1383009.90293744 16430.15841546
0.06600000 1375528.57462715 19353.68795053
0.06700000 1367973.36883001 18139.32771959
0.06800000 1360346.71794976 15487.54810882
0.06900000 1352649.70341306 21304.23382620
0.07000000 1344882.05686317 17187.59349158
0.07100000 1337048.12463156 18772.15654907
0.07200000 1329147.04922074 16009.57695786
0.07300000 1321183.65259204 19064.68100019
0.07400000 1313156.92460243 20682.22253174
0.07500000 1305069.62212620 17853.35326752
0.07600000 1296921.60260966 19473.27877610
0.07700000 1288718.24789409 21109.20589028
0.07800000 1280457.92959043 16690.76989495
0.07900000 1272142.81233742 18318.85735688
0.08000000 1263776.52764015 18425.86263737
0.08100000 1255359.23049073 15440.91925950
0.08200000 1246892.41924068 17076.19248280
0.08300000 1238378.13852000 17163.92180542
0.08400000 1229817.80726684 18816.21333439
0.08500000 1221214.84549718 17329.03947112
0.08600000 1212568.65335399 18988.82600308
0.08700000 1203882.72203070 15891.25267702
0.08800000 1195155.55819593 22337.45843173
0.08900000 1186393.63383016 20821.20925169
0.09000000 1177595.14370099 19289.00935993
0.09100000 1168763.04382443 17741.82383879
0.09200000 1159898.18372794 16180.58042328
0.09300000 1151003.85524413 25966.64819454
0.09400000 1142078.50870593 19529.54341671
0.09500000 1133126.68738237 16317.02506525
0.09600000 1124149.25092368 27805.83302869
0.09700000 1115148.65345254 16392.68597642
0.09800000 1106126.25237960 16425.97562015
0.09900000 1097083.75439056 23038.75992554
0.10000000 1088021.06507245 21428.57588433
0.10100000 1078940.37601978 18158.56738244
0.10200000 1069844.51207849 19834.91818690
0.10300000 1060734.06921484 21511.68793560
0.10400000 1051612.00254176 21531.75676501
0.10500000 1042480.53930752 18232.98549034
0.10600001 1033336.16134375 18243.55078695
0.10700001 1024186.85468551 21569.37617468
0.10800001 1015029.37751312 19914.87732404
0.10900001 1005868.13046822 26554.91989419
0.11000001 996703.23561358 24892.66448114
0.11100001 987536.80894469 23226.86683975
0.11200001 978371.21796203 24875.08938773
0.11300001 969205.38014519 19888.09533693
0.11400001 960043.41052210 19872.89953351
0.11500001 950886.10626291 21509.04473648
0.11600001 941733.79522966 23138.40043841
0.11700001 932590.23524448 16506.84794122
0.11800001 923452.97119955 18131.99994349
0.11900001 914326.50356679 18103.66562333
0.12000001 905211.30169488 16429.58589968
0.12100001 896110.21597944 19678.58126993
0.12200001 887021.98622128 21275.22334182
0.12300001 877949.96546815 19595.84415250
0.12400001 868894.17908304 17920.94328798
0.12500001 859856.68686067 19501.55057692
0.12600001 850839.91502761 22691.90160311
0.12700001 841843.66383529 29094.11839325
0.12800001 832868.27760424 19339.20231741
0.12900001 823916.88431724 16066.38000143
0.13000001 814989.82708561 19217.46102849
0.13100001 806087.76533134 15960.53850590
0.13200001 797213.57007445 17494.85262000
0.13300001 788368.33334998 22184.68594632
0.13400001 779550.88003709 15785.90606499
0.13500001 770764.75029055 23585.40247090
0.13600001 762009.16686690 18791.14694095
0.13700001 753286.84021073 17152.34216039
0.13800001 744597.04792321 18629.81901754
0.13900001 735944.27737618 20091.27971984
0.14000001 727325.65985456 18459.52611767
0.14100001 718744.72858284 21432.96881718
0.14200001 710200.12093871 22850.68996896
0.14300001 701697.22455508 16672.32684182
0.14400001 693229.78352981 16585.52335329
0.14500001 684806.97016705 23995.63736658
0.14600001 676423.24344828 17898.15986598
0.14700001 668085.25355273 17797.79199428
0.14800001 659788.11713264 26543.27720452
0.14900001 651535.00834416 24921.21524497
0.15000001 643327.59943128 14571.37081464
0.15100001 635166.37538084 15929.97344621
0.15200001 627052.41342661 14390.85356720
0.15300001 618986.31399247 18588.15988635
0.15400001 610966.30987504 26989.43801239
0.15500001 602997.25788123 16932.16380038
0.15600001 595075.84737323 19619.65161384
0.15700001 587208.81023110 13916.84945931
0.15800001 579388.01240971 23491.28807191
0.15900001 571622.24144563 15090.82788646
0.16000001 563906.50979231 19065.67999602
0.16100001 556246.70662290 17571.83429168
0.16200001 548638.45443977 21462.73735085
0.16300001 541085.33685939 21297.11986418
0.16400001 533586.94888916 18488.78865186
0.16500001 526143.86078475 19651.47412808
0.16600001 518756.78471831 20791.77291315
0.16700001 511425.16356403 24487.03798759
0.16800001 504149.32208190 14058.20451003
0.16900001 496933.05535698 13938.97286093
0.17000001 489773.40565984 18844.03267257
0.17100001 482671.83242529 21169.98756985
0.17200001 475629.11799786 13576.83381439
0.17300001 468645.31735853 13454.80769676
0.17400001 461721.21848442 13332.20081336
0.17500001 454856.12164271 12008.20217849
0.17600001 448049.15517763 13085.27619497
0.17700001 441305.19973231 14139.41926724
0.17800001 434620.29171677 15170.42199890
0.17900001 427996.20670195 12711.48793946
0.18000001 421433.95689121 13730.31896407
0.18100001 414933.88203311 13593.23461750
0.18200001 408492.47085313 14577.05451098
0.18300001 402115.32233846 18867.25181540
0.18400001 395798.40877401 10983.40636234
0.18500001 389544.52857577 11955.12214678
0.18600001 383352.74983530 12903.65416907
0.18700001 377222.53006700 11701.44343551
0.18800001 371154.81398675 13678.91131576
0.18900001 365151.29554392 15610.21862205
0.19000001 359206.31026735 12349.51353049
0.19100001 353329.18675310 11193.46916523
0.19200001 347510.71989879 15090.65372466
0.19300001 341757.60040512 13923.20529841
0.19400001 336066.19833060 14744.90514851
0.19500001 330438.23607901 11657.86151976
0.19600001 324871.65547393 11519.94944750
0.19700001 319368.85163569 11382.30641020
0.19800001 313928.49960442 12181.99600286
0.19900001 308551.67439727 11107.86080326
0.20000001 303235.42925474 11885.31321135
0.20100001 297983.55212525 9931.79226173
0.20200001 292792.98446618 8915.54679837
0.20300001 287665.32364552 11443.32711548
0.20400001 282599.85079749 13903.91331642
0.20500001 277595.58399305 12866.55592624
0.20600001 272653.88067608 10159.08407419
0.20700001 267773.78238884 11696.35936762
0.20800001 262955.21411999 9892.37562281
0.20900001 258199.94865245 10573.28839713
0.21000001 253503.66350443 9628.06959504
0.21100001 248868.49768084 10288.22418049
0.21200001 244294.10551625 11707.79556035
0.21300001 239780.25793971 8466.64130812
0.21400001 235327.72781598 9107.18349703
0.21500001 230935.59838312 9727.00786377
0.21600001 226601.80982688 8113.47818444
0.21700001 222328.60432602 10178.20398727
0.21800001 218114.58862446 10747.59686262
0.21900001 213958.39880402 7766.69024381
0.22000001 209860.80507866 8348.26322076
0.22100001 205823.88842193 9595.51013194
0.22200001 201843.98056670 8777.18590997
0.22300001 197921.49216657 9975.24367688
0.22400001 194055.13849171 6549.36123379
0.22500001 190249.07307926 9674.16582355
0.22600001 186497.50568371 7620.28844259
0.22700001 182803.59382208 8127.44816567
0.22800001 179165.08835816 8616.04950660
0.22900001 175581.93237150 9086.36542993
0.23000001 172054.03599171 7750.17441777
0.23100001 168583.00690378 7626.69559301
0.23200001 165164.47836783 6349.74867115
0.23300001 161801.26333891 9086.75937887
0.23400001 158491.71280647 6704.19976879
0.23500001 155234.50353837 6044.83185368
0.23600001 152031.00419118 6485.64294555
0.23700001 148880.07580153 8504.03033201
0.23800001 145781.13006311 5748.87913595
0.23900001 142734.18186945 5652.27386938
0.24000001 139738.16404032 6566.99532970
0.24100001 136794.35803023 7945.01669020
0.24200001 133900.12010574 5368.72556959
0.24300001 131056.13054700 5276.32006541
0.24400001 128261.00578523 6127.66984125
0.24500001 125515.53774709 6020.98063055
0.24600001 122819.04952890 5915.57980040
0.24700001 120171.12581214 4470.36609169
0.24800001 117570.12093173 5269.49306944
0.24900001 115016.42677204 5607.05107039
0.25000001 112510.32857246 4659.61547827
0.25100001 110049.67709786 4991.85358932
0.25200001 107636.25505255 5718.71450149
0.25300001 105268.50224271 5213.94916276
0.25400001 102944.74889804 4725.16419797
0.25500001 100665.98248366 3865.57391026
0.25600001 98431.61912524  4173.99300649
0.25700001 96240.62710820  4096.96368984
0.25800001 94092.62437790  5483.24794506
0.25900001 91987.91191518  5381.29310165
0.26000001 89925.81346036  3872.65533991
0.26100001 87903.44519517  3454.60555963
0.26200001 85924.79050147  5084.59971851
0.26300001 83985.48571553  5653.90316590
0.26400001 82086.61976908  3589.23761924
0.26500001 80228.55284031  3521.23135078
0.26600001 78408.67790386  3454.29446851
0.26700001 76629.02843485  3080.48708885
0.26800001 74887.45071150  3626.05053504
0.26900001 73183.34335643  3853.10321005
0.27000001 71517.52692754  3488.62512861
0.27100001 69888.39644080  4562.31473556
0.27200001 68296.39155151  3076.41110302
0.27300001 66739.90730619  3291.61238411
0.27400001 65218.12917617  3497.32234258
0.27500001 63733.63288037  2902.42977873
0.27600001 62281.87231997  4140.49906778
0.27700001 60866.12286526  3045.74093232
0.27800001 59482.89738954  3485.10312299
0.27900001 58133.85014482  2929.94618597
0.28000001 56816.94305358  2873.80111566
0.28100001 55532.61616536  3288.64168496
0.28200001 54280.70475884  2765.05923128
0.28300001 53060.18977984  2938.47344909
0.28400001 51870.85165209  3769.71432224
0.28500001 50712.35013344  2393.11591607
0.28600001 49583.21892483  2988.38074605
0.28700001 48484.47291720  3141.79399374
0.28800001 47414.28357739  3083.11393555
0.28900001 46374.18695766  2017.27722814
0.29000001 45361.41419527  2376.03098802
0.29100001 44377.80881677  2332.49774182
0.29200001 43420.93167355  2290.02004486
0.29300001 42491.30081145  1873.86645449
0.29400001 41588.18878315  2024.30518484
0.29500001 40712.58115749  3976.80511571
0.29600001 39861.42746972  2663.74001676
0.29700001 39035.71964966  2093.87610113
0.29800001 38235.56229274  1714.86505001
0.29900001 37460.07199838  2022.84398367
0.30000001 36708.51132549  1657.38936481
0.30100001 35981.57186809  1792.96181107
0.30200001 35276.76242647  1763.66182100
0.30300001 34595.66075434  1735.31842559
0.30400001 33937.72539625  2328.97651558
0.30500001 33300.80730025  1528.50712744
0.30600001 32686.00796175  1806.22888548
0.30700001 32093.31247620  1779.25332792
0.30800001 31521.14779455  1899.30685028
0.30900001 30969.63310196  1584.09680816
0.31000001 30439.34823866  1561.99522882
0.31100001 29927.17952377  1820.76968843
0.31200001 29435.91733773  1382.01638444
0.31300001 28963.01701728  1636.98979932
0.31400001 28510.34513369  1481.82525848
0.31500001 28075.42704379  1596.93036586
0.31600002 27658.36533573  1446.67086738
0.31700002 27258.87148515  1560.29787769
0.31800002 26877.14204559  2186.32122322
0.31900002 26512.71235717  2163.43743078
0.32000002 26164.49289151  1259.82039238
0.32100002 25833.21713986  1247.74444694
0.32200002 25518.23866007  1978.17395460
0.32300002 25218.20169662  1348.16512654
0.32400002 24933.91430063  1580.18689363
0.32500002 24664.11329885  1447.29023691
0.32600002 24409.83268768  1795.95352504
0.32700002 24169.53973904  1545.88383491
0.32800002 23944.23966188  1181.64828327
0.32900002 23731.40223893  1762.05669968
0.33000002 23533.66900648  1402.13606580
0.33100002 23346.95615188  1162.67847142
0.33200002 23175.28537886  1389.12667139
0.33300002 23015.21776710  1498.98120416
0.33400002 22868.03352916  1608.76623496
0.33500002 22732.39497163  1260.28403691
0.33600002 22608.51905812  1371.43283101
0.33700002 22495.26979492  1254.56125588
0.33800002 22394.75280194  1366.52788069
0.33900002 22303.71726056  1251.23859757
0.34000002 22224.15299992  1364.11857574
0.34100002 22154.70300659  1136.53631806
0.34200002 22096.24164512  1932.64786702
0.34300002 22046.27251746  1251.34648735
0.34400002 22006.59429175  1480.49370109
0.34500002 21975.90204226  1482.71418101
0.34600002 21955.47438627  1485.61724471
0.34700002 21941.77433296  1718.04101164
0.34800002 21938.26036916  1607.85517861
0.34900002 21942.69877511  1727.98761038
0.35000002 21955.13014359  1271.53142249
0.35100002 21975.67888476  1276.34749008
0.35200002 22003.05700946  1281.56811621
0.35300002 22038.17705729  1287.24998288
0.35400002 22080.94055350  1293.39115418
0.35500002 22130.37147802  1772.64283935
0.35600002 22186.02692370  1306.86797784
0.35700002 22248.43516094  1911.58563957
0.35800002 22317.65483279  1562.34750057
0.35900002 22392.47375236  1451.03236788
0.36000002 22474.01251405  1460.36140233
0.36100002 22560.25337578  1960.03490613
0.36200002 22653.20645028  1603.50729454
0.36300002 22749.69316229  1490.55996660
0.36400002 22852.06518183  1501.38075356
0.36500002 22958.93050843  1764.62348246
0.36600002 23071.04651061  1524.07340468
0.36700002 23187.15341851  1791.90330106
0.36800002 23309.03962853  1290.15540455
0.36900002 23434.22106060  1820.83906266
0.37000002 23562.31231341  1311.24274235
0.37100002 23694.88529791  1454.39212848
0.37200002 23831.42614361  1466.70519149
0.37300002 23970.79232293  1479.23766432
0.37400002 24114.52462359  1356.44207433
0.37500002 24260.30865992  1778.76591521
0.37600002 24410.09290626  2208.62531078
0.37700002 24561.54345611  1810.43145391
0.37800002 24716.52303791  2107.70160190
0.37900002 24873.76852978  1559.58536070
0.38000002 25033.51490106  1573.73198881
0.38100002 25195.05260559  1876.77955750
0.38200002 25358.76726029  2330.97799699
0.38300002 25524.39964194  2499.34933134
0.38400002 25692.29035799  1632.10282231
0.38500002 25860.70138003  2695.20242551
0.38600002 26031.93517483  1813.38469019
0.38700002 26203.47904426  2287.56382894
0.38800002 26376.34561061  1692.96582322
0.38900002 26550.37026077  2329.79510076
0.39000002 26726.20385788  1567.49193053
0.39100002 26901.94074499  1581.83419075
0.39200002 27078.94629072  1915.56475136
0.39300002 27256.30432505  2255.18672670
0.39400002 27434.99899028  1625.52376719
0.39500002 27613.23634715  1804.24894840
0.39600002 27791.70825682  2151.49519663
0.39700002 27970.10470296  2504.72299482
0.39800002 28149.55215743  2358.65108702
0.39900002 28328.21124404  1699.69275517
0.40000002 28506.73931936  2057.61654156
0.40100002 28684.79458410  1729.69319537
0.40200002 28863.75150691  1919.29524739
0.40300002 29041.15540552  2991.81997163
0.40400002 29218.00741363  1952.49343793
0.40500002 29394.47792511  2148.14854855
0.40600002 29570.43439024  2527.38514708
0.40700002 29745.50990007  2002.46782135
0.40800002 29920.00213780  2019.15143994
0.40900002 30092.55022998  2961.10708293
0.41000002 30265.09076981  2798.76440155
0.41100002 30436.14641184  1880.95393738
0.41200002 30605.43054961  3223.21107106
0.41300002 30773.89182980  2293.27052782
0.41400002 30940.93790144  2118.68082319
0.41500002 31106.99485435  1941.07657089
0.41600002 31270.32812716  2347.15094044
0.41700002 31432.94605682  2562.09955449
0.41800002 31594.85927298  1985.73699940
0.41900002 31753.07090296  2200.48791784
0.42000002 31910.21484347  2821.18222799
0.42100002 32066.23041302  2435.75097759
0.42200002 32220.25640017  2248.81290201
0.42300002 32371.60936479  2470.60134379
0.42400002 32521.26983712  2695.20036547
0.42500002 32669.19549367  2713.83019826
0.42600002 32813.84206041  2942.41735699
0.42700002 32957.46389776  2115.86928250
0.42800002 33098.35441946  2129.87920782
0.42900002 33237.73099762  2572.60050112
0.43000002 33374.69883213  2373.44181992
0.43100002 33507.92781587  3256.97073804
0.43200002 33639.78225082  2840.37514895
0.43300002 33768.90804562  2198.35601795
0.43400002 33895.79744073  2432.87097660
0.43500002 34019.91739984  2447.39297372
0.43600002 34142.29979165  2685.63342888
0.43700002 34261.09652333  3376.43122238
0.43800002 34376.74185109  3169.19198144
0.43900002 34490.76336253  2276.39048980
0.44000002 34601.28987670  3891.08823748
0.44100002 34709.99039307  2531.39971933
0.44200002 34815.59937070  3007.54569417
0.44300002 34918.61599008  3255.81190921
0.44400002 35018.33080997  2804.96843081
0.44500002 35114.42201212  3053.90142712
0.44600002 35208.48678261  4013.23955611
0.44700002 35299.96553084  3795.45247375
0.44800002 35387.53753350  3336.69107216
0.44900002 35473.46182381  2394.45878659
0.45000002 35556.11461870  2405.37126795
0.45100002 35634.62854136  3865.64468737
0.45200002 35711.07840285  2911.88147097
0.45300002 35784.11283905  3411.65747976
0.45400002 35854.55451554  3425.90284632
0.45500002 35921.95341383  3685.59259493
0.45600002 35985.93675921  2466.83608176
0.45700002 36047.00993092  3219.35860951
0.45800002 36104.33777709  3231.51890589
0.45900002 36158.97006133  2993.96286297
0.46000002 36211.32079752  2504.01295182
0.46100002 36259.33284336  3266.60345068
0.46200002 36304.97345972  4034.20884204
0.46300002 36347.13019330  2782.73641949
0.46400002 36385.80656666  3045.49215397
0.46500002 36422.25007978  3055.09848149
0.46600002 36454.79460486  2809.02433141
0.46700002 36484.18121955  2561.18964300
0.46800002 36511.22311819  2568.56466810
0.46900002 36534.24694699  3605.93034458
0.47000002 36554.07608255  3357.30927693
0.47100002 36571.16802920  2848.16270111
0.47200002 36584.86060036  3114.83517915
0.47300002 36596.00498968  2862.17368590
0.47400002 36602.67646026  2607.94082140
0.47500002 36607.34372206  2875.14091221
0.47600002 36609.20490177  3143.26648185
0.47700002 36606.87143944  4199.54049058
