# SAXS profile: number of points = 501, q_min = 0, q_max = 0.5, delta_q = 0.001
#    q    intensity    error
0.00000000 1646666.22097351 321.09991309
0.00100000 1646598.38612771 592.77543308
0.00200000 1646394.82580435 889.05323409
0.00300000 1646055.71227717 1185.16015506
0.00400000 1645580.89154928 1481.02285867
0.00500000 1644970.85243212 1924.61597352
0.00600000 1644225.30878070 1726.43664451
0.00700000 1643344.94086937 2169.21541210
0.00800000 1642329.11920940 2217.14440454
0.00900000 1641179.27059472 3446.47661558
0.01000000 1639894.54385373 3788.15655987
0.01100000 1638476.11937586 4423.88571493
0.01200000 1636923.54495105 3511.20115786
0.01300000 1635238.17538545 5494.40051162
0.01400000 1633419.17533564 4042.71263817
0.01500000 1631468.36024297 4698.62908672
0.01600000 1629384.69440473 5816.90361906
0.01700000 1627170.15700074 4832.69558308
0.01800000 1624824.30954462 5556.89938869
0.01900000 1622347.90161503 5353.74831690
0.02000000 1619741.58729149 5612.40485385
0.02100000 1617007.02173150 7470.57277910
0.02200000 1614142.20309501 9466.94445126
0.02300000 1611150.17827311 6960.16908696
0.02400000 1608030.96673687 7839.15132029
0.02500000 1604785.57784365 6884.53044337
0.02600000 1601414.30379851 7134.30104973
0.02700000 1597918.26734803 7382.38273327
0.02800000 1594297.24443435 7628.71266447
0.02900000 1590553.75078785 7157.49220718
0.03000000 1586688.38516993 12542.77226130
0.03100000 1582700.89119666 11395.44694096
0.03200000 1578592.64242777 10939.64751588
0.03300000 1574366.29520936 9635.12217086
0.03400000 1570019.78210299 13188.16677817
0.03500000 1565556.52782391 10990.20733283
0.03600000 1560976.25019163 13861.46974229
0.03700000 1556280.80123408 8870.80097729
0.03800000 1551471.31987623 12706.55069784
0.03900000 1546549.12685143 12991.01326717
0.04000000 1541513.13249731 12324.39806542
0.04100000 1536367.29631891 15486.58306495
0.04200000 1531111.98673024 13825.94188160
0.04300000 1525747.13979790 10069.93159009
0.04400000 1520276.65652723 10261.86790814
0.04500000 1514699.59320738 12541.71321451
0.04600000 1509016.78074951 12766.28255861
0.04700000 1503231.29224384 18399.55187279
0.04800000 1497343.03708166 14307.11338500
0.04900000 1491355.25119621 14540.71437600
0.05000000 1485266.94613438 19315.89753394
0.05100000 1479081.69113148 13844.20527391
0.05200000 1472797.57053702 14050.48947769
0.05300000 1466420.35678182 19004.80870986
0.05400000 1459947.86996887 13249.02753782
0.05500000 1453384.27444374 17091.79986478
0.05600000 1446728.16714075 12369.52640627
0.05700000 1439984.32792529 12527.86423773
0.05800000 1433151.52348991 15220.06989012
0.05900000 1426231.56804712 12836.08471194
0.06000000 1419227.28719063 14284.52331293
0.06100000 1412140.30183958 15759.48650499
0.06200000 1404970.83682356 14604.67253145
0.06300000 1397721.98906906 16101.75806692
0.06400000 1390392.03828094 14911.95530795
0.06500000 1382987.50839064 17799.05006559
0.06600000 1375505.56258964 20735.74732623
0.06700000 1367949.70198762 13953.08761326
0.06800000 1360322.48574600 14079.33838651
0.06900000 1352624.82972629 15622.81751478
0.07000000 1344856.55589531 20051.81218739
0.07100000 1337021.93962440 17327.80514913
0.07200000 1329120.27573124 24741.57509180
0.07300000 1321156.25946343 19064.28571733
0.07400000 1313128.78783510 19204.50942209
0.07500000 1305040.87178035 23803.94661702
0.07600000 1296892.20438458 16477.01622916
0.07700000 1288688.22455504 15077.65293426
0.07800000 1280427.24689625 19724.98266346
0.07900000 1272111.60838035 18318.40801988
0.08000000 1263744.62473364 18425.39749297
0.08100000 1255326.59727078 21616.72501922
0.08200000 1246859.11910202 17075.73643738
0.08300000 1238344.14660531 20284.07807337
0.08400000 1229783.19719731 17247.71015028
0.08500000 1221179.58066796 22054.50426222
0.08600000 1212532.74209133 20570.61893540
0.08700000 1203846.14812635 23836.15485219
0.08800000 1195118.31840090 19145.79635994
0.08900000 1186355.67770741 17617.38264144
0.09000000 1177556.52007579 20895.74143033
0.09100000 1168723.75570858 16128.38858651
0.09200000 1159858.27608576 22652.03319630
0.09300000 1150963.31964069 17851.44192650
0.09400000 1142037.38840060 22783.64696937
0.09500000 1133084.77334708 17948.06365342
0.09600000 1124106.70522545 21262.47932884
0.09700000 1115105.51093131 24588.07767199
0.09800000 1106082.36514041 18067.85628408
0.09900000 1097039.25136852 23037.82536203
0.10000000 1087975.91325764 16482.83586099
0.10100000 1078894.64410340 19808.50659737
0.10200000 1069798.14027174 21486.89665802
0.10300000 1060686.98136472 19856.06122519
0.10400000 1051564.32920358 18218.35286054
0.10500000 1042432.18605329 18232.13979188
0.10600001 1033287.14877542 23217.96332547
0.10700001 1024137.20396896 21568.33053054
0.10800001 1014979.19721421 19913.89278652
0.10900001 1005817.37515015 18255.58621819
0.11000001 996651.76561776 18253.67794648
0.11100001 987484.83968181 16589.74608759
0.11200001 978318.53560055 23215.49994272
0.11300001 969152.17683618 21544.25390539
0.11400001 959989.54018940 26495.71255676
0.11500001 950831.68261563 21507.81367353
0.11600001 941678.89064468 24789.69796361
0.11700001 932534.60910407 19807.03603018
0.11800001 923396.85523818 19779.16157077
0.11900001 914269.87657230 24685.28783017
0.12000001 905154.14742690 24642.82282450
0.12100001 896052.43528569 18037.53637202
0.12200001 886963.69900605 21273.82532290
0.12300001 877891.09407906 24493.16267879
0.12400001 868834.81809739 21177.84968897
0.12500001 859796.91405215 17875.17868543
0.12600001 850779.50607186 21069.55546074
0.12700001 841782.78531457 19394.67628765
0.12800001 832806.91357810 24172.22180582
0.12900001 823855.05958441 20884.72674481
0.13000001 814927.49699349 17614.65867778
0.13100001 806025.00749722 19151.15508087
0.13200001 797150.25436862 19083.77798920
0.13300001 788304.68415663 20598.40236808
0.13400001 779486.75103950 20519.98968854
0.13500001 770700.21684498 22011.19923088
0.13600001 761944.14580462 20355.33881494
0.13700001 753221.46034396 26505.86443934
0.13800001 744531.23706721 26389.91094228
0.13900001 735878.05132820 26270.84767130
0.14000001 727259.10979548 16919.68398733
0.14100001 718677.79354987 18369.40526949
0.14200001 710132.75207086 16755.58307539
0.14300001 701629.63053858 18186.24088136
0.14400001 693161.87768620 18091.52586099
0.14500001 684738.66870648 19494.51081767
0.14600001 676354.62071704 17896.34410842
0.14700001 668016.36004878 19278.95306052
0.14800001 659718.95996055 14744.71945075
0.14900001 651465.43121809 17589.56747278
0.15000001 643257.81153173 18940.72715423
0.15100001 635096.23825206 17376.23389847
0.15200001 626982.13707231 17267.08886975
0.15300001 618915.71128081 15726.64896577
0.15400001 610895.52086309 15623.65368337
0.15500001 602926.22471258 21162.71148614
0.15600001 595004.59882857 19617.30254921
0.15700001 587137.33092960 13915.15539978
0.15800001 579316.35708564 16580.03492235
0.15900001 571550.46224508 15088.93291548
0.16000001 563834.51922375 17701.58556659
0.16100001 556174.65459921 16218.05369367
0.16200001 548566.25438318 17436.17921866
0.16300001 541012.98018923 15970.70392913
0.16400001 533514.57742063 14524.93505599
0.16500001 526071.37117481 15719.01331282
0.16600001 518684.16372416 16890.95058915
0.16700001 511352.51198211 16751.90908347
0.16800001 504076.59093437 19167.51327530
0.16900001 496860.24214173 16470.91780472
0.17000001 489700.59050746 15072.98488756
0.17100001 482598.98395808 13696.15981148
0.17200001 475556.28535979 18511.02928177
0.17300001 468572.49881822 12229.74279670
0.17400001 461648.49203253 16965.58288341
0.17500001 454783.40763181 13206.91078136
0.17600001 447976.55057497 14272.53357540
0.17700001 441232.56009315 14137.09189309
0.17800001 434547.70561933 14001.12773636
0.17900001 427923.77326368 12709.33666624
0.18000001 421361.60559418 13727.96175870
0.18100001 414861.64100205 13590.86800121
0.18200001 408420.42680516 14574.48361901
0.18300001 402043.38944243 12206.03788008
0.18400001 395726.63434077 15373.98047042
0.18500001 389472.95129128 13039.55502525
0.18600001 383281.32765528 11826.14592351
0.18700001 377151.30490912 11699.23403101
0.18800001 371083.80106152 14728.31675999
0.18900001 365080.52973339 12485.75470680
0.19000001 359135.81404360 15433.86233775
0.19100001 353258.89531845 13226.01366565
0.19200001 347440.67869288 11064.24893578
0.19300001 341687.82731588 10937.42786920
0.19400001 335996.69727357 10810.69424562
0.19500001 330369.09113768 9712.85173843
0.19600001 324802.77693250 9597.92251192
0.19700001 319300.29522453 11379.86305959
0.19800001 313860.30371200 15926.84186455
0.19900001 308483.89673962 12956.32427538
0.20000001 303168.02772347 10968.61976142
0.20100001 297916.51022424 11734.93189235
0.20200001 292726.28776910 10696.21906062
0.20300001 287599.09250174 9680.58591116
0.20400001 282533.93789843 9556.71090112
0.20500001 277530.12805862 10290.81763483
0.20600001 272588.85080154 12695.82632619
0.20700001 267709.22515390 13364.04515139
0.20800001 262891.12451514 10714.12828607
0.20900001 258136.32625748 8944.42412764
0.21000001 253440.60266959 8823.53499905
0.21100001 248805.85201217 10285.63440842
0.21200001 244232.02898100 8583.53506432
0.21300001 239718.69203482 9233.96445372
0.21400001 235266.77746724 9104.82471843
0.21500001 230875.21065973 9724.46433274
0.21600001 226541.89330095 11060.90846336
0.21700001 222269.28087108 9448.66757656
0.21800001 218055.83553687 8595.76144328
0.21900001 213900.23627131 7764.57894377
0.22000001 209803.25904473 9041.47187604
0.22100001 205767.01414134 7537.24608438
0.22200001 201787.73121934 9449.71989983
0.22300001 197865.75256839 6648.28960067
0.22400001 194000.16159941 10476.00922174
0.22500001 190194.68680773 7092.36020644
0.22600001 186443.81903472 8252.93603984
0.22700001 182750.74715090 6875.08343293
0.22800001 179112.83864245 6152.52629832
0.22900001 175530.43033850 6661.38014637
0.23000001 172003.16953211 10131.84718044
0.23100001 168532.93216678 5864.94631677
0.23200001 165115.04340575 8656.15655993
0.23300001 161752.56158917 9651.77580650
0.23400001 158443.74256104 7260.68484626
0.23500001 155187.32382981 6042.99467574
0.23600001 151984.56721909 5943.35678221
0.23700001 148834.49598345 5313.39175792
0.23800001 145736.31906764 5224.64728569
0.23900001 142690.17667897 6164.21592410
0.24000001 139694.83708959 6564.95917955
0.24100001 136751.78984301 5956.90824733
0.24200001 133858.43033458 5854.96801979
0.24300001 131015.28566213 5754.19161847
0.24400001 128220.97848776 6596.96965526
0.24500001 125476.32936890 5556.09212728
0.24600001 122780.72550624 7733.34436184
0.24700001 120133.62468727 7150.35367964
0.24800001 117533.45097843 5267.84952206
0.24900001 114980.73118208 6036.48867263
0.25000001 112475.38135229 7622.45695485
0.25100001 110015.67141550 4158.59257624
0.25200001 107603.03270447 4083.53528433
0.25300001 105236.27065260 4009.50210156
0.25400001 102913.35283836 3936.43593230
0.25500001 100635.51060876 4250.84416923
0.25600001 98401.95881718  4552.07483025
0.25700001 96211.88637071  4468.08021446
0.25800001 94064.84992063  4750.74547002
0.25900001 91961.03144565  4303.77647529
0.26000001 89899.76785358  3519.57607800
0.26100001 87878.38793984  4144.34497134
0.26200001 85900.69560355  5083.17390286
0.26300001 83962.33383105  3989.89029244
0.26400001 82064.30541845  3588.26192421
0.26500001 80207.21889608  4160.34864100
0.26600001 78388.27480908  5964.95605386
0.26700001 76609.58841576  5235.49952008
0.26800001 74868.90710436  3323.05659908
0.26900001 73165.76617457  3555.85640435
0.27000001 71500.89551561  3778.46500233
0.27100001 69872.69207161  3420.96716572
0.27200001 68281.65705784  3355.36078661
0.27300001 66726.18951581  4387.91443021
0.27400001 65205.30262744  2689.71886067
0.27500001 63721.76944285  3429.50579372
0.27600001 62270.97399145  3104.83091015
0.27700001 60856.20077569  2791.47406169
0.27800001 59473.83586906  3235.67419359
0.27900001 58125.81448424  2685.41275627
0.28000001 56809.83248307  2633.98800774
0.28100001 55526.52943300  3288.28122865
0.28200001 54275.50874649  2995.19409194
0.28300001 53055.92446615  2486.20073816
0.28400001 51867.59070671  2439.07356843
0.28500001 50710.03180672  2175.46046748
0.28600001 49581.88193675  2774.85015393
0.28700001 48484.02356826  2303.96090902
0.28800001 47414.73370014  2466.51456383
0.28900001 46375.65449962  2219.07517284
0.29000001 45363.83575135  1980.13152427
0.29100001 44381.11040574  2138.28200056
0.29200001 43425.20079637  2099.39143188
0.29300001 42496.50476066  2811.14392299
0.29400001 41594.32616471  2392.71372589
0.29500001 40719.69909327  2350.34114292
0.29600001 39869.41127666  2309.03706339
0.29700001 39044.66150596  2268.88538752
0.29800001 38245.38481245  2058.36670805
0.29900001 37470.85942749  2529.28313109
0.30000001 36720.18567911  2321.08304666
0.30100001 35994.18891321  2119.69788545
0.30200001 35290.23072330  2085.12338100
0.30300001 34610.01581897  2367.32519409
0.30400001 33952.96487492  1864.01785988
0.30500001 33316.94435467  1682.17260011
0.30600001 32703.04537708  1957.76790418
0.30700001 32111.18582670  1780.24422651
0.30800001 31539.84275689  1461.87178099
0.30900001 30989.26741912  1585.10110353
0.31000001 30459.83624731  1420.95142821
0.31100001 29948.49028367  1541.74835280
0.31200001 29458.06811172  1659.66763599
0.31300001 28986.01474436  1501.76549501
0.31400001 28534.11098559  1617.88416948
0.31500001 28100.07388996  1465.13792199
0.31600002 27683.79433066  1579.63737930
0.31700002 27285.11521402  2082.40009173
0.31800002 26904.19457752  1544.83892579
0.31900002 26540.53530615  1528.73490602
0.32000002 26193.10317168  2017.91676389
0.32100002 25862.68253894  1873.75143867
0.32200002 25548.40591191  1980.51252007
0.32300002 25249.15262499  1472.53065082
0.32400002 24965.55352482  1947.31326714
0.32500002 24696.50787417  1690.72300912
0.32600002 24442.97983515  1678.49950476
0.32700002 24203.38419344  1309.88721458
0.32800002 23978.83057275  1775.03301720
0.32900002 23766.68104401  1529.38599760
0.33000002 23569.63164638  1989.39485332
0.33100002 23383.63668379  1513.85671060
0.33200002 23212.61742980  1275.41732508
0.33300002 23053.16999118  1385.95664550
0.33400002 22906.65212869  1726.58898596
0.33500002 22771.69880119  1147.69367393
0.33600002 22648.42590384  1602.82917712
0.33700002 22535.87392901  1371.08263477
0.33800002 22435.88066174  2281.72917136
0.33900002 22345.47586479  1823.39091692
0.34000002 22266.48293923  1138.93065628
0.34100002 22197.62286500  1366.48572828
0.34200002 22139.74658300  1252.99901721
0.34300002 22090.32147191  1367.83277032
0.34400002 22051.17952581  1255.26345396
0.34500002 22020.99760308  1828.62372756
0.34600002 22001.05703313  1603.21710193
0.34700002 21987.86774315  1721.65012583
0.34800002 21984.90280767  1841.45554638
0.34900002 21989.80845334  1500.80449802
0.35000002 22002.70760668  1158.44261036
0.35100002 22023.74189612  1511.70971535
0.35200002 22051.55905863  1167.63010746
0.35300002 22087.09192962  1993.80188292
0.35400002 22130.29637254  1414.12600518
0.35500002 22180.12863980  1658.18649565
0.35600002 22236.18537821  1190.74778340
0.35700002 22298.99812095  1317.20188139
0.35800002 22368.60704988  1325.00450136
0.35900002 22443.74196988  2060.33561042
0.36000002 22525.61063562  1219.76187369
0.36100002 22612.20947072  1227.84303242
0.36200002 22705.49568817  1359.94572866
0.36300002 22802.28087090  1494.00551343
0.36400002 22904.97143553  1504.85669460
0.36500002 23012.13431988  1263.36623400
0.36600002 23124.43958840  1527.60055157
0.36700002 23240.83864671  1411.18378947
0.36800002 23362.95477147  1681.08149021
0.36900002 23488.40415347  1303.60649227
0.37000002 23616.66127711  1971.40089349
0.37100002 23749.45871978  1590.26383121
0.37200002 23886.21269801  1470.07703014
0.37300002 24025.71373586  1617.41112532
0.37400002 24169.63943974  1767.40496775
0.37500002 24315.57147659  1508.53812587
0.37600002 24465.48039167  1936.93217436
0.37700002 24617.07741750  1814.52486240
0.37800002 24772.12708890  1830.78413923
0.37900002 24929.46002467  2131.46893308
0.38000002 25089.29677009  1577.23871617
0.38100002 25250.92128051  1591.56564371
0.38200002 25414.67217288  1606.08028405
0.38300002 25580.38209854  2062.80211015
0.38400002 25748.24821139  2081.74596651
0.38500002 25916.72674534  2100.80996950
0.38600002 26087.89372188  1817.28276276
0.38700002 26259.51738236  1986.79517927
0.38800002 26432.31211721  1696.55803362
0.38900002 26606.31241829  1556.46935021
0.39000002 26782.05164144  1884.92088382
0.39100002 26957.75383938  1902.13920102
0.39200002 27134.62413228  1759.54478522
0.39300002 27311.92953881  2421.20266832
0.39400002 27490.50453687  2117.45621227
0.39500002 27668.62291381  2465.27441842
0.39600002 27846.99061237  2321.60371735
0.39700002 28025.17601535  2007.72370486
0.39800002 28204.45416671  2869.66232515
0.39900002 28383.01423571  2554.47140224
0.40000002 28561.31501725  1889.75949765
0.40100002 28739.14253805  2946.04964116
0.40200002 28917.90929181  1748.08769951
0.40300002 29095.12477353  2468.43050274
0.40400002 29271.76533514  2667.38974255
0.40500002 29447.97725889  2152.05828005
0.40600002 29623.66445052  2170.22976047
0.40700002 29798.45768521  2370.76540576
0.40800002 29972.68010283  2942.11841829
0.40900002 30144.91756576  2595.47752539
0.41000002 30317.14341215  2055.95717791
0.41100002 30487.85462314  2826.22425748
0.41200002 30656.84901384  2468.94945231
0.41300002 30824.93069318  2297.07394410
0.41400002 30991.59505200  2315.07226008
0.41500002 31157.30404275  2916.32379659
0.41600002 31320.23402748  2154.98880437
0.41700002 31482.50579373  2566.13916884
0.41800002 31644.01411754  2983.23957229
0.41900002 31801.78387745  2604.56622298
0.42000002 31958.53568681  2421.81794910
0.42100002 32114.09769648  2642.66922467
0.42200002 32267.66665394  2661.59861007
0.42300002 32418.54354857  2886.54725434
0.42400002 32567.79409722  2699.05606370
0.42500002 32715.23425772  2090.50356813
0.42600002 32859.37198313  2736.03573783
0.42700002 33002.50781796  2966.26554324
0.42800002 33142.86526399  3199.11522120
0.42900002 33281.71617401  3434.67327192
0.43000002 33418.18068589  2808.63112884
0.43100002 33550.83248366  2826.32226236
0.43200002 33682.17122583  3281.48568718
0.43300002 33810.72085655  2641.29363848
0.43400002 33937.07386143  2435.83359183
0.43500002 34060.61527193  2227.56434435
0.43600002 34182.41217889  4033.18300412
0.43700002 34300.60539736  2704.25985768
0.43800002 34415.66536766  2492.89883904
0.43900002 34529.04831625  3418.37594530
0.44000002 34638.97118715  3666.18888419
0.44100002 34747.06094380  3225.22234965
0.44200002 34852.01369860  2779.09970403
0.44300002 34954.37672707  2560.75776038
0.44400002 35053.44756805  2573.79950966
0.44500002 35148.86627793  2351.45926543
0.44600002 35242.28078042  2835.59404597
0.44700002 35333.07002054  3799.01186865
0.44800002 35419.94980241  4055.40734482
0.44900002 35505.24164378  2636.26431699
0.45000002 35587.21030752  2407.47489140
0.45100002 35664.99751871  2659.89564100
0.45200002 35740.75499312  3642.87662532
0.45300002 35813.04751650  3658.30297719
0.45400002 35882.79307555  3183.70096651
0.45500002 35949.47970799  2950.73343428
0.45600002 36012.75158902  2962.40908611
0.45700002 36073.05092116  2726.04058731
0.45800002 36129.66208490  3482.53829342
0.45900002 36183.56457389  3245.66589610
0.46000002 36235.15871580  2505.66134395
0.46100002 36282.41211103  2765.80840631
0.46200002 36327.30713254  4036.69055989
0.46300002 36368.70239452  3037.51416795
0.46400002 36406.59938430  2539.36042741
0.46500002 36442.27133322  2802.04637562
0.46600002 36474.07319172  3832.51342226
0.46700002 36502.64849788  3587.48046440
0.46800002 36528.94873862  3083.77399867
0.46900002 36551.14124967  3092.22669628
0.47000002 36570.19241158  2583.68421634
0.47100002 36586.53091069  3367.42446462
0.47200002 36599.44403652  2856.40374522
0.47300002 36609.80592196  2863.25305687
0.47400002 36615.64182288  2608.86460353
0.47500002 36619.51357532  2614.63339321
0.47600002 36620.56847381  2620.20179849
0.47700002 36617.45764084  2625.47183729
