# SAXS profile: number of points = 501, q_min = 0, q_max = 0.5, delta_q = 0.001
#    q    intensity    error
0.00000000 1664650.74656091 374.54641798
0.00100000 1664582.34909261 699.12460322
0.00200000 1664377.10088085 748.96971911
0.00300000 1664035.17906908 1098.26325731
0.00400000 1663556.42558315 1871.50104989
0.00500000 1662941.32445473 1496.64725125
0.00600000 1662189.60199442 2268.88889909
0.00700000 1661301.93300645 2990.34360369
0.00800000 1660277.70014192 3137.92498575
0.00900000 1659118.31863170 3733.01637650
0.01000000 1657822.91196941 4650.19346887
0.01100000 1656392.73859980 3577.80847115
0.01200000 1654827.27740241 3872.29599890
0.01300000 1653127.88329938 4165.88244965
0.01400000 1651293.79302099 5201.57567861
0.01500000 1649326.77098619 4750.06131196
0.01600000 1647225.76700177 5040.51107235
0.01700000 1644992.84715212 5773.92515251
0.01800000 1642627.46809384 5617.78619367
0.01900000 1640130.38224012 8364.66532686
0.02000000 1637502.41544265 6189.75941037
0.02100000 1634745.03421341 7552.52240049
0.02200000 1631856.35741279 6755.88562662
0.02300000 1628839.34477408 6450.20409891
0.02400000 1625694.04249167 6705.98823105
0.02500000 1622421.58374799 8225.67780527
0.02600000 1619022.13035073 9179.85589896
0.02700000 1615496.81474626 6785.08693270
0.02800000 1611845.50122241 8413.83390224
0.02900000 1608070.63638788 8683.58183519
0.03000000 1604172.81762680 9697.22512829
0.03100000 1600151.83868189 8448.80209700
0.03200000 1596009.11412697 11060.34367032
0.03300000 1591747.18001575 12176.86648848
0.03400000 1587364.09864157 10000.39428286
0.03500000 1582863.22115190 9402.20796782
0.03600000 1578244.33953160 10511.10778704
0.03700000 1573509.24826897 9865.90344292
0.03800000 1568659.15440187 15600.31601250
0.03900000 1563695.34061421 10320.38972599
0.04000000 1558616.64985338 13419.68997709
0.04100000 1553427.21669924 14679.88787846
0.04200000 1548127.33115175 10983.96392410
0.04300000 1542716.83952689 12218.31793620
0.04400000 1537199.74416359 13488.92838149
0.04500000 1531575.19280208 16908.59091419
0.04600000 1525843.90978457 12908.64007686
0.04700000 1520009.02615435 14227.28514649
0.04800000 1514070.44446022 12241.26011302
0.04900000 1508031.32616667 13572.28256726
0.05000000 1501890.92306941 12638.41270615
0.05100000 1495652.51401005 15165.91719855
0.05200000 1489314.38806329 13024.05493055
0.05300000 1482882.18521453 13212.48088620
0.05400000 1476353.96336998 20705.86530186
0.05500000 1469733.63256788 17284.06832529
0.05600000 1463020.02766288 18763.23273035
0.05700000 1456217.63795660 19003.64106240
0.05800000 1449325.59529795 20522.45138766
0.05900000 1442345.30832537 14279.21921934
0.06000000 1435280.22523025 13132.81467441
0.06100000 1428131.45602511 21250.59705872
0.06200000 1420899.32110849 14770.24913334
0.06300000 1413587.11009920 17641.56795887
0.06400000 1406192.91647984 15081.41973455
0.06500000 1398723.27402884 19386.30548489
0.06600000 1391175.58265707 15379.44678586
0.06700000 1383553.09367104 21168.36332382
0.06800000 1375858.58371803 17088.16440966
0.06900000 1368092.88462051 21547.46394160
0.07000000 1360255.70960649 15935.39638427
0.07100000 1352351.52184716 17526.47654404
0.07200000 1344379.50864582 22081.43446395
0.07300000 1336344.52020044 22250.13730388
0.07400000 1328245.40041468 14942.76145494
0.07500000 1320085.10470321 18058.76507880
0.07600000 1311863.31803114 18182.42644031
0.07700000 1303585.65642822 24403.12463256
0.07800000 1295250.18980752 15348.71546902
0.07900000 1286859.48235196 18530.77741503
0.08000000 1278416.88003888 21745.87214958
0.08100000 1269922.63200907 17182.05401723
0.08200000 1261378.19543497 15704.15927009
0.08300000 1252785.81229237 20520.63256842
0.08400000 1244146.65762772 25380.59300694
0.08500000 1235464.35487517 15937.49092608
0.08600000 1226738.38038356 22412.51126191
0.08700000 1217971.77848878 20900.39670030
0.08800000 1209163.66251465 17756.56921794
0.08900000 1200320.15272234 16204.32282286
0.09000000 1191439.58465738 19515.78131345
0.09100000 1182524.85240911 26110.14996788
0.09200000 1173576.96957549 18008.53944430
0.09300000 1164598.97033061 18062.93087864
0.09400000 1155589.68957128 19760.58462037
0.09500000 1146553.22069731 16510.36715407
0.09600000 1137490.78517707 16550.49170233
0.09700000 1128404.81704985 21563.81706760
0.09800000 1119296.69102450 28256.64629348
0.09900000 1110167.79934047 23313.52488241
0.10000000 1101018.43162130 18348.47302585
0.10100000 1091850.72641729 20046.38027984
0.10200000 1082667.44537590 23418.09794498
0.10300000 1073469.20657746 20095.34449243
0.10400000 1064259.07614157 20114.49748536
0.10500000 1055039.03265408 18452.63354930
0.10600001 1045805.86506376 23499.25889371
0.10700001 1036567.19079877 16792.38928115
0.10800001 1027320.50574150 21835.69837716
0.10900001 1018069.50582761 16798.14763677
0.11000001 1008814.55228961 23515.46832073
0.11100001 999557.91721909 18471.83117974
0.11200001 990301.65506634 25178.42076539
0.11300001 981044.96034383 18453.45657287
0.11400001 971792.01194236 18439.75429483
0.11500001 962543.48983807 25122.38626774
0.11600001 953299.86287426 21749.53739569
0.11700001 944064.58855888 16709.94400445
0.11800001 934835.48971391 21692.85856051
0.11900001 925617.04334540 23325.55059098
0.12000001 916409.56993828 19959.40137344
0.12100001 907216.32435752 28223.50118032
0.12200001 898035.56536106 24853.13544223
0.12300001 888871.07305720 19839.60328537
0.12400001 879722.57753452 16494.79910597
0.12500001 870592.32764143 23035.87407485
0.12600001 861482.70584792 18052.37095173
0.12700001 852393.48005872 18002.55114724
0.12800001 843325.10217079 21213.84394490
0.12900001 834280.56492172 24402.70767411
0.13000001 825260.62423922 16216.37203066
0.13100001 816265.25055981 25859.28435668
0.13200001 807297.91940095 25768.95080204
0.13300001 798359.54442403 20861.13587926
0.13400001 789449.09928233 20782.24851840
0.13500001 780569.70489438 23885.43409592
0.13600001 771720.96472448 17444.75323013
0.13700001 762905.67728805 22109.00757032
0.13800001 754122.87069698 17295.80885503
0.13900001 745377.23888959 18783.50730581
0.14000001 736665.75872836 17138.52968508
0.14100001 727992.06620322 18607.47808974
0.14200001 719354.79521298 15430.16108509
0.14300001 710759.47289173 16887.64587246
0.14400001 702199.52013748 18327.40834009
0.14500001 693684.35802683 15191.68815741
0.14600001 685208.55621310 18130.61925270
0.14700001 676778.44998428 18029.37875814
0.14800001 668389.64437734 20913.91295926
0.14900001 660044.67797027 17821.20714602
0.15000001 651745.79326118 16238.24720527
0.15100001 643493.19467648 17605.97463709
0.15200001 635288.33425518 17495.84155096
0.15300001 627131.29575185 17384.08033858
0.15400001 619020.64110071 15831.45364325
0.15500001 610960.98845065 15726.13658488
0.15600001 602949.61581395 15619.41053482
0.15700001 594992.58527814 16921.58992396
0.15800001 587082.03406114 15402.09789055
0.15900001 579226.76710412 19462.02029332
0.16000001 571422.07685373 19319.78133037
0.16100001 563673.58104058 16436.72239903
0.16200001 555976.76916138 17671.72244201
0.16300001 548335.40948333 16186.86205209
0.16400001 540749.16621925 22752.02224279
0.16500001 533218.59988704 21243.43002243
0.16600001 525744.06385997 18437.84519008
0.16700001 518325.83577281 15674.17401382
0.16800001 510963.40551526 14248.21523554
0.16900001 503660.96676748 19265.03288851
0.17000001 496415.77862640 16552.98491992
0.17100001 489228.75650995 16408.73326819
0.17200001 482100.93633557 13761.57187756
0.17300001 475032.59124971 17357.69170397
0.17400001 468024.41616856 13514.20565509
0.17500001 461075.46630436 17041.35003943
0.17600001 454185.20119933 22911.37355658
0.17700001 447358.14026775 11944.46290929
0.17800001 440590.89536389 17744.79914890
0.17900001 433884.86034462 12886.38096091
0.18000001 427241.03188639 12759.55401998
0.18100001 420659.74256753 12632.41266601
0.18200001 414137.75724419 18188.93115737
0.18300001 407680.40201619 15752.77147806
0.18400001 401283.75675930 15589.87468658
0.18500001 394950.75052962 14324.86439845
0.18600001 388680.06938103 14173.21939957
0.18700001 382471.76424728 15099.98596588
0.18800001 376326.18767763 14936.38709461
0.18900001 370245.44498338 10551.99568058
0.19000001 364223.88489283 11478.51627474
0.19100001 358270.33508679 11350.00475184
0.19200001 352376.48406109 13261.68960427
0.19300001 346548.22136835 11093.00909017
0.19400001 340782.17920793 12958.24297671
0.19500001 335080.31396380 10836.49786567
0.19600001 329440.22716927 16549.43059391
0.19700001 323864.43006095 12504.40623558
0.19800001 318351.82917399 11403.36305992
0.19900001 312903.16349275 10325.80488326
0.20000001 307515.75382934 11125.92049937
0.20100001 302193.20108878 9156.45442575
0.20200001 296932.50929380 10849.91440240
0.20300001 291735.39155637 8927.10340356
0.20400001 286601.09701533 11456.87939471
0.20500001 281528.55744902 9569.15612000
0.20600001 276519.02671116 8585.91618522
0.20700001 271571.90118832 9320.34808935
0.20800001 266686.77985935 8360.63094380
0.20900001 261865.65527443 8248.76853107
0.21000001 257104.20853614 10578.55316029
0.21100001 252404.24708253 10434.39206766
0.21200001 247765.90157137 9499.34511532
0.21300001 243188.58820977 13270.80188599
0.21400001 238673.39510263 9236.66082715
0.21500001 234219.00134755 9106.43520292
0.21600001 229823.55032732 7480.75691683
0.21700001 225489.43958279 9585.55652987
0.21800001 221215.10531150 7266.91655307
0.21900001 216999.29264539 9309.27009464
0.22000001 212842.66005929 10583.60177187
0.22100001 208747.42932203 9036.67664264
0.22200001 204709.73580262 10271.31147957
0.22300001 200730.15712139 8093.44031784
0.22400001 196807.29015944 8634.92026406
0.22500001 192945.33730372 7849.01669267
0.22600001 189138.77417914 8372.22823495
0.22700001 185390.41517766 6974.38774880
0.22800001 181697.93041206 6241.32420481
0.22900001 178061.52410041 9828.99659516
0.23000001 174481.10269002 6650.34754354
0.23100001 170958.11494527 7139.21121775
0.23200001 167488.24027374 8780.57141162
0.23300001 164074.50593804 6334.91697387
0.23400001 160714.90249465 6798.24069705
0.23500001 157408.46942147 7243.93810539
0.23600001 154156.22854446 5480.25418396
0.23700001 150957.25483287 7005.92652816
0.23800001 147811.04807035 5828.92895636
0.23900001 144717.33446240 6772.77157319
0.24000001 141675.26381193 6658.02933777
0.24100001 138685.88995887 6041.15765236
0.24200001 135746.96326445 7421.96556756
0.24300001 132858.84518072 5835.16075636
0.24400001 130020.25316838 4778.24452997
0.24500001 127231.84563817 5633.82639136
0.24600001 124493.13425281 7379.95334762
0.24700001 121803.70754360 5437.31776196
0.24800001 119161.84919039 6676.04291671
0.24900001 116567.87587463 6119.81377293
0.25000001 114022.05698271 4722.22371334
0.25100001 111522.52096769 5058.66179041
0.25200001 109070.63548760 6208.84621887
0.25300001 106665.17374190 6502.30929893
0.25400001 104304.36587755 3989.64218357
0.25500001 101989.13659140 5482.93624256
0.25600001 99718.93668079  3844.16519092
0.25700001 97492.73379958  4527.56277187
0.25800001 95310.17146083  4073.08037009
0.25900001 93171.42406634  3997.05428157
0.26000001 91075.89157328  3565.62132380
0.26100001 89020.74611490  3848.36703664
0.26200001 87010.09023605  4119.05786668
0.26300001 85039.28912142  4714.57841197
0.26400001 83109.38173603  4625.03731246
0.26500001 81220.92707399  6157.35877284
0.26600001 79371.41266975  3496.70775063
0.26700001 77562.62452883  3429.81941896
0.26800001 75792.43373571  3364.04733055
0.26900001 74060.39110333  3599.33517795
0.27000001 72367.23567595  3235.90109638
0.27100001 70711.36461578  3173.52619414
0.27200001 69093.10480712  3395.23533090
0.27300001 67511.06906383  3052.17557682
0.27400001 65964.10357662  4081.52910196
0.27500001 64455.07734514  3202.12839405
0.27600001 62979.44522866  3401.83489502
0.27700001 61540.20639245  3079.47207362
0.27800001 60134.21598003  2768.27876366
0.27900001 58762.80701156  2714.84181242
0.28000001 57424.17225586  3146.55766768
0.28100001 56118.67643494  3323.34817577
0.28200001 54846.04658974  2561.03626672
0.28300001 53605.37969404  2511.94821135
0.28400001 52396.41520847  2463.94154180
0.28500001 51218.85149654  3295.93324980
0.28600001 50071.15970171  3233.34529078
0.28700001 48954.31773234  2537.79195136
0.28800001 47866.58682571  3320.02661938
0.28900001 46809.56988331  2239.83802494
0.29000001 45780.09338217  1998.30117072
0.29100001 44780.36317808  2942.07000006
0.29200001 43808.02755465  2310.43548260
0.29300001 42863.29935928  2079.29875034
0.29400001 41945.59757474  1856.09278054
0.29500001 41055.72285930  2552.02385374
0.29600001 40190.94919219  2506.70961978
0.29700001 39352.00880329  3518.06975355
0.29800001 38539.11273766  1901.32721692
0.29900001 37751.24082389  2378.32828449
0.30000001 36987.85510622  2004.00208452
0.30100001 36249.63155090  2463.16258049
0.30200001 35533.79319123  1938.01317240
0.30300001 34842.09159497  2065.43928753
0.30400001 34174.07331192  2032.50310645
0.30500001 33527.42439490  1846.69062310
0.30600001 32903.23733482  1666.71356610
0.30700001 32301.64161855  1641.56950477
0.30800001 31720.98140455  1617.29431348
0.30900001 31161.45077161  1449.00752948
0.31000001 30623.37825392  1714.29679582
0.31100001 30103.93713648  2395.06935197
0.31200001 29605.64464540  1806.98060648
0.31300001 29126.29172129  1783.40292653
0.31400001 28667.41706616  1896.34972871
0.31500001 28226.55066384  1471.73242129
0.31600002 27804.06621735  1322.08341123
0.31700002 27399.47428613  1699.04148093
0.31800002 27012.94286499  1292.56937729
0.31900002 26644.06066610  1278.91497253
0.32000002 26291.76668980  1645.73321387
0.32100002 25956.79066263  1253.71304837
0.32200002 25638.26140971  1614.82597135
0.32300002 25335.11179397  1846.92973723
0.32400002 25047.93500951  1465.30426744
0.32500002 24775.57580067  1453.83085682
0.32600002 24519.08391066  1202.66112277
0.32700002 24276.78353793  1672.18492928
0.32800002 24049.84172217  1186.85974519
0.32900002 23835.62960636  1769.79558208
0.33000002 23636.83383873  1408.28262680
0.33100002 23449.25526002  1284.55026397
0.33200002 23277.04199432  1162.68830268
0.33300002 23116.60501137  1273.95616251
0.33400002 22969.38660666  1269.63290481
0.33500002 22833.89215818  1150.82821927
0.33600002 22710.41522352  1262.81269831
0.33700002 22597.94868588  1260.28765789
0.33800002 22498.21166328  1258.43752898
0.33900002 22408.36614301  1142.82672742
0.34000002 22330.03652259  1484.83584889
0.34100002 22262.11368552  1256.25113477
0.34200002 22205.42877651  1256.71630112
0.34300002 22157.36730490  1829.31233133
0.34400002 22119.88026544  1373.64462954
0.34500002 22091.50001563  1261.20379562
0.34600002 22073.55134570  1608.49976274
0.34700002 22062.55386637  1497.16497628
0.34800002 22061.89718639  1154.94037241
0.34900002 22069.33944593  1737.96056368
0.35000002 22084.99052741  1511.60724824
0.35100002 22108.90905462  1634.29063472
0.35200002 22139.71811661  1406.75775576
0.35300002 22178.54712740  1295.44899907
0.35400002 22225.05838271  1420.18129792
0.35500002 22278.38260117  1427.59882470
0.35600002 22338.07119330  1435.44452287
0.35700002 22404.68751456  1323.44495417
0.35800002 22478.21655062  1452.54242230
0.35900002 22557.41021972  1705.34029339
0.36000002 22643.38893725  1961.82331045
0.36100002 22734.34287485  1851.71231487
0.36200002 22831.98666843  1616.16225288
0.36300002 22933.34941868  1377.37703133
0.36400002 23040.66572341  1513.77180973
0.36500002 23152.48057658  1525.28549263
0.36600002 23269.58542755  1409.08981231
0.36700002 23390.92469158  1807.65074579
0.36800002 23518.03828015  2082.75756875
0.36900002 23648.44815388  1574.98672165
0.37000002 23781.87941023  1852.84631262
0.37100002 23919.78969883  1468.19676126
0.37200002 24061.82298917  1615.51087202
0.37300002 24206.68002266  1357.99481360
0.37400002 24355.96631700  1370.02317023
0.37500002 24507.29826709  1796.87519406
0.37600002 24662.72664688  1534.14498374
0.37700002 24819.80425493  1407.28296792
0.37800002 24980.38563121  1846.17548753
0.37900002 25143.38461992  1576.49029035
0.38000002 25308.81436420  1880.31845226
0.38100002 25476.05942624  2043.68958399
0.38200002 25645.53335068  2504.67113335
0.38300002 25816.87056790  1784.46217819
0.38400002 25990.49977674  1651.04657653
0.38500002 26164.76941437  3484.36250798
0.38600002 26341.61841986  2140.78343040
0.38700002 26518.91033254  1852.08078537
0.38800002 26697.47001782  2492.47591895
0.38900002 26877.18246326  1572.31524859
0.39000002 27058.63583335  2856.58032026
0.39100002 27240.04264960  1601.71458368
0.39200002 27422.69813357  1939.88175787
0.39300002 27605.64717159  1794.64320765
0.39400002 27789.88412375  1811.20578358
0.39500002 27973.58640843  2326.28355594
0.39600002 28157.52346295  2012.13672199
0.39700002 28341.28981439  1861.17259029
0.39800002 28526.18667381  2390.20929464
0.39900002 28710.21831485  1894.87449856
0.40000002 28893.88976977  2085.56106239
0.40100002 29077.21037490  1753.35586868
0.40200002 29261.33920647  1768.84803884
0.40300002 29443.80088500  1962.72385999
0.40400002 29625.77959726  2519.67267413
0.40500002 29807.21252349  1996.78526156
0.40600002 29988.05142735  1830.77062638
0.40700002 30167.97683490  2215.53632373
0.40800002 30347.15839086  1861.79825549
0.40900002 30524.45507623  2064.97948375
0.41000002 30701.53289560  3028.39934831
0.41100002 30877.13247388  2480.66894049
0.41200002 31050.81946380  2693.03769970
0.41300002 31223.63364493  2520.68406359
0.41400002 31394.86821834  2149.76370311
0.41500002 31565.13066472  2560.56352085
0.41600002 31732.53445996  2778.81817433
0.41700002 31899.12621513  2800.10543184
0.41800002 32064.95021225  3022.92332450
0.41900002 32226.96180753  2639.38829710
0.42000002 32387.79471539  2454.34719983
0.42100002 32547.37048309  2266.27351412
0.42200002 32704.86155786  2282.63592059
0.42300002 32859.61230901  2716.83287445
0.42400002 33012.58099762  2946.37299365
0.42500002 33163.66821313  2754.90604901
0.42600002 33311.34868038  2560.31038090
0.42700002 33457.87492302  2362.79523903
0.42800002 33601.62347429  2594.71748764
0.42900002 33743.71057718  3264.70415305
0.43000002 33883.35745353  2628.67099581
0.43100002 34019.05721724  2424.87851335
0.43200002 34153.27431452  2883.73185340
0.43300002 34284.65591569  2678.31744705
0.43400002 34413.68752248  3143.69050415
0.43500002 34539.79498823  2258.90269928
0.43600002 34664.10311337  2726.67848011
0.43700002 34784.74039970  2513.89330782
0.43800002 34901.99812589  2757.95602261
0.43900002 35017.53931251  2311.15770415
0.44000002 35129.53164690  3485.72794285
0.44100002 35239.52830088  3037.29508819
0.44200002 35346.29058753  2583.63723294
0.44300002 35450.39749434  2597.09624351
0.44400002 35550.97399522  2373.02762664
0.44500002 35647.87905961  2861.81186653
0.44600002 35742.67502867  4074.12900622
0.44700002 35834.74839179  3371.33328847
0.44800002 35922.64518824  3145.20734851
0.44900002 36008.93600513  3402.84461375
0.45000002 36091.79450801  2929.93201702
0.45100002 36170.34524234  2942.81942838
0.45200002 36246.76901574  3201.85849275
0.45300002 36319.54941747  2720.69757580
0.45400002 36389.70677148  3477.03664680
0.45500002 36456.65846899  2493.63555746
0.45600002 36520.13384340  3254.49188170
0.45700002 36580.46554260  2764.38591207
0.45800002 36637.00300133  3279.19510905
0.45900002 36690.71343660  4050.65495538
0.46000002 36741.99821299  3302.92208590
0.46100002 36788.76711191  3824.19252253
0.46200002 36833.13111212  2813.86718467
0.46300002 36873.89844173  3079.70814382
0.46400002 36911.05069056  2832.00049846
0.46500002 36945.81725136  4132.02039723
0.46600002 36976.60022679  2849.23206552
0.46700002 37004.09054554  3376.99346324
0.46800002 37029.10838601  3125.99747811
0.46900002 37049.99511628  3134.42973540
0.47000002 37067.52497159  3666.34906871
0.47100002 37082.27404855  4463.22271603
0.47200002 37093.49414924  2894.96188809
0.47300002 37102.13219261  3429.35024111
0.47400002 37106.03541592  4230.08823791
0.47500002 37107.93388635  4504.16122861
0.47600002 37106.85146662  2654.99534828
0.47700002 37101.46584614  3192.21027271
