# SAXS profile: number of points = 501, q_min = 0, q_max = 0.5, delta_q = 0.001
#    q    intensity    error
0.00000000 1646666.22097351 296.39991978
0.00100000 1646598.45130684 493.97954712
0.00200000 1646395.08976539 1185.40450217
0.00300000 1646056.30818033 987.63382009
0.00400000 1645581.95662938 1481.02381724
0.00500000 1644972.50987815 1628.52284924
0.00600000 1644227.71207776 1899.08308477
0.00700000 1643348.18344521 2563.62327272
0.00800000 1642333.38669035 3547.44026502
0.00900000 1641184.63257862 3200.31017033
0.01000000 1639901.18251767 4329.33930879
0.01100000 1638484.14389467 4128.98022239
0.01200000 1636933.06410067 4468.82746093
0.01300000 1635249.34805276 3777.42616060
0.01400000 1633432.14496549 5145.31148474
0.01500000 1631483.23495988 5873.33990739
0.01600000 1629401.58680582 4154.97423210
0.01700000 1627189.20028155 5711.43434920
0.01800000 1624845.67214653 5093.89141139
0.01900000 1622371.69918323 7300.67297575
0.02000000 1619767.87311223 7143.17664355
0.02100000 1617035.91675082 6937.08439738
0.02200000 1614173.92410810 7796.46040765
0.02300000 1611184.82208966 6960.31874825
0.02400000 1608068.60897410 7236.30907034
0.02500000 1604826.36739812 9388.23467805
0.02600000 1601458.30998014 7134.49709728
0.02700000 1597965.68046423 7382.60178188
0.02800000 1594348.14199532 8322.49768288
0.02900000 1590608.29379433 9305.05894593
0.03000000 1586746.64003375 11805.39554449
0.03100000 1582763.02821390 9116.71546200
0.03200000 1578658.61477226 9377.23260365
0.03300000 1574436.38839375 8029.62595098
0.03400000 1570093.99655642 13188.79017961
0.03500000 1565635.08321754 12681.64475968
0.03600000 1561059.11842403 11263.04205994
0.03700000 1556368.06351528 9758.42820954
0.03800000 1551563.23394498 14522.63254183
0.03900000 1546645.78087090 12991.82516097
0.04000000 1541614.55978167 11377.11597839
0.04100000 1536473.61147340 9679.78420110
0.04200000 1531223.28079463 10864.02968125
0.04300000 1525863.56571839 11077.77000132
0.04400000 1520398.04603958 13341.49347360
0.04500000 1514826.25547966 14633.22230786
0.04600000 1509148.79660360 12767.39941278
0.04700000 1503368.73672017 12989.10648936
0.04800000 1497486.02229152 12107.17505355
0.04900000 1491503.77557095 11186.27883748
0.05000000 1485421.17703206 12499.81978679
0.05100000 1479241.66408440 13845.70262082
0.05200000 1472963.43727310 11710.05987202
0.05300000 1466592.02469229 16631.15433532
0.05400000 1460125.51355316 14455.24325828
0.05500000 1453567.95097780 13430.96849358
0.05600000 1446917.88007381 17319.60783269
0.05700000 1440180.37333572 13782.52681617
0.05800000 1433353.68258270 15222.21681979
0.05900000 1426440.00192855 19256.94092545
0.06000000 1419442.10854000 23378.21261986
0.06100000 1412361.43316148 13134.96194222
0.06200000 1405198.35257474 14607.03755780
0.06300000 1397956.12128415 16104.45527016
0.06400000 1390632.76080352 16270.40406231
0.06500000 1383234.82866582 15063.42798880
0.06600000 1375759.57614024 17974.29970326
0.06700000 1368210.29386851 15351.32021563
0.06800000 1360589.83374826 15490.31598231
0.06900000 1352899.02886183 18467.07260857
0.07000000 1345137.55582294 17190.85876844
0.07100000 1337309.84422531 21664.42049116
0.07200000 1329415.02059127 18924.22370466
0.07300000 1321457.87501404 16135.00140994
0.07400000 1313437.32034801 23641.87287422
0.07500000 1305356.32668519 19345.38166824
0.07600000 1297214.58512216 16481.11207662
0.07700000 1289017.46830501 15081.50508632
0.07800000 1280763.60691261 18212.45934439
0.07900000 1272454.95561865 19850.29823870
0.08000000 1264094.94734594 18430.50519690
0.08100000 1255684.22935480 23167.37511857
0.08200000 1247223.62568702 17080.72835530
0.08300000 1238715.68153286 17168.60015180
0.08400000 1230161.82361907 21958.38958230
0.08500000 1221565.27575816 15758.19279705
0.08600000 1212925.35399525 18994.41193538
0.08700000 1204245.73677982 17485.64891913
0.08800000 1195525.03696596 17556.28599235
0.08900000 1186769.42976998 20827.80447074
0.09000000 1177977.26021030 17687.32939293
0.09100000 1169151.48310193 16134.29122481
0.09200000 1160292.81356162 21041.91116263
0.09300000 1151404.87268691 17858.29041457
0.09400000 1142485.73354864 24420.63370231
0.09500000 1133540.09388788 19587.57374305
0.09600000 1124568.66951325 21271.21738376
0.09700000 1115574.47440476 21318.62920812
0.09800000 1106558.13037252 16432.38900864
0.09900000 1097521.72342352 23047.95727567
0.10000000 1088464.80502759 19788.29108599
0.10100000 1079390.41096482 24772.01109671
0.10200000 1070300.60862178 23150.60325341
0.10300000 1061196.03450858 18210.12480878
0.10400000 1052079.72681681 28169.43601075
0.10500000 1042954.20225782 23216.16163456
0.10600001 1033815.61739205 16592.74143989
0.10700001 1024672.11502431 24899.53356680
0.10800001 1015520.27202090 21584.88439763
0.10900001 1006364.53024772 16605.01553061
0.11000001 997205.24000966 26565.54884429
0.11100001 988044.18256681 21578.88596305
0.11200001 978884.18123099 21569.71394886
0.11300001 969723.59828735 18240.50174256
0.11400001 960566.90159445 23197.69176576
0.11500001 951414.90975219 21521.00627198
0.11600001 942267.75039224 21497.83973756
0.11700001 933129.04003967 21471.30022250
0.11800001 923997.07790966 18142.68347925
0.11900001 914875.46702891 23054.86285505
0.12000001 905764.99700662 18083.59901706
0.12100001 896668.69243188 19690.84541340
0.12200001 887585.12639207 21288.73025945
0.12300001 878517.91002009 17974.47728587
0.12400001 869466.58596182 19562.99910590
0.12500001 860433.49896502 19514.63267607
0.12600001 851421.02018675 19463.48543866
0.12700001 842429.12586671 19409.56797467
0.12800001 833457.91685316 22578.37603165
0.12900001 824510.57744195 27332.52693044
0.13000001 815587.41048651 16026.29337146
0.13100001 806689.36617292 17569.69522344
0.13200001 797818.69461401 22283.07719100
0.13300001 788977.30128232 17444.28895373
0.13400001 780163.44020526 15798.31040898
0.13500001 771380.68613778 20457.01676089
0.13600001 762628.53523006 17239.21885172
0.13700001 753909.49230819 23408.89083997
0.13800001 745222.78786261 17091.68544560
0.13900001 736573.09294180 20108.44638559
0.14000001 727957.45488493 20015.19116599
0.14100001 719379.24315776 21451.89004270
0.14200001 710837.44144688 15247.46383819
0.14300001 702337.05791866 25789.81798322
0.14400001 693872.26181470 18110.06688761
0.14500001 685451.65879782 18013.67044295
0.14600001 677070.26444966 17915.28004248
0.14700001 668734.53652741 17815.08889354
0.14800001 660439.31938658 20665.14727856
0.14900001 652188.04341513 17609.07800302
0.15000001 643982.44590269 18962.06401429
0.15100001 635822.79999455 15946.43657630
0.15200001 627710.46522614 18727.74261373
0.15300001 619645.70928564 15745.19821595
0.15400001 611626.97741369 21330.49184391
0.15500001 603659.21705476 19775.87688400
0.15600001 595738.82201692 21044.47488094
0.15700001 587872.67052696 16719.09953888
0.15800001 580052.79254492 17984.53768170
0.15900001 572287.66153631 15108.39497768
0.16000001 564572.37509776 20451.63525328
0.16100001 556913.00736850 14886.28538966
0.16200001 549305.01280157 16116.60983640
0.16300001 541752.25404230 14659.81668644
0.16400001 534253.75403860 15867.33724404
0.16500001 526810.67829309 15741.10381056
0.16600001 519423.32753171 16915.02145968
0.16700001 512091.19550103 20647.51797747
0.16800001 504815.08786182 14076.76938968
0.16900001 497598.01975128 16495.37513363
0.17000001 490437.67506722 13837.69965543
0.17100001 483335.46853683 14964.06681252
0.17200001 476291.63414715 13595.74533876
0.17300001 469306.55618008 14698.68203370
0.17400001 462381.31611846 16992.51416984
0.17500001 455514.93520992 14430.71382898
0.17600001 448706.40598792 13104.47120579
0.17700001 441960.76993431 14160.42373750
0.17800001 435274.08733524 14024.53175635
0.17900001 428648.20071360 13888.20235911
0.18000001 422083.82307497 12605.53397156
0.18100001 415581.61322796 15883.53000785
0.18200001 409137.84284651 12353.91774832
0.18300001 402758.37262720 16674.19741444
0.18400001 396439.03204222 15401.65712243
0.18500001 390182.50982480 16329.13880759
0.18600001 383987.87691739 11847.94650202
0.18700001 377854.89686567 12786.61031404
0.18800001 371783.99220013 14756.10734759
0.18900001 365777.42588951 12509.58855647
0.19000001 359829.21418307 15463.66121016
0.19100001 353948.66257877 11213.09416031
0.19200001 348126.55124855 14109.56978880
0.19300001 342369.86393598 12951.85256471
0.19400001 336674.75995447 10832.51091341
0.19500001 331042.98105086 11679.19692338
0.19600001 325472.34288259 14426.56228002
0.19700001 319965.39421387 9502.97265724
0.19800001 314520.90621674 10327.29444368
0.19900001 309139.72727531 10201.61148221
0.20000001 303819.25480895 10992.18115849
0.20100001 298562.83900533 12665.03622919
0.20200001 293367.45113168 9826.34324008
0.20300001 288235.06323774 8819.99335195
0.20400001 283164.67501253 14802.43408593
0.20500001 278155.47690908 12033.00649985
0.20600001 273208.84596882 13573.01610930
0.20700001 268323.47347296 9208.86204489
0.20800001 263499.54309613 9912.85327986
0.20900001 258738.99827829 10595.36248035
0.21000001 254037.12186661 8844.30281588
0.21100001 249396.43935511 8723.88786105
0.21200001 244816.34306812 10168.44729004
0.21300001 240296.79263890 10027.58563088
0.21400001 235838.22303846 8366.36135782
0.21500001 231440.20997130 7498.66315759
0.21600001 227100.49207619 8870.54563988
0.21700001 222821.10061202 9472.12543486
0.21800001 218600.79596245 9335.34743296
0.21900001 214438.30106893 7784.11069685
0.22000001 210334.40455897 6972.58584081
0.22100001 206290.94226733 8930.33531301
0.22200001 202304.42655817 6767.08338835
0.22300001 198375.33925489 7331.95288555
0.22400001 194502.33137134 8533.79019245
0.22500001 190689.36934287 8403.68090433
0.22600001 186930.97662040 7001.50006041
0.22700001 183230.21176986 7519.76824664
0.22800001 179584.63863110 8019.35241731
0.22900001 175994.41123506 8500.53046465
0.23000001 172459.44619909 5975.72009340
0.23100001 168981.07563170 7644.70422312
0.23200001 165555.26876447 6943.38830036
0.23300001 162184.75160794 6831.22206081
0.23400001 158867.86948801 5600.09266431
0.23500001 155603.16366814 5508.35225438
0.23600001 152392.17723271 6501.05058823
0.23700001 149233.70525310 7458.70094133
0.23800001 146127.20279837 6286.39256172
0.23900001 143072.55073684 5150.61207015
0.24000001 140068.73698046 6076.18209762
0.24100001 137117.24399313 4977.35619239
0.24200001 134215.17141493 6849.00052127
0.24300001 131363.41679215 4807.90128202
0.24400001 128560.36006902 6614.43083844
0.24500001 125807.03045264 5106.50760763
0.24600001 123102.53927868 5017.04422563
0.24700001 120446.65873548 4928.67750861
0.24800001 117837.66274814 5281.48429422
0.24900001 115275.88084601 5187.41488347
0.25000001 112761.60850931 5943.66466571
0.25100001 110292.96240577 5836.70384664
0.25200001 107871.48711892 5321.84006879
0.25300001 105495.51691961 5627.13113871
0.25400001 103163.64616124 7102.81737424
0.25500001 100876.71902727 4261.03281331
0.25600001 98634.07577815  5703.51570172
0.25700001 96434.81503749  4478.43302223
0.25800001 94278.75505851  4395.27576879
0.25900001 92165.72703892  4672.80258197
0.26000001 90095.40063906  4938.12914268
0.26100001 88064.84618617  5191.42292831
0.26200001 86077.96082261  5772.81871572
0.26300001 84130.42338603  4331.03440085
0.26400001 82223.26582401  5883.07494808
0.26500001 80356.93850633  3206.24199812
0.26600001 78528.74447491  3459.58400155
0.26700001 76740.97446390  3701.98478332
0.26800001 74991.23486358  4236.25505791
0.26900001 73278.87587809  4154.91245890
0.27000001 71604.82923632  3201.81009082
0.27100001 69967.51270324  3711.07704940
0.27200001 68367.29592077  2799.64090044
0.27300001 66802.67256880  4118.38495877
0.27400001 65272.83107566  3231.00529115
0.27500001 63780.18417334  3432.64967466
0.27600001 62320.26755625  3107.28868741
0.27700001 60896.46101970  2793.32079917
0.27800001 59505.23338561  3486.41178906
0.27900001 58148.19609944  3419.11409247
0.28000001 56823.46117000  3592.66350251
0.28100001 55531.21008801  2583.86732769
0.28200001 54271.32074782  2764.58120974
0.28300001 53042.84182263  3163.47523603
0.28400001 51845.76502892  2881.32852786
0.28500001 50679.46521547  3696.05357310
0.28600001 49542.71177619  2132.81384292
0.28700001 48436.19974131  2301.68832065
0.28800001 47358.25539196  2874.17265578
0.28900001 46310.64334310  3021.76962117
0.29000001 45290.37713901  2372.31006683
0.29100001 44299.16594936  3298.51605272
0.29200001 43334.94706811  2856.85652070
0.29300001 42397.80272500  2056.71750755
0.29400001 41487.38824999  2570.14382375
0.29500001 40604.45257219  1983.12155750
0.29600001 39746.09213414  2124.82618607
0.29700001 38913.23168163  1913.36369236
0.29800001 38106.02171057  2221.77170101
0.29900001 37323.37551340  2351.37276866
0.30000001 36564.92186163  1981.08756025
0.30100001 35831.04345303  1623.14634526
0.30200001 35119.40054733  2553.88292870
0.30300001 34431.47811848  1884.09057184
0.30400001 33766.83831232  2317.24938889
0.30500001 33123.35361190  2128.50680387
0.30600001 32501.95123258  2095.40089517
0.30700001 31902.65857912  1621.29318575
0.30800001 31324.13182842  1451.87357898
0.30900001 30766.31993991  2002.88752291
0.31000001 30229.72422949  1974.30338290
0.31100001 29711.40477248  1529.54319010
0.31200001 29214.08236407  1920.24172471
0.31300001 28735.07996172  1488.76456330
0.31400001 28276.49400066  1736.88372623
0.31500001 27835.66538703  1847.17484254
0.31600002 27412.89544636  1564.17988823
0.31700002 27007.67786064  1417.09292444
0.31800002 26620.31924312  1401.16056970
0.31900002 26250.31406585  1764.02118875
0.32000002 25896.77237339  2119.78040299
0.32100002 25560.16400322  1604.92277376
0.32200002 25239.83078482  1345.15684537
0.32300002 24934.57162413  1575.36630981
0.32400002 24645.26122156  1321.60219559
0.32500002 24370.56034050  1430.06454850
0.32600002 24111.31265755  1182.65994185
0.32700002 23866.19985813  1526.48221521
0.32800002 23636.17355552  1399.73426424
0.32900002 23418.74437114  1275.15069139
0.33000002 23216.46216069  1498.50662112
0.33100002 23025.34196037  1261.32829232
0.33200002 22849.39740323  1483.72569064
0.33300002 22684.98893024  1250.16979915
0.33400002 22533.76323649  1245.55382188
0.33500002 22394.01096044  1241.52402644
0.33600002 22266.27447308  1125.56022792
0.33700002 22149.19817420  1347.55728073
0.33800002 22044.86885385  1345.17796117
0.33900002 21950.19335222  1903.08185376
0.34000002 21867.13637442  2125.15774919
0.34100002 21794.19642486  1229.84656250
0.34200002 21732.38120556  1229.94417258
0.34300002 21679.16731370  1566.10312091
0.34400002 21636.38245082  1231.65112934
0.34500002 21602.64567772  1457.53057290
0.34600002 21579.31272235  1347.84393647
0.34700002 21562.71813357  1688.36090982
0.34800002 21556.51896910  1805.57411437
0.34900002 21558.22052628  1584.52928373
0.35000002 21568.18209719  1476.23429356
0.35100002 21586.26139705  1139.75465575
0.35200002 21611.29623816  1144.31819001
0.35300002 21644.21965144  1838.89298868
0.35400002 21684.86758180  1154.71925342
0.35500002 21732.31318334  1392.60669475
0.35600002 21785.95811082  1166.63811209
0.35700002 21846.57723734  1290.47737853
0.35800002 21914.02815602  1298.07751931
0.35900002 21987.31541959  1187.31508890
0.36000002 22067.32647144  1433.93494203
0.36100002 22152.06031419  1323.14262524
0.36200002 22243.77144588  1574.52543638
0.36300002 22338.96165105  1585.61957310
0.36400002 22440.28110278  1474.32653829
0.36500002 22546.05851325  1732.89013941
0.36600002 22657.28952954  1372.01223245
0.36700002 22772.56801022  1634.15955782
0.36800002 22893.74234194  1520.60243838
0.36900002 23018.24750251  1277.51279690
0.37000002 23145.89358684  1803.29665477
0.37100002 23277.99777172  1688.58603835
0.37200002 23414.20430708  2227.04214816
0.37300002 23553.32784430  1453.47593012
0.37400002 23696.89936500  1332.95065242
0.37500002 23842.65603631  1344.72586415
0.37600002 23992.47880878  2170.83958545
0.37700002 24144.04802319  1916.55462287
0.37800002 24299.30888341  2072.12366319
0.37900002 24456.85319197  1672.84883758
0.38000002 24616.99867544  1828.92000323
0.38100002 24779.03066096  1845.79008138
0.38200002 24943.46339954  1576.30224421
0.38300002 25109.65258623  1880.21087473
0.38400002 25278.34344892  2043.75416467
0.38500002 25447.65124432  1620.76098453
0.38600002 25619.89432187  1487.23493584
0.38700002 25792.45976096  1951.45759796
0.38800002 25966.45331060  1666.65688470
0.38900002 26141.78336370  1835.15327907
0.39000002 26318.84123155  1697.96012250
0.39100002 26495.99629686  2492.74344971
0.39200002 26674.43858927  1729.70405227
0.39300002 26853.42436806  1587.03745534
0.39400002 27033.71380165  2562.79618981
0.39500002 27213.68328145  2101.44072255
0.39600002 27393.99048489  2446.96831600
0.39700002 27574.24770881  1646.18266621
0.39800002 27755.65351252  1827.29353557
0.39900002 27936.33364829  2346.65213764
0.40000002 28117.01718701  2198.61026311
0.40100002 28297.25419878  1706.32450903
0.40200002 28478.46315297  1893.67549708
0.40300002 28658.18069556  1910.35441568
0.40400002 28837.53294739  1751.88020956
0.40500002 29016.45419857  1767.10214442
0.40600002 29194.96412316  3029.99949509
0.40700002 29372.67244112  2696.41145785
0.40800002 29549.80711113  1812.88075216
0.40900002 29725.20732468  1828.10033709
0.41000002 29900.51201332  2396.37664885
0.41100002 30074.43675231  2044.46030729
0.41200002 30246.77243337  2810.68146155
0.41300002 30418.27430215  1888.97492367
0.41400002 30588.36680105  2665.77629302
0.41500002 30757.58596048  2111.20080036
0.41600002 30924.14514133  2514.59698132
0.41700002 31090.01966710  2339.21319059
0.41800002 31255.28236426  1964.39458967
0.41900002 31416.85089735  2968.89255048
0.42000002 31577.47128798  2392.94088759
0.42100002 31736.98668503  2812.53189330
0.42200002 31894.53788174  2833.19193429
0.42300002 32049.59833550  2242.19000580
0.42400002 32202.87386467  2258.22663677
0.42500002 32354.53687884  2480.94600543
0.42600002 32502.91875132  2914.53686254
0.42700002 32650.40580853  3353.84984358
0.42800002 32795.12883881  2743.47663302
0.42900002 32938.41177704  2336.98042632
0.43000002 33079.32472242  2566.29413358
0.43100002 33216.55027565  3659.13535176
0.43200002 33352.52274716  2599.49574610
0.43300002 33485.60823235  2615.89583907
0.43400002 33616.62281221  2632.18169093
0.43500002 33744.90485714  3310.37532336
0.43600002 33871.52757284  2442.30661138
0.43700002 33994.57401700  2903.47670438
0.43800002 34114.48867032  2920.37094102
0.43900002 34232.85797160  3614.98997311
0.44000002 34347.77322588  2272.10530657
0.44100002 34460.71357817  2741.69450221
0.44200002 34570.76109260  2526.94990182
0.44300002 34678.30320006  3233.40514361
0.44400002 34782.43460329  3250.41866772
0.44500002 34883.07448199  3033.78113147
0.44600002 34981.68352055  2580.07419033
0.44700002 35077.68025558  2592.94224738
0.44800002 35169.83920255  3316.16429557
0.44900002 35260.39376280  2380.07669179
0.45000002 35347.64594026  2869.52203342
0.45100002 35430.77783383  3363.08959137
0.45200002 35511.94392528  2413.03670408
0.45300002 35589.66243726  2666.02173953
0.45400002 35664.83027106  3651.18717204
0.45500002 35736.97790258  2933.29128526
0.45600002 35805.62874471  3436.26635349
0.45700002 35871.50283746  2710.80959790
0.45800002 35933.58930511  2721.43051500
0.45900002 35993.00063794  2731.86887789
0.46000002 36050.17587642  2991.44373600
0.46100002 36102.97455766  3502.71075759
0.46200002 36153.46628632  2510.85835259
0.46300002 36200.43922345  2771.50575830
0.46400002 36243.93702961  3792.02209145
0.46500002 36285.19279922  3043.60211625
0.46600002 36322.61806842  3816.59927443
0.46700002 36356.87590687  3317.92865252
0.46800002 36388.75961946  2559.94936056
0.46900002 36416.66032684  2824.11214220
0.47000002 36441.30901197  3089.49432447
0.47100002 36463.28485197  2839.76075887
0.47200002 36481.83491479  2847.22494087
0.47300002 36497.78897421  3892.48937859
0.47400002 36509.39618529  3381.68298195
0.47500002 36518.90206474  4171.91956962
0.47600002 36525.54187631  3920.10396768
0.47700002 36528.11165184  2880.97230253
