# SAXS profile: number of points = 501, q_min = 0, q_max = 0.5, delta_q = 0.001
#    q    intensity    error
0.00000000 1664650.74656091 274.66737318
0.00100000 1664582.33879839 599.24965620
0.00200000 1664377.05818135 973.66060987
0.00300000 1664035.08038462 1098.26319218
0.00400000 1663556.25934687 1996.26758707
0.00500000 1662941.07584548 1646.31173025
0.00600000 1662189.23255093 2268.88839480
0.00700000 1661301.41745432 1993.56178380
0.00800000 1660277.03820996 2241.37409621
0.00900000 1659117.46115013 3981.88207698
0.01000000 1657821.88410069 3282.48747226
0.01100000 1656391.46659955 3279.65524666
0.01200000 1654825.75607813 3872.29243900
0.01300000 1653126.12552544 4165.87802006
0.01400000 1651291.74396306 5201.56922407
0.01500000 1649324.43939353 4750.05459697
0.01600000 1647223.14860909 5040.50306007
0.01700000 1644989.84814627 6662.20918385
0.01800000 1642624.11562301 4681.47894018
0.01900000 1640126.75045680 5412.41852073
0.02000000 1637498.27939651 8768.80368283
0.02100000 1634740.49831880 7552.50144465
0.02200000 1631851.42482008 5629.88767141
0.02300000 1628833.94075016 8209.32343506
0.02400000 1625688.20403898 7315.59725175
0.02500000 1622415.29942396 8858.38793942
0.02600000 1619015.23719763 7212.71321161
0.02700000 1615489.51990950 8820.57318270
0.02800000 1611837.67487542 9816.09189015
0.02900000 1608062.27973097 7959.90865014
0.03000000 1604163.92220257 8951.23509734
0.03100000 1600142.41202179 8448.75232423
0.03200000 1595998.98002227 10270.25390947
0.03300000 1591736.51884951 13800.35625463
0.03400000 1587352.85204746 10833.68371509
0.03500000 1582851.39932010 11966.35713144
0.03600000 1578231.81417792 12262.86176288
0.03700000 1573496.03528112 10762.71337907
0.03800000 1568645.24868448 10094.23264244
0.03900000 1563680.80722153 11258.50233338
0.04000000 1558601.50782210 12461.01963247
0.04100000 1553411.36923596 11743.79049594
0.04200000 1548110.82007568 16975.03592965
0.04300000 1542699.70308727 11200.00036429
0.04400000 1537181.81400927 10375.97772644
0.04500000 1531556.52201837 11624.51454225
0.04600000 1525824.54163720 10757.06351860
0.04700000 1519988.88830238 13132.70460571
0.04800000 1514049.67093067 20030.87807841
0.04900000 1508009.76252963 13572.08849451
0.05000000 1501868.58225954 18382.87230288
0.05100000 1495629.49056395 15165.68374080
0.05200000 1489290.73798865 13023.84811064
0.05300000 1482857.70911495 13212.26280414
0.05400000 1476328.63583876 12179.71181366
0.05500000 1469707.61982646 17283.76241543
0.05600000 1462993.13386045 17512.02862949
0.05700000 1456190.24090383 16469.51239339
0.05800000 1449297.24338695 17956.79368401
0.05900000 1442316.42831202 12980.84846109
0.06000000 1435250.40108789 13132.54178349
0.06100000 1428100.85855758 15937.60632629
0.06200000 1420867.98535553 16112.64370709
0.06300000 1413555.05696229 16284.15501758
0.06400000 1406160.20116925 16452.07512309
0.06500000 1398689.86354747 16616.43635622
0.06600000 1391141.39900597 16777.16605699
0.06700000 1383518.17850943 25401.39494619
0.06800000 1375822.97456183 27055.56006120
0.06900000 1368056.60163139 18673.97348656
0.07000000 1360218.78587898 20280.86304718
0.07100000 1352314.03888202 17525.99076479
0.07200000 1344341.32788677 17664.64587596
0.07300000 1336305.70492214 19282.89222554
0.07400000 1328205.84349084 17930.77972744
0.07500000 1320044.87760713 18058.21477210
0.07600000 1311822.46114822 25757.63523218
0.07700000 1303544.09006012 21352.05319635
0.07800000 1295208.16158110 15348.21743451
0.07900000 1286816.92222409 21618.52530735
0.08000000 1278373.75330598 20191.91438069
0.08100000 1269879.05668799 15619.51313010
0.08200000 1261333.98485982 20414.69150292
0.08300000 1252741.13947919 22098.35473753
0.08400000 1244101.49984796 17448.52435438
0.08500000 1235418.73554595 22311.66341138
0.08600000 1226692.14641804 16008.33326237
0.08700000 1217925.17396096 16076.61305121
0.08800000 1209116.74979496 17755.88030462
0.08900000 1200272.86823180 19444.42137865
0.09000000 1191391.78867669 17888.74854731
0.09100000 1182476.75901540 19581.81604927
0.09200000 1173528.37874495 26193.15464432
0.09300000 1164550.32089340 22988.22441470
0.09400000 1155540.73034385 18113.10179941
0.09500000 1146504.02190724 21462.55629890
0.09600000 1137441.13010312 18204.74614307
0.09700000 1128355.12929135 18245.50329841
0.09800000 1119246.64661145 19944.97618038
0.09900000 1110117.66112156 29973.17825970
0.10000000 1100967.90513803 26687.46327558
0.10100000 1091800.43709786 30068.18545184
0.10200000 1082617.01718152 16726.43370220
0.10300000 1073418.78157982 18419.86715839
0.10400000 1064208.33852756 20113.53854441
0.10500000 1054988.38769542 18451.74776894
0.10600001 1045755.26877426 20141.24742431
0.10700001 1036516.80979734 16791.57310889
0.10800001 1027269.96113992 20155.03758610
0.10900001 1018019.09698382 20156.77906897
0.11000001 1008764.33415690 20155.11234515
0.11100001 999507.77923450 25187.59722237
0.11200001 990251.83096535 16784.76932504
0.11300001 980995.23406765 23485.02700927
0.11400001 971742.45253670 18438.81390506
0.11500001 962494.24315223 21771.62080529
0.11600001 953250.77263469 20075.46221707
0.11700001 944015.66878482 16709.07812440
0.11800001 934787.24290208 25028.92960752
0.11900001 925569.11808068 21658.31838323
0.12000001 916362.03138875 18295.16881847
0.12100001 907169.22413420 21581.55685882
0.12200001 897988.91722889 23195.05482477
0.12300001 888825.01622103 18185.36068867
0.12400001 879677.03498802 21442.12873813
0.12500001 870547.39195199 24680.01972477
0.12600001 861438.20544794 18051.43844581
0.12700001 852349.61700746 16365.11341777
0.12800001 843281.91076383 21212.75746501
0.12900001 834238.14129894 16267.64452206
0.13000001 825218.79656766 21080.21515193
0.13100001 816224.37022677 24241.86493844
0.13200001 807257.73728940 16104.79261811
0.13300001 798320.18595302 22464.73109177
0.13400001 789410.40442382 27175.45445349
0.13500001 780531.92895970 17515.13731166
0.13600001 771684.27581766 20615.54640051
0.13700001 762869.78262513 15791.40524496
0.13800001 754087.83171719 17295.00523599
0.13900001 745343.22119596 15652.20838324
0.14000001 736632.75673624 21811.69695561
0.14100001 727960.00286509 21707.76830924
0.14200001 719323.77787656 16972.44533951
0.14300001 710729.63635671 15351.76086941
0.14400001 702170.86768933 18326.66051116
0.14500001 693656.73776417 16710.19160099
0.14600001 685182.07905207 22662.39833373
0.14700001 676753.29118314 16526.31615035
0.14800001 668365.43747506 26888.34281818
0.14900001 660021.83735477 20790.68885760
0.15000001 651724.27180400 16237.71099814
0.15100001 643472.82878132 16138.29930732
0.15200001 635269.27679212 20411.20282647
0.15300001 627113.58420984 15934.95692673
0.15400001 619004.25676338 17270.21957870
0.15500001 610946.18013727 18584.98367686
0.15600001 602936.20073095 14199.14819734
0.15700001 594980.40499353 14101.03626387
0.15800001 587071.47765620 23802.81418503
0.15900001 579217.66073551 18071.59186794
0.16000001 571414.34483855 20699.48561884
0.16100001 563667.34805539 13697.11720431
0.16200001 555972.03895955 20390.27549139
0.16300001 548332.32831335 21582.36146127
0.16400001 540747.47463233 13383.50062898
0.16500001 533218.62392942 18588.00210774
0.16600001 525745.68788817 14486.92311373
0.16700001 518328.72833016 15674.26148476
0.16800001 510968.18737334 22020.17507457
0.16900001 503667.27736812 14127.86779727
0.17000001 496423.61578492 14006.59298076
0.17100001 489238.37426659 15146.82078255
0.17200001 482112.27526551 13761.89554733
0.17300001 475045.43678450 13638.55513416
0.17400001 468038.91628786 13514.62434605
0.17500001 461091.85111577 17041.95562209
0.17600001 454203.19512146 13265.00494002
0.17700001 447377.87903248 11944.98993434
0.17800001 440612.35382423 14196.53071075
0.17900001 433907.88503221 14058.61613908
0.18000001 427265.75027608 13920.31880152
0.18100001 420686.27577253 17227.10380663
0.18200001 414165.76987515 13642.62110414
0.18300001 407710.26292335 14628.64492474
0.18400001 401315.42448423 13363.80426664
0.18500001 394984.18861909 12122.06532139
0.18600001 388715.25086793 17445.54128314
0.18700001 382508.72396282 11865.42117791
0.18800001 376364.67738083 16004.90866179
0.18900001 370285.84486040 12663.77649256
0.19000001 364265.98695977 11479.84312145
0.19100001 358314.19281216 17543.06370899
0.19200001 352421.93536975 12243.13861325
0.19300001 346595.43247741 14120.29858635
0.19400001 340831.11929101 10966.24178139
0.19500001 335130.80867888 11823.41548891
0.19600001 329492.50391637 9736.50395084
0.19700001 323918.35689540 13468.52591620
0.19800001 318407.36313451 10454.90626261
0.19900001 312960.35123469 13144.33537306
0.20000001 307574.71406590 9273.37806736
0.20100001 302253.81615000 12821.60748706
0.20200001 296994.71694159 10852.18746996
0.20300001 291799.24417080 10714.86875239
0.20400001 286666.40125086 9696.49148062
0.20500001 281595.36213178 11311.68623150
0.20600001 276587.64971758 16317.28916637
0.20700001 271641.99433719 10170.27674872
0.20800001 266758.28222066 9199.15979723
0.20900001 261938.78649327 9901.28659749
0.21000001 257178.64683526 13023.52729139
0.21100001 252480.26496593 9634.64736656
0.21200001 247843.36962064 11086.03444722
0.21300001 243267.55741238 10151.55565074
0.21400001 238753.47866323 10779.72007127
0.21500001 234300.62205240 9109.60861608
0.21600001 229906.63613521 9728.49976801
0.21700001 225573.86499910 8113.89230764
0.21800001 221300.72468618 11631.56663945
0.21900001 217086.12313247 8596.61088251
0.22000001 212930.76058941 10587.98257094
0.22100001 208836.81946136 7649.69305857
0.22200001 204800.26144364 8905.73978998
0.22300001 200821.99440084 7422.38126403
0.22400001 196900.27000042 7309.92286942
0.22500001 193039.31551673 7852.83972656
0.22600001 189233.82648540 8376.43572548
0.22700001 185486.46519057 8246.72863235
0.22800001 181794.98364058 6869.12378170
0.22900001 178159.59186505 7990.45807302
0.23000001 174580.08762891 7259.04038690
0.23100001 171057.89204834 7738.65940225
0.23200001 167588.93163818 6442.95678154
0.23300001 164176.01426860 6338.83621070
0.23400001 160817.29909321 8503.21509172
0.23500001 157511.46082554 6691.08717233
0.23600001 154260.02995210 6580.73318901
0.23700001 151061.75509421 7550.06687671
0.23800001 147916.23907238 6363.35690587
0.23900001 144823.10985828 8341.81152240
0.24000001 141781.53819110 6663.02370245
0.24100001 138792.75438565 6549.63038926
0.24200001 135854.17310722 5447.07332839
0.24300001 132966.60407424 6813.20911505
0.24400001 130128.37654641 5738.66167716
0.24500001 127340.46833340 5168.74985416
0.24600001 124601.96426896 6001.45389291
0.24700001 121912.90866067 5895.70854173
0.24800001 119271.20900160 4454.77986695
0.24900001 116677.35852345 4812.94126678
0.25000001 114131.66839848 5586.17477404
0.25100001 111632.28006859 6329.55057933
0.25200001 109180.55566305 5800.76319681
0.25300001 106775.05669844 4068.12985268
0.25400001 104414.21830125 4393.22844287
0.25500001 102098.85443037 4312.65581518
0.25600001 99828.49750677  5002.90538925
0.25700001 97602.16258729  4910.36503209
0.25800001 95419.45704356  5189.86451415
0.25900001 93280.47083351  6912.08321581
0.26000001 91184.58399729  3926.86429564
0.26100001 89129.09846663  5254.16060321
0.26200001 87118.07665960  4124.16994421
0.26300001 85146.84138930  3371.81507856
0.26400001 83216.47008828  3638.64032678
0.26500001 81327.50112778  3569.46419340
0.26600001 79477.30544260  4137.98610368
0.26700001 77667.95016172  3122.25174425
0.26800001 75897.24591778  3674.94482124
0.26900001 74164.44663848  3604.39227720
0.27000001 72470.44279065  3829.70073050
0.27100001 70813.80148319  3178.12356096
0.27200001 69194.62522086  3966.92805164
0.27300001 67611.61534864  2778.83752234
0.27400001 66063.85935751  3270.16119296
0.27500001 64553.90162732  4008.79748077
0.27600001 63077.16601574  3145.02764639
0.27700001 61636.83048698  3598.35833413
0.27800001 60229.72563296  3528.85979185
0.27900001 58857.18402304  2966.40221515
0.28000001 57517.42680327  3636.53948175
0.28100001 56210.72974351  2615.48537875
0.28200001 54936.75261688  2798.47831075
0.28300001 53694.67819208  2973.61141902
0.28400001 52484.42356802  3141.19289922
0.28500001 51305.41330331  2421.10256838
0.28600001 50156.35645759  2375.15437247
0.28700001 49037.90474490  2330.28134378
0.28800001 47948.54820473  2909.99752828
0.28900001 46890.06283200  3467.52031056
0.29000001 45859.02823238  2402.09601251
0.29100001 44857.61068411  2554.19247326
0.29200001 43883.62021815  2700.15927984
0.29300001 42937.09273968  2082.87846740
0.29400001 42017.57561179  1859.27780883
0.29500001 41125.92445942  2191.18935892
0.29600001 40259.36144237  2152.26556459
0.29700001 39418.51451605  2114.40921873
0.29800001 38603.75539342  1904.51636249
0.29900001 37813.85175155  1701.62340937
0.30000001 37048.52933039  2007.28941414
0.30100001 36308.26251526  1809.24080679
0.30200001 35590.39445566  1779.34185505
0.30300001 34896.54809803  1591.28266860
0.30400001 34226.40348980  2035.61544393
0.30500001 33577.68860513  2311.82396991
0.30600001 32951.34330135  1669.15037395
0.30700001 32347.41436314  2092.23086006
0.30800001 31764.59755203  1472.28916624
0.30900001 31202.83432165  1596.02505111
0.31000001 30662.40636861  1573.44145730
0.31100001 30140.65989654  1692.69953993
0.31200001 29640.09072378  1809.08302298
0.31300001 29158.26818614  1648.02539591
0.31400001 28697.01605221  2033.90110900
0.31500001 28253.76288659  2142.76547877
0.31600002 27828.88338388  1852.56885458
0.31700002 27421.80238474  1438.82203925
0.31800002 27032.75407021  1681.57254656
0.31900002 26661.31040156  1407.71725586
0.32000002 26306.62229710  1646.66310066
0.32100002 25969.05699846  1756.02771738
0.32200002 25647.91442253  1988.22642018
0.32300002 25342.14618842  1354.79119938
0.32400002 25052.39214486  2076.21709732
0.32500002 24777.49883590  1332.78172549
0.32600002 24518.31257268  1202.62328864
0.32700002 24273.38306425  1313.67555364
0.32800002 24043.84181955  1305.22001498
0.32900002 23826.91036843  1415.31854290
0.33000002 23625.50326942  1759.50943931
0.33100002 23435.16452190  1750.60687268
0.33200002 23260.32642382  1394.22403187
0.33300002 23097.11810803  1504.31537361
0.33400002 22947.28887215  1499.03171656
0.33500002 22809.01725761  1264.53197665
0.33600002 22682.89336162  1146.62031373
0.33700002 22567.58690068  1258.59438105
0.33800002 22465.19138012  1256.59053936
0.33900002 22372.57636884  1255.10159373
0.34000002 22291.64056021  1368.26096238
0.34100002 22220.98037205  1367.92361649
0.34200002 22161.52256627  1596.29454605
0.34300002 22110.74987967  1597.28064695
0.34400002 22070.53852971  1370.58050761
0.34500002 22039.46895852  1143.84849312
0.34600002 22018.84912241  1260.68926621
0.34700002 22005.08105075  1493.26487083
0.34800002 22001.79125222  1842.87012257
0.34900002 22006.45170762  1270.87264631
0.35000002 22019.49332220  1854.92220531
0.35100002 22040.70726266  1396.49927830
0.35200002 22068.85968694  1402.25541092
0.35300002 22105.03233950  1173.77727282
0.35400002 22148.93698222  1769.14642525
0.35500002 22199.66212973  1422.55441665
0.35600002 22256.69703246  1549.40003730
0.35700002 22320.75042275  1318.48678992
0.35800002 22391.64234015  1567.52699627
0.35900002 22468.39994280  1577.28175069
0.36000002 22551.81008898  1831.77086124
0.36100002 22640.14623630  1352.29599875
0.36200002 22735.38085634  1237.94154626
0.36300002 22834.20036727  1371.42213902
0.36400002 22939.07007418  1758.27980447
0.36500002 23048.41008199  1898.03666016
0.36600002 23163.17746350  1275.13297977
0.36700002 23282.11654012  1542.20747267
0.36800002 23406.86757620  2072.91229074
0.36900002 23534.94020346  1306.18924317
0.37000002 23666.09659067  1448.72017142
0.37100002 23801.71389360  1593.76283781
0.37200002 23941.50136086  1607.43247751
0.37300002 24084.11202343  1486.23062337
0.37400002 24231.21464991  1363.00588862
0.37500002 24380.42120267  1512.56140307
0.37600002 24533.69505537  2219.80883377
0.37700002 24688.69366814  1539.83389703
0.37800002 24847.20528490  1553.82005610
0.37900002 25008.10304522  1710.55432933
0.38000002 25171.58082817  1582.41150373
0.38100002 25336.88814122  1742.16451112
0.38200002 25504.50691646  1611.75739094
0.38300002 25673.85616193  1626.69560348
0.38400002 25845.65283569  2238.87978296
0.38500002 26018.07899977  1807.73621454
0.38600002 26193.24358693  2128.72500716
0.38700002 26368.72268796  1688.12570646
0.38800002 26545.61261835  1703.83022663
0.38900002 26723.78237135  1563.34134279
0.39000002 26903.59214249  1735.68532930
0.39100002 27083.40656671  1751.75481973
0.39200002 27264.49584622  1928.69052754
0.39300002 27445.97612265  1946.46871884
0.39400002 27628.78692890  2619.20912495
0.39500002 27811.09206873  1982.37473658
0.39600002 27993.70530014  2167.13279848
0.39700002 28176.16931626  1850.32912666
0.39800002 28359.85920423  2036.80518455
0.39900002 28542.60324703  2397.57878634
0.40000002 28725.13925965  1900.59892916
0.40100002 28907.38976440  2266.05039099
0.40200002 29090.41432612  2637.77344400
0.40300002 29271.86308258  2306.03748291
0.40400002 29452.89164022  2683.89487788
0.40500002 29633.34768763  2346.07224759
0.40600002 29813.33805881  2002.11481220
0.40700002 29992.41155623  2386.19637647
0.40800002 30170.76770940  2406.26969268
0.40900002 30347.40616944  2426.27523821
0.41000002 30523.80609577  2822.68910245
0.41100002 30698.71557532  2466.33492618
0.41200002 30871.84862184  1912.51111274
0.41300002 31044.17727156  2120.62784990
0.41400002 31214.96472125  1943.13164597
0.41500002 31384.78298521  2937.61582661
0.41600002 31551.85741011  2565.63940687
0.41700002 31718.09575491  2585.34210749
0.41800002 31883.62272587  2605.05151826
0.41900002 32045.34980379  2220.74284663
0.42000002 32206.10157769  2440.57849320
0.42100002 32365.60540311  2663.36579483
0.42200002 32522.97963755  3095.37473368
0.42300002 32677.81885432  2493.97125314
0.42400002 32830.71037220  2511.54946249
0.42500002 32981.92730708  2529.05430575
0.42600002 33129.68006960  2970.73855261
0.42700002 33276.51350598  2563.62272198
0.42800002 33420.52198463  3010.85496827
0.42900002 33562.89950492  2814.24925685
0.43000002 33702.80543624  3050.44106459
0.43100002 33838.96076990  3289.14714270
0.43200002 33973.64499088  2427.24718139
0.43300002 34105.48430012  2220.26713315
0.43400002 34235.11155796  2680.60936202
0.43500002 34361.78741979  2471.98710412
0.43600002 34486.76741740  2486.66848247
0.43700002 34608.11179443  2728.50366317
0.43800002 34726.10733123  2744.05713135
0.43900002 34842.55489413  3219.45222479
0.44000002 34955.40415880  3237.22013256
0.44100002 35066.16444496  2557.37549417
0.44200002 35173.94878091  3272.23261016
0.44300002 35279.04649360  2584.54306860
0.44400002 35380.67004650  3070.15778878
0.44500002 35478.73800812  3322.93875932
0.44600002 35574.68269374  4054.98039902
0.44700002 35667.90344227  3115.94819239
0.44800002 35757.06602813  2408.23851112
0.44900002 35844.65120277  3145.36829211
0.45000002 35928.82084921  2916.70181477
0.45100002 36008.76888459  3662.09196912
0.45200002 36086.63422830  3187.71298563
0.45300002 36160.87289527  3201.32222914
0.45400002 36232.55559819  2720.15924045
0.45500002 36301.07902285  3227.89209969
0.45600002 36366.11400989  3240.76640358
0.45700002 36428.13784649  2752.87450753
0.45800002 36486.30416449  2512.08216078
0.45900002 36541.76363178  2773.51999110
0.46000002 36594.77072530  3036.63421870
0.46100002 36643.36040564  2793.32349611
0.46200002 36689.61326442  2802.90313818
0.46300002 36732.28632107  4090.50759858
0.46400002 36771.32598835  3334.24014202
0.46500002 36808.05829307  3087.46007595
0.46600002 36840.80509632  3354.90807511
0.46700002 36870.37134444  2847.13021016
0.46800002 36897.46996796  2595.73713527
0.46900002 36920.51732072  2863.18625393
0.47000002 36940.15538856  2609.82210190
0.47100002 36957.08393522  3139.87399996
0.47200002 36970.47542798  3147.66642713
0.47300002 36981.35839434  2629.37470646
0.47400002 36987.60058529  3953.04999992
0.47500002 36991.76259117  2905.33317162
0.47600002 36993.02335602  3176.22113589
0.47700002 36990.01924408  3447.83985716
