# SAXS profile: number of points = 501, q_min = 0, q_max = 0.5, delta_q = 0.001
#    q    intensity    error
0.00000000 1664650.74656091 424.48594037
0.00100000 1664582.34436455 749.06207275
0.00200000 1664377.08257734 823.86668196
0.00300000 1664035.13439618 1697.31589755
0.00400000 1663556.35120174 1621.96750405
0.00500000 1662941.21234887 2244.97072553
0.00600000 1662189.44895940 2443.41858945
0.00700000 1661301.69778261 2392.27454423
0.00800000 1660277.40492805 2913.78696867
0.00900000 1659117.94233705 3484.14782785
0.01000000 1657822.46290661 3282.48861829
0.01100000 1656392.17796011 3577.80726017
0.01200000 1654826.58275572 4194.98557121
0.01300000 1653127.08961763 3818.72374544
0.01400000 1651292.87815895 4086.95005462
0.01500000 1649325.74703083 7520.92574136
0.01600000 1647224.61297432 4620.46524594
0.01700000 1644991.51020597 4441.47727680
0.01800000 1642625.99852553 4681.48430645
0.01900000 1640128.80583328 4920.38663952
0.02000000 1637500.60183311 6705.56526784
0.02100000 1634743.00945483 8631.44348126
0.02200000 1631854.18607966 7318.86635708
0.02300000 1628836.99018918 9968.48283371
0.02400000 1625691.49172106 6705.97770913
0.02500000 1622418.84896525 6960.17717994
0.02600000 1619019.12769041 7212.73054376
0.02700000 1615493.65907220 10856.11788619
0.02800000 1611842.11045697 7712.66485224
0.02900000 1608067.03643498 9407.19259507
0.03000000 1604169.02352476 10443.14082317
0.03100000 1600147.86050977 9984.92310902
0.03200000 1596004.78334473 9480.26884971
0.03300000 1591742.65487244 9741.46549691
0.03400000 1587359.34188183 10833.72800822
0.03500000 1582858.24999827 9402.17843916
0.03600000 1578239.07024438 8759.22724465
0.03700000 1573503.69504646 8968.97147656
0.03800000 1568653.31405662 11929.60900550
0.03900000 1563689.27799428 12196.77693319
0.04000000 1558610.39113243 21087.99956922
0.04100000 1553420.73879808 10765.20621902
0.04200000 1548120.58414060 9985.37823096
0.04300000 1542709.94247275 18327.39496730
0.04400000 1537192.45198998 17639.28420579
0.04500000 1531567.63398927 13738.16231523
0.04600000 1525836.14045246 17211.43246441
0.04700000 1520000.96186869 15321.61040821
0.04800000 1514062.24184996 12241.19379492
0.04900000 1508022.80209322 18096.27446746
0.05000000 1501882.18355473 13787.27908705
0.05100000 1495643.57570897 11666.02043398
0.05200000 1489305.28222303 13023.97529997
0.05300000 1482872.79125418 15614.65121983
0.05400000 1476344.36951441 14615.80993978
0.05500000 1469723.76596958 14814.81625207
0.05600000 1463009.89142714 16261.35570204
0.05700000 1456207.50216548 13935.90644623
0.05800000 1449315.07481955 16674.37071437
0.05900000 1442334.77654866 18173.41903332
0.06000000 1435269.38063793 15759.25853566
0.06100000 1428120.36900715 18594.12807340
0.06200000 1420888.07905238 22826.56805697
0.06300000 1413575.75270261 17641.42621856
0.06400000 1406181.48996256 15081.29718515
0.06500000 1398711.65826081 13847.24606453
0.06600000 1391163.81745446 15379.31672153
0.06700000 1383541.28926771 16934.54617316
0.06800000 1375846.66990165 15664.01507005
0.06900000 1368080.91019492 15801.33525255
0.07000000 1360243.65068942 20281.23378152
0.07100000 1352339.53586964 18986.84797291
0.07200000 1344367.48447730 17664.98957358
0.07300000 1336332.44382561 20766.60715008
0.07400000 1328233.24873212 17931.14969821
0.07500000 1320072.94519748 16553.71550869
0.07600000 1311851.10768584 18182.25720492
0.07700000 1303573.35188782 19827.35161189
0.07800000 1295238.08193707 16883.42918982
0.07900000 1286847.39381845 20074.82028515
0.08000000 1278404.90594399 20192.40643663
0.08100000 1269910.87867532 18743.88544868
0.08200000 1261366.40121426 25126.41989125
0.08300000 1252774.29779720 18941.94827168
0.08400000 1244135.28152788 17448.99814246
0.08500000 1235453.10759925 15937.34583621
0.08600000 1226727.24162806 25614.06600781
0.08700000 1217960.85642986 19292.50087178
0.08800000 1209153.02177873 22599.07103838
0.08900000 1200309.79630629 21065.43791461
0.09000000 1191429.40377219 19515.61455054
0.09100000 1182515.04835587 24478.06265097
0.09200000 1173567.37531027 24556.89848222
0.09300000 1164589.81628547 18062.78889940
0.09400000 1155580.86080338 19760.43364843
0.09500000 1146544.85011892 21463.32060306
0.09600000 1137482.62147768 21515.48479665
0.09700000 1128397.14890168 16587.43886868
0.09800000 1119289.43029049 19945.73858558
0.09900000 1110161.01703775 26643.86566177
0.10000000 1101011.92136772 20016.39767178
0.10100000 1091844.96229331 25057.84306315
0.10200000 1082662.22318265 21745.27177544
0.10300000 1073464.73520845 23444.47091980
0.10400000 1064254.84484368 21790.61897332
0.10500000 1055035.50613873 26840.10453898
0.10600001 1045803.01263067 20142.16697103
0.10700001 1036565.18823342 18471.59252355
0.10800001 1027318.84093849 20155.99660779
0.10900001 1018068.56634889 16798.13213537
0.11000001 1008814.47479999 18476.43797564
0.11100001 999558.46612454 18471.84132351
0.11200001 990303.11918808 18464.20252650
0.11300001 981047.05760448 21808.67711732
0.11400001 971794.96743581 16763.46397757
0.11500001 962547.26462666 21772.82015109
0.11600001 953304.29433348 18403.54026876
0.11700001 944069.90567782 21723.04955269
0.11800001 934841.86171364 20024.31362102
0.11900001 925624.26390902 21659.60879567
0.12000001 916417.74323295 18296.28110549
0.12100001 907225.46617436 16602.22681309
0.12200001 898045.75011308 21539.62833122
0.12300001 888882.36387969 23146.49784596
0.12400001 879734.81118756 18144.53133567
0.12500001 870605.56366487 23036.22430005
0.12600001 861497.07570238 19693.82407860
0.12700001 852408.91059086 16366.25185463
0.12800001 843341.76884818 17950.53039593
0.12900001 834298.42766659 19522.58412754
0.13000001 825279.51680625 16216.74326962
0.13100001 816285.53563782 19394.94524099
0.13200001 807319.33043118 19327.22568161
0.13300001 798382.12440525 17652.22960278
0.13400001 789472.85286619 15986.82602425
0.13500001 780594.74853510 17516.54698300
0.13600001 771747.55193377 15859.41294002
0.13700001 762933.46385307 15792.72344644
0.13800001 754151.96921871 18868.88315963
0.13900001 745407.73925556 17218.91958882
0.14000001 736697.58104357 18697.38548867
0.14100001 728025.10306665 15506.93542667
0.14200001 719389.28020695 20060.17102471
0.14300001 710795.40111495 15353.18138826
0.14400001 702236.97517231 16801.02042350
0.14500001 693723.25393456 19750.30197118
0.14600001 685248.88692822 21153.63413738
0.14700001 676820.29932581 19533.03476004
0.14800001 668432.77873494 20915.26263337
0.14900001 660089.52373296 19307.61948014
0.15000001 651792.14073898 20668.32975802
0.15100001 643541.08505085 16140.01117464
0.15200001 635337.72715636 17497.20183153
0.15300001 627182.25517459 15936.70185602
0.15400001 619073.10864311 18711.48559175
0.15500001 611015.23460175 20016.86003021
0.15600001 603005.46726406 15620.85736670
0.15700001 595049.89197028 22564.29296848
0.15800001 587141.19384035 15403.64994743
0.15900001 579287.49751277 18073.77077549
0.16000001 571484.30240784 19321.88517645
0.16100001 563737.43666245 13698.82035754
0.16200001 556042.19584999 14954.75556334
0.16300001 548402.68311899 18886.98929823
0.16400001 540817.86963924 18739.34006768
0.16500001 533289.07551560 25229.90735378
0.16600001 525816.23563783 18440.37625444
0.16700001 518399.39838106 14370.03200160
0.16800001 511038.89226460 15545.80383671
0.16900001 503737.96902460 15414.38257999
0.17000001 496494.53272071 19102.62804845
0.17100001 489309.16617288 12624.17708339
0.17200001 482182.93518787 13763.91253491
0.17300001 475116.16959913 14880.63913458
0.17400001 468109.61779810 13516.66585226
0.17500001 461162.46725565 14609.62765264
0.17600001 454273.78484796 26534.13302615
0.17700001 447448.39644989 11946.87274947
0.17800001 440682.81068974 15382.03423365
0.17900001 433978.28342312 12889.15562647
0.18000001 427336.07677685 12762.39253577
0.18100001 420756.40156555 12635.31533586
0.18200001 414235.82367534 12507.85128672
0.18300001 407780.13616802 18007.57166385
0.18400001 401385.07773555 13366.12372002
0.18500001 395053.71149307 17635.19851417
0.18600001 388784.60648523 15267.57221797
0.18700001 382577.83990579 14025.30427357
0.18800001 376433.72666339 13873.46565165
0.18900001 370354.49535852 13721.63470135
0.19000001 364334.48369319 10438.18345100
0.19100001 358382.40772720 10321.41383023
0.19200001 352489.89116038 14286.41596378
0.19300001 346663.10339914 12105.47614271
0.19400001 340898.61190119 11965.54184315
0.19500001 335197.91812925 15767.71081390
0.19600001 329559.29376411 13633.86862731
0.19700001 323984.80764071 13471.28893832
0.19800001 318473.46776126 14259.65019290
0.19900001 313026.23135587 12208.02359983
0.20000001 307640.18831646 11130.42253933
0.20100001 302318.96082196 13740.39741876
0.20200001 297059.44794644 10854.55274099
0.20300001 291863.46826114 10717.22706109
0.20400001 286730.32949405 10580.34965842
0.20500001 281658.85617630 12184.56269411
0.20600001 276650.66242635 8590.00347437
0.20700001 271704.58563074 10172.62016687
0.20800001 266820.33791132 10037.78158671
0.20900001 262000.35156090 9078.31261073
0.21000001 257239.78146860 8955.80341519
0.21100001 252540.94294045 11243.12331121
0.21200001 247903.54902042 11880.77814846
0.21300001 243327.15452385 10935.12284127
0.21400001 238812.67665241 10012.22194200
0.21500001 234359.21550725 9111.88672971
0.21600001 229964.73267902 10479.49336364
0.21700001 225631.27074530 8853.77148265
0.21800001 221357.69276689 9453.08071656
0.21900001 217142.48774805 9315.41316484
0.22000001 212986.58744032 10590.75856123
0.22100001 208891.94750248 9738.54305304
0.22200001 204854.72666679 7537.63002412
0.22300001 200875.84035057 8099.31426591
0.22400001 196953.48412348 7311.89844384
0.22500001 193091.98842770 7200.40058896
0.22600001 189285.81415152 9023.25518730
0.22700001 185537.66114879 6979.92714249
0.22800001 181845.57670438 11243.51253934
0.22900001 178209.41062395 6763.04745301
0.23000001 174629.36116424 6655.99841555
0.23100001 171106.41482632 6549.95386932
0.23200001 167636.84550874 6444.79883038
0.23300001 164223.18115432 6340.65732425
0.23400001 160863.69900997 7371.57935577
0.23500001 157557.17556055 6135.27670650
0.23600001 154305.03546590 7131.20755134
0.23700001 151105.96083179 7012.82797390
0.23800001 147959.64171487 5304.35340637
0.23900001 144865.72660907 5736.68304506
0.24000001 141823.38500616 7177.68185467
0.24100001 138833.87126327 5039.66976524
0.24200001 135894.56510712 7430.03569869
0.24300001 133006.10354878 4868.02362016
0.24400001 130167.07691039 5262.00433301
0.24500001 127378.38337553 5170.28882579
0.24600001 124639.13137761 6465.03205039
0.24700001 121949.20770478 4990.16181534
0.24800001 119306.70993872 5792.93757512
0.24900001 116711.98255110 4814.36950799
0.25000001 114165.46766278 6447.49509127
0.25100001 111665.15848402 4643.03750942
0.25200001 109212.66391951 5388.00702937
0.25300001 106806.26327427 4476.25070560
0.25400001 104444.62409941 4794.00847297
0.25500001 102128.38186610 6274.76807872
0.25600001 99857.19011879  3849.49486121
0.25700001 97629.89567794  4533.93256980
0.25800001 95446.36661858  4449.70982229
0.25900001 93306.49182869  4730.63935954
0.26000001 91209.78117112  3927.94941199
0.26100001 89153.43502436  3854.10317846
0.26200001 87141.45770673  3781.50373611
0.26300001 85169.34824279  5733.60079500
0.26400001 83238.04440163  5293.93987444
0.26500001 81348.10754000  4868.68446665
0.26600001 79497.13081941  4457.40433597
0.26700001 77686.84987498  3747.61381531
0.26800001 75915.20673695  3369.49661047
0.26900001 74181.46931540  4806.95943911
0.27000001 72486.56389348  2946.57896171
0.27100001 70829.06064091  4912.70387854
0.27200001 69208.95822291  2834.10697335
0.27300001 67625.02385923  2779.38861215
0.27400001 66076.31784918  2725.64824027
0.27500001 64565.46802643  3207.61260335
0.27600001 63087.86267320  3669.82114538
0.27700001 61646.59514706  3084.79576715
0.27800001 60238.55329067  2773.08193198
0.27900001 58865.06408966  3955.73249404
0.28000001 57524.44990533  3879.44908522
0.28100001 56216.69478583  2377.96630199
0.28200001 54941.90535583  2565.51239202
0.28300001 53698.97283818  2745.09162141
0.28400001 52487.74930271  2243.85138889
0.28500001 51307.85246037  2421.21767220
0.28600001 50157.81415735  2591.15280201
0.28700001 49038.54918333  2542.15850999
0.28800001 47948.32803331  2494.27214235
0.28900001 46888.89940260  2447.60066467
0.29000001 45856.98435759  2401.98895435
0.29100001 44854.60275399  3143.41070979
0.29200001 43879.68842733  2892.76859650
0.29300001 42932.28041295  2461.30775258
0.29400001 42011.94041574  2416.73698681
0.29500001 41119.39087496  2190.84124953
0.29600001 40251.95538047  2151.86963650
0.29700001 39410.19303416  1937.79928322
0.29800001 38594.60523399  2077.16175202
0.29900001 37803.81996343  2041.40637466
0.30000001 37037.63638525  2173.92417054
0.30100001 36296.46039825  1808.65270727
0.30200001 35577.76608193  1940.41145397
0.30300001 34883.13635998  1908.80531198
0.30400001 34212.10367220  2034.76496223
0.30500001 33562.52794965  1848.62412698
0.30600001 32935.38592827  2426.67935008
0.30700001 32330.66587294  1643.04451745
0.30800001 31747.04350792  1765.77064351
0.30900001 31184.36700587  1740.08776131
0.31000001 30643.14135539  1858.35339548
0.31100001 30120.67386862  2396.40092645
0.31200001 29619.26543900  1668.74949384
0.31300001 29136.63812668  2195.73715319
0.31400001 28674.70069175  1490.36763902
0.31500001 28230.51539325  1605.75179160
0.31600002 27804.91024585  1322.12354479
0.31700002 27397.04819971  1960.25889150
0.31800002 27007.28019394  2455.36699509
0.31900002 26635.19988511  1406.33862052
0.32000002 26279.72899863  2024.59041792
0.32100002 25941.41590101  1378.26749208
0.32200002 25619.57648580  1489.52224741
0.32300002 25313.08162088  1599.28057253
0.32400002 25022.65894105  1829.78202171
0.32500002 24747.02598573  1452.15555360
0.32600002 24487.17383661  1201.09593356
0.32700002 24241.59323187  1789.02966523
0.32800002 24011.33794326  1184.95958361
0.32900002 23793.78392774  1295.57159622
0.33000002 23591.76181018  1288.46413228
0.33100002 23400.77741164  1165.35877028
0.33200002 23225.27765349  1508.13347585
0.33300002 23061.56389530  1733.07660880
0.33400002 22911.08517635  1381.53850156
0.33500002 22772.18627272  1147.71824250
0.33600002 22645.50057612  1259.20311917
0.33700002 22529.63068060  1256.47756256
0.33800002 22426.66030258  1254.43530343
0.33900002 22333.52308354  1594.61362368
0.34000002 22252.03327068  1593.46817798
0.34100002 22180.75017559  1137.87253790
0.34200002 22120.86894594  1251.93063729
0.34300002 22069.59485077  1935.94495199
0.34400002 22028.87623028  1253.99383880
0.34500002 21997.36531307  1484.16230796
0.34600002 21976.23874546  1601.40859323
0.34700002 21962.07108822  1146.42016510
0.34800002 21958.28026868  1494.37083446
0.34900002 21962.53330227  1268.33635828
0.35000002 21975.16763295  1156.99263067
0.35100002 21995.93068191  1161.38519501
0.35200002 22023.68218402  1166.15402688
0.35300002 22059.45735025  1874.17158524
0.35400002 22102.98496990  1647.77760755
0.35500002 22153.37795511  2011.08374602
0.35600002 22210.12392498  1189.35219252
0.35700002 22273.75395531  1315.71070846
0.35800002 22344.36295852  1564.21720300
0.35900002 22420.82310542  1452.86940605
0.36000002 22503.93921802  1340.44720301
0.36100002 22591.98897421  1594.76857723
0.36200002 22686.97647056  1482.36711280
0.36300002 22785.49510901  1368.49690107
0.36400002 22890.15909763  1754.53077794
0.36500002 22999.26774056  1767.72380227
0.36600002 23113.82176366  1399.65754320
0.36700002 23232.56002323  1538.92484884
0.36800002 23357.07653742  1551.37709710
0.36900002 23484.92413332  1694.43735648
0.37000002 23615.99255044  1577.07605722
0.37100002 23751.44078844  1325.33045878
0.37200002 23891.13363461  1470.37988919
0.37300002 24033.63390079  1887.60169598
0.37400002 24180.60996505  1496.17531246
0.37500002 24329.62794965  1372.19108136
0.37600002 24482.84128642  1661.40568840
0.37700002 24637.71354958  1676.35010933
0.37800002 24796.23609278  1409.66608865
0.37900002 24957.12501669  1991.57867068
0.38000002 25120.53005772  2009.89370513
0.38100002 25285.76832641  1448.87459374
0.38200002 25453.39010264  1754.75679680
0.38300002 25622.75915270  1623.45809682
0.38400002 25794.62017094  2085.49513962
0.38500002 25967.07208299  2104.89096277
0.38600002 26142.33772549  1517.56277686
0.38700002 26317.79775373  2297.54385275
0.38800002 26494.75913626  2009.76004949
0.38900002 26673.01132184  2340.55685438
0.39000002 26852.97340279  2204.89775056
0.39100002 27032.90666293  2543.25597934
0.39200002 27214.12704521  1764.70015185
0.39300002 27395.73896092  1619.08824930
0.39400002 27578.66657112  1634.03607175
0.39500002 27761.17515852  2308.61943556
0.39600002 27943.93353996  1664.06132114
0.39700002 28126.61488895  2182.90668495
0.39800002 28310.49904589  1694.38344817
0.39900002 28493.42213924  1709.60540935
0.40000002 28676.17349153  2587.30787586
0.40100002 28858.74176427  2784.29153733
0.40200002 29041.96542664  2633.38033983
0.40300002 29223.70910588  2302.24391244
0.40400002 29404.97347509  3394.06922417
0.40500002 29585.76995633  1981.95082328
0.40600002 29765.99572855  2180.65695039
0.40700002 29945.42606000  2199.19219405
0.40800002 30124.09475332  2032.92463075
0.40900002 30301.12124187  2795.27856701
0.41000002 30477.82144821  2254.74933757
0.41100002 30653.11152721  3220.41604964
0.41200002 30826.64965279  2100.68214012
0.41300002 30999.30565198  2310.06836664
0.41400002 31170.52716095  3104.58465233
0.41500002 31340.73999608  3129.05962947
0.41600002 31508.20003948  2167.92180644
0.41700002 31674.87876520  2780.42098976
0.41800002 31840.87129383  2201.31874121
0.41900002 32003.04515901  2822.66871678
0.42000002 32164.27535159  2031.17408470
0.42100002 32324.19539935  2250.73383231
0.42200002 32482.08216565  2885.38349550
0.42300002 32637.43980542  2283.31539698
0.42400002 32790.83818862  2299.45763694
0.42500002 32942.55955217  2315.53262065
0.42600002 33090.85665201  2331.41641589
0.42700002 33238.21337032  2560.67207939
0.42800002 33382.74004115  2362.99736579
0.42900002 33525.66576769  3027.36776228
0.43000002 33666.18381569  2829.47455287
0.43100002 33802.90327570  2628.51388328
0.43200002 33938.14840980  2424.71112804
0.43300002 34070.57714230  2439.79414478
0.43400002 34200.80180096  4016.88436188
0.43500002 34328.07616400  2694.06754502
0.43600002 34453.69015292  2258.43949655
0.43700002 34575.71501447  2953.11195933
0.43800002 34694.28412063  3883.85181994
0.43900002 34811.35026225  2297.54922619
0.44000002 34924.87592800  2772.33678255
0.44100002 35036.30925675  3484.36112071
0.44200002 35144.71683382  3269.51316199
0.44300002 35250.51505042  2582.45285498
0.44400002 35352.75817687  4247.63409625
0.44500002 35451.55014181  2846.05058026
0.44600002 35548.21200309  2383.50772776
0.44700002 35642.13622156  2634.66683436
0.44800002 35732.03539769  3128.51850751
0.44900002 35820.26704624  2901.44176825
0.45000002 35905.13611679  2671.88083076
0.45100002 35985.80828135  2683.82170882
0.45200002 36064.42174866  3185.75084615
0.45300002 36139.45597636  3199.42618922
0.45400002 36211.81178128  3212.89315256
0.45500002 36281.11463244  2729.79119432
0.45600002 36346.82736893  3239.04767449
0.45700002 36409.64485263  2751.47699192
0.45800002 36468.60346834  3766.29520169
0.45900002 36524.83931520  2772.23543541
0.46000002 36578.65277075  2782.35535487
0.46100002 36627.96397874  3807.47703604
0.46200002 36675.00773659  3056.49528963
0.46300002 36718.40285299  3322.28124760
0.46400002 36758.24894794  3076.66558276
0.46500002 36795.79455065  3086.43139319
0.46600002 36829.32412643  2579.89427733
0.46700002 36859.69832207  2846.30603933
0.46800002 36887.54575871  3114.04676054
0.46900002 36911.41405235  3382.93125824
0.47000002 36931.85806698  3131.08307532
0.47100002 36949.57891509  3139.23637342
0.47200002 36963.79657759  3147.09778978
0.47300002 36975.45662251  2891.85059951
0.47400002 36982.52960913  2898.50589550
0.47500002 36987.54544391  3433.18413083
0.47600002 36989.57817845  4234.56711058
0.47700002 36987.36313378  3182.39287487
