# SAXS profile: number of points = 501, q_min = 0, q_max = 0.5, delta_q = 0.001
#    q    intensity    error
0.00000000 1664650.74656091 299.63713438
0.00100000 1664582.36576142 649.18713806
0.00200000 1664377.16781144 973.66067400
0.00300000 1664035.32538671 1597.47396928
0.00400000 1663556.69067780 1372.43432196
0.00500000 1662941.74654794 1496.64763113
0.00600000 1662190.21302321 1745.29979473
0.00700000 1661302.75817864 2392.27607120
0.00800000 1660278.79016960 2465.51410750
0.00900000 1659119.66026051 2737.54755645
0.01000000 1657824.60771412 3556.03393709
0.01100000 1656394.76253707 3279.66177262
0.01200000 1654829.67502021 5163.06881243
0.01300000 1653130.73144482 4165.88962698
0.01400000 1651297.07939721 4458.50231202
0.01500000 1649330.55741057 4750.07221686
0.01600000 1647230.07474146 5880.61162971
0.01700000 1644997.69033942 5329.79275579
0.01800000 1642632.91065253 5149.65440662
0.01900000 1640136.53159643 5412.45079849
0.02000000 1637509.12603054 6189.78477639
0.02100000 1634752.43369784 7552.55658611
0.02200000 1631864.49096107 6192.92602456
0.02300000 1628848.24185008 8209.39551260
0.02400000 1625703.76026093 8534.94513054
0.02500000 1622432.14415107 8225.73134652
0.02600000 1619033.42386266 7868.50279986
0.02700000 1615509.13317772 10177.70800517
0.02800000 1611858.71713621 9816.22003753
0.02900000 1608084.82222996 7236.38203229
0.03000000 1604188.03981622 11189.21209203
0.03100000 1600168.13347631 10753.13035175
0.03200000 1596026.36146852 9480.39702377
0.03300000 1591765.62916109 11365.20711615
0.03400000 1587383.63715544 13334.02316734
0.03500000 1582884.03313696 9402.33159102
0.03600000 1578266.26981119 9635.31602248
0.03700000 1573532.38108713 9866.04848570
0.03800000 1568683.59644724 9176.79946391
0.03900000 1563721.14207283 14073.49093040
0.04000000 1558643.86330726 12461.35826459
0.04100000 1553455.78198394 11744.12625633
0.04200000 1548157.33527239 11982.73833092
0.04300000 1542748.43650030 14254.99621495
0.04400000 1537232.74987568 12451.58585227
0.04500000 1531609.66992361 14795.35009893
0.04600000 1525879.97583436 11833.19976268
0.04700000 1520046.72668692 16416.50541172
0.04800000 1514109.81794308 13354.44921562
0.04900000 1508072.43823866 14703.70695725
0.05000000 1501933.71649844 14936.73150612
0.05100000 1495697.12343562 13999.72572752
0.05200000 1489360.87374624 17760.62924709
0.05300000 1482930.39536032 14414.08411486
0.05400000 1476403.98132050 13398.36675530
0.05500000 1469785.60736450 16050.05958114
0.05600000 1463073.77315649 13760.20947865
0.05700000 1456273.66214264 19004.37217806
0.05800000 1449383.49699789 15392.45345683
0.05900000 1442405.38300673 12981.64905338
0.06000000 1435342.26193987 14446.72054136
0.06100000 1428195.61621483 13282.21985149
0.06200000 1420965.59226231 16113.75056947
0.06300000 1413655.58737538 13571.09427332
0.06400000 1406263.63808226 15082.17822378
0.06500000 1398796.35308895 18002.50990637
0.06600000 1391250.96798608 25167.73118843
0.06700000 1383630.76970697 16935.64141378
0.06800000 1375938.67266931 15665.06252161
0.06900000 1368175.32480150 15802.42574131
0.07000000 1360340.71833291 23180.20692589
0.07100000 1352439.03300552 18988.24491276
0.07200000 1344469.65321568 22082.91508858
0.07300000 1336437.21108487 20768.23523337
0.07400000 1328340.61843792 22415.74898663
0.07500000 1320182.95870460 19565.11236507
0.07600000 1311963.84355801 24245.09296558
0.07700000 1303688.69803055 15253.15848216
0.07800000 1295356.14987686 18419.96531508
0.07900000 1286968.30460223 23165.43056939
0.08000000 1278528.47881758 17087.53392099
0.08100000 1270037.21895361 18745.75023127
0.08200000 1261495.58228955 23558.43110474
0.08300000 1252906.08483577 18943.94089179
0.08400000 1244269.93181183 17450.88661278
0.08500000 1235590.63713523 19126.94396077
0.08600000 1226867.58044462 22414.87174714
0.08700000 1218103.99392816 25726.35755981
0.08800000 1209299.06439815 16144.14326791
0.08900000 1200458.77868233 22688.67198278
0.09000000 1191581.30002336 24397.62826407
0.09100000 1182669.78516402 21217.09694265
0.09200000 1173724.97696940 18010.81061786
0.09300000 1164750.41280706 19707.57791080
0.09400000 1155744.43227654 19763.23072075
0.09500000 1146711.28225564 16512.64324062
0.09600000 1137652.00754590 24829.25623186
0.09700000 1128569.46831776 24884.95794632
0.09800000 1119464.70320252 18286.45678660
0.09900000 1110339.30940770 21651.61755156
0.10000000 1101193.04284661 18351.38292205
0.10100000 1092029.15453405 26732.87496029
0.10200000 1082849.55805179 16730.02645882
0.10300000 1073654.76371069 18423.91661195
0.10400000 1064447.94276869 21794.57265352
0.10500000 1055231.64594105 30200.73112776
0.10600001 1046002.14280756 18467.16870021
0.10700001 1036767.16769814 23513.88046990
0.10800001 1027523.95367766 21840.02266325
0.10900001 1018276.58190249 21842.03370982
0.11000001 1009025.50085576 18480.30291803
0.11100001 999772.45065371 23514.64914629
0.11200001 990520.09354338 26862.90620152
0.11300001 981266.99430305 18457.63303184
0.11400001 972017.83412351 33534.61685622
0.11500001 962773.06911365 20102.70262969
0.11600001 953533.20930953 21754.86119487
0.11700001 944301.53803971 16714.13801045
0.11800001 935076.69998604 18360.23186896
0.11900001 925861.90284050 21665.16954693
0.12000001 916658.30829168 19964.81889503
0.12100001 907468.99236028 19928.02001100
0.12200001 898291.96877791 18230.83636523
0.12300001 889131.57354567 21499.20246126
0.12400001 879987.01346195 18149.73300782
0.12500001 870860.71301943 21397.04872713
0.12600001 861754.91829300 27907.93434404
0.12700001 852669.62658995 18008.38336225
0.12800001 843605.25946660 17956.13879401
0.12900001 834564.59625864 19528.81247289
0.13000001 825548.59719471 22710.84297930
0.13100001 816557.28974164 19401.40211880
0.13200001 807593.79947671 19333.79647087
0.13300001 798659.49357116 16053.05657757
0.13400001 789752.92710533 20790.24678622
0.13500001 780877.49594429 23894.85250249
0.13600001 772032.85751862 20624.85876109
0.13700001 763221.50819869 17378.55456114
0.13800001 754442.57431604 20449.16694113
0.13900001 745700.90475061 20357.63565972
0.14000001 736993.30420173 18704.89094277
0.14100001 728323.50967929 21718.60808295
0.14200001 719690.17215259 16981.09041286
0.14300001 711098.75551798 19967.65399677
0.14400001 702542.85169370 16808.33851962
0.14500001 694031.31040981 18239.14369795
0.14600001 685559.53490381 18139.90614929
0.14700001 677133.44097184 15032.36309875
0.14800001 668748.20703735 16441.17544569
0.14900001 660407.13889599 14859.16132623
0.15000001 652112.12787400 20678.47655056
0.15100001 643863.26355391 17616.09972205
0.15200001 635662.10073721 17506.13508036
0.15300001 627508.81454813 17394.54516011
0.15400001 619401.77179374 18721.41943595
0.15500001 611346.13819002 17166.60037052
0.15600001 603338.38424556 19892.06746738
0.15700001 595384.80227237 18343.80662378
0.15800001 587478.08643107 18214.75892951
0.15900001 579626.42231131 15302.13827129
0.16000001 571825.09945380 16571.49216439
0.16100001 564080.16587405 17819.29328111
0.16200001 556386.73821074 14964.02203057
0.16300001 548749.10047673 18898.91991260
0.16400001 541166.01316922 16072.63134991
0.16500001 533638.92470236 17273.89280814
0.16600001 526167.79783408 19770.75593705
0.16700001 518752.53158316 19608.84661967
0.16800001 511393.67392325 15556.59629527
0.16900001 504094.25132105 12854.40401565
0.17000001 496852.09880384 16567.53401693
0.17100001 489668.47210894 16423.48133007
0.17200001 482543.65413389 21287.41430737
0.17300001 475478.09780915 12409.97893887
0.17400001 468473.05988756 14756.90208337
0.17500001 461527.06984276 14621.17826314
0.17600001 454639.69679070 13277.75297187
0.17700001 447815.44924910 15543.67497757
0.17800001 441050.97822564 16579.10705457
0.17900001 434347.47516383 18763.81181336
0.18000001 427706.26616401 15095.89337731
0.18100001 421127.67892166 12646.46479539
0.18200001 414607.93386464 12519.08715442
0.18300001 408153.17353957 14644.53655840
0.18400001 401758.98819079 15608.33742856
0.18500001 395428.37519816 11032.45218922
0.18600001 389159.96017220 16373.90609781
0.18700001 382953.88308230 16198.95001970
0.18800001 376810.27853572 11750.82909132
0.18900001 370731.76306411 17961.95476911
0.19000001 364712.13557603 14628.60444914
0.19100001 358760.59500803 12398.76674932
0.19200001 352868.32895203 14301.75404820
0.19300001 347041.96979245 10098.92179816
0.19400001 341277.67804252 11978.84706534
0.19500001 335577.35002566 10852.57201267
0.19600001 329938.74708767 13649.56661205
0.19700001 324364.41555807 12523.71067654
0.19800001 318853.20712082 10469.54555059
0.19900001 313405.94218967 9402.17871004
0.20000001 308019.87144086 10215.47951913
0.20100001 302698.45732725 12840.46916669
0.20200001 297438.73528431 9057.00991747
0.20300001 292242.59200009 13413.93560681
0.20400001 287109.05939705 12360.04559125
0.20500001 282037.34172433 12200.93597969
0.20600001 277028.84950180 10322.09542034
0.20700001 272082.19058861 10186.75769716
0.20800001 267197.48802074 10051.96997450
0.20900001 262376.90214688 8264.87280832
0.21000001 257615.71543927 8968.89155700
0.21100001 252916.22032078 8847.00980505
0.21200001 248277.98501677 10312.22659518
0.21300001 243700.79333935 8605.07541962
0.21400001 239185.40152446 8485.10252023
0.21500001 234731.01886920 9886.87098220
0.21600001 230335.53529599 8996.90643402
0.21700001 226001.17448314 12563.40588351
0.21800001 221726.38455881 8012.08328485
0.21900001 217510.01928998 7177.83097595
0.22000001 213352.88554574 7779.91333928
0.22100001 209256.98832453 8361.90964883
0.22200001 205218.48917594 8923.92642378
0.22300001 201238.13641221 7437.76187349
0.22400001 197314.30605654 9323.10140203
0.22500001 193451.25948691 9836.99701007
0.22600001 189643.58213192 7748.83713234
0.22700001 185893.92605802 8900.60160056
0.22800001 182200.08030342 6258.57305439
0.22900001 178562.23077620 8008.51642904
0.23000001 174980.29783758 8488.29464953
0.23100001 171455.51860482 5966.65232963
0.23200001 167983.93400959 6458.14264843
0.23300001 164568.28946740 7509.25140354
0.23400001 161206.92192137 5682.54426649
0.23500001 157898.27036651 6707.51884241
0.23600001 154643.96269463 7696.63038734
0.23700001 151442.66977240 7028.45463657
0.23800001 148294.19321699 5847.98178611
0.23900001 145197.95940581 6795.26482160
0.24000001 142153.25404744 6166.60845226
0.24100001 139161.28581250 5556.71040533
0.24200001 136219.48721653 5461.72059830
0.24300001 133328.56419450 5367.80824838
0.24400001 130487.02856116 5274.93837911
0.24500001 127695.68208542 5183.16798103
0.24600001 124953.68545310 5092.48769154
0.24700001 122261.05508390 5002.92261070
0.24800001 119615.83247404 4914.41670968
0.24900001 117018.25718127 4827.00333708
0.25000001 114468.88791791 5171.70460080
0.25100001 111965.75590563 4232.30577346
0.25200001 109510.20926223 5402.68642955
0.25300001 107100.81240101 4488.59526008
0.25400001 104736.06359842 5608.61647105
0.25500001 102416.73625867 5505.92400176
0.25600001 100142.38188159 3860.48900419
0.25700001 97911.88014569  4168.10893501
0.25800001 95725.13854139  3718.92180829
0.25900001 93581.91689076  4014.66442457
0.26000001 91481.85395799  4655.96917749
0.26100001 89422.12436693  4568.57655007
0.26200001 87406.76437496  6206.75463195
0.26300001 85431.15497244  4736.30345578
0.26400001 83496.41287549  3982.77908262
0.26500001 81603.01454636  3907.15252136
0.26600001 79748.30025737  4152.09544938
0.26700001 77934.46271794  4386.15176932
0.26800001 76159.17974714  4302.23226750
0.26900001 74421.75564686  4219.71374486
0.27000001 72723.11700851  4434.29226943
0.27100001 71061.77378637  4928.84486307
0.27200001 69437.92482623  3696.52810306
0.27300001 67850.18087175  3625.23533554
0.27400001 66297.64127967  4649.12231476
0.27500001 64782.80815099  3486.61089969
0.27600001 63301.23235631  2893.18296177
0.27700001 61856.02718116  2837.33610108
0.27800001 60444.06895969  2529.58440568
0.27900001 59066.50861164  3225.03152283
0.28000001 57721.87958013  4136.06147707
0.28100001 56410.17307817  2386.15043414
0.28200001 55131.16992924  2574.35010169
0.28300001 53884.03875318  3672.73625525
0.28400001 52668.71376027  2701.90514379
0.28500001 51484.66327831  2650.43059102
0.28600001 50330.44828717  3250.08885198
0.28700001 49206.89711726  3188.60708412
0.28800001 48112.41975569  3754.21229124
0.28900001 47048.73362633  2251.28201058
0.29000001 46012.57424990  2410.13875329
0.29100001 45005.91569768  2168.38512095
0.29200001 44026.69702648  2321.96811109
0.29300001 43074.94821033  2089.56583659
0.29400001 42150.24960610  2051.66349670
0.29500001 41253.33010602  2014.81273775
0.29600001 40381.44811288  1978.89295845
0.29700001 39535.32501462  2297.39784535
0.29800001 38715.33854208  1736.38301581
0.29900001 37920.14618536  1877.04732503
0.30000001 37149.55044270  1845.03251008
0.30100001 36403.97056402  2803.46990585
0.30200001 35680.85761512  1783.86456092
0.30300001 34981.69718317  1754.68201378
0.30400001 34306.27383371  1883.41452263
0.30500001 33652.23767112  2008.02911690
0.30600001 33020.63621467  1520.60036967
0.30700001 32411.45854866  1647.15040142
0.30800001 31823.37033308  1770.01594173
0.30900001 31256.26427057  1889.44126461
0.31000001 30710.65283844  1432.65202274
0.31100001 30183.62732444  1553.85320823
0.31200001 29677.81706868  1672.04829281
0.31300001 29190.71715667  1512.37112749
0.31400001 28724.26456284  1628.66587783
0.31500001 28275.75773353  1474.29807803
0.31600002 27845.70595262  1456.46971881
0.31700002 27433.44237122  1439.43278937
0.31800002 27039.21408890  1293.82645541
0.31900002 26662.62589505  1663.74793463
0.32000002 26302.80707351  1773.07230878
0.32100002 25960.18443379  1379.26466428
0.32200002 25633.89940668  1366.15873357
0.32300002 25323.02320060  1599.90868157
0.32400002 25028.27512673  1342.14131722
0.32500002 24748.34972201  1331.21379458
0.32600002 24484.14895408  1681.32658829
0.32700002 24234.28578307  1192.32691699
0.32800002 23999.73248716  1302.82553976
0.32900002 23777.95297293  1177.00872790
0.33000002 23571.62755213  1404.39763606
0.33100002 23376.45187617  1396.97683027
0.33200002 23196.82011259  1274.54934144
0.33300002 23028.75732403  1499.86303554
0.33400002 22874.22908198  1264.37307238
0.33500002 22731.27605044  1603.91891407
0.33600002 22600.40508312  1142.45053105
0.33700002 22480.46506290  1253.73559593
0.33800002 22373.46623537  1365.22897434
0.33900002 22276.29465730  1363.30929759
0.34000002 22190.82411209  1248.56677780
0.34100002 22115.67073871  1134.53396263
0.34200002 22051.79874487  1361.47811899
0.34300002 21996.59716955  1248.52691447
0.34400002 21952.07423554  1363.22387459
0.34500002 21916.64737961  1364.96886345
0.34600002 21891.78020627  1253.41393507
0.34700002 21873.80021876  1598.53739570
0.34800002 21866.32587668  1373.64265663
0.34900002 21866.86862556  1262.81172293
0.35000002 21875.81571725  1497.29027768
0.35100002 21893.00192540  1502.73572333
0.35200002 21917.20829458  1160.51623416
0.35300002 21949.46116614  1515.17137606
0.35400002 21989.51579022  1288.03594842
0.35500002 22036.38485673  1412.09160850
0.35600002 22089.64820112  1537.77093236
0.35700002 22150.00483970  1427.34637948
0.35800002 22217.22070337  1555.31660901
0.35900002 22290.41559096  1324.05074882
0.36000002 22370.28118899  1695.89109726
0.36100002 22455.10930967  1463.17499192
0.36200002 22546.95341625  1964.29067467
0.36300002 22642.39686591  1730.78489841
0.36400002 22743.96316991  1494.27845104
0.36500002 22850.05065229  1379.91462425
0.36600002 22961.67904805  1390.44454062
0.36700002 23077.44574645  1656.03758521
0.36800002 23199.15315604  1284.07318801
0.36900002 23324.20943292  1553.39242182
0.37000002 23452.47981842  1305.13056372
0.37100002 23585.22326738  1579.26662479
0.37200002 23722.15509067  1592.70556823
0.37300002 23862.07505038  1740.26121586
0.37400002 24006.47040548  1620.43682913
0.37500002 24153.07277316  1498.45670583
0.37600002 24303.80729013  1511.81840410
0.37700002 24456.30819379  1664.00728833
0.37800002 24612.44712103  1818.98299065
0.37900002 24770.97060476  1835.52900877
0.38000002 24932.17898435  1424.87409646
0.38100002 25095.25177640  2156.93699236
0.38200002 25260.76992169  1596.35443083
0.38300002 25428.04506448  1904.05210463
0.38400002 25597.79210898  1773.92707719
0.38500002 25768.32499868  1641.18469692
0.38600002 25941.62114288  1505.91117869
0.38700002 26115.36279327  1671.90560523
0.38800002 26290.42893432  1840.85592119
0.38900002 26466.98767772  1857.98262300
0.39000002 26645.19443342  1875.28887307
0.39100002 26823.50688226  1734.94450734
0.39200002 27003.17839250  1751.02118582
0.39300002 27183.29072801  2249.14558139
0.39400002 27364.79583920  2107.77349938
0.39500002 27545.88140529  1799.84797629
0.39600002 27727.34736264  2311.62905914
0.39700002 27908.67958993  2332.60755064
0.39800002 28091.34331170  2017.52037223
0.39900002 28273.15036369  1866.02801241
0.40000002 28454.85138540  2053.87127031
0.40100002 28636.28093217  2417.47495083
0.40200002 28818.57714850  2264.70799252
0.40300002 28999.30694740  2108.82970113
0.40400002 29179.80929862  1949.94084877
0.40500002 29359.75099160  1966.80981212
0.40600002 29539.28825140  2344.38572315
0.40700002 29717.94880758  2546.23397448
0.40800002 29895.98390242  1834.11869932
0.40900002 30072.40011978  1849.45269500
0.41000002 30248.64196431  2051.31175200
0.41100002 30423.41284955  2256.20040383
0.41200002 30596.55689567  3411.82222110
0.41300002 30768.92319942  2866.12533183
0.41400002 30939.83803118  1926.00500870
0.41500002 31109.78793124  3106.00137423
0.41600002 31277.11184331  1956.38343850
0.41700002 31443.65972322  2760.12458129
0.41800002 31609.60034859  2185.32982365
0.41900002 31771.76660336  2602.10780811
0.42000002 31933.00978824  2621.54056279
0.42100002 32093.10519891  2437.79238642
0.42200002 32251.08940541  2250.96489171
0.42300002 32406.69332647  2473.27895187
0.42400002 32560.38591657  2283.29717060
0.42500002 32712.45455404  2090.32594506
0.42600002 32861.08122672  2946.65329323
0.42700002 33008.90370861  2331.08889036
0.42800002 33153.93801295  2773.49281590
0.42900002 33297.36166505  3436.28788667
0.43000002 33438.48896328  2810.33793809
0.43100002 33575.83116806  2828.42815163
0.43200002 33711.80851867  2408.54027375
0.43300002 33844.93857269  2864.29728714
0.43400002 33975.99811301  2882.01417651
0.43500002 34104.13782360  3345.61607904
0.43600002 34230.67968683  3365.73173971
0.43700002 34353.58616196  3385.54607670
0.43800002 34473.21589833  2497.06751193
0.43900002 34591.37707056  2967.94029330
0.44000002 34705.97933768  2525.38070618
0.44100002 34818.52857449  2770.16226466
0.44200002 34928.19029529  3481.46753267
0.44300002 35035.22873884  3033.35024796
0.44400002 35138.81676214  2580.06774303
0.44500002 35238.90310488  3300.47582122
0.44600002 35336.93272101  3080.14388660
0.44700002 35432.26286549  2619.15299514
0.44800002 35523.59765196  2631.76585677
0.44900002 35613.44024656  2884.68879668
0.45000002 35699.89381764  3139.62731059
0.45100002 35782.12167798  2911.23355769
0.45200002 35862.35617552  2680.53193938
0.45300002 35939.03883694  2936.93839294
0.45400002 36013.20510506  2457.90136491
0.45500002 36084.22209882  3208.60918109
0.45600002 36151.80319332  2726.02684899
0.45700002 36216.39878952  2736.87338623
0.45800002 36277.24027537  2747.45692247
0.45900002 36335.33325810  3509.99335909
0.46000002 36391.10611984  2516.44510745
0.46100002 36442.45649748  2525.46235497
0.46200002 36491.52921048  3041.20418854
0.46300002 36537.00048968  2797.27289007
0.46400002 36578.92956689  3316.79459568
0.46500002 36618.61021990  3327.53326839
0.46600002 36654.29859546  3081.16048597
0.46700002 36686.84889476  3605.58368027
0.46800002 36716.99378337  4391.16907965
0.46900002 36743.05713029  4403.65560578
0.47000002 36765.79597582  3376.75469145
0.47100002 36785.83229349  3125.32445979
0.47200002 36802.37635844  3655.58021695
0.47300002 36816.40398312  3664.70502618
0.47400002 36825.84572579  3410.99412202
0.47500002 36833.26752786  3155.87451137
0.47600002 36837.73876991  2899.31436731
0.47700002 36838.03850185  3169.54498293
