# SAXS profile: number of points = 501, q_min = 0, q_max = 0.5, delta_q = 0.001
#    q    intensity    error
0.00000000 1664650.74656091 274.66737318
0.00100000 1664582.37160001 699.12461268
0.00200000 1664377.19346713 973.66068901
0.00300000 1664035.38271415 1497.63189779
0.00400000 1663556.78696293 1372.43440139
0.00500000 1662941.89144595 2095.30686616
0.00600000 1662190.44032478 1745.30003340
0.00700000 1661303.05144628 2591.63286797
0.00800000 1660279.17240389 3362.06546606
0.00900000 1659120.16306521 2737.54838608
0.01000000 1657825.21464037 3556.03523895
0.01100000 1656395.50211368 3875.96564370
0.01200000 1654830.53886400 3549.61166149
0.01300000 1653131.74583180 3818.73450130
0.01400000 1651298.27289209 6687.75830169
0.01500000 1649331.92952898 4354.23648785
0.01600000 1647231.61117597 4620.48487590
0.01700000 1644999.43086392 6662.24799386
0.01800000 1642634.88888206 5149.66060837
0.01900000 1640138.69273622 6888.58282032
0.02000000 1637511.54992987 6189.79393873
0.02100000 1634755.06660744 5934.16116083
0.02200000 1631867.38921150 5629.94274856
0.02300000 1628851.43391302 6450.25197190
0.02400000 1625707.20670144 10363.88391529
0.02500000 1622435.86971131 7593.00021703
0.02600000 1619037.48937252 7868.52255824
0.02700000 1615513.46918740 9499.21963390
0.02800000 1611863.35298519 7712.76649774
0.02900000 1608089.81086067 7960.04492924
0.03000000 1604193.38390799 8205.44953586
0.03100000 1600173.85585428 8448.91834767
0.03200000 1596032.44698049 11060.50536700
0.03300000 1591772.05204905 8929.84162367
0.03400000 1587390.42587678 8333.80012038
0.03500000 1582891.22692214 8547.61302009
0.03600000 1578273.88405265 14891.01478421
0.03700000 1573540.39198559 10763.01677894
0.03800000 1568692.04470620 12847.58844072
0.03900000 1563730.02709155 13135.33283587
0.04000000 1558653.18509221 10544.28928576
0.04100000 1553465.62058982 19573.66772700
0.04200000 1548167.58203274 12981.38577759
0.04300000 1542759.14600319 13236.87408714
0.04400000 1537243.89663892 10376.39678421
0.04500000 1531621.34669621 10568.18778325
0.04600000 1525892.14247011 12909.04812540
0.04700000 1520059.40229357 13133.31384662
0.04800000 1514123.01184591 14467.44605133
0.04900000 1508086.13239433 11310.64651944
0.05000000 1501947.97523446 11489.90254558
0.05100000 1495711.89758267 15166.51934801
0.05200000 1489376.13128054 18944.86527274
0.05300000 1482946.21914044 12011.86493501
0.05400000 1476420.49930371 14616.56362473
0.05500000 1469802.55872169 13580.97627613
0.05600000 1463091.35512374 13760.37483706
0.05700000 1456291.78647570 13936.71304712
0.05800000 1449402.19416578 14109.93101903
0.05900000 1442424.64395068 15578.18688226
0.06000000 1435362.18631332 19700.34692753
0.06100000 1428216.10882752 18595.37460592
0.06200000 1420986.67246431 14771.15715072
0.06300000 1413677.32501199 20356.95443197
0.06400000 1406285.99064469 20566.93357503
0.06500000 1398819.26460419 16617.97364085
0.06600000 1391274.55299819 15380.54090303
0.06700000 1383655.02823064 18347.26653297
0.06800000 1375963.54644235 14241.22337230
0.06900000 1368200.86198400 15802.72069578
0.07000000 1360366.84308821 18834.27982454
0.07100000 1352465.86070462 16067.29517773
0.07200000 1344497.11916949 14722.24414460
0.07300000 1336465.31893757 14834.76573530
0.07400000 1328369.43964466 16438.57258598
0.07500000 1320212.45076038 19565.54943735
0.07600000 1311993.99324300 22730.29699854
0.07700000 1303719.50762378 22880.27843162
0.07800000 1295387.61862798 19955.44720080
0.07900000 1287000.36045002 16988.40555476
0.08000000 1278561.25360414 21748.32794404
0.08100000 1270070.72649026 26557.18013693
0.08200000 1261529.71987475 17276.65032439
0.08300000 1252941.00760017 17365.76318035
0.08400000 1244305.50168254 23797.34383669
0.08500000 1235626.84078589 20721.46309275
0.08600000 1226904.53666878 17612.21545080
0.08700000 1218141.53944862 17687.41598335
0.08800000 1209337.28983283 25831.44572397
0.08900000 1200497.72312805 22689.40803283
0.09000000 1191620.94231280 19518.75195199
0.09100000 1182710.14110392 17953.54078544
0.09200000 1173766.05843747 18011.44101302
0.09300000 1164792.09266216 19708.28313398
0.09400000 1155786.72622234 19763.95394726
0.09500000 1146754.34513587 23118.56868457
0.09600000 1137695.75255109 18208.82137554
0.09700000 1128613.83862718 23226.87389091
0.09800000 1119509.86464657 21612.13895315
0.09900000 1110385.11795355 18321.35530775
0.10000000 1101239.49246351 20020.53491450
0.10100000 1092076.14874304 18379.64244777
0.10200000 1082897.29632840 18403.84041675
0.10300000 1073703.27262501 31824.56649766
0.10400000 1064497.09650279 21795.57907627
0.10500000 1055281.44335140 18456.87331260
0.10600001 1046052.61924262 18468.05986172
0.10700001 1036818.33327439 21835.39512628
0.10800001 1027575.66383957 21841.12176279
0.10900001 1018328.90162071 21843.15596783
0.11000001 1009078.52179919 23521.62145029
0.11100001 999826.04284683 20156.49397263
0.11200001 990574.32622990 21827.30630604
0.11300001 981321.84669902 20136.72524232
0.11400001 972073.40773890 23475.57390223
0.11500001 962829.23525647 23454.52127527
0.11600001 953589.91377414 20082.60452980
0.11700001 944358.99421660 21729.70148028
0.11800001 935134.64962865 18361.36971025
0.11900001 925920.38086363 21666.53793274
0.12000001 916717.39563934 24957.63227191
0.12100001 907528.65039059 23250.88511831
0.12200001 898352.22847809 16574.59939627
0.12300001 889192.43140682 26462.36800543
0.12400001 880048.36215386 18150.99832465
0.12500001 870922.47278633 21398.56616467
0.12600001 861817.40901542 18059.38465694
0.12700001 852732.60749418 19646.96020256
0.12800001 843668.80198189 21222.48971405
0.12900001 834628.66183746 24412.88950938
0.13000001 825613.15173179 17845.62911583
0.13100001 816622.30263816 19402.94682529
0.13200001 807659.31832720 24169.20624029
0.13300001 798725.42576678 16054.38181476
0.13400001 789819.38746809 17593.22768530
0.13500001 780944.39110414 17524.39296262
0.13600001 772100.26509365 17453.32731538
0.13700001 763289.34131061 15800.09011016
0.13800001 754510.90408721 22024.17432887
0.13900001 745769.71935558 29756.21320554
0.14000001 737062.40071225 21824.41871434
0.14100001 728392.97182595 15514.77103162
0.14200001 719760.08593427 27789.93822864
0.14300001 711168.99056978 18433.50110503
0.14400001 702613.47831685 15281.84387423
0.14500001 694102.35076108 16720.92641860
0.14600001 685630.93465838 16629.97910465
0.14700001 677205.10531593 33074.69890398
0.14800001 668820.26164405 19432.57361887
0.14900001 660479.55971346 16346.86987417
0.15000001 652184.84701983 16249.18623018
0.15100001 643936.40368614 16149.92576648
0.15200001 635735.41017550 18967.16685759
0.15300001 627582.41638659 17396.58540316
0.15400001 619475.61914994 20163.93235489
0.15500001 611420.23603911 18599.40445807
0.15600001 603412.70234750 18473.48075422
0.15700001 595459.45190304 14112.38967616
0.15800001 587552.93404399 21019.70720753
0.15900001 579701.46637819 16695.40301972
0.16000001 571900.34245048 16573.67270653
0.16100001 564155.53917535 15079.87827399
0.16200001 556462.30742743 19047.70568241
0.16300001 548824.86958660 21601.74788670
0.16400001 541241.89219004 20093.60619617
0.16500001 533714.90785880 13289.50183310
0.16600001 526243.93883252 19773.61693520
0.16700001 518828.80927257 18304.28125537
0.16800001 511469.99362610 18152.07093087
0.16900001 504170.70124257 17998.89488423
0.17000001 496928.67259142 16570.08737000
0.17100001 489745.06923072 13898.96572109
0.17200001 482620.17587425 12523.99415536
0.17300001 475554.67980302 13653.17550191
0.17400001 468549.66509161 19679.08686321
0.17500001 461603.66952249 17060.87243129
0.17600001 454716.29127900 16901.80534510
0.17700001 447892.03455457 15546.33325365
0.17800001 441127.54716100 11844.27520070
0.17900001 434424.04113608 15248.28456411
0.18000001 427782.74052964 12775.73214938
0.18100001 421204.01529386 17248.30524103
0.18200001 414684.24907132 15936.31644461
0.18300001 408229.42748574 13520.55927703
0.18400001 401835.03133735 17841.47623422
0.18500001 395504.27266803 18758.76853885
0.18600001 389235.81234237 10918.06505201
0.18700001 383029.49580378 12961.71875037
0.18800001 376885.81090693 14958.59854163
0.18900001 370806.99632551 11624.79988405
0.19000001 364787.24502732 12541.38607660
0.19100001 358835.47078116 13434.80066084
0.19200001 352942.99354980 11239.47016067
0.19300001 347116.40927375 11111.19678589
0.19400001 341351.91803301 10982.99848170
0.19500001 335651.31445733 9868.14911137
0.19600001 330012.44528286 12677.42868463
0.19700001 324437.76241834 12526.54259895
0.19800001 318926.26658868 12375.93435985
0.19900001 313478.82990171 13166.11147810
0.20000001 308092.35305358 11146.78186029
0.20100001 302770.67614626 16513.11345746
0.20200001 297510.54683431 9965.11623720
0.20300001 292313.96817477 15206.17334317
0.20400001 287180.13925271 12363.10557918
0.20500001 282108.08676454 10460.56835167
0.20600001 277099.14286029 12045.50030950
0.20700001 272152.09817215 10189.37503721
0.20800001 267266.86960534 9216.69843402
0.20900001 262445.85170054 11573.86260711
0.21000001 257684.22840824 8971.27683613
0.21100001 252984.39574527 9653.88499801
0.21200001 248345.64796286 9521.57259302
0.21300001 243767.96297371 10172.43757580
0.21400001 239252.07629691 7715.87982536
0.21500001 234797.16925289 12171.88582953
0.21600001 230401.17136563 9749.42602728
0.21700001 226066.28061152 7392.36772550
0.21800001 221790.99337761 9471.58482001
0.21900001 217574.08378409 10051.92314610
0.22000001 213416.42398633 7074.75478966
0.22100001 209319.85455092 7667.38663474
0.22200001 205280.81418637 8239.97227106
0.22300001 201299.90149717 7440.04471114
0.22400001 197375.47715560 7993.70720280
0.22500001 193511.82774080 9840.07690593
0.22600001 189703.51784324 7105.34559682
0.22700001 185953.11686365 6995.55658722
0.22800001 182258.67536720 9390.87869239
0.22900001 178620.12532321 11092.31030714
0.23000001 175037.60736345 7278.06405837
0.23100001 171512.13045231 6565.48466421
0.23200001 168039.89728844 8809.49203198
0.23300001 164623.57728825 6933.94540332
0.23400001 161261.47984538 8526.70115010
0.23500001 157952.15401869 6709.80782006
0.23600001 154697.12694608 7149.32805996
0.23700001 151495.11335144 5949.21338270
0.23800001 148345.83485071 5850.01827404
0.23900001 145248.92419596 6797.64997390
0.24000001 142203.45327138 6682.85160259
0.24100001 139210.78528011 5558.68691917
0.24200001 136268.26427042 6457.07200789
0.24300001 133376.51213905 4881.58057520
0.24400001 130534.16409675 5276.84383322
0.24500001 127742.06517300 5185.05067065
0.24600001 124999.19785736 4631.22049970
0.24700001 122305.85882681 5004.75597995
0.24800001 119659.77441124 4916.22206426
0.24900001 117061.44019482 6584.70632246
0.25000001 114511.26136147 4742.48411364
0.25100001 112007.24903742 4657.26163531
0.25200001 109550.97052296 5404.69738644
0.25300001 107140.64345519 4898.47045052
0.25400001 104775.13727371 5610.70886646
0.25500001 102454.92356889 5114.55002654
0.25600001 100179.76496178 5406.70217079
0.25700001 97948.28495219  4927.77844909
0.25800001 95760.74318373  3720.30504871
0.25900001 93616.65349394  5111.46952262
0.26000001 91515.79732304  3582.84363472
0.26100001 89455.18772534  6328.06027911
0.26200001 87438.90701918  4484.30455866
0.26300001 85462.41084215  3722.74279244
0.26400001 83526.79811394  3320.19038213
0.26500001 81632.50589299  4885.70570888
0.26600001 79776.93135717  3514.57287725
0.26700001 77962.19025274  3760.89623576
0.26800001 76186.04562051  4611.16062939
0.26900001 74447.69330306  4824.21075433
0.27000001 72748.15462926  2957.21262562
0.27100001 71085.89066730  3190.33492412
0.27200001 69461.15960020  3128.87808226
0.27300001 67872.48343568  3068.51512134
0.27400001 66319.07915396  4103.49321685
0.27500001 64803.40213148  2682.86097521
0.27600001 63320.83841145  2894.07905656
0.27700001 61874.74101562  3096.21218695
0.27800001 60461.87801557  2783.36268618
0.27900001 59083.42010156  3474.10526639
0.28000001 57737.87948446  3163.74725609
0.28100001 56425.24553449  2864.14559889
0.28200001 55145.37889882  3043.19787856
0.28300001 53897.33817690  2525.62938651
0.28400001 52681.07399311  2927.75082574
0.28500001 51496.17711994  4197.45359572
0.28600001 50340.97219063  2167.17895538
0.28700001 49216.63872306  2126.15889347
0.28800001 48121.22714048  2086.05529528
0.28900001 47056.62296192  2251.65951531
0.29000001 46019.56995717  3214.00691794
0.29100001 45012.00813183  2365.83125940
0.29200001 44031.87130945  2322.24100278
0.29300001 43079.26429547  2279.75477443
0.29400001 42153.69916125  2611.42178665
0.29500001 41255.90826413  1831.76241364
0.29600001 40383.11081128  1978.97443899
0.29700001 39536.14889033  1943.99253296
0.29800001 38715.24487170  1736.37881469
0.29900001 37919.19436784  1877.00021006
0.30000001 37147.78971132  2180.38962032
0.30100001 36401.30144237  1978.77484008
0.30200001 35677.30451066  1945.84028013
0.30300001 34977.35285676  1594.96736578
0.30400001 34301.06272246  1726.20106323
0.30500001 33646.19505586  2007.66855403
0.30600001 33013.78588477  1824.34189436
0.30700001 32403.86254489  1497.05852045
0.30800001 31814.84378956  1917.00350330
0.30900001 31246.94623625  2615.36952380
0.31000001 30700.52463903  2148.26931333
0.31100001 30172.72414326  1553.29191244
0.31200001 29666.10791728  1532.10621593
0.31300001 29178.18892384  1511.72203972
0.31400001 28710.99710388  1356.59467739
0.31500001 28261.66775271  1473.56342640
0.31600002 27830.84332137  1588.02799511
0.31700002 27417.78112658  2092.52515466
0.31800002 27022.86145944  1680.95717668
0.31900002 26645.51438518  1662.68017636
0.32000002 26284.93793468  2024.99171437
0.32100002 25941.57524525  1252.97814367
0.32200002 25614.57380936  1613.33400777
0.32300002 25302.96729334  1721.61397616
0.32400002 25007.50810370  1219.11607778
0.32500002 24726.92538340  1813.72006276
0.32600002 24462.03002195  1199.86262939
0.32700002 24211.51292175  1667.68908902
0.32800002 23976.24626253  1656.51893272
0.32900002 23753.85287056  1293.39735005
0.33000002 23546.84309406  1286.01089648
0.33100002 23351.02985802  1395.45761040
0.33200002 23170.79187148  1157.38110879
0.33300002 23002.09129773  1382.88579431
0.33400002 22846.90357484  1722.08543850
0.33500002 22703.38133546  1945.22580494
0.33600002 22571.90799596  1255.11100355
0.33700002 22451.42678704  1252.11613121
0.33800002 22343.82244138  1590.65679493
0.33900002 22246.10867283  1474.91707486
0.34000002 22160.03022393  1813.57695941
0.34100002 22084.35772780  1359.51312611
0.34200002 22019.95730960  1132.92685723
0.34300002 21964.30633124  1360.02991244
0.34400002 21919.24093139  1247.75284911
0.34500002 21883.31875485  1476.46758632
0.34600002 21857.95439117  1251.47723794
0.34700002 21839.50435878  1254.02439967
0.34800002 21831.60590399  1257.17308552
0.34900002 21831.67045837  1146.16275335
0.35000002 21840.16376783  1264.87314452
0.35100002 21856.95370177  1154.04721011
0.35200002 21880.71221451  1737.87564995
0.35300002 21912.56483054  1745.33587142
0.35400002 21952.25785759  1402.74934354
0.35500002 21998.77605544  1644.62857580
0.35600002 22051.65411608  1180.86613385
0.35700002 22111.65699524  1187.39603688
0.35800002 22178.52700431  1194.31373575
0.35900002 22251.38777650  1321.73249653
0.36000002 22330.96244039  1330.14384076
0.36100002 22415.51674027  1460.59513998
0.36200002 22507.01247698  1348.05757616
0.36300002 22602.20404962  1234.08039956
0.36400002 22703.47548343  1740.22147823
0.36500002 22809.35890027  1252.23386294
0.36600002 22920.74255733  1261.78693755
0.36700002 23036.28055833  1398.76302176
0.36800002 23157.77190127  1922.67410318
0.36900002 23282.64597542  1679.84298670
0.37000002 23410.73783130  1302.80762202
0.37100002 23543.27145383  1839.20045310
0.37200002 23680.04296597  1457.38831338
0.37300002 23819.87115850  1603.55380235
0.37400002 23964.11281264  1617.57769148
0.37500002 24110.55145336  1631.80219966
0.37600002 24261.21275495  1783.56314017
0.37700002 24413.60313033  1799.52677198
0.37800002 24569.68144292  1536.46510182
0.37900002 24728.14848723  2114.25679582
0.38000002 24889.29798211  1849.15048118
0.38100002 25052.30296796  2009.69583930
0.38200002 25217.80005310  1448.76268168
0.38300002 25385.08682548  1608.39917746
0.38400002 25554.80094772  1918.52677204
0.38500002 25725.35889704  1489.49835070
0.38600002 25898.68781456  1503.41889886
0.38700002 26072.45925200  1517.41720035
0.38800002 26247.60025449  1837.85705689
0.38900002 26424.15975812  1545.81341908
0.39000002 26602.52210064  2028.30939366
0.39100002 26780.89616744  1732.18844617
0.39200002 26960.62940134  1748.26209636
0.39300002 27140.87014405  1764.42805166
0.39400002 27322.51841842  1942.63115159
0.39500002 27503.76736071  1797.09624449
0.39600002 27685.36307486  2472.99517383
0.39700002 27866.87618628  2329.11362200
0.39800002 28049.70833788  2518.16268534
0.39900002 28231.72260153  1863.29377998
0.40000002 28413.62290037  2563.61924765
0.40100002 28595.26581509  2758.87137655
0.40200002 28777.79370483  2435.46479663
0.40300002 28958.75853175  1930.39093519
0.40400002 29139.53976806  2124.27254974
0.40500002 29319.69809676  3214.02545765
0.40600002 29499.54695773  1981.04216981
0.40700002 29678.46918175  1997.95463998
0.40800002 29856.84556979  2198.06107499
0.40900002 30033.51640809  2216.47361594
0.41000002 30210.13040264  3166.17286687
0.41100002 30385.25287047  3004.49394619
0.41200002 30558.73883424  2839.67094072
0.41300002 30731.47927546  1908.42495343
0.41400002 30902.70465270  2308.43214694
0.41500002 31073.08485356  2908.44088010
0.41600002 31240.76345885  2344.93181633
0.41700002 31407.72537314  2560.04381647
0.41800002 31574.11911376  2778.20687246
0.41900002 31736.70513167  1999.41251804
0.42000002 31898.36602482  3021.57286488
0.42100002 32058.88669334  2841.05867339
0.42200002 32217.38616678  2861.87054880
0.42300002 32373.38554947  2264.84216036
0.42400002 32527.62158791  2903.09036429
0.42500002 32680.12598788  2505.91217950
0.42600002 32829.30042062  3364.34686653
0.42700002 32977.60935132  2328.87888275
0.42800002 33123.14013680  2344.62158569
0.42900002 33267.12535556  2574.87562454
0.43000002 33408.79366340  3023.83005777
0.43100002 33546.67544544  2391.20713906
0.43200002 33683.20985169  2187.72458354
0.43300002 33816.92116804  2861.92617407
0.43400002 33948.54762660  2658.17140513
0.43500002 34077.25499652  2674.38309886
0.43600002 34204.39671962  2690.51797347
0.43700002 34327.88630113  2480.87646055
0.43800002 34448.17201309  2722.09468147
0.43900002 34566.87128393  3650.26178057
0.44000002 34682.11874325  2753.06671631
0.44100002 34795.32070261  4613.85974382
0.44200002 34905.59619196  2551.42467456
0.44300002 35013.28890715  3497.82772759
0.44400002 35117.53685791  2344.09569635
0.44500002 35218.25704270  3062.93196016
0.44600002 35316.96268963  3078.40319873
0.44700002 35412.96108335  3569.62664637
0.44800002 35504.98730059  2869.51320962
0.44900002 35595.50014776  2642.96601123
0.45000002 35682.66989430  3138.11255258
0.45100002 35765.54393096  4364.82718819
0.45200002 35846.52402687  2435.77142306
0.45300002 35923.88722522  3914.26693757
0.45400002 35998.75732993  2948.29836505
0.45500002 36070.52818144  3454.11394236
0.45600002 36138.81464887  3220.51062006
0.45700002 36204.15336462  2984.67054483
0.45800002 36265.74272960  3745.34475791
0.45900002 36324.55656721  2506.39452193
0.46000002 36381.11484925  4025.20673769
0.46100002 36433.18590520  4039.71184463
0.46200002 36482.98466358  3293.86642646
0.46300002 36529.22164681  3050.92073654
0.46400002 36571.89506283  3061.06776184
0.46500002 36612.35907838  4606.56723757
0.46600002 36648.81605729  2823.97465514
0.46700002 36682.13140408  3090.10289594
0.46800002 36713.02905281  2841.03788791
0.46900002 36739.90192527  3108.19585020
0.47000002 36763.40160137  3376.53478011
0.47100002 36784.19421674  3385.61739618
0.47200002 36801.56891888  3394.39287012
0.47300002 36816.33062107  2879.40535435
0.47400002 36826.53806868  2886.28005794
0.47500002 36834.74180708  2893.00075865
0.47600002 36840.03999442  3953.85747981
0.47700002 36841.09125073  2905.65700467
