# SAXS profile: number of points = 501, q_min = 0, q_max = 0.5, delta_q = 0.001
#    q    intensity    error
0.00000000 1646666.22097351 395.19989303
0.00100000 1646598.43460947 592.77545054
0.00200000 1646395.02050177 814.96556095
0.00300000 1646056.15311001 1283.92384516
0.00400000 1645581.68151312 1357.60493883
0.00500000 1644972.07974428 1924.61740948
0.00600000 1644227.07998979 1726.43850428
0.00700000 1643347.34519370 1972.01689619
0.00800000 1642332.26987283 2438.86352373
0.00900000 1641183.22866172 4185.01741199
0.01000000 1639899.44977553 2976.41762986
0.01100000 1638482.04467009 3539.12137058
0.01200000 1636930.59617882 3830.41776300
0.01300000 1635246.43651525 4807.62473539
0.01400000 1633428.76291558 4777.77934333
0.01500000 1631479.33717279 5090.21575864
0.01600000 1629397.19576917 4154.96303495
0.01700000 1627184.24002572 7908.11576127
0.01800000 1624840.07503590 5093.87386445
0.01900000 1622365.50650190 6327.22576086
0.02000000 1619761.01437661 6122.69691131
0.02100000 1617028.39382343 8004.29091233
0.02200000 1614165.67662683 6125.75902111
0.02300000 1611175.73979566 8120.32609819
0.02400000 1608058.76532007 7839.28683839
0.02500000 1604815.75348251 8136.41624175
0.02600000 1601446.80019918 9728.78975619
0.02700000 1597953.31724801 10067.10635975
0.02800000 1594334.87734884 11096.57125523
0.02900000 1590594.07722541 7157.67367615
0.03000000 1586731.45200278 9591.79206825
0.03100000 1582746.82273877 8356.90360859
0.03200000 1578641.40896657 8595.70286773
0.03300000 1574418.08073388 8832.48584010
0.03400000 1570074.64822214 13188.62765359
0.03500000 1565614.61049693 10145.18314451
0.03600000 1561037.50392248 9530.13440187
0.03700000 1556345.33887318 13306.75326277
0.03800000 1551539.27060971 11799.45669906
0.03900000 1546620.54750042 12991.61320065
0.04000000 1541588.09554515 12324.99739501
0.04100000 1536445.85565275 10647.57027336
0.04200000 1531194.25193460 14814.30507475
0.04300000 1525833.19945605 10070.49958386
0.04400000 1520366.39902197 10262.47367001
0.04500000 1514793.18137650 11497.28078087
0.04600000 1509114.34726705 18086.73629279
0.04700000 1503332.87318249 16235.99578547
0.04800000 1497448.73517449 17609.99794501
0.04900000 1491465.00855856 12304.58689336
0.05000000 1485380.90695825 12499.48091411
0.05100000 1479199.92010072 16152.86387997
0.05200000 1472920.19385250 15222.63091286
0.05300000 1466547.28296833 14254.84025498
0.05400000 1460079.10417004 13250.21848825
0.05500000 1453520.00015641 18314.35285632
0.05600000 1446868.35501236 16081.94251641
0.05700000 1440129.21406905 15034.94969669
0.05800000 1433300.91343230 17758.59914662
0.05900000 1426385.65189388 15404.96575996
0.06000000 1419386.03703198 18182.33598384
0.06100000 1412303.75783150 18388.19578627
0.06200000 1405138.94860432 17262.13279050
0.06300000 1397894.96631614 16103.75076490
0.06400000 1390569.89247290 21692.89133708
0.06500000 1383170.30406145 20540.07997613
0.06600000 1375693.31029536 15208.29025689
0.06700000 1368142.22978971 16746.06167632
0.06800000 1360520.02061377 15489.52115974
0.06900000 1352827.37365305 18466.09451493
0.07000000 1345064.12519293 20054.90704577
0.07100000 1337234.60883480 15886.34789704
0.07200000 1329338.02059135 17467.50240887
0.07300000 1321379.08543452 19067.50109624
0.07400000 1313356.67999029 20685.36867925
0.07500000 1305273.88443529 23808.19676805
0.07600000 1297130.36727740 23970.97031106
0.07700000 1288931.45196896 19604.64830368
0.07800000 1280675.64818663 18211.20857125
0.07900000 1272365.27726269 24429.41446927
0.08000000 1264003.44594575 19964.93536529
0.08100000 1255590.75333823 21621.27378692
0.08200000 1247128.35819949 17079.42366700
0.08300000 1238618.63523450 20288.57419732
0.08400000 1230062.84999699 17251.63228098
0.08500000 1221464.39977557 28362.40469427
0.08600000 1212822.68924342 15827.33683774
0.08700000 1204141.30853030 17484.13262087
0.08800000 1195418.67746024 23938.26014037
0.08900000 1186661.21256140 17621.91983423
0.09000000 1177867.21191812 22509.04347713
0.09100000 1169039.61059068 19359.29686090
0.09200000 1160179.10996742 19421.39921340
0.09300000 1151289.38454520 19479.81730190
0.09400000 1142368.52087747 21162.37784383
0.09500000 1133420.98512090 22849.76813404
0.09600000 1124447.87771611 22905.00434579
0.09700000 1115451.74854395 19676.56976937
0.09800000 1106433.63670133 23002.75638856
0.09900000 1097395.43929432 18107.02559979
0.10000000 1088336.79168901 21434.79412033
0.10100000 1079260.71420211 18163.95867430
0.10200000 1070169.08347210 19840.93574082
0.10300000 1061062.69671283 18207.83673210
0.10400000 1051944.77621203 18224.94410527
0.10500000 1042817.46619878 21555.03804048
0.10600001 1033677.08700322 18249.56982975
0.10700001 1024531.87318579 24896.12568997
0.10800001 1015378.49525634 18261.58309661
0.10900001 1006221.21129569 19923.18092135
0.11000001 997060.20480021 19921.26382959
0.11100001 987897.62856836 26554.68950594
0.11200001 978735.89073720 18248.53154188
0.11300001 969573.77951930 19895.65489244
0.11400001 960415.50463116 23194.03552892
0.11500001 951261.89001182 16551.95766560
0.11600001 942113.23823545 19840.90573158
0.11700001 932973.05242571 16513.62380564
0.11800001 923839.57141056 18139.59083899
0.11900001 914716.41899665 24697.34447620
0.12000001 905604.65378375 24655.08786064
0.12100001 896506.89430868 16406.07693871
0.12200001 887421.85936519 18010.22748430
0.12300001 878353.25130191 17971.10836834
0.12400001 869300.61078339 21189.20338623
0.12500001 860266.31478513 17884.93752713
0.12600001 851252.39338274 19459.63062973
0.12700001 842259.24406414 21022.79172257
0.12800001 833286.68662735 22573.73740462
0.12900001 824338.18881979 17682.05498358
0.13000001 815413.81060713 17625.17034703
0.13100001 806514.59255002 20759.68659080
0.13200001 797642.74611859 15912.97353521
0.13300001 788800.27282046 19025.86347737
0.13400001 779985.28849976 17374.17312045
0.13500001 771201.55048407 15732.51237163
0.13600001 762448.29629863 20368.80719602
0.13700001 753728.20575932 18722.60951389
0.13800001 745040.49999775 17087.50467322
0.13900001 736389.83856058 20103.44354075
0.14000001 727773.39691680 18470.88968485
0.14100001 719194.31589837 18382.60758134
0.14200001 710651.50746013 18292.17066478
0.14300001 702150.49631963 15166.45143587
0.14400001 693684.88176112 16596.41157899
0.14500001 685263.42421644 18008.72363792
0.14600001 676881.26518066 16417.75586145
0.14700001 668544.91188836 17810.03729292
0.14800001 660249.02005871 20659.19281231
0.14900001 651997.00299896 20537.90656346
0.15000001 643790.86235690 20414.60920856
0.15100001 635630.58816159 15941.61590330
0.15200001 627517.83949389 23042.45615352
0.15300001 619452.50805432 17171.22433356
0.15400001 611433.40694173 19902.15833516
0.15500001 603465.13525962 16945.30179779
0.15600001 595544.37460239 15427.57775218
0.15700001 587677.77436436 22284.74225567
0.15800001 579857.58257135 15212.56439677
0.15900001 572092.15479015 15103.23359934
0.16000001 564376.66057520 13629.69699625
0.16100001 556716.99819311 17586.69080309
0.16200001 549108.91972208 16110.85646518
0.16300001 541555.83414823 23980.09346813
0.16400001 534057.27629040 13217.91821220
0.16500001 526614.05223884 15735.22862378
0.16600001 519226.72352877 18209.28205387
0.16700001 511894.61693584 12899.74495584
0.16800001 504618.47428955 14071.28681996
0.16900001 497401.50087285 15220.48664539
0.17000001 490241.29564722 16347.09677526
0.17100001 483139.16397177 17450.98742672
0.17200001 476095.47041858 21002.95266934
0.17300001 469110.68538532 12243.78946676
0.17400001 462185.69997541 14558.85023678
0.17500001 455319.59719740 13222.48172708
0.17600001 448511.38198836 16671.16885587
0.17700001 441766.06995075 15333.70101221
0.17800001 435079.75041332 15186.45940547
0.17900001 428454.22477492 13881.91753840
0.18000001 421890.34232010 14890.62033555
0.18100001 415388.68489000 19278.18977638
0.18200001 408945.44486008 12348.10829085
0.18300001 402566.47559649 13333.00230160
0.18400001 396247.76519205 13195.05120424
0.18500001 389991.92287874 13056.93019482
0.18600001 383797.85767633 11842.08345806
0.18700001 377665.62826616 12780.20546433
0.18800001 371595.47800665 12641.67875906
0.18900001 365589.68341082 11461.23711644
0.19000001 359642.34064504 12364.50425558
0.19100001 353762.50856551 11207.19680090
0.19200001 347941.32558375 12087.48222193
0.19300001 342185.55297981 11949.12007468
0.19400001 336491.41808082 10826.61188835
0.19500001 330860.64046976 12645.49427632
0.19600001 325290.98903009 15379.75868813
0.19700001 319785.12025442 10447.38037243
0.19800001 314341.67340431 12198.02921292
0.19900001 308961.60368340 9268.84854855
0.20000001 303642.24440558 9154.81410150
0.20100001 298387.01792109 9945.23977734
0.20200001 293192.86913511 9820.49561583
0.20300001 288061.74943061 9696.15894412
0.20400001 282992.58714878 11312.62920597
0.20500001 277984.64156711 11166.64357956
0.20600001 273039.27407641 11869.01780513
0.20700001 268155.31860359 8366.44633591
0.20800001 263332.78422488 9906.57981083
0.20900001 258573.63775406 8959.57697171
0.21000001 253873.29085834 8838.59903905
0.21100001 249234.05316663 8718.20759191
0.21200001 244655.43596611 10161.76401324
0.21300001 240137.41151747 10020.93465637
0.21400001 235680.45654858 14441.32065775
0.21500001 231284.01292306 8242.96261028
0.21600001 226945.86007984 8125.79690433
0.21700001 222668.16434182 7281.24931823
0.21800001 218449.48151318 7176.06580700
0.21900001 214288.68865341 9192.98517789
0.22000001 210186.43343896 9057.98477734
0.22100001 206144.84795680 7551.08613770
0.22200001 202160.06963731 9467.15650876
0.22300001 198232.74741214 6660.62062800
0.22400001 194361.53146173 6559.70199702
0.22500001 190550.42397437 7751.59161383
0.22600001 186793.87905773 10176.53101229
0.22700001 183095.06060046 8766.59191611
0.22800001 179451.33748690 9246.23060127
0.22900001 175863.07924467 11527.82538965
0.23000001 172330.00498061 7762.60544146
0.23100001 168853.61176646 6463.71656411
0.23200001 165429.81778181 7516.30412639
0.23300001 162061.26340187 6257.18567588
0.23400001 158746.36740283 6714.97165873
0.23500001 155483.76478440 8256.18830054
0.23600001 152274.77938817 7578.71612860
0.23700001 149118.39423045 6920.58500356
0.23800001 146014.04212649 6281.52438939
0.23900001 142961.49663836 5661.27553465
0.24000001 139959.77459346 6577.40991813
0.24100001 137010.35416237 5968.17130961
0.24200001 134110.44712681 5865.99123480
0.24300001 131260.86474797 6725.80702784
0.24400001 128460.01268450 7081.35853421
0.24500001 125708.84955486 4638.65676800
0.24600001 123006.62600697 5468.87485098
0.24700001 120352.93378422 4924.84228342
0.24800001 117746.17653791 5277.38388208
0.24900001 115186.62549600 4319.49866044
0.25000001 112674.59371070 4666.41851929
0.25100001 110208.20693868 4582.45746130
0.25200001 107788.90991599 4499.64825732
0.25300001 105415.30613771 6827.74970156
0.25400001 103085.63275012 4731.63076709
0.25500001 100801.00645007 5419.06236314
0.25600001 98560.64578323  4179.46438218
0.25700001 96363.76886362  4102.20583461
0.25800001 94209.95063019  5124.07945722
0.25900001 92099.31147154  5746.99730774
0.26000001 90031.20048178  4582.13816533
0.26100001 88002.96730072  4496.07181213
0.26200001 86018.43463459  5090.14111035
0.26300001 84073.22241280  4328.08969461
0.26400001 82168.37455196  4899.28956449
0.26500001 80304.40893654  4165.38988864
0.26600001 78478.56104083  4714.59977762
0.26700001 76693.13224594  4007.98328083
0.26800001 74945.70738287  3931.27726680
0.26900001 73235.66593790  4449.06691626
0.27000001 71563.97018723  2909.07552577
0.27100001 69928.96782750  3138.41222462
0.27200001 68331.09823665  3637.60618677
0.27300001 66768.83564808  3018.61920250
0.27400001 65241.28046881  2960.32324137
0.27500001 63750.95364754  2903.21856650
0.27600001 62293.37154396  2847.11868116
0.27700001 60871.86022255  3807.53503712
0.27800001 59482.96417011  2489.36216833
0.27900001 58128.22681834  2929.66277030
0.28000001 56805.72329709  2873.23362035
0.28100001 55515.79432481  2348.31821108
0.28200001 54258.16702515  2303.25929923
0.28300001 53031.94228697  3388.74127253
0.28400001 51837.15945985  2880.85027333
0.28500001 50673.13300378  3043.42851226
0.28600001 49538.63171659  2559.16583561
0.28700001 48434.28103854  2510.83324788
0.28800001 47358.58130534  2463.59351611
0.28900001 46313.19875875  2619.01151377
0.29000001 45295.12866894  1977.13245999
0.29100001 44306.09428676  2328.72842594
0.29200001 43344.07278810  2095.46929813
0.29300001 42409.10503754  1870.24162069
0.29400001 41500.85156544  2203.69532244
0.29500001 40620.09951886  2885.65200642
0.29600001 39763.83276247  1948.62671677
0.29700001 38933.04688031  1740.30727793
0.29800001 38127.94998051  2223.05022885
0.29900001 37347.39181801  2016.75925364
0.30000001 36590.96143088  2312.91478154
0.30100001 35859.19203609  2274.19006659
0.30200001 35149.57926611  1597.54845327
0.30300001 34463.66895207  2200.16073006
0.30400001 33801.01265138  1701.03604221
0.30500001 33159.52803518  1674.22464976
0.30600001 32540.02947129  1798.16211371
0.30700001 31942.67113134  1770.90177136
0.30800001 31366.10055790  1453.81882969
0.30900001 30810.22165166  1719.21044956
0.31000001 30275.50345492  1836.05799395
0.31100001 29759.01687505  1392.72205569
0.31200001 29263.53688154  1786.10005813
0.31300001 28786.37512683  1762.58983247
0.31400001 28329.51788795  1472.42676194
0.31500001 27890.53714646  1850.81613267
0.31600002 27469.50412464  1698.02747786
0.31700002 27066.06550416  1420.15652424
0.31800002 26680.40642575  1659.65476030
0.31900002 26312.08091124  1389.27793789
0.32000002 25960.15881308  1499.97804724
0.32100002 25625.29418605  1609.01229813
0.32200002 25306.54393393  1716.54295632
0.32300002 25002.92959870  1701.19941045
0.32400002 24715.12930385  1566.32139380
0.32500002 24441.94338075  1673.29552308
0.32600002 24184.24553874  1542.10848980
0.32700002 23940.61570567  1295.66618334
0.32800002 23712.08217560  1521.24870401
0.32900002 23496.07949023  1279.36158883
0.33000002 23295.24666826  1503.59176740
0.33100002 23105.52997821  1380.78653688
0.33200002 22930.91219960  1374.47894233
0.33300002 22767.83685090  1140.66868025
0.33400002 22617.96357167  1932.13962961
0.33500002 22479.49311723  1132.96650676
0.33600002 22352.98817984  1468.92668780
0.33700002 22237.13606584  1578.39199270
0.33800002 22134.01100767  1463.16886695
0.33900002 22040.52834636  1236.47369879
0.34000002 21958.66812331  1572.46029878
0.34100002 21886.81159899  1235.07283702
0.34200002 21826.10077115  1796.72470057
0.34300002 21773.93282547  1348.24198441
0.34400002 21732.13433760  1237.10180576
0.34500002 21699.41969154  1689.29990299
0.34600002 21677.06061918  1466.77837626
0.34700002 21661.46577489  1243.80142370
0.34800002 21656.15795632  1360.43990725
0.34900002 21658.77798172  1364.50307747
0.35000002 21669.57928555  1369.08408410
0.35100002 21688.49343448  1259.66775834
0.35200002 21714.38595877  1494.70982827
0.35300002 21748.06329483  1732.23332348
0.35400002 21789.43354283  1508.37360844
0.35500002 21837.54222246  1399.34977189
0.35600002 21891.89422569  1406.77318957
0.35700002 21953.16060903  1886.21564887
0.35800002 22021.26337587  1304.42959785
0.35900002 22095.14216574  1551.07905350
0.36000002 22175.67291545  1200.81274525
0.36100002 22260.95884688  1813.15518396
0.36200002 22353.21253215  1460.55897603
0.36300002 22448.90352693  1838.56528594
0.36400002 22550.65990102  1605.04329448
0.36500002 22656.86114427  1741.40643004
0.36600002 22768.44474868  1629.42382562
0.36700002 22884.11077009  1389.52327178
0.36800002 23005.56680883  1528.02981982
0.36900002 23130.40712783  1540.48518768
0.37000002 23258.29077936  2200.35070341
0.37100002 23390.65618538  1305.19867697
0.37200002 23527.06280613  1842.87491690
0.37300002 23666.35749052  1593.21926173
0.37400002 23810.08281286  1741.11238817
0.37500002 23956.00490902  1621.34248905
0.37600002 24105.88899193  1363.18808707
0.37700002 24257.58448051  1650.48612624
0.37800002 24412.83152317  1804.23039919
0.37900002 24570.36359430  1680.61294947
0.38000002 24730.53165324  2402.69491659
0.38100002 24892.53286700  1711.61064102
0.38200002 25056.85954337  1871.37164365
0.38300002 25222.97282536  1743.41196428
0.38400002 25391.51382218  1612.99599197
0.38500002 25560.67044318  1775.95546653
0.38600002 25732.66656787  1941.91577454
0.38700002 25905.07939873  2412.28110789
0.38800002 26078.79539939  1978.20711874
0.38900002 26253.87196644  1689.43674108
0.39000002 26430.60580848  1550.15510411
0.39100002 26607.43279758  2033.87225940
0.39200002 26785.56086079  2684.31510884
0.39300002 26964.17868177  2390.37455339
0.39400002 27144.07585278  1769.11522752
0.39500002 27323.57396833  1785.32240767
0.39600002 27503.45274452  1801.61375739
0.39700002 27683.17904164  1817.95445380
0.39800002 27864.07388532  2668.26384168
0.39900002 28044.26491243  2355.71836425
0.40000002 28224.34374097  2037.23322775
0.40100002 28404.01634157  2055.31471986
0.40200002 28584.59795235  2419.11463932
0.40300002 28763.71450057  2963.23800825
0.40400002 28942.38658653  2813.20010950
0.40500002 29120.70621056  2128.14131070
0.40600002 29298.45945196  1967.53813772
0.40700002 29475.46502388  2345.06810841
0.40800002 29651.84256650  1819.14062765
0.40900002 29826.45894041  2017.76004292
0.41000002 30000.97548671  1849.56022639
0.41100002 30174.06797573  2237.70898711
0.41200002 30345.58365656  2443.88169558
0.41300002 30516.16566838  1895.05397780
0.41400002 30685.43053688  2101.18495557
0.41500002 30853.70901030  2117.79868681
0.41600002 31019.36543543  2522.33981990
0.41700002 31184.31249245  1955.25648592
0.41800002 31348.62500439  2167.28729237
0.41900002 31509.16937968  2779.10887097
0.42000002 31668.78405857  2399.86056967
0.42100002 31827.30878564  2619.06936407
0.42200002 31983.77868232  2232.30793891
0.42300002 32137.77872827  2043.96282397
0.42400002 32290.00711191  2676.03446621
0.42500002 32440.58815447  2280.24904943
0.42600002 32587.78851970  2504.69754431
0.42700002 32734.17268749  2311.68738473
0.42800002 32877.72855814  2115.68193297
0.42900002 33019.85608519  2768.71506394
0.43000002 33159.62118190  2786.90049430
0.43100002 33295.61688811  2589.06729191
0.43200002 33430.34428910  2388.43106092
0.43300002 33562.19987579  3495.83890472
0.43400002 33691.99416184  3517.44435718
0.43500002 33819.04623015  3981.17831088
0.43600002 33944.38484015  3115.07634440
0.43700002 34066.12898316  2909.58821433
0.43800002 34184.73324960  3601.70366586
0.43900002 34301.79697651  2943.09432006
0.44000002 34415.36492502  3414.86474651
0.44100002 34526.98429609  3433.70875097
0.44200002 34635.69794090  3912.62180331
0.44300002 34741.84153807  3007.94878291
0.44400002 34844.56868976  3023.63759135
0.44500002 34943.83337710  3740.38810195
0.44600002 35041.04452655  2584.45236154
0.44700002 35135.63924118  2833.33808268
0.44800002 35226.36305038  2372.49566388
0.44900002 35315.50592862  2860.55611579
0.45000002 35401.33998986  3352.86106934
0.45100002 35483.01841013  4811.49752444
0.45200002 35562.70055506  3866.37698758
0.45300002 35638.96079459  3397.81868319
0.45400002 35712.68760214  3168.60835767
0.45500002 35783.32363733  3671.36917919
0.45600002 35850.53546116  2703.30975457
0.45700002 35914.87820302  2960.82269938
0.45800002 35975.44486856  2972.29139591
0.45900002 36033.35712468  2983.56211133
0.46000002 36089.00884087  2495.55507962
0.46100002 36140.30964425  2504.52357705
0.46200002 36189.28624282  3770.01907302
0.46300002 36234.70618771  3026.32280423
0.46400002 36276.66897078  3289.38711483
0.46500002 36316.38495297  2792.36697138
0.46600002 36352.31160860  3055.77545865
0.46700002 36385.00599647  3065.07305041
0.46800002 36415.34414355  2818.00154011
0.46900002 36441.66498648  3339.87875431
0.47000002 36464.77140734  3091.48346644
0.47100002 36485.21581302  2841.46874219
0.47200002 36502.18902618  3107.79652099
0.47300002 36516.62749012  3115.59880513
0.47400002 36526.65385572  3123.02905269
0.47500002 36534.60723310  3651.99951212
0.47600002 36539.66650615  3398.73724116
0.47700002 36540.70261182  2881.96535159
