# SAXS profile: number of points = 501, q_min = 0, q_max = 0.5, delta_q = 0.001
#    q    intensity    error
0.00000000 1664650.74656091 374.54641798
0.00100000 1664582.38829425 599.24967402
0.00200000 1664377.25914205 1048.55770646
0.00300000 1664035.53016938 1397.78989514
0.00400000 1663557.06330888 1372.43462938
0.00500000 1662942.31683608 1795.97777327
0.00600000 1662191.03115187 2094.36078452
0.00700000 1661303.87645996 2392.27768153
0.00800000 1660280.24194731 2689.65410551
0.00900000 1659121.50831805 2986.41884264
0.01000000 1657826.88939693 3829.58027987
0.01100000 1656397.52276833 4770.42507327
0.01200000 1654832.96287107 3549.61686099
0.01300000 1653134.54712628 3818.74097229
0.01400000 1651301.53898550 4458.51435291
0.01500000 1649335.62441875 5541.76794482
0.01600000 1647235.86712045 5040.54197872
0.01700000 1645004.19354680 6218.11613054
0.01800000 1642640.18094539 4681.52472635
0.01900000 1640144.59911552 4920.43401937
0.02000000 1637518.09601489 5674.00045936
0.02100000 1634762.25315138 5934.18724799
0.02200000 1631875.30223914 6755.96405821
0.02300000 1628859.95911182 9382.23379155
0.02400000 1625716.45606208 6096.43698822
0.02500000 1622445.91519269 7593.04722988
0.02600000 1619048.30523534 6557.14593612
0.02700000 1615525.04614017 6785.20550456
0.02800000 1611875.80433480 8413.99208449
0.02900000 1608103.10687757 7960.11074453
0.03000000 1604207.49885474 12681.26086134
0.03100000 1600188.81486499 9217.08799773
0.03200000 1596048.33562830 11060.61547534
0.03300000 1591788.81584182 9741.74800205
0.03400000 1587408.23873603 10834.06172926
0.03500000 1582909.92460717 11966.79958263
0.03600000 1578293.56438778 12263.34156203
0.03700000 1573561.07856914 11660.08813145
0.03800000 1568713.70197297 11012.37069750
0.03900000 1563752.67454282 15012.02637082
0.04000000 1558676.78918991 10544.44896749
0.04100000 1553490.24805036 11744.38681981
0.04200000 1548193.33408344 13980.18645535
0.04300000 1542785.85254992 11200.62580942
0.04400000 1537271.65446738 14527.21780939
0.04500000 1531650.10863580 12682.06348878
0.04600000 1525922.01758546 12909.30086889
0.04700000 1520090.29076473 14228.04578327
0.04800000 1514155.01247493 15580.65580331
0.04900000 1508119.08924551 15835.25117417
0.05000000 1501981.94303215 17235.24359887
0.05100000 1495746.91046015 12833.50908958
0.05200000 1489412.30636262 18945.32541981
0.05300000 1482983.51559301 13213.38373991
0.05400000 1476458.64647203 17053.09816200
0.05500000 1469841.85878767 16050.67384671
0.05600000 1463131.72351222 12509.77681979
0.05700000 1456333.04949565 12670.09812203
0.05800000 1449444.46666501 16675.85936762
0.05900000 1442467.89972181 14280.43287423
0.06000000 1435406.42877073 18387.55721160
0.06100000 1428261.30970568 18595.96312138
0.06200000 1421032.81277263 13428.76070841
0.06300000 1413724.36765665 14928.93002046
0.06400000 1406334.01587959 20567.63594412
0.06500000 1398868.17642350 19388.31383217
0.06600000 1391324.35501455 15381.09146434
0.06700000 1383705.52467318 16936.55641461
0.06800000 1376014.87637720 25635.15834687
0.06900000 1368253.02581543 17239.98893243
0.07000000 1360419.72573717 15937.31783333
0.07100000 1352519.52847912 16067.93275092
0.07200000 1344551.35062054 16195.12177691
0.07300000 1336520.27260541 16318.91329314
0.07400000 1328424.98593777 16439.25997139
0.07500000 1320268.55313034 16556.16843228
0.07600000 1312050.70602655 22731.27954757
0.07700000 1303776.88397992 18305.02830937
0.07800000 1295445.34401570 15351.02804649
0.07900000 1287058.63209223 16989.17474047
0.08000000 1278619.91498628 18642.27923503
0.08100000 1270129.71289992 17184.85582182
0.08200000 1261588.98101368 18848.14026080
0.08300000 1253000.62739611 17366.58951076
0.08400000 1244365.26887227 15865.65792283
0.08500000 1235686.82091130 15940.36073808
0.08600000 1226964.65639572 19214.26742130
0.08700000 1218201.97008835 16080.26676026
0.08800000 1209397.69199848 20989.09793036
0.08900000 1200558.03319046 24311.30131400
0.09000000 1191681.18860806 26026.31838180
0.09100000 1182770.22062594 17954.45279262
0.09200000 1173825.93376769 18012.35980001
0.09300000 1164851.81558412 19709.29364587
0.09400000 1155846.21645580 18117.89029444
0.09500000 1146813.41953881 21468.34822284
0.09600000 1137754.54853894 26486.92713508
0.09700000 1128672.23540971 26546.37222486
0.09800000 1119567.71256156 19950.69757588
0.09900000 1110442.43382045 16656.63729054
0.10000000 1101296.30416176 23358.49570976
0.10100000 1092132.34758381 20051.55084470
0.10200000 1082952.46754074 21751.10133365
0.10300000 1073757.53511621 16750.61833577
0.10400000 1064550.71796561 21796.67697577
0.10500000 1055334.00695440 21813.75495007
0.10600001 1046104.09934545 16789.97158452
0.10700001 1036868.69425759 18477.00100115
0.10800001 1027625.16018969 16801.67215982
0.10900001 1018377.21931536 21844.19238243
0.11000001 1009125.35512772 20162.32554448
0.11100001 999871.67160416 20157.41384842
0.11200001 990618.46200707 18470.08209364
0.11300001 981364.68827197 18459.47065548
0.11400001 972114.47285349 18445.87299091
0.11500001 962868.82008689 25130.87738763
0.11600001 953627.92609924 18409.78798029
0.11700001 944395.19251605 20058.95483372
0.11800001 935168.88322158 18362.04188688
0.11900001 925952.87554861 21667.29830840
0.12000001 916747.90363379 23294.56532862
0.12100001 907557.07117353 18269.12470335
0.12200001 898378.62431517 21547.61231934
0.12300001 889216.61884594 23155.20184569
0.12400001 880070.31256387 23101.84679330
0.12500001 870942.17753123 16460.80793098
0.12600001 861834.56086272 18059.74407392
0.12700001 852747.51313742 16372.75302383
0.12800001 843680.93482260 21222.79491568
0.12900001 834638.41175453 19530.53975557
0.13000001 825620.11618788 19468.12325734
0.13100001 816626.75202647 22636.89463322
0.13200001 807660.91480722 27391.82121695
0.13300001 798724.19471903 22476.09989898
0.13400001 789815.13359340 19192.50865116
0.13500001 780937.16650243 20710.45463211
0.13600001 772089.93403546 23799.67333882
0.13700001 763275.75367467 17379.78973069
0.13800001 754494.06601374 17304.32222002
0.13900001 745749.57814901 25057.18700746
0.14000001 737039.22126400 17147.21829138
0.14100001 728366.42747577 17065.62620062
0.14200001 719730.07858246 20069.67418786
0.14300001 711135.49544444 23040.79113918
0.14400001 702576.39853930 16809.14112794
0.14500001 694061.63668456 18239.94067249
0.14600001 685586.41939859 16628.89938697
0.14700001 677156.86875365 18039.45983464
0.14800001 668768.30958140 17936.36690919
0.14900001 660423.58182534 16345.48442137
0.15000001 652124.93716256 16247.69357602
0.15100001 643872.29241273 26424.52012746
0.15200001 635667.62510352 16047.42995297
0.15300001 627510.39786514 20293.68722460
0.15400001 619399.58609925 15841.14516205
0.15500001 611339.87223391 15735.88905392
0.15600001 603328.10149756 17050.05295300
0.15700001 595370.57223740 15521.31155079
0.15800001 587459.58534872 16813.09412624
0.15900001 579603.69252567 15301.53820492
0.16000001 571798.26713604 13808.92880315
0.16100001 564048.97321697 16447.66883541
0.16200001 556351.40662834 16323.35104104
0.16300001 548709.13307482 14848.06984195
0.16400001 541121.71697892 16071.31575299
0.16500001 533590.08354688 13286.39370759
0.16600001 526114.37714422 18450.83207757
0.16700001 518694.65380970 13071.10589315
0.16800001 511331.03938061 15554.69095239
0.16900001 504027.00831741 14137.95825087
0.17000001 496780.23105658 14016.65488112
0.17100001 489591.79269013 15157.76261746
0.17200001 482462.08977823 13771.88100307
0.17300001 475391.76388738 12407.72562341
0.17400001 468381.74549574 13524.52353990
0.17500001 461431.00596363 13399.95704603
0.17600001 454538.55151077 13274.79902383
0.17700001 447709.29604958 11953.83876911
0.17800001 440939.82385291 16574.92876150
0.17900001 434231.40177484 14069.09808204
0.18000001 427585.14417439 11608.93721268
0.18100001 421001.44906333 11493.34010233
0.18200001 414476.75475803 17066.08118333
0.18300001 408016.79178224 13513.51678220
0.18400001 401617.50907086 11144.88640321
0.18500001 395281.66872855 11028.35907853
0.18600001 389008.10169224 17458.68442876
0.18700001 382796.98906709 11874.36316186
0.18800001 376648.11095275 10677.97445000
0.18900001 370564.41247346 11617.19487993
0.19000001 364539.66035247 15666.09264385
0.19100001 358582.79151189 11359.90337185
0.19200001 352685.56119513 11231.27222695
0.19300001 346853.92943476 11102.79480584
0.19400001 341084.43444278 12969.73623256
0.19500001 335378.93157778 11832.16926519
0.19600001 329735.31354048 9743.67897557
0.19700001 324155.72471941 10590.16802705
0.19800001 318639.39402650 12364.80226954
0.19900001 313186.92581032 9395.60821835
0.20000001 307795.70132082 17632.07758348
0.20100001 302469.20844335 10081.29919388
0.20200001 297204.40540109 13574.81185829
0.20300001 292003.28323902 15190.01151204
0.20400001 286864.78718783 11467.42040985
0.20500001 281788.11243852 8707.25308592
0.20600001 276774.43280399 9453.23119926
0.20700001 271822.97056236 10177.05249891
0.20800001 266933.35181805 10042.03317008
0.20900001 262107.90992274 9082.03950814
0.21000001 257341.92391884 11402.82118788
0.21100001 252637.53811097 8837.26150089
0.21200001 247994.55053700 9508.11151708
0.21300001 243412.64710175 8594.90097549
0.21400001 238892.66491881 7704.28880786
0.21500001 234433.65420948 11393.47613324
0.21600001 230033.51865717 9733.86880218
0.21700001 225694.66490743 8118.23748055
0.21800001 221415.32788180 8728.19263777
0.21900001 217194.62280241 9317.64975878
0.22000001 213033.14579079 7062.04911688
0.22100001 208932.92843444 7653.21353042
0.22200001 204890.24310553 7538.93685154
0.22300001 200905.75888668 11475.73749024
0.22400001 196977.83852257 7312.80260095
0.22500001 193110.67620823 7855.74267963
0.22600001 189299.01278092 10957.57387299
0.22700001 185545.57132188 10787.62002679
0.22800001 181847.86230984 6871.12180231
0.22900001 178206.32925045 6762.93051488
0.23000001 174620.69220088 6050.60727090
0.23100001 171092.33487688 7740.21759589
0.23200001 167617.23686023 7029.86724639
0.23300001 164198.17855994 6916.02760803
0.23400001 160833.36922497 5669.37653332
0.23500001 157521.49781248 6133.88741493
0.23600001 154263.96872381 8226.12652127
0.23700001 151059.65008796 5392.82976321
0.23800001 147908.15649614 7953.76149178
0.23900001 144809.08375066 6777.06544008
0.24000001 141761.61466030 6149.61913484
0.24100001 138766.92830063 6044.68768270
0.24200001 135822.53320955 5940.87788360
0.24300001 132929.08151390 5838.24553626
0.24400001 130085.05343416 5736.75112782
0.24500001 127291.37449826 5166.75713529
0.24600001 124547.16730383 4614.47276690
0.24700001 121852.43278110 5892.78392806
0.24800001 119205.15972650 5342.77551169
0.24900001 116605.73803420 5247.25845977
0.25000001 114054.58977947 5152.98661002
0.25100001 111549.73900949 5059.89640085
0.25200001 109092.59923631 6210.09650533
0.25300001 106681.72351602 4471.03124408
0.25400001 104315.62077720 4389.07995185
0.25500001 101995.02460770 4699.93095629
0.25600001 99719.50228817  4228.60569460
0.25700001 97488.12200841  4904.62765030
0.25800001 95300.30880167  4072.65888933
0.25900001 93156.37376391  3633.09874869
0.26000001 91055.59457207  4634.27470502
0.26100001 88995.31315026  4546.77076398
0.26200001 86979.45403747  3774.47358655
0.26300001 85003.56393078  3366.14129094
0.26400001 83068.49758500  4292.56481582
0.26500001 81175.03904295  3886.66105329
0.26600001 79320.38997816  3176.78176895
0.26700001 77506.67474756  3115.76847229
0.26800001 75731.57943361  4583.65406212
0.26900001 73994.54323910  3895.81288589
0.27000001 72296.45006067  4996.04641787
0.27100001 70635.71868409  4322.90618804
0.27200001 69012.62193839  3956.49380296
0.27300001 67425.74249904  2771.19814786
0.27400001 65874.16779036  2989.04050494
0.27500001 64360.48111753  4263.23847098
0.27600001 62880.03491116  2873.93213163
0.27700001 61436.16522143  3074.26585317
0.27800001 60025.71518881  3265.69918940
0.27900001 58649.79483773  2709.62064974
0.28000001 57306.80794154  3140.12668977
0.28100001 55996.85968495  2605.53400446
0.28200001 54719.84623248  3716.57213201
0.28300001 53474.77718118  2505.82817731
0.28400001 52261.56872929  2681.01860271
0.28500001 51079.80719875  2191.32383254
0.28600001 49928.09083666  2364.34485348
0.28700001 48807.04730967  3373.54326972
0.28800001 47715.25592931  2068.45644244
0.28900001 46654.26424789  2638.29876810
0.29000001 45621.00031402  3584.44216434
0.29100001 44617.38119473  2345.08966660
0.29200001 43641.30237721  2493.44592935
0.29300001 42692.77357130  2259.30168434
0.29400001 41771.38729238  2772.57596278
0.29500001 40877.93795057  2359.47469020
0.29600001 40009.64013939  2138.91546310
0.29700001 39167.16158692  1925.84942639
0.29800001 38350.92613563  2064.04694233
0.29900001 37559.62477539  1859.20151439
0.30000001 36792.99843708  2325.68554131
0.30100001 36051.49256969  1796.44595979
0.30200001 35332.54820627  1927.03727040
0.30300001 34637.79092820  2053.32834343
0.30400001 33966.77353665  1709.37795916
0.30500001 33317.28126244  1529.26328234
0.30600001 32690.12998188  1956.99472401
0.30700001 32085.69919557  1482.35937302
0.30800001 31502.44857254  1752.16627256
0.30900001 30940.24294015  2445.82632021
0.31000001 30399.55954562  1843.58137593
0.31100001 29877.65160576  1398.27416135
0.31200001 29376.95178179  1930.94713204
0.31300001 28895.18642881  1497.05967976
0.31400001 28434.09142023  2149.61741315
0.31500001 27990.96559505  1459.44901523
0.31600002 27566.46409707  2228.33523079
0.31700002 27159.73778229  1425.07150891
0.31800002 26771.25585603  1793.40651471
0.31900002 26400.40414877  1520.66335097
0.32000002 26046.35177782  1755.78465648
0.32100002 25709.61654939  1365.95199195
0.32200002 25389.37193032  1230.11512827
0.32300002 25084.58915004  1584.84441754
0.32400002 24795.91956660  1813.20170417
0.32500002 24522.20625995  1558.87672576
0.32600002 24264.22759673  1428.19250397
0.32700002 24020.71648027  1181.81930679
0.32800002 23792.50216345  1408.99204484
0.32900002 23577.16952267  1517.19093063
0.33000002 23377.32775990  1276.75281607
0.33100002 23188.70530616  1385.75709472
0.33200002 23015.64280922  1149.63141276
0.33300002 22854.29542878  1832.00040833
0.33400002 22706.37467372  1483.29399580
0.33500002 22570.14084386  2047.56327432
0.33600002 22446.11134359  1588.51137501
0.33700002 22332.98947256  1245.51088187
0.33800002 22232.89027198  1582.75953342
0.33900002 22142.60838771  1129.27308125
0.34000002 22064.05735084  1241.43424564
0.34100002 21995.83004126  1241.22474801
0.34200002 21938.97578849  1241.63639355
0.34300002 21890.81097063  1807.30543933
0.34400002 21853.27905443  1357.08869355
0.34500002 21825.00803697  1585.80515907
0.34600002 21807.24195118  1248.57369705
0.34700002 21796.41255709  1365.32734724
0.34800002 21796.06049049  1255.12620279
0.34900002 21803.75482981  1717.04577417
0.35000002 21819.84663325  1378.57797558
0.35100002 21844.18391507  1153.37296534
0.35200002 21875.58887860  1505.80623178
0.35300002 21915.07430158  1396.42860064
0.35400002 21962.23166018  2105.08000433
0.35500002 22016.33618248  1528.37413018
0.35600002 22076.74926408  1536.87297281
0.35700002 22144.30432029  1308.06411816
0.35800002 22218.74413407  1316.12737112
0.35900002 22299.06001880  1565.39408747
0.36000002 22386.14163611  1333.43058971
0.36100002 22478.06466614  1220.55896918
0.36200002 22577.02756176  1475.18305076
0.36300002 22679.59429726  1238.30590728
0.36400002 22788.28604376  1372.42459199
0.36500002 22901.38935219  2011.65813598
0.36600002 23020.06482153  2027.60740552
0.36700002 23142.84858842  1660.73089337
0.36800002 23271.51825954  1416.88645635
0.36900002 23403.47854104  1558.67174467
0.37000002 23538.69348208  1702.90686063
0.37100002 23678.31321853  1981.87491027
0.37200002 23822.09240075  1466.13074625
0.37300002 23968.81574027  1613.58075207
0.37400002 24119.94636924  1628.09645705
0.37500002 24273.28015983  2190.42090539
0.37600002 24430.71502973  1657.86840045
0.37700002 24589.81804337  1812.51557384
0.37800002 24752.51333978  1970.05263004
0.37900002 24917.62129749  1704.36537749
0.38000002 25085.23594556  1863.70769286
0.38100002 25254.72205109  1591.80520629
0.38200002 25426.56722883  1460.75635650
0.38300002 25600.16544118  2064.39743898
0.38400002 25776.16946718  1488.57385725
0.38500002 25952.79803935  1803.20049320
0.38600002 26132.16366469  1516.97217260
0.38700002 26311.87515698  2450.16193069
0.38800002 26493.04394246  1855.04302473
0.38900002 26675.37431033  2652.86610084
0.39000002 26859.40070659  2205.42549650
0.39100002 27043.42303123  1749.16868453
0.39200002 27228.75670256  1765.64881203
0.39300002 27414.41844608  1620.19220692
0.39400002 27601.44922186  2126.00172704
0.39500002 27787.92363323  1650.60274202
0.39600002 27974.73340610  2498.84317989
0.39700002 28161.36183085  1681.23338096
0.39800002 28349.11284908  2545.04172661
0.39900002 28536.05176365  2397.02846171
0.40000002 28722.69754121  1900.43737286
0.40100002 28908.99450659  1917.53369647
0.40200002 29096.05183937  2110.62770043
0.40300002 29281.52831549  2129.35283999
0.40400002 29466.56040178  2506.13108091
0.40500002 29651.07558588  2528.05082423
0.40600002 29835.00083558  2185.71226478
0.40700002 30018.03310223  2755.65556935
0.40800002 30200.26591587  2038.06504190
0.40900002 30380.75928188  2242.10014124
0.41000002 30561.03986082  2260.90583603
0.41100002 30739.77538995  3419.49277640
0.41200002 30916.70340070  2106.81885307
0.41300002 31092.70723644  2123.94293196
0.41400002 31267.21179632  2724.93763716
0.41500002 31440.59851179  2158.08278411
0.41600002 31611.33784686  2372.74713121
0.41700002 31781.15732319  1992.67865858
0.41800002 31950.27504927  2208.88237020
0.41900002 32115.52106140  2630.26129956
0.42000002 32279.69046922  2242.30880470
0.42100002 32442.56950472  3285.78359513
0.42200002 32603.35212471  2482.41934841
0.42300002 32761.44504719  2708.71640486
0.42400002 32917.67747473  2308.35224230
0.42500002 33072.12129507  2113.30865090
0.42600002 33223.05509154  2127.93677945
0.42700002 33372.99099388  2785.30996034
0.42800002 33520.02395609  2588.41637255
0.42900002 33665.44342137  2171.42120358
0.43000002 33808.36615277  3278.56646303
0.43100002 33947.44427883  2859.73284156
0.43200002 34084.99129516  2435.20231848
0.43300002 34219.58013252  3118.77268107
0.43400002 34351.96326892  2465.61228047
0.43500002 34481.36954871  2706.09801042
0.43600002 34609.02637243  3176.07050071
0.43700002 34732.90270650  2510.14699755
0.43800002 34853.47526883  3213.14203730
0.43900002 34972.31484086  2308.17288888
0.44000002 35087.58730361  3249.46161418
0.44100002 35200.73966386  2800.57098038
0.44200002 35310.80041230  2581.04307845
0.44300002 35418.18573654  2594.73641002
0.44400002 35521.94609195  2608.19901541
0.44500002 35622.06347194  2621.42777513
0.44600002 35720.09234300  3832.05168816
0.44700002 35815.33199427  2888.14850889
0.44800002 35906.40809138  2660.12636952
0.44900002 35995.85056791  2672.69203133
0.45000002 36081.84381389  2929.12421963
0.45100002 36163.53036812  3187.45371771
0.45200002 36243.02935133  2708.98535725
0.45300002 36318.89073454  3215.31154911
0.45400002 36392.15069010  2732.14084254
0.45500002 36462.14209788  2743.41170146
0.45600002 36528.61786492  3255.24793531
0.45700002 36592.01113952  3016.64554131
0.45800002 36651.48697055  3532.83699653
0.45900002 36708.16552495  3039.43624952
0.46000002 36762.38825373  3050.54312187
0.46100002 36812.09263170  3316.40158237
0.46200002 36859.33610776  3839.82152101
0.46300002 36903.01945304  2825.29530323
0.46400002 36942.97705124  3092.12732574
0.46500002 36980.58027203  3877.41402529
0.46600002 37014.19961253  2852.12928632
0.46700002 37044.45201327  3640.72891642
0.46800002 37072.22243022  3390.44026305
0.46900002 37095.83623286  3399.83355188
0.47000002 37116.00927192  4195.59388695
0.47100002 37133.47110093  3680.66982998
0.47200002 37147.32120176  3162.72307702
0.47300002 37158.56005638  3434.56586880
0.47400002 37165.10392513  2648.01378017
0.47500002 37169.50687189  3184.68349973
0.47600002 37170.91863428  2925.53728978
0.47700002 37168.08081955  3197.94182529
