# SAXS profile: number of points = 501, q_min = 0, q_max = 0.5, delta_q = 0.001
#    q    intensity    error
0.00000000 1646666.22097351 296.39991978
0.00100000 1646598.54475378 543.37753267
0.00200000 1646395.46860179 1111.31697650
0.00300000 1646057.16076747 1580.21493063
0.00400000 1645583.47812762 1727.86271769
0.00500000 1644974.87534556 1628.52519105
0.00600000 1644231.11406852 2417.01983608
0.00700000 1643352.81478112 2366.42815163
0.00800000 1642339.43760603 2438.87416781
0.00900000 1641192.29875640 2954.14626404
0.01000000 1639910.61892974 2976.43790188
0.01100000 1638495.56532201 2949.29214599
0.01200000 1636946.63913330 3192.04608626
0.01300000 1635265.24615611 3777.46288522
0.01400000 1633450.59807522 6247.94881462
0.01500000 1631504.35132881 5873.41592632
0.01600000 1629425.58582193 5817.04960143
0.01700000 1627216.27074396 10544.36190743
0.01800000 1624875.93528422 5557.07594873
0.01900000 1622405.34396124 4867.21625151
0.02000000 1619805.15434989 5612.62511371
0.02100000 1617076.92357184 5869.98949870
0.02200000 1614218.86280426 7796.67746157
0.02300000 1611233.79365156 7540.57449752
0.02400000 1608121.81355011 7839.59419852
0.02500000 1604883.95028605 6884.95246117
0.02600000 1601520.50446281 7134.77417371
0.02700000 1598032.48934375 9396.43146771
0.02800000 1594419.86403570 9016.44474461
0.02900000 1590684.98200844 7158.08274770
0.03000000 1586828.45505114 8854.50318619
0.03100000 1582850.09759164 8357.44889984
0.03200000 1578751.19522405 8596.30065392
0.03300000 1574534.47605232 8030.12619806
0.03400000 1570197.84628070 13189.66251733
0.03500000 1565744.66502641 8455.02158158
0.03600000 1561174.69530016 12996.77993900
0.03700000 1556489.77492209 11533.58976557
0.03800000 1551691.16981747 11800.61189259
0.03900000 1546779.98426703 12064.88443601
0.04000000 1541755.18722025 9481.79484078
0.04100000 1536620.75958004 13552.99572790
0.04200000 1531377.08051985 14816.07394139
0.04300000 1526024.01936059 15107.63849294
0.04400000 1520565.40704361 11290.19867164
0.04500000 1515000.55045860 14634.90599744
0.04600000 1509330.07949119 14897.08857710
0.04700000 1503557.14076270 10825.61191697
0.04800000 1497681.64106224 15411.14480358
0.04900000 1491706.70705507 14544.14107078
0.05000000 1485631.40603452 12501.58886393
0.05100000 1479459.26585083 16155.69593569
0.05200000 1473188.49393006 14054.21888704
0.05300000 1466824.69953475 14257.53674413
0.05400000 1460365.72127372 14457.62131482
0.05500000 1453815.76171983 18318.07945220
0.05600000 1447173.47068028 16085.33387722
0.05700000 1440443.54390717 13785.04535866
0.05800000 1433624.68878205 21568.88444983
0.05900000 1426718.67423101 19260.70300171
0.06000000 1419728.68035038 18186.72524495
0.06100000 1412655.89380434 14451.47046896
0.06200000 1405500.73311953 18594.77556836
0.06300000 1398266.32928238 16108.02886647
0.06400000 1390950.92491340 16274.12658257
0.06500000 1383560.81677330 13697.25272678
0.06600000 1376093.54353466 16595.68891152
0.06700000 1368552.11593477 15355.15545939
0.06800000 1360939.48593508 16902.86920652
0.06900000 1353256.56351128 18471.95295677
0.07000000 1345502.83945465 20061.44827572
0.07100000 1337682.96711730 17336.37206584
0.07200000 1329796.00188057 20385.77366384
0.07300000 1321846.71327659 22008.74880729
0.07400000 1313833.78653429 19214.82002855
0.07500000 1305760.54529173 16374.23800546
0.07600000 1297626.39971987 17985.10274327
0.07700000 1289436.89655938 15086.41239712
0.07800000 1281190.55832098 16700.31971090
0.07900000 1272889.37169486 16802.14049446
0.08000000 1264536.80752383 15364.12293216
0.08100000 1256133.35878403 18540.52924554
0.08200000 1247680.01163689 20193.70193594
0.08300000 1239179.32690022 20297.75832724
0.08400000 1230632.43117152 21966.78992750
0.08500000 1222042.85461260 18917.22427748
0.08600000 1213410.17532105 22169.00494398
0.08700000 1204737.26001556 20673.29235264
0.08800000 1196023.19046245 19160.29241105
0.08900000 1187274.28472907 19233.84431602
0.09000000 1178488.60698679 30564.10345797
0.09100000 1169669.30702277 20983.86835384
0.09200000 1160816.96817981 17812.73721368
0.09300000 1151935.10626144 19490.74291386
0.09400000 1143022.11491020 26060.90544475
0.09500000 1134082.32277404 17963.86483709
0.09600000 1125116.83878817 22918.63108347
0.09700000 1116128.10902900 19688.50076888
0.09800000 1107117.42934964 24661.04189827
0.09900000 1098086.52552608 19765.55838889
0.10000000 1089034.87868604 21448.54294439
0.10100000 1079965.37474393 23132.85941499
0.10200000 1070880.49563330 19854.12532291
0.10300000 1061780.77876569 19876.53711350
0.10400000 1052669.16242492 19895.44810581
0.10500000 1043548.03706374 24888.62185496
0.10600001 1034413.65161806 21583.04185657
0.10700001 1025274.18053503 16609.44250627
0.10800001 1016126.48730994 23259.13638914
0.10900001 1006974.59722281 24922.62245426
0.11000001 997818.91872580 19936.42293454
0.11100001 988661.29590014 19931.41266359
0.11200001 979504.37771888 16602.59998394
0.11300001 970347.04186207 19911.52223646
0.11400001 961193.25276802 19896.70126912
0.11500001 952043.88542791 18222.12082513
0.11600001 942899.43838035 23167.04029198
0.11700001 933763.12039915 18180.36881037
0.11800001 924632.90523317 21456.10757648
0.11900001 915513.28247886 18127.16384690
0.12000001 906404.63735533 26321.99190869
0.12100001 897309.86125085 19704.92548133
0.12200001 888227.68660758 21304.14206695
0.12300001 879161.44790481 21258.12481190
0.12400001 870111.03742413 17946.04099244
0.12500001 861078.69200991 24411.58206877
0.12600001 852066.77846486 19478.24747359
0.12700001 843075.13725181 19424.45207769
0.12800001 834103.93409777 17753.90307400
0.12900001 825156.58864233 20917.72050798
0.13000001 816233.05397441 16038.98026659
0.13100001 807334.50238555 15985.22390074
0.13200001 798463.04618546 19115.20622678
0.13300001 789620.59705046 19045.64969873
0.13400001 780805.65969265 18973.57842505
0.13500001 772021.50957632 15749.23953791
0.13600001 763267.70510542 18822.18249538
0.13700001 754546.70468854 23428.67628532
0.13800001 745857.97111415 15551.13943106
0.13900001 737206.23697783 20125.73121859
0.14000001 728588.25204841 21573.49916057
0.14100001 720007.23259294 16869.77025528
0.14200001 711462.58786711 21365.22252135
0.14300001 702959.11543271 18220.70113144
0.14400001 694491.09755566 19636.73670965
0.14500001 686066.98213742 16527.35437932
0.14600001 677681.78861682 17931.46097271
0.14700001 669342.13452763 20803.15452254
0.14800001 661042.90855939 25116.32649567
0.14900001 652787.23465573 23500.34155637
0.15000001 644576.99470897 17519.60354282
0.15100001 636412.64456679 21765.31347118
0.15200001 628295.54766290 17303.26019913
0.15300001 620225.63322556 17192.65536432
0.15400001 612201.69606633 15657.05911577
0.15500001 604228.16345365 15552.83366128
0.15600001 596302.08508425 15447.20624314
0.15700001 588430.20979533 19524.11528249
0.15800001 580604.08781629 16616.88977760
0.15900001 572832.60685526 15122.78153478
0.16000001 565110.91530311 15012.17217364
0.16100001 557445.12826314 18964.28415871
0.16200001 549830.10654197 13443.34673956
0.16300001 542270.30716679 13339.85018605
0.16400001 534764.65024614 17206.05343396
0.16500001 527314.16976448 18382.17282584
0.16600001 519919.23938971 19535.96634242
0.16700001 512579.66641739 15500.40984431
0.16800001 505295.57374945 14090.16773929
0.16900001 498070.55713831 13970.87978741
0.17000001 490902.21628308 15109.97093068
0.17100001 483791.47795400 13730.00279268
0.17200001 476739.18963341 16082.79732176
0.17300001 469745.56211511 15938.46767525
0.17400001 462811.52713813 15793.44410945
0.17500001 455936.23786879 13240.38897302
0.17600001 449118.68013969 13116.51167296
0.17700001 442363.76257481 15354.44692417
0.17800001 435667.91412274 14037.22085604
0.17900001 429032.53881490 11583.87909515
0.18000001 422458.69305428 14910.68027566
0.18100001 415946.84569558 13626.41930865
0.18200001 409493.39353316 13488.71302016
0.18300001 403103.94408780 15575.93713535
0.18400001 396774.65561081 19818.89498402
0.18500001 390507.94817760 13074.20672264
0.18600001 384303.05361581 15091.58162847
0.18700001 378159.80866177 13863.33924051
0.18800001 372078.61734105 15822.64394999
0.18900001 366061.57286343 13562.58191539
0.19000001 360102.85041245 16507.11544285
0.19100001 354211.52216343 10201.29232032
0.19200001 348378.95718340 10085.57128702
0.19300001 342611.40834483 12960.99019013
0.19400001 336905.46918380 9854.48543929
0.19500001 331262.77278295 12660.86377405
0.19600001 325681.26656148 10586.27006985
0.19700001 320163.29559579 10459.73536142
0.19800001 314707.84001876 13151.64125591
0.19900001 309315.49261873 12063.30478224
0.20000001 303983.85963248 12831.15932150
0.20100001 298716.34946828 9051.10581667
0.20200001 293509.84308480 11618.58768765
0.20300001 288366.21164403 12353.60909072
0.20400001 283284.63397323 8711.00290641
0.20500001 278264.15139254 12037.70775823
0.20600001 273306.12312077 10183.38662883
0.20700001 268409.59242877 11724.13155148
0.20800001 263574.37537461 9089.36276445
0.20900001 258802.61381157 9782.73926452
0.21000001 254089.56368884 9650.32208510
0.21100001 249437.58124103 9518.53855013
0.21200001 244846.27718733 10169.69060374
0.21300001 240315.52461083 8485.54157517
0.21400001 235845.97231207 10648.44615331
0.21500001 231436.78900569 14247.24940477
0.21600001 227085.81739545 9609.13681739
0.21700001 222795.31754930 8742.48867398
0.21800001 218564.01902279 10051.75971011
0.21900001 214390.59978915 9904.84617858
0.22000001 210275.72697122 7667.70474655
0.22100001 206221.36607943 7553.88899666
0.22200001 202224.17675716 8793.71874209
0.22300001 198284.21893121 6662.35007112
0.22400001 194400.53753155 6561.01845194
0.22500001 190577.02910361 6460.56159211
0.22600001 186808.12535508 6996.89866605
0.22700001 183096.85105556 7514.29512266
0.22800001 179440.93085145 8012.93514610
0.22900001 175840.46951689 7279.79578227
0.23000001 172295.30687694 8358.04573187
0.23100001 168806.93457678 7049.37792131
0.23200001 165371.10839824 8091.60871661
0.23300001 161990.67730910 7391.63495520
0.23400001 158663.95650882 7270.77615089
0.23500001 155389.69176024 6600.95441817
0.23600001 152169.14263710 9196.34257023
0.23700001 149001.28600834 9042.88847556
0.23800001 145885.41351397 5229.99232185
0.23900001 142821.60697765 7712.36714158
0.24000001 139808.78240354 6570.31403983
0.24100001 136848.30140968 5464.35293376
0.24200001 133937.51132615 5370.22477064
0.24300001 131077.07084031 7675.87363150
0.24400001 128265.54065241 5656.51061034
0.24500001 125503.85844829 4631.09259581
0.24600001 122791.23437802 5004.35699381
0.24700001 120127.23955924 6256.22693220
0.24800001 117510.33290791 5266.81337009
0.24900001 114940.82447700 4310.28112180
0.25000001 112418.97646328 4232.57466408
0.25100001 109942.84825399 4155.83986061
0.25200001 107514.04127600 5712.22128324
0.25300001 105131.11873819 4406.04539477
0.25400001 102792.25314320 5504.52541624
0.25500001 100498.61534350 4245.06171295
0.25600001 98249.29411619  4166.26151411
0.25700001 96043.71076129  5575.33767348
0.25800001 93881.35554965  4012.01991924
0.25900001 91762.34509533  4294.47795365
0.26000001 89686.07430805  3511.20997529
0.26100001 87649.79512868  3789.10082270
0.26200001 85657.47630242  4055.02512003
0.26300001 83704.62140566  3646.17348096
0.26400001 81792.28996397  3576.36804790
0.26500001 79920.98898612  3188.84761144
0.26600001 78088.08657690  5316.62762617
0.26700001 76295.73956506  3680.50665078
0.26800001 74541.54092312  3308.52645044
0.26900001 72825.01249100  3244.35446000
0.27000001 71147.01248916  3470.55143346
0.27100001 69505.98444898  3403.01315966
0.27200001 67902.13437999  2780.59253445
0.27300001 66334.12693200  3544.23256970
0.27400001 64801.01415831  3474.95454869
0.27500001 63305.36609539  2882.92650842
0.27600001 61842.71592681  3083.47796204
0.27700001 60416.32954436  4786.78601634
0.27800001 59022.53080775  2717.10233433
0.27900001 57663.32995211  3148.41796439
0.28000001 56336.55663621  2374.58597460
0.28100001 55042.41580829  2328.29429889
0.28200001 53781.01457950  2967.90543004
0.28300001 52551.14622383  2686.41472211
0.28400001 51352.85979935  2414.86834636
0.28500001 50185.52977238  3229.43899371
0.28600001 49047.81907012  2111.50871091
0.28700001 47940.69207021  2485.24559455
0.28800001 46862.43791706  2031.48677986
0.28900001 45814.51416206  2391.51775246
0.29000001 44794.20348280  2346.32048949
0.29100001 43803.15050435  2877.86712436
0.29200001 42839.16423830  2071.05949314
0.29300001 41902.71163968  2587.07353910
0.29400001 40992.95849491  2539.51389897
0.29500001 40111.00606739  1780.92875370
0.29600001 39253.74551554  2098.50533460
0.29700001 38422.15460640  1889.21743143
0.29800001 37616.36932990  2024.51309317
0.29900001 36835.50553351  1823.35761023
0.30000001 36078.78418708  1628.95718316
0.30100001 35346.93788894  1921.45963461
0.30200001 34637.49895538  1731.70184225
0.30300001 33951.95062835  1548.20902195
0.30400001 33289.90272475  1827.61574611
0.30500001 32649.12035588  2098.03257339
0.30600001 32030.68269024  1917.51691003
0.30700001 31434.44693561  1742.72582062
0.30800001 30859.19809163  1573.35628919
0.30900001 30304.76182699  1409.17149167
0.31000001 29771.73276994  1805.50681931
0.31100001 29257.13413426  1369.23394231
0.31200001 28763.66476952  1890.63577481
0.31300001 28288.72319875  1865.35849604
0.31400001 27834.34397439  1315.17281506
0.31500001 27397.87529997  1558.39122085
0.31600002 26979.53617168  1539.45240685
0.31700002 26579.05933082  1521.38542813
0.31800002 26196.46666979  1629.55128635
0.31900002 25831.43729241  1239.90904874
0.32000002 25482.93415234  1349.70367129
0.32100002 25151.58215233  1457.78577057
0.32200002 24836.62266581  1444.00131016
0.32300002 24536.91622450  1311.74360347
0.32400002 24253.10633682  1773.50848486
0.32500002 23984.05633541  1407.38449240
0.32600002 23730.68714250  1280.38928540
0.32700002 23491.55648844  1271.36309736
0.32800002 23267.61281141  1263.08242128
0.32900002 23056.39996575  1141.29185235
0.33000002 22860.47620655  1362.02723688
0.33100002 22675.69908048  1468.02482799
0.33200002 22506.25525326  1686.28125470
0.33300002 22348.56343394  1455.56200538
0.33400002 22203.99902703  1562.05140552
0.33500002 22071.04699675  1334.85698558
0.33600002 21950.13751795  1220.53745449
0.33700002 21840.11223695  1107.29374285
0.33800002 21742.79798264  1216.18346275
0.33900002 21655.28104663  1767.07101709
0.34000002 21579.42532250  1103.78765752
0.34100002 21513.84190633  1324.39217048
0.34200002 21459.39519828  1545.72030934
0.34300002 21413.58432626  1325.92920428
0.34400002 21378.30137813  1106.32714871
0.34500002 21352.09151630  1773.07776349
0.34600002 21336.39262651  1110.55928881
0.34700002 21327.49949452  1558.61373688
0.34800002 21328.96193542  1451.54257326
0.34900002 21338.48981198  1680.40615228
0.35000002 21356.24581773  1461.72831423
0.35100002 21382.14747141  1467.67067195
0.35200002 21415.14634202  1814.29128403
0.35300002 21455.93605005  1367.17230986
0.35400002 21504.52795681  1259.62778473
0.35500002 21559.88198097  1151.29775231
0.35600002 21621.59452829  1505.18737438
0.35700002 21690.22546529  1281.24167892
0.35800002 21765.71955915  1992.54289142
0.35900002 21847.05352387  1651.63732463
0.36000002 21935.10051707  1187.78574926
0.36100002 22027.92008297  1674.56256403
0.36200002 22127.66944417  1566.30715580
0.36300002 22230.95954730  1699.33462829
0.36400002 22340.32340312  1957.01242281
0.36500002 22454.24852499  1232.73830241
0.36600002 22573.45830820  1739.73651422
0.36700002 22696.82967111  1503.43806863
0.36800002 22825.98474617  1642.44381021
0.36900002 22958.49923831  1274.19676808
0.37000002 23094.09522689  1413.70510628
0.37100002 23234.22996530  1685.41112152
0.37200002 23378.35956127  1700.42506324
0.37300002 23525.37408786  1847.68296839
0.37400002 23676.83316255  1731.36850703
0.37500002 23830.42052685  2016.05367207
0.37600002 23988.04775696  1356.52416492
0.37700002 24147.36170358  1642.98656814
0.37800002 24310.34229827  2349.47314272
0.37900002 24475.53388138  1534.61604706
0.38000002 24643.34951603  1408.36749156
0.38100002 24812.91222637  1421.77993793
0.38200002 24984.86268031  2009.53260058
0.38300002 25158.53706810  1594.04498415
0.38400002 25334.62041614  1755.68927801
0.38500002 25511.23375491  1624.81055482
0.38600002 25690.72798316  1640.48151308
0.38700002 25870.52163295  1656.23087341
0.38800002 26051.63185277  2280.16918594
0.38900002 26234.02289724  1688.15945342
0.39000002 26418.09781896  1704.36366154
0.39100002 26602.13210620  1877.04653034
0.39200002 26787.44116191  2052.85565070
0.39300002 26973.11164637  1912.93316859
0.39400002 27160.10260431  1931.08338666
0.39500002 27346.61929935  1786.82818968
0.39600002 27533.46376750  1803.57962954
0.39700002 27720.08361963  2316.84469870
0.39800002 27907.85661923  1837.31382758
0.39900002 28094.77065408  1854.25495102
0.40000002 28281.49443277  2381.58475902
0.40100002 28467.82037177  2231.59254467
0.40200002 28654.98214770  2078.63250348
0.40300002 28840.56640853  1922.51224788
0.40400002 29025.63397473  2997.62249077
0.40500002 29210.28554392  1956.79712130
0.40600002 29394.27821210  1973.97284686
0.40700002 29577.45147938  1810.14011630
0.40800002 29759.91879025  2738.65665643
0.40900002 29940.54530192  1841.34362331
0.41000002 30120.95583661  2785.43552297
0.41100002 30299.91453635  2247.04176849
0.41200002 30477.12528676  2265.66960117
0.41300002 30653.37239342  1903.57451583
0.41400002 30828.18485847  2686.67643772
0.41500002 31001.96227708  2127.97479153
0.41600002 31172.96429724  1949.86900918
0.41700002 31343.18129848  2554.78282869
0.41800002 31512.63841257  2178.62635989
0.41900002 31678.33258134  2195.30855191
0.42000002 31842.96724572  3217.41356296
0.42100002 32006.33744973  2431.20150788
0.42200002 32167.61376632  2245.13870921
0.42300002 32326.30421904  2261.54835033
0.42400002 32483.15263101  2070.80107835
0.42500002 32638.20446000  2085.58136382
0.42600002 32789.84461892  3150.28447104
0.42700002 32940.47895162  2326.25673380
0.42800002 33088.26884212  2342.15322098
0.42900002 33234.45844257  2572.34720535
0.43000002 33378.19235508  2157.90023801
0.43100002 33518.10694286  2389.17077610
0.43200002 33656.55797179  3716.18902456
0.43300002 33792.15877706  2859.83053282
0.43400002 33925.53565906  3320.46195998
0.43500002 34055.99975919  3118.16748572
0.43600002 34184.69842490  2240.80708794
0.43700002 34309.74469578  2479.56536667
0.43800002 34431.41549065  3400.96322626
0.43900002 34551.53492977  2508.44155477
0.44000002 34668.03790560  2981.27806097
0.44100002 34782.56441130  2997.90936868
0.44200002 34893.93797075  3246.18320326
0.44300002 35002.72473388  2564.29973553
0.44400002 35107.98014578  2577.80356437
0.44500002 35209.64280091  2826.63025801
0.44600002 35309.18627526  3077.72536754
0.44700002 35405.99041538  2617.21093554
0.44800002 35498.81362956  4303.52138026
0.44900002 35589.90878327  2402.31895672
0.45000002 35677.65157607  2896.31189221
0.45100002 35761.14497099  4121.82976470
0.45200002 35842.49927706  2922.59752956
0.45300002 35920.34709015  3180.02847860
0.45400002 35995.51449854  3439.37157334
0.45500002 36067.56401397  2467.02149548
0.45600002 36136.06348065  2972.55272280
0.45700002 36201.59131769  4227.98405037
0.45800002 36263.28959000  2496.72760660
0.45900002 36322.21046261  2756.85590477
0.46000002 36378.70226346  3270.26359497
0.46100002 36430.81082091  3282.05190241
0.46200002 36480.48712965  3040.28394148
0.46300002 36526.51456617  2796.47008772
0.46400002 36568.99688161  4336.16901075
0.46500002 36609.20637225  2814.88201138
0.46600002 36645.36140435  2823.70845684
0.46700002 36678.33003982  2832.30077991
0.46800002 36708.82981196  3357.20618957
0.46900002 36735.23323214  3625.76769186
0.47000002 36758.29612108  2856.67111845
0.47100002 36778.60971835  4166.28110636
0.47200002 36795.39914146  2610.63369282
0.47300002 36809.58364891  4187.45843437
0.47400002 36819.21408478  3410.37986625
0.47500002 36826.75264501  3155.31631618
0.47600002 36831.27848018  3425.86153021
0.47700002 36831.66877080  3168.99693124
