# SAXS profile: number of points = 501, q_min = 0, q_max = 0.5, delta_q = 0.001
#    q    intensity    error
0.00000000 1646666.22097351 321.09991309
0.00100000 1646598.55298417 592.77549315
0.00200000 1646395.50097295 740.87799890
0.00300000 1646057.23943259 1086.39781673
0.00400000 1645583.61036256 1604.44408107
0.00500000 1644975.08315958 1480.47763344
0.00600000 1644231.41743804 2071.73167032
0.00700000 1643353.22129536 3155.23831602
0.00800000 1642339.97434602 2882.30677667
0.00900000 1641192.97475437 2954.14748084
0.01000000 1639911.43992307 2976.43939198
0.01100000 1638496.57301788 4718.87033575
0.01200000 1636947.83931509 5107.27748259
0.01300000 1635266.66201333 4120.87217002
0.01400000 1633452.23908998 5512.90155132
0.01500000 1631506.22902930 5873.42268604
0.01600000 1629427.70765119 6232.56126038
0.01700000 1627218.68888411 4832.83972278
0.01800000 1624878.64621707 6946.35652515
0.01900000 1622408.34080127 6327.39281463
0.02000000 1619808.46157050 5612.63657323
0.02100000 1617080.59076396 5870.00281061
0.02200000 1614222.85799728 7239.78984704
0.02300000 1611238.17227312 6960.54922105
0.02400000 1608126.57350022 6633.52241816
0.02500000 1604889.12400539 9388.60180421
0.02600000 1601526.08430948 6486.18093812
0.02700000 1598038.51525605 10738.81931437
0.02800000 1594426.31352875 8322.90573831
0.02900000 1590691.91809518 10021.35954412
0.03000000 1586835.86796095 8116.66583771
0.03100000 1582858.03381926 9117.26269431
0.03200000 1578759.63615635 10940.80478248
0.03300000 1574543.43956933 8030.17191200
0.03400000 1570207.29307090 9067.94753588
0.03500000 1565754.73142351 11837.10631618
0.03600000 1561185.31852420 10397.49470188
0.03700000 1556500.97515440 16856.90634051
0.03800000 1551702.99157642 14523.94067332
0.03900000 1546792.42923986 9280.75500523
0.04000000 1541768.27898552 10430.06289066
0.04100000 1536634.48309781 14521.19653857
0.04200000 1531391.44551646 14816.21292274
0.04300000 1526039.07027115 12086.22999757
0.04400000 1520581.15691761 22580.63122892
0.04500000 1515017.04570349 14635.06534151
0.04600000 1509347.25746019 15961.34798963
0.04700000 1503575.07962361 10825.74107677
0.04800000 1497700.30113020 14310.52704314
0.04900000 1491726.14462503 20138.30388983
0.05000000 1485651.62036130 13638.28251000
0.05100000 1479480.29759304 12693.94154468
0.05200000 1473210.27979545 18739.23563227
0.05300000 1466847.27141001 13069.60979754
0.05400000 1460389.18304037 13253.03245413
0.05500000 1453840.06108646 14654.70849938
0.05600000 1447198.62544297 16085.61347242
0.05700000 1440469.58040689 16291.71171488
0.05800000 1433651.57965791 17762.94390136
0.05900000 1426746.45494930 14124.79056371
0.06000000 1419757.41766846 15588.93717430
0.06100000 1412685.57436410 15765.57174665
0.06200000 1405531.24194520 13282.27085724
0.06300000 1398297.84174728 16108.39189008
0.06400000 1390983.35063073 14918.29713319
0.06500000 1383594.24004942 19176.61706412
0.06600000 1376127.92588824 17979.11219295
0.06700000 1368587.45679303 15355.55198384
0.06800000 1360975.84403026 16903.32077408
0.06900000 1353293.93820655 17051.50441974
0.07000000 1345541.22916724 14330.01476168
0.07100000 1337722.37829548 15892.14259850
0.07200000 1329836.43326493 17474.05155170
0.07300000 1321888.20414562 19074.84767958
0.07400000 1313876.37360844 14781.10989580
0.07500000 1305804.23706750 19352.01970042
0.07600000 1297671.16473619 23980.96424857
0.07700000 1289482.75436492 16595.64382682
0.07800000 1281237.50116068 16700.93161084
0.07900000 1272937.42338276 16802.77477677
0.08000000 1264585.92947467 18437.66371667
0.08100000 1256183.64836988 18541.27151986
0.08200000 1247731.50828201 20194.53540918
0.08300000 1239231.93461586 20298.62004166
0.08400000 1230686.18870754 21967.74949957
0.08500000 1222097.80314148 17341.56864068
0.08600000 1213466.24114268 20586.45574755
0.08700000 1204794.48095523 17493.61668493
0.08800000 1196081.58673358 15967.68993280
0.08900000 1187333.92439569 25646.41397155
0.09000000 1178549.41572043 19304.64033635
0.09100000 1169731.34406182 16142.29330644
0.09200000 1160880.17236625 22671.99083160
0.09300000 1151999.57519581 19491.83372828
0.09400000 1143087.75161947 21175.70159396
0.09500000 1134149.17049134 24497.62323407
0.09600000 1125184.96166327 18008.58615796
0.09700000 1116197.45133083 22971.34462834
0.09800000 1107188.04916367 18085.91763345
0.09900000 1098158.35028710 18119.61363177
0.10000000 1089107.89662033 19799.98249169
0.10100000 1080039.61090687 18177.06750646
0.10200000 1070956.04227869 28128.66177352
0.10300000 1061857.54376509 19877.97415436
0.10400000 1052747.26941188 26529.23243725
0.10500000 1043627.42209880 18253.04447130
0.10600001 1034494.27893471 19924.36074979
0.10700001 1025356.08237092 19932.92317929
0.10800001 1016209.65586615 24922.54298301
0.10900001 1007059.08533165 19939.77082805
0.11000001 997904.66201069 16615.11340454
0.11100001 988748.20718132 19933.16479510
0.11200001 979592.57665705 18264.50445161
0.11300001 970436.46371401 19913.35717295
0.11400001 961284.01939673 19898.58013843
0.11500001 952135.99230566 19880.60045548
0.11600001 942992.73959250 23169.33270287
0.11700001 933857.71545263 19835.13881035
0.11800001 924728.84462497 19807.69278478
0.11900001 915610.42330159 24721.48259357
0.12000001 906503.00801674 18098.33340757
0.12100001 897409.53492173 19707.11431525
0.12200001 888328.51199551 16389.66181846
0.12300001 879263.63780261 17989.73487702
0.12400001 870214.50116958 19579.82719887
0.12500001 861183.39924575 21159.27711650
0.12600001 852172.71986770 22727.44750987
0.12700001 843182.30988648 21045.83144658
0.12800001 834212.39181191 16142.01054232
0.12900001 825266.19931259 28966.84496114
0.13000001 816344.03054042 17645.27705184
0.13100001 807446.51110308 19184.93000814
0.13200001 798576.34840350 22304.23846234
0.13300001 789735.13488928 19048.41235153
0.13400001 780921.44977214 17395.02611377
0.13500001 772138.52464886 17326.78931005
0.13600001 763385.85035540 25100.12794318
0.13700001 754666.07859185 20308.06513250
0.13800001 745978.52157006 21775.11407145
0.13900001 737328.05842384 20129.05694422
0.14000001 728711.11003139 23118.36105602
0.14100001 720131.27017982 16872.67645608
0.14200001 711587.72619356 16789.91319144
0.14300001 703085.44136794 16705.31087485
0.14400001 694618.54951900 16618.74958115
0.14500001 686195.51793466 16530.45080682
0.14600001 677811.47337012 20924.04117001
0.14700001 669472.91449654 19320.98922387
0.14800001 661174.79087326 20688.16018246
0.14900001 652920.15547185 24974.19712510
0.15000001 644711.02291992 20443.78750139
0.15100001 636547.79786844 18867.27761907
0.15200001 628431.56553376 18749.25664242
0.15300001 620362.74721917 18629.49417810
0.15400001 612339.85124721 14236.90221335
0.15500001 604367.25557636 16970.63333748
0.15600001 596442.11183240 16855.45487588
0.15700001 588571.30501251 15344.05464587
0.15800001 580746.08181161 18006.03311643
0.15900001 572975.54223192 19251.97912770
0.16000001 565254.83251637 17746.17630451
0.16100001 557589.83952608 21679.09398412
0.16200001 549975.78934408 16136.29042109
0.16300001 542416.84720519 14677.80057828
0.16400001 534912.03890598 18534.70302311
0.16500001 527462.38736689 18387.33969170
0.16600001 520068.30728134 22147.10991121
0.16700001 512729.53083239 14212.86326573
0.16800001 505446.21001791 14094.36823183
0.16900001 498222.04653870 16516.06162261
0.17000001 491054.36696508 13855.09961815
0.17100001 483944.44628964 16231.49749503
0.17200001 476892.82084363 18563.05392794
0.17300001 469899.85758922 17170.14160716
0.17400001 462966.51532643 13368.15876138
0.17500001 456091.90141489 15653.07479582
0.17600001 449274.94019075 11928.25022542
0.17700001 442520.70003644 11815.30324902
0.17800001 435825.40726810 14042.29528543
0.17900001 429190.66421494 12746.96332927
0.18000001 422617.29263992 11474.06003715
0.18100001 416105.95062601 13631.63158642
0.18200001 409653.02617462 13493.97131962
0.18300001 403264.13880177 11130.09075671
0.18400001 396935.29548330 15420.93695802
0.18500001 390669.01772738 14169.56594237
0.18600001 384464.49962767 14019.49864125
0.18700001 378321.61235733 11735.53696977
0.18800001 372240.76655374 11608.32885343
0.18900001 366224.12292259 13568.60439536
0.19000001 360265.73112586 15482.42052666
0.19100001 354374.65910709 10205.99066452
0.19200001 348542.26998873 11099.32911225
0.19300001 342775.11587341 14962.13451487
0.19400001 337069.25860802 12817.05916423
0.19500001 331426.91657801 12667.13735020
0.19600001 325845.50263570 13480.22908107
0.19700001 320327.66868628 11416.47865149
0.19800001 314872.32649020 11278.72726790
0.19900001 309480.08121180 11141.28345016
0.20000001 304148.49440068 13755.11630935
0.20100001 298881.06220791 11772.92559679
0.20200001 293674.51122734 10730.86714742
0.20300001 288530.84184222 9711.94859544
0.20400001 283449.23891178 8716.06450851
0.20500001 278428.71516140 9463.79247566
0.20600001 273470.57498195 11887.76645638
0.20700001 268573.89501914 9217.45651276
0.20800001 263738.47287393 11575.48212161
0.20900001 258966.53126198 8157.44612037
0.21000001 254253.24570835 8851.82716778
0.21100001 249601.14063515 7937.31664742
0.21200001 245009.50020772 10176.47007221
0.21300001 240478.50563031 10035.16851437
0.21400001 236008.47215003 12939.16509734
0.21500001 231598.95053497 9754.94825772
0.21600001 227247.57524606 8136.59981637
0.21700001 222956.76311400 10206.96109794
0.21800001 218724.96543304 9340.65009045
0.21900001 214551.09016974 14868.39125176
0.22000001 210435.64950760 9068.72474432
0.22100001 206380.75129297 8246.97521161
0.22200001 202383.05387830 7446.68481956
0.22300001 198442.57259749 7334.43783001
0.22400001 194558.19819034 6566.33949942
0.22500001 190734.00530796 7112.47139426
0.22600001 186964.40579862 7639.36598218
0.22700001 183252.41822235 6267.23299958
0.22800001 179595.69713604 6786.02373720
0.22900001 175994.50658980 6071.81076449
0.23000001 172448.52286526 8365.47823981
0.23100001 168959.26610351 6467.76101232
0.23200001 165522.52505626 6363.51377674
0.23300001 162141.28225502 10813.20262499
0.23400001 158813.63736981 6157.99908026
0.23500001 155538.44512505 7157.87958320
0.23600001 152316.81662910 5956.34939600
0.23700001 149147.97513282 6389.49955690
0.23800001 146031.04243529 5758.73443082
0.23900001 142966.22696695 6176.14129710
0.24000001 139952.23900478 5565.20104726
0.24100001 136990.68019659 5470.03811899
0.24200001 134078.66083811 5375.88416059
0.24300001 131217.02083420 4802.54318971
0.24400001 128404.26859580 5190.74280353
0.24500001 125641.29202364 6954.24584247
0.24600001 122927.29343168 6376.23901193
0.24700001 120262.09650218 6263.25028212
0.24800001 117643.78669194 4833.39520489
0.24900001 115072.91619429 5609.80492986
0.25000001 112549.68623926 4237.49588738
0.25100001 110072.14268200 4576.79990924
0.25200001 107641.88313627 4493.51062411
0.25300001 105257.42286926 4812.36960126
0.25400001 102917.03832506 5904.86535327
0.25500001 100621.86910736 4250.26795218
0.25600001 98370.97400697  4929.86159560
0.25700001 96163.72184500  4465.84345378
0.25800001 93999.77729129  6208.21558494
0.25900001 91879.05689652  3941.61172736
0.26000001 89801.14897169  3867.28666345
0.26100001 87763.10883107  3793.99937428
0.26200001 85769.08487979  5075.38583791
0.26300001 83814.41735893  6306.19706048
0.26400001 81900.36952061  3581.09382674
0.26500001 80027.29202402  4470.32474399
0.26600001 78192.44747672  5323.73303837
0.26700001 76398.28135136  3378.33216122
0.26800001 74642.21404276  4517.72021872
0.26900001 72923.76426892  4134.77762971
0.27000001 71243.82386353  3475.27389252
0.27100001 69600.76841244  2839.71148561
0.27200001 67994.95777486  3619.71174844
0.27300001 66424.91861864  3276.07714131
0.27400001 64889.79044330  2944.37438071
0.27500001 63392.13911889  3674.20855721
0.27600001 61927.28974806  2573.07901081
0.27700001 60498.85319280  2775.08252729
0.27800001 59102.96203878  3462.84270974
0.27900001 57741.61795035  2910.17768243
0.28000001 56412.62195757  3091.12976646
0.28100001 55116.40318846  3497.13594782
0.28200001 53852.73361534  2514.65351519
0.28300001 52620.56144395  2689.96322833
0.28400001 51420.10780517  2857.67262653
0.28500001 50250.51849223  2586.89681442
0.28600001 49110.51547272  2114.20779117
0.28700001 48001.12784269  2073.64882096
0.28800001 46920.48030066  2237.40320904
0.28900001 45870.23392421  2394.42632418
0.29000001 44847.53391408  2153.35444281
0.29100001 43854.14625022  1920.81169668
0.29200001 42887.76745441  2450.39270950
0.29300001 41948.94107667  2774.92258358
0.29400001 41036.75485462  1815.87648827
0.29500001 40152.38796627  1782.76611009
0.29600001 39292.61951671  1925.53491057
0.29700001 38458.65190407  2234.83236794
0.29800001 37650.33788432  2026.34128086
0.29900001 36866.95025315  1824.91412392
0.30000001 36107.83939345  1793.29592837
0.30100001 35373.50933481  2083.14606334
0.30200001 34661.50067487  2047.97486433
0.30300001 33973.43486099  2168.86418420
0.30400001 33308.84719058  1676.26781422
0.30500001 32665.53923874  1799.21798645
0.30600001 32044.52978215  1918.34586623
0.30700001 31445.75495354  1598.07334240
0.30800001 30867.86075819  1573.79795527
0.30900001 30310.94603870  1973.24268054
0.31000001 29775.32054482  1527.92064610
0.31100001 29258.09556767  1916.99051235
0.31200001 28762.07291656  1890.53114231
0.31300001 28284.51812251  1465.42095331
0.31400001 27827.49430445  1577.81900177
0.31500001 27388.51333700  1687.68027173
0.31600002 26967.51276973  1538.76635150
0.31700002 26564.44577436  1520.54894812
0.31800002 26179.22685787  2004.28170314
0.31900002 25811.50295912  1486.74264084
0.32000002 25460.43150570  1593.69578556
0.32100002 25126.46243466  1820.41228959
0.32200002 24808.88895796  1562.58794501
0.32300002 24506.53506195  1548.32295853
0.32400002 24220.11002124  1180.73041944
0.32500002 23948.51889129  1639.51568093
0.32600002 23692.54650773  1510.75529960
0.32700002 23450.76626178  1730.66663207
0.32800002 23224.22321357  1260.72701685
0.32900002 23010.45462487  1252.91931365
0.33000002 22811.86380411  1245.87000066
0.33100002 22624.54096005  1352.04263180
0.33200002 22452.56974714  1457.95768557
0.33300002 22292.20162522  1563.57509604
0.33400002 22145.08154180  1224.06944019
0.33500002 22009.62311880  1109.28505772
0.33600002 21886.14253020  2102.05465886
0.33700002 21773.59529104  1655.88200030
0.33800002 21673.74972605  1542.95431607
0.33900002 21583.67978483  1320.92126539
0.34000002 21505.32424447  1429.99660336
0.34100002 21437.30964921  1209.70744079
0.34200002 21380.30210987  1210.01825521
0.34300002 21332.09499226  1871.25146134
0.34400002 21294.30459126  1101.98031479
0.34500002 21265.62495572  1655.52898121
0.34600002 21247.51610599  1327.11991883
0.34700002 21236.15488709  1330.23280513
0.34800002 21235.30841883  1111.66844838
0.34900002 21242.39062858  1561.31578515
0.35000002 21257.77795476  1343.06647479
0.35100002 21281.38320956  1348.38850402
0.35200002 21312.01481133  1354.16548525
0.35300002 21350.53328274  1247.08470811
0.35400002 21396.83844413  1367.25804134
0.35500002 21449.91172674  1489.05294260
0.35600002 21509.32117414  1382.18904412
0.35700002 21575.74660852  1622.06470686
0.35800002 21649.01513702  1632.11932849
0.35900002 21728.17423407  1642.65004990
0.36000002 21814.05344668  1299.35415510
0.36100002 21904.76488534  1308.37166857
0.36200002 22002.32919704  1677.23763414
0.36300002 22103.57160358  2172.33912010
0.36400002 22210.81257290  1580.85465976
0.36500002 22322.73645847  1225.51828962
0.36600002 22439.90860121  1358.84872971
0.36700002 22561.26318512  1245.38178681
0.36800002 22688.50452265  1632.55142026
0.36900002 22819.09966122  1266.46009119
0.37000002 22952.75355056  1660.51703427
0.37100002 23090.99140934  1417.32511984
0.37200002 23233.21945244  1429.88855893
0.37300002 23378.43427392  1836.14231485
0.37400002 23528.08080369  2117.52737264
0.37500002 23679.94565058  1335.54899796
0.37600002 23835.83024152  1482.70789041
0.37700002 23993.47757653  1496.47326734
0.37800002 24154.74584540  1373.19736636
0.37900002 24318.27335192  1940.59830541
0.38000002 24484.49767323  1539.21801914
0.38100002 24652.49803830  1412.58820451
0.38200002 24822.91666953  1711.29195627
0.38300002 24995.04431689  1727.65754503
0.38400002 25169.59480254  1744.25300245
0.38500002 25344.78659641  1614.20953480
0.38600002 25522.86422322  1777.92280602
0.38700002 25701.31444897  2094.14320051
0.38800002 25881.08881547  1812.19392471
0.38900002 26062.13666354  1677.09857375
0.39000002 26244.96238048  1847.12053985
0.39100002 26427.72447114  2020.13535428
0.39200002 26611.82499602  1568.76715784
0.39300002 26796.39487308  1742.03371323
0.39400002 26982.26450973  2238.17894712
0.39500002 27167.66873570  2420.63939904
0.39600002 27353.47335188  2280.45918139
0.39700002 27539.05451370  2794.93877501
0.39800002 27725.85775937  2323.14973173
0.39900002 27911.83180541  2009.65198520
0.40000002 28097.67333134  2535.11269643
0.40100002 28283.10089111  1876.01817099
0.40200002 28469.48131839  1893.07824996
0.40300002 28654.25182638  2257.38206584
0.40400002 28838.63159630  2627.92042872
0.40500002 29022.51569341  1944.21841842
0.40600002 29205.87931439  2139.62281995
0.40700002 29388.38177197  2338.13976456
0.40800002 29570.33385339  2176.96808143
0.40900002 29750.33069754  2195.57450951
0.41000002 29930.29835323  2398.76387518
0.41100002 30108.76232233  2791.08239953
0.41200002 30285.52282819  2251.42587373
0.41300002 30461.45653456  1891.65654043
0.41400002 30635.85493737  3051.33129634
0.41500002 30809.41181582  2307.00886608
0.41600002 30980.13906594  2325.36934847
0.41700002 31150.09336382  2734.35532504
0.41800002 31319.40968554  2952.63748801
0.41900002 31484.94554562  2181.90682970
0.42000002 31649.43010198  2598.26008734
0.42100002 31812.80266340  2416.50060482
0.42200002 31974.07238797  2231.63048806
0.42300002 32132.74801040  2248.00715733
0.42400002 32289.68422562  2881.85445370
0.42500002 32444.80021059  2902.51196438
0.42600002 32596.61984427  2296.59495995
0.42700002 32747.41958672  2522.86132451
0.42800002 32895.46406189  3175.23481904
0.42900002 33041.94616635  2131.20562872
0.43000002 33185.97495154  3218.21007343
0.43100002 33326.20045122  2591.44546989
0.43200002 33465.07196587  2608.26783262
0.43300002 33601.11755615  2187.43285656
0.43400002 33734.93854068  3742.04823495
0.43500002 33865.93376254  2879.28182494
0.43600002 33995.16113284  3119.73608500
0.43700002 34120.76962068  3362.60200547
0.43800002 34243.13854470  2705.89293603
0.43900002 34363.89301154  2494.81875087
0.44000002 34481.11143476  2737.11075540
0.44100002 34596.33400967  2293.73705354
0.44200002 34708.52616425  2306.38167291
0.44300002 34818.10678966  2782.66322650
0.44400002 34924.26925047  2564.31459124
0.44500002 35026.81952806  2577.62377123
0.44600002 35127.29809875  2355.28544914
0.44700002 35225.02493485  2840.54614536
0.44800002 35318.86331667  2378.72555711
0.44900002 35411.05108697  2868.29527398
0.45000002 35499.89441007  2881.88156479
0.45100002 35584.44090796  2653.88772869
0.45200002 35666.98485150  2665.92890907
0.45300002 35745.96633769  2434.30042296
0.45400002 35822.41751508  2444.88011127
0.45500002 35895.73754049  3437.37598979
0.45600002 35965.54645729  2465.43832649
0.45700002 36032.37782110  3465.59426308
0.45800002 36095.43391097  3976.27318808
0.45900002 36155.71313369  2993.69318935
0.46000002 36213.64580509  3505.84321655
0.46100002 36267.24219643  4021.31200533
0.46200002 36318.40764992  4792.39570858
0.46300002 36365.97036541  2784.17882313
0.46400002 36410.00350293  2793.55765116
0.46500002 36451.77280786  3821.96856005
0.46600002 36489.58803783  2811.70533952
0.46700002 36524.20791661  2563.99951727
0.46800002 36556.36857475  3343.26284646
0.46900002 36584.50700384  3610.89101242
0.47000002 36609.31113579  3103.73754520
0.47100002 36631.33842204  4408.94810145
0.47200002 36649.94652594  2600.31382926
0.47300002 36665.91215463  3649.72506886
0.47400002 36677.38705597  3397.24313708
0.47500002 36686.76564519  3667.20926771
0.47600002 36693.24939979  3413.02275469
0.47700002 36695.55071012  3420.39244381
