# SAXS profile: number of points = 501, q_min = 0, q_max = 0.5, delta_q = 0.001
#    q    intensity    error
0.00000000 1628779.37420970 317.61197797
0.00100000 1628712.27282783 586.33643214
0.00200000 1628510.92059769 1172.52789996
0.00300000 1628175.48998397 1074.59586167
0.00400000 1627705.81884494 1709.09117473
0.00500000 1627102.37977376 1903.70985969
0.00600000 1626364.94649797 2732.29322135
0.00700000 1625494.09662864 2925.88949553
0.00800000 1624489.31414334 3070.28493336
0.00900000 1623351.92581250 2922.03359137
0.01000000 1622081.13352099 3479.36418164
0.01100000 1620678.11335478 3208.94280416
0.01200000 1619142.33779963 4735.99154571
0.01300000 1617475.27609743 4076.03787554
0.01400000 1615676.04861766 4725.85265171
0.01500000 1613746.36713030 4647.58974429
0.01600000 1611685.29191196 4931.75721372
0.01700000 1609494.78350719 6083.89055457
0.01800000 1607174.43070267 4580.44733361
0.01900000 1604724.88824145 5295.59237015
0.02000000 1602146.85867607 6056.11539975
0.02100000 1599441.92084720 7389.42200934
0.02200000 1596608.21496463 6059.12845107
0.02300000 1593648.69602625 5737.13556684
0.02400000 1590563.35762703 7157.53543569
0.02500000 1587353.13973031 8047.88078598
0.02600000 1584018.52379062 8339.85790921
0.02700000 1580560.38132097 8629.86007727
0.02800000 1576978.68517964 6859.85759512
0.02900000 1573275.86730001 7787.71590070
0.03000000 1569452.47549648 10217.13608512
0.03100000 1565508.38579409 8265.88465733
0.03200000 1561444.67199957 10820.81207534
0.03300000 1557264.26619614 8736.25293611
0.03400000 1552964.92844364 12229.59937577
0.03500000 1548550.23313582 8362.17164508
0.03600000 1544019.68581692 10283.17158276
0.03700000 1539375.24169142 9651.88321178
0.03800000 1534618.16346446 11670.77167327
0.03900000 1529749.48131091 12849.89623809
0.04000000 1524768.28070147 10315.05789693
0.04100000 1519678.41911598 11488.76938121
0.04200000 1514480.20174089 10745.23752985
0.04300000 1509173.74435331 10956.60189259
0.04400000 1503762.69792750 13195.51828714
0.04500000 1498246.43145594 18608.22154331
0.04600000 1492625.41243026 13679.91254086
0.04700000 1486902.95514145 12846.84212990
0.04800000 1481078.79559369 13063.11558494
0.04900000 1475156.21789727 12170.03936414
0.05000000 1469134.19626536 16858.31568717
0.05100000 1463016.31468122 11411.52778611
0.05200000 1456800.61085473 13897.87847521
0.05300000 1450492.92933892 14098.79193043
0.05400000 1444090.99801350 14296.50154703
0.05500000 1437598.82063262 18113.74598496
0.05600000 1431015.28862635 18352.77193305
0.05700000 1424345.05905741 16109.34336990
0.05800000 1417586.70880433 17563.90014219
0.05900000 1410742.21258075 13966.34855686
0.06000000 1403814.41091710 15413.88295199
0.06100000 1396804.61694204 15588.34025354
0.06200000 1389713.33028585 18385.90821910
0.06300000 1382543.68573539 22563.11400615
0.06400000 1375293.81837947 18772.76149882
0.06500000 1367970.11989285 16251.48578454
0.06600000 1360569.91803417 15041.10114762
0.06700000 1353096.48360290 20702.37716797
0.06800000 1345552.50780785 16711.76292924
0.06900000 1337939.04144825 22477.37694870
0.07000000 1330255.56785255 25501.00042991
0.07100000 1322506.65619834 15711.37981152
0.07200000 1314691.43448825 17275.04625846
0.07300000 1306814.51701210 18857.33436406
0.07400000 1298874.77948098 16073.57614935
0.07500000 1290875.35413538 17659.17567230
0.07600000 1282815.78367331 17779.82759524
0.07700000 1274701.43142131 17896.80893631
0.07800000 1266530.98530005 25514.26789539
0.07900000 1258306.24798980 18119.61082093
0.08000000 1250030.81807813 16706.66266734
0.08100000 1241705.15536434 16800.27154032
0.08200000 1233330.32308255 23032.44486437
0.08300000 1224908.54982220 23150.77267815
0.08400000 1216441.37640343 23264.44241572
0.08500000 1207931.96203906 24931.71686691
0.08600000 1199379.92201519 15651.90871718
0.08700000 1190788.49871385 20433.93159746
0.08800000 1182156.21949406 18938.14352570
0.08900000 1173489.78230795 26931.59176894
0.09000000 1164787.05907946 19079.21292398
0.09100000 1156051.32262984 23930.26350271
0.09200000 1147282.91351066 25607.35583276
0.09300000 1138485.61998973 20868.44239506
0.09400000 1129657.36580711 20926.90368509
0.09500000 1120803.13460297 22595.39225564
0.09600000 1111923.59240007 17796.33793293
0.09700000 1103021.10446117 21078.73429722
0.09800000 1094097.10713957 17872.07708543
0.09900000 1085153.39684154 22788.22240523
0.10000000 1076189.34180018 22825.97701302
0.10100000 1067207.67301882 17961.10598165
0.10200000 1058211.19596109 19619.23649594
0.10300000 1049200.21207931 21277.78130189
0.10400000 1040177.63103075 31127.31707298
0.10500000 1031145.98090302 18034.74405452
0.10600001 1022101.27087975 22966.61663733
0.10700001 1013052.10944813 19693.73393441
0.10800001 1003994.57597581 21339.90571666
0.10900001 994933.35300996 22982.96153624
0.11000001 985868.58839946 22980.59787728
0.11100001 976802.05461787 18051.30281907
0.11200001 967736.72493198 19683.76591177
0.11300001 958671.10144210 18032.60426712
0.11400001 949609.30324194 19656.91350264
0.11500001 940552.05512680 24548.40979474
0.11600001 931499.79282414 19617.38656069
0.11700001 922456.12777523 21225.71649973
0.11800001 913418.65648186 17934.97616473
0.11900001 904391.84090917 24418.58085470
0.12000001 895376.35335209 19501.29789462
0.12100001 886374.64723431 21086.85385107
0.12200001 877385.83059672 16187.76933714
0.12300001 868412.98790282 25843.97173761
0.12400001 859456.13049047 20949.24416778
0.12500001 850517.42327925 22504.69208040
0.12600001 841599.31599939 17635.71449782
0.12700001 832701.46758119 17586.65582411
0.12800001 823824.16609943 23911.49754797
0.12900001 814970.73504275 17481.12309059
0.13000001 806141.05509982 17424.73972730
0.13100001 797336.40559299 17365.98773241
0.13200001 788558.96650094 18878.10254795
0.13300001 779810.50214050 20376.44938154
0.13400001 771089.51212854 23421.84503514
0.13500001 762399.41196664 20218.83335864
0.13600001 753739.47819218 17038.28170790
0.13700001 745112.30137109 20050.97297536
0.13800001 736517.42156986 18427.66675665
0.13900001 727959.32858958 19873.29060768
0.14000001 719434.88587881 24345.67768630
0.14100001 710947.35942127 16657.49741686
0.14200001 702496.14128863 22602.81441203
0.14300001 694085.83629659 19489.93120250
0.14400001 685711.09625396 16405.63875173
0.14500001 677380.01679673 28185.78382850
0.14600001 669087.61421654 19179.39736629
0.14700001 660840.80441575 27874.26644527
0.14800001 652634.00780312 16045.00783882
0.14900001 644470.77231072 18850.77097948
0.15000001 636352.65876274 18737.40492135
0.15100001 628280.43903247 18622.23309161
0.15200001 620254.77124613 18505.30197334
0.15300001 612276.44860890 16972.30395635
0.15400001 604343.80214436 15456.09346923
0.15500001 596461.36155009 16748.63582274
0.15600001 588625.82967760 15248.35283744
0.15700001 580844.56097407 13766.01674480
0.15800001 573108.76162010 17769.23799272
0.15900001 565427.24667948 17641.33092908
0.16000001 557795.12599296 16164.90351430
0.16100001 550218.42275006 16044.36996475
0.16200001 542692.53677698 15922.59978068
0.16300001 535221.40323739 15799.73656944
0.16400001 527804.09295659 19594.72787607
0.16500001 520441.47288354 14254.89261527
0.16600001 513134.49884531 15424.82376354
0.16700001 505881.94338852 15297.87069035
0.16800001 498684.75276550 13905.82498745
0.16900001 491546.32129193 18801.64767719
0.17000001 484463.92258319 13669.15022114
0.17100001 477438.94235566 13549.71782389
0.17200001 470472.03743441 12208.74994796
0.17300001 463563.28747496 16938.60332425
0.17400001 456713.65299446 13187.60735301
0.17500001 449922.41756596 22568.10953095
0.17600001 443188.42250671 18826.64507725
0.17700001 436516.81097149 13985.99928409
0.17800001 429903.46725693 18468.65382567
0.17900001 423350.37188091 16002.64481296
0.18000001 416858.15842543 12449.46948943
0.18100001 410427.61807847 12325.14195309
0.18200001 404054.95995146 12200.44009206
0.18300001 397745.81498539 17564.45601949
0.18400001 391496.30212696 11950.42518697
0.18500001 385308.82347723 11825.12835116
0.18600001 379182.73293965 12763.29139373
0.18700001 373117.59691984 13678.49174932
0.18800001 367114.33709232 12489.23033795
0.18900001 361174.38114177 13381.51145354
0.19000001 355292.26621725 11197.03629888
0.19100001 349477.14923327 12077.93084818
0.19200001 343719.78563431 13930.96357002
0.19300001 338027.35055392 12787.57527570
0.19400001 332395.87781882 10694.83787419
0.19500001 326827.09456925 10569.58873784
0.19600001 321318.72674874 14242.45323618
0.19700001 315873.55043589 10319.58938042
0.19800001 310490.01835222 10194.94023440
0.19900001 305169.28214293 10986.09467635
0.20000001 299908.56447179 12659.14110464
0.20100001 294711.40383274 11608.68274562
0.20200001 289574.58071306 9699.30103941
0.20300001 284499.94845844 13058.54825145
0.20400001 279486.87669252 10313.06623741
0.20500001 274534.28263352 10179.73168121
0.20600001 269643.50986529 11721.40392789
0.20700001 264813.52243024 11567.05520652
0.20800001 260044.33443586 11413.34637790
0.20900001 255337.89142905 12869.03033636
0.21000001 250689.44302786 9521.18549629
0.21100001 246101.72977093 9391.24245201
0.21200001 241573.70543940 13892.90445660
0.21300001 237105.76562372 8372.20497997
0.21400001 232698.17253025 11256.77462833
0.21500001 228350.46809004 8138.41106749
0.21600001 224060.46041632 9481.11883077
0.21700001 219830.20335590 8626.13758753
0.21800001 215658.39880016 7084.37873554
0.21900001 211543.79430614 10471.41831326
0.22000001 207487.13774805 9629.47851819
0.22100001 203490.22318546 10841.95960397
0.22200001 199549.86713574 10679.90939410
0.22300001 195666.07122619 8546.69439529
0.22400001 191837.90504328 7121.98256150
0.22500001 188069.35072583 7650.66154931
0.22600001 184354.40087453 7532.72117594
0.22700001 180696.62709380 6179.82493885
0.22800001 177093.56286660 9124.74625821
0.22900001 173545.17295109 6586.03962495
0.23000001 170051.50586258 7070.74194815
0.23100001 166613.87543640 6377.97945334
0.23200001 163228.16760633 6845.78967317
0.23300001 159897.13320876 6734.86756927
0.23400001 156619.17383684 6624.99136663
0.23500001 153392.99470313 8145.16840397
0.23600001 150219.75970195 5874.34398098
0.23700001 147098.69260330 6301.70828918
0.23800001 144028.71660948 5163.42973467
0.23900001 141010.34468280 6599.28444330
0.24000001 138042.09917675 5988.26654553
0.24100001 135125.76289622 7357.59813772
0.24200001 132258.22131960 5784.97487416
0.24300001 129440.44758059 6158.77678721
0.24400001 126670.84897361 6517.21548798
0.24500001 123950.44110932 5945.90294128
0.24600001 121278.48783464 4493.36818683
0.24700001 118654.45916797 5296.73530783
0.24800001 116076.75350580 5202.56033825
0.24900001 113545.89906348 4683.76855795
0.25000001 111062.10447452 5435.93496067
0.25100001 108623.16926358 4927.14719089
0.25200001 106231.06738420 7256.64455632
0.25300001 103884.08489022 5145.37896804
0.25400001 101580.46277470 4662.54346195
0.25500001 99321.50518009  3813.94597936
0.25600001 97106.22476149  5240.82319833
0.25700001 94933.86766615  4776.12310826
0.25800001 92804.24199273  4687.07846361
0.25900001 90717.30225991  4953.16493775
0.26000001 88672.58195398  3818.68492253
0.26100001 86667.10255633  5449.62766660
0.26200001 84704.83310000  3341.60582391
0.26300001 82781.41743960  4589.40200001
0.26400001 80898.14358341  4823.55203940
0.26500001 79055.13280658  3469.72994306
0.26600001 77249.76554007  3403.23858191
0.26700001 75484.53974207  3641.37436947
0.26800001 73756.77923713  4464.12927457
0.26900001 72066.04834821  3794.27762508
0.27000001 70413.29526987  3148.53064699
0.27100001 68796.73319950  3087.59753211
0.27200001 67216.95665658  3027.78795588
0.27300001 65672.33991730  3238.95995800
0.27400001 64162.12242605  2646.68767533
0.27500001 62688.66747693  3114.37314764
0.27600001 61247.56816136  3053.80389305
0.27700001 59842.36251549  2994.51196200
0.27800001 58469.09796434  3181.01142530
0.27900001 57129.87068646  2399.45468239
0.28000001 55822.37440514  3529.36978880
0.28100001 54547.12767686  3230.28105391
0.28200001 53303.96873683  2489.02893797
0.28300001 52091.75710526  2219.10895771
0.28400001 50910.73433693  2394.07739551
0.28500001 49760.02838182  2348.17585048
0.28600001 48638.40776400  2093.88355335
0.28700001 47546.95453602  2259.43138650
0.28800001 46483.63282796  3022.59836771
0.28900001 45450.18053584  2767.91612565
0.29000001 44443.96256453  2133.97696355
0.29100001 43466.47152037  2284.59785125
0.29200001 42515.41057648  3176.53905158
0.29300001 41591.46157523  2017.60189652
0.29400001 40693.77674221  2701.04955912
0.29500001 39823.45309489  1944.97754122
0.29600001 38977.12915847  2083.71742345
0.29700001 38156.24253471  2046.70094645
0.29800001 37360.52885120  1843.18177813
0.29900001 36589.33915775  1975.82440805
0.30000001 35841.90885505  2265.56716598
0.30100001 35118.74606959  1590.87927226
0.30200001 34417.59540473  1877.13574224
0.30300001 33739.98742382  1692.39784930
0.30400001 33085.31411185  2119.11446919
0.30500001 32451.58454599  2383.24448189
0.30600001 31839.76831691  1906.08782053
0.30700001 31249.79842746  2021.23705798
0.30800001 30680.22291537  1848.63691929
0.30900001 30131.19169791  1541.21052832
0.31000001 29603.21190172  1519.08889066
0.31100001 29093.16182228  1497.71604152
0.31200001 28604.00597293  1477.25395841
0.31300001 28132.82085949  1590.06711026
0.31400001 27681.83897247  1438.76364871
0.31500001 27248.63753680  1549.90257648
0.31600002 26832.90899161  1531.08585955
0.31700002 26434.84526131  1387.03639653
0.31800002 26054.35275084  1496.04100579
0.31900002 25691.00157911  1849.75220128
0.32000002 25343.82856559  1220.30540321
0.32100002 25013.52333030  1570.59920428
0.32200002 24699.31511228  1316.35006124
0.32300002 24400.01418152  1304.42481991
0.32400002 24116.33082023  1528.37253810
0.32500002 23847.18710070  1632.57850622
0.32600002 23593.38833191  1157.25575248
0.32700002 23353.42149216  1723.48258773
0.32800002 23128.43095242  1369.66574586
0.32900002 22915.94205913  1361.20702277
0.33000002 22718.29775113  1353.55624411
0.33100002 22531.80548994  1458.70915650
0.33200002 22360.26707795  1228.58493278
0.33300002 22200.15859610  1334.67359800
0.33400002 22052.99275563  1440.61181998
0.33500002 21917.28743958  1325.55760712
0.33600002 21793.33889094  1542.31466635
0.33700002 21680.02718694  1209.09517347
0.33800002 21579.19255116  1426.49259115
0.33900002 21487.91457811  1643.82554307
0.34000002 21408.23595386  1423.54071717
0.34100002 21338.52249491  1204.13288141
0.34200002 21279.68725659  1313.80795344
0.34300002 21229.53191637  1314.53267852
0.34400002 21189.47790737  1096.55553364
0.34500002 21158.42312439  1098.12221216
0.34600002 21137.71364647  1210.23985215
0.34700002 21123.62986899  1764.24565021
0.34800002 21119.81862602  1658.43383615
0.34900002 21123.84296611  1109.00180824
0.35000002 21135.94089688  1335.36880911
0.35100002 21156.14385683  1228.74889340
0.35200002 21183.26588329  1570.31557430
0.35300002 21217.98271087  1690.01240297
0.35400002 21260.49998825  1471.75818139
0.35500002 21309.64729352  1593.10930712
0.35600002 21364.94591025  1487.32077999
0.35700002 21427.11076908  1495.82667364
0.35800002 21496.01807594  1620.58487950
0.35900002 21570.74279723  1281.30218285
0.36000002 21652.07828084  1641.44413222
0.36100002 21738.08327459  1416.45357326
0.36200002 21830.92407150  1307.56325920
0.36300002 21927.22079491  1316.94894332
0.36400002 22029.51456286  1326.72757739
0.36500002 22136.45427722  1215.29139739
0.36600002 22248.48320954  1714.69068218
0.36700002 22364.63947649  1728.33942061
0.36800002 22486.57691747  1618.02171874
0.36900002 22611.92027484  2007.93861552
0.37000002 22740.15397905  1265.48962888
0.37100002 22873.02875765  1531.57807816
0.37200002 23009.74928831  2059.83285386
0.37300002 23149.44481639  1818.15748201
0.37400002 23293.48728131  1572.31046597
0.37500002 23439.73506617  1454.20123239
0.37600002 23589.91875568  2001.01495324
0.37700002 23741.91693964  1480.78342967
0.37800002 23897.59483374  1358.57833066
0.37900002 24055.35385663  1919.61732870
0.38000002 24215.83789833  1660.72224174
0.38100002 24378.06255595  1955.60827088
0.38200002 24542.72771225  1691.97572864
0.38300002 24709.08568872  1707.89208371
0.38400002 24877.87250005  1867.70636642
0.38500002 25047.23929293  1885.30579089
0.38600002 25219.64137055  2196.00037638
0.38700002 25392.35001652  1921.18529327
0.38800002 25566.36380349  1939.33661819
0.38900002 25741.69507891  1957.65600350
0.39000002 25918.83884359  1824.16796423
0.39100002 26095.97415542  1687.88768834
0.39200002 26274.37971482  2013.53718484
0.39300002 26453.39040282  1719.73499156
0.39400002 26633.64079139  1893.65194998
0.39500002 26813.57113090  2229.81668089
0.39600002 26993.88338033  2250.48016404
0.39700002 27174.00408565  1784.51693285
0.39800002 27355.34481387  2128.38270408
0.39900002 27536.00011844  2313.02411954
0.40000002 27716.63924792  2334.01830165
0.40100002 27896.76794463  2018.61022411
0.40200002 28077.94734806  1697.31199761
0.40300002 28257.62592581  2226.13587591
0.40400002 28436.91316764  1900.29681246
0.40500002 28615.82314545  1916.97408334
0.40600002 28794.24609546  1933.67768816
0.40700002 28971.92943452  1950.39038194
0.40800002 29149.14870946  1967.13039386
0.40900002 29324.40238253  2524.83116477
0.41000002 29499.73355930  1818.65866010
0.41100002 29673.66037964  2567.36521769
0.41200002 29846.07435014  2218.75727232
0.41300002 30017.57026734  2236.90944231
0.41400002 30187.74403254  2067.10587057
0.41500002 30357.11939876  1894.28434024
0.41600002 30523.69485965  2291.10864473
0.41700002 30689.73062670  2501.52006191
0.41800002 30855.11560949  2133.16851874
0.41900002 31016.82473819  2344.87206132
0.42000002 31177.58751362  2559.52416821
0.42100002 31337.37021983  1983.65562891
0.42200002 31495.13966967  2198.20337741
0.42300002 31650.40981498  2214.26277558
0.42400002 31804.07734403  2635.76303478
0.42500002 31956.01069411  2858.78485216
0.42600002 32104.79142294  3495.73037974
0.42700002 32252.64063805  2484.74355250
0.42800002 32397.75110225  3127.19307333
0.42900002 32541.55033863  2308.82310593
0.43000002 32682.92629517  2324.24641362
0.43100002 32820.62688196  3190.16508410
0.43200002 32957.13401107  2354.62255100
0.43300002 33090.86139657  3662.16580430
0.43400002 33222.52038402  3034.87738090
0.43500002 33351.55016696  2399.31063271
0.43600002 33478.81399024  3511.25817769
0.43700002 33602.58955454  2428.45926219
0.43800002 33723.30140729  2442.74745320
0.43900002 33842.49820756  2233.60498755
0.44000002 33958.24570454  3144.87328373
0.44100002 34072.17594641  4292.07220737
0.44200002 34183.16785915  2725.76593426
0.44300002 34291.67702601  2740.59095780
0.44400002 34396.89790460  3443.98956591
0.44500002 34498.63051931  3231.14188757
0.44600002 34598.36703967  3943.69505391
0.44700002 34695.47249566  3497.30379330
0.44800002 34788.96837511  3280.25198355
0.44900002 34880.75570653  3060.78645830
0.45000002 34969.38533959  2838.81483641
0.45100002 35053.82300548  3327.30903737
0.45200002 35136.40519938  3342.52638503
0.45300002 35215.64201340  3117.64093520
0.45400002 35292.33882642  2649.57246296
0.45500002 35366.09547597  2419.04104520
0.45600002 35436.35363627  2914.99458827
0.45700002 35503.90094998  2439.11811086
0.45800002 35567.72664897  3918.14095335
0.45900002 35628.89109892  3195.91168304
0.46000002 35687.94630892  3701.73240633
0.46100002 35742.72315059  2476.97083173
0.46200002 35795.13798410  2734.56969590
0.46300002 35844.00875882  3243.16606621
0.46400002 35889.53729040  2753.62487911
0.46500002 35932.93549974  2762.88354152
0.46600002 35972.52770665  3527.82595940
0.46700002 36009.01145380  3033.39926864
0.46800002 36043.14108503  2535.63509551
0.46900002 36073.37539282  3560.44232002
0.47000002 36100.43456694  3570.69415225
0.47100002 36124.80328512  3069.16343257
0.47200002 36145.85375515  2564.54844548
0.47300002 36164.24499417  3342.66132324
0.47400002 36178.47699105  3351.03159013
0.47500002 36190.60968832  3100.81158507
0.47600002 36199.92926974  3885.15759302
0.47700002 36205.31026101  3115.10504251
