# SAXS profile: number of points = 501, q_min = 0, q_max = 0.5, delta_q = 0.001
#    q    intensity    error
0.00000000 1646666.22097351 271.69992646
0.00100000 1646598.50666251 543.37752010
0.00200000 1646395.30898179 1037.22907750
0.00300000 1646056.80675101 1185.16094308
0.00400000 1645582.83206827 1357.60588804
0.00500000 1644973.87341561 1776.57185361
0.00600000 1644229.67182411 2244.37359341
0.00700000 1643350.86674725 2760.82957088
0.00800000 1642336.87587351 2217.15487604
0.00900000 1641189.06619931 3446.49718635
0.01000000 1639906.62640735 2976.43065545
0.01100000 1638490.73889845 3539.14015011
0.01200000 1636940.91499649 3192.03492419
0.01300000 1635258.55258231 4807.66035663
0.01400000 1633442.80426335 3675.24647252
0.01500000 1631495.42245574 4307.14810708
0.01600000 1629415.45264866 5817.01342600
0.01700000 1627204.86115615 4393.45332221
0.01800000 1624863.15059947 6946.29028138
0.01900000 1622391.13565470 6327.32571456
0.02000000 1619789.40896059 6633.03792974
0.02100000 1617059.64401295 5336.29706718
0.02200000 1614199.88687958 6682.78783530
0.02300000 1611213.10443823 5800.36744000
0.02400000 1608099.36743872 7236.44748344
0.02500000 1604859.67219679 8136.63890964
0.02600000 1601494.24025501 9080.47275757
0.02700000 1598004.33241557 10067.42775532
0.02800000 1594389.60706210 8322.71413054
0.02900000 1590652.62968767 7873.73087847
0.03000000 1586793.98115619 8854.31082184
0.03100000 1582813.38422139 11396.25689077
0.03200000 1578712.21102059 9377.55096537
0.03300000 1574493.16095189 11241.88168745
0.03400000 1570154.04839303 10716.30187474
0.03500000 1565698.49358144 17755.02173711
0.03600000 1561125.99979158 11263.52460903
0.03700000 1556438.55416780 9758.87018596
0.03800000 1551637.33896197 9984.78673831
0.03900000 1546723.48147180 12992.47784604
0.04000000 1541695.99481498 14222.14621121
0.04100000 1536558.80223137 9680.32090290
0.04200000 1531312.35472430 12840.05469005
0.04300000 1525956.53280898 14099.83901764
0.04400000 1520495.10471469 12316.01092017
0.04500000 1514927.31048745 12543.59871367
0.04600000 1509253.88450028 12768.28845643
0.04700000 1503478.02199926 19485.07607132
0.04800000 1497599.47242519 16511.03495172
0.04900000 1491621.56321592 13424.59469382
0.05000000 1485543.15580755 13637.28680535
0.05100000 1479368.01124539 24232.04915303
0.05200000 1473094.12135844 11711.09881055
0.05300000 1466727.14395852 16632.68658787
0.05400000 1460265.06890849 16866.06233242
0.05500000 1453711.89491044 13432.29853558
0.05600000 1447066.39550988 14846.90191075
0.05700000 1440333.34018530 13783.99070899
0.05800000 1433511.24936139 13955.23266414
0.05900000 1426602.11510386 20543.07141698
0.06000000 1419608.81146287 12989.42123174
0.06100000 1412532.84244757 18391.17846811
0.06200000 1405374.37778610 25233.49813265
0.06300000 1398136.71669673 16106.53572941
0.06400000 1390818.02721770 16272.57167946
0.06500000 1383424.78058832 17804.67775904
0.06600000 1375954.17647556 15211.17413265
0.06700000 1368409.59420325 16749.33421690
0.06800000 1360793.76541218 19717.90258380
0.06900000 1353107.58082932 22732.20842223
0.07000000 1345350.73782015 18626.38183736
0.07100000 1337527.58791282 15889.82848865
0.07200000 1329637.52890995 21839.29743545
0.07300000 1321685.07249936 20538.98698901
0.07400000 1313669.01978330 19212.41031470
0.07500000 1305592.73768787 17860.50948874
0.07600000 1297455.52309335 17982.73439312
0.07700000 1289262.94839010 19609.69036448
0.07800000 1281013.53418971 21252.01552885
0.07900000 1272709.43066378 21381.51943802
0.08000000 1264353.92892410 18434.28114849
0.08100000 1255947.46941237 16992.97005843
0.08200000 1247491.40403500 15531.26870904
0.08300000 1238987.84789635 18733.49713939
0.08400000 1230438.18203442 20394.51382451
0.08500000 1221845.83309820 15761.81198691
0.08600000 1213210.38004378 18998.87544351
0.08700000 1204534.82978434 19079.83259973
0.08800000 1195818.09100021 23946.25839689
0.08900000 1187066.67118876 20833.02105788
0.09000000 1178278.52372606 17691.85286483
0.09100000 1169456.70658169 19366.20397084
0.09200000 1160602.04403287 22666.55898499
0.09300000 1151717.86305579 19487.06715864
0.09400000 1142802.61906264 22798.91332179
0.09500000 1133860.60733889 22858.63091837
0.09600000 1124893.03441429 19640.63330414
0.09700000 1115902.10969959 19684.51414052
0.09800000 1106889.38709518 21368.50062257
0.09900000 1097856.49611084 21408.20268083
0.10000000 1088803.04469462 18144.90359314
0.10100000 1079731.74206260 19823.87571662
0.10200000 1070645.14079342 18195.61502364
0.10300000 1061543.69239658 24840.12357058
0.10400000 1052430.53201693 19890.93799089
0.10500000 1043307.86026364 18247.45533454
0.10600001 1034172.13727337 19918.15630111
0.10700001 1025031.27106368 23247.71032171
0.10800001 1015882.37222837 19931.61308114
0.10900001 1006729.34641664 21594.34549699
0.11000001 997572.50653343 19931.49961870
0.11100001 988414.00518276 18265.89167561
0.11200001 979256.12787768 21577.90979361
0.11300001 970097.86653653 18247.54172866
0.11400001 960943.37503144 21549.15619971
0.11500001 951793.29460463 18217.32451655
0.11600001 942648.22083181 23160.86787652
0.11700001 933511.49384113 29741.67759446
0.11800001 924381.03109922 18150.22240048
0.11900001 915260.94811421 21417.10719465
0.12000001 906152.24163458 18091.33035642
0.12100001 897057.30917877 19699.37943757
0.12200001 887975.11975229 19659.77007751
0.12300001 878909.03028347 17982.47960683
0.12400001 869858.88881866 19571.82592059
0.12500001 860826.89624481 16269.62910566
0.12600001 851815.31763109 19472.49907866
0.12700001 842824.10401335 21036.89062757
0.12800001 833853.61124761 19362.08176569
0.12900001 824906.82927135 24128.52589341
0.13000001 815984.16374870 17637.49853077
0.13100001 807086.38266383 19176.37335602
0.13200001 798216.08966130 20701.73526125
0.13300001 789374.72542921 19039.71927494
0.13400001 780560.98165156 20548.26881074
0.13500001 771778.26614572 22041.98832036
0.13600001 763025.75723851 17248.19805564
0.13700001 754306.38849488 26544.04306277
0.13800001 745619.24227633 21764.62670837
0.13900001 736969.14519653 21666.89389055
0.14000001 728352.90320569 24647.46340687
0.14100001 719773.95839922 16864.30464066
0.14200001 711231.15584810 18307.09081499
0.14300001 702729.98246407 19732.65883833
0.14400001 694264.07130423 22650.36639472
0.14500001 685842.28737759 21027.92552293
0.14600001 677459.52709721 17925.57993262
0.14700001 669122.42492020 14854.51853401
0.14800001 660825.80544151 17723.34893811
0.14900001 652572.76842661 24960.90956999
0.15000001 644365.42946535 16054.36543262
0.15100001 636204.00121350 20307.63267695
0.15200001 628089.83735644 17297.59493702
0.15300001 620023.06379710 17187.04013950
0.15400001 612002.15522016 22766.48124856
0.15500001 604031.99567895 19788.08911230
0.15600001 596109.39494795 21057.56537035
0.15700001 588240.88052015 18123.70238421
0.15800001 580418.44135070 15227.27852754
0.15900001 572650.56982975 16492.33718954
0.16000001 564932.61801397 16371.74804283
0.16100001 557270.54265134 18958.34475591
0.16200001 549659.54989614 18814.84728112
0.16300001 542103.62443174 17336.47472774
0.16400001 534602.10017159 17200.82338506
0.16500001 527155.72361552 17064.03157905
0.16600001 519765.11115005 13020.11664903
0.16700001 512429.79409328 18078.52398918
0.16800001 505150.16284434 16647.22440256
0.16900001 497929.50978573 15236.64371889
0.17000001 490765.73394967 16364.58417128
0.17100001 483659.67806399 16221.94636829
0.17200001 476611.93844508 14841.69646405
0.17300001 469623.16451786 13482.88169003
0.17400001 462694.03669480 12145.71903683
0.17500001 455823.56521801 12033.74269008
0.17600001 449010.95702022 11921.24147192
0.17700001 442261.15662460 12989.21078355
0.17800001 435570.28352588 15203.58146457
0.17900001 428940.06333367 12739.52048274
0.18000001 422371.43362576 17201.07744690
0.18100001 415864.81587492 12488.42101063
0.18200001 409416.59759270 17981.57781568
0.18300001 403032.56474868 12236.06924379
0.18400001 396708.56442313 16512.99477420
0.18500001 390447.39563157 11982.83113803
0.18600001 384248.04045517 11855.97384836
0.18700001 378110.28749485 11728.98167222
0.18800001 372034.71816759 11601.90323420
0.18900001 366023.20879149 12517.99433211
0.19000001 360070.17952967 11347.61224404
0.19100001 354184.56188119 13260.67062340
0.19200001 348357.55957558 12101.94219149
0.19300001 342595.84126703 15951.26312313
0.19400001 336895.71043556 11825.03999507
0.19500001 331258.93921703 11686.81592784
0.19600001 325683.08822630 10586.32928307
0.19700001 320170.99056230 11410.89464289
0.19800001 314721.33915474 11273.31890129
0.19900001 309335.00499082 13920.07588245
0.20000001 304009.20957243 10082.46591198
0.20100001 298747.60120364 9957.25801872
0.20200001 293547.02120716 9832.35794005
0.20300001 288409.29304971 13237.98717667
0.20400001 283333.60672624 12197.51234609
0.20500001 278319.04376319 12900.08828817
0.20600001 273366.96693317 10185.65366939
0.20700001 268476.30539973 11727.04557419
0.20800001 263647.02241711 8265.33454348
0.20900001 258881.10962777 11416.65747426
0.21000001 254174.06097892 13675.83599746
0.21100001 249527.95174668 10315.48601286
0.21200001 244942.48171730 11738.86899125
0.21300001 240417.51424862 9260.88308667
0.21400001 235953.83107728 9892.36483559
0.21500001 231550.39556840 9002.67980532
0.21600001 227205.21996414 7395.53025948
0.21700001 222920.54215613 10205.30290241
0.21800001 218695.01823355 9339.37119523
0.21900001 214527.22345536 7787.33857963
0.22000001 210417.95883285 10463.03349768
0.22100001 206369.33587141 7559.30913040
0.22200001 202377.64471858 7446.48578952
0.22300001 198443.24619746 8001.23206502
0.22400001 194565.02802156 7223.22700686
0.22500001 190747.01925329 7112.95668431
0.22600001 186983.49767322 7640.14607622
0.22700001 183277.56702495 7521.71170640
0.22800001 179626.95175674 6170.18608463
0.22900001 176031.73523532 6073.09515282
0.23000001 172491.67848351 6574.52063632
0.23100001 169008.46442257 7645.94329207
0.23200001 165577.73971255 6365.63650430
0.23300001 162202.35863752 5693.30305744
0.23400001 158880.55289049 6160.59372970
0.23500001 155611.17354719 6059.49938452
0.23600001 152395.43280742 8126.48683881
0.23700001 149232.20429617 6393.10793443
0.23800001 146121.10035701 5238.44169557
0.23900001 143061.83962871 7210.31705833
0.24000001 140053.49293930 6075.52081108
0.24100001 137097.46136699 6967.29331623
0.24200001 134190.95050174 4891.26037715
0.24300001 131334.78193846 4806.85324633
0.24400001 128527.43230965 6140.39836906
0.24500001 125769.81560127 6961.35962283
0.24600001 123061.23650400 5015.36093097
0.24700001 120401.10503419 4478.92131915
0.24800001 117788.05133265 5279.26071047
0.24900001 115222.21868763 6049.16676727
0.25000001 112704.01511512 5091.96764379
0.25100001 110231.41226979 4166.74758092
0.25200001 107805.99885478 4500.36163510
0.25300001 105426.39565662 5221.76962392
0.25400001 103090.70990362 5520.50777652
0.25500001 100800.20769676 4644.87379042
0.25600001 98553.96851914  5318.95793263
0.25700001 96351.26076644  4101.67336489
0.25800001 94191.74464793  3659.34945271
0.25900001 92075.37536437  4668.22175185
0.26000001 90001.68833034  5285.34939728
0.26100001 87967.86202978  3802.85085548
0.26200001 85977.88585959  3731.01053342
0.26300001 84027.30571586  4991.22219569
0.26400001 82117.11103500  3264.15531810
0.26500001 80247.87506360  4482.64651317
0.26600001 78416.85750261  4396.83340823
0.26700001 76626.35025427  4004.49325378
0.26800001 74873.78228416  3625.38870976
0.26900001 73158.79182574  3555.51745098
0.27000001 71482.20627144  3486.90218693
0.27100001 69842.48163598  3419.48806272
0.27200001 68239.86274489  3073.86476281
0.27300001 66672.90968478  3288.30806127
0.27400001 65140.76919372  3493.17391333
0.27500001 63645.93250973  4215.90676896
0.27600001 62183.98859824  2583.74484854
0.27700001 60758.15097444  3293.69952020
0.27800001 59364.91222797  3229.74820262
0.27900001 58005.96124376  3410.75068256
0.28000001 56679.37994652  2389.03597782
0.28100001 55385.38997686  3045.64273898
0.28200001 54123.91904727  2757.07256676
0.28300001 52893.88595299  2253.27964825
0.28400001 51695.29289753  2872.96603876
0.28500001 50527.60352871  2601.16115277
0.28600001 49389.36599538  2338.83353741
0.28700001 48281.59275027  2085.76490554
0.28800001 47202.52484196  2250.85250363
0.28900001 46153.73331851  2609.99374270
0.29000001 45132.35038328  2561.03534372
0.29100001 44140.15579894  2320.00669861
0.29200001 43174.93408151  2087.29228697
0.29300001 42237.00346587  1862.65194102
0.29400001 41325.84562686  2377.26938222
0.29500001 40442.19736908  3232.14056674
0.29600001 39583.13282845  1939.77151608
0.29700001 38749.66787603  2251.74330687
0.29800001 37941.89251529  1701.69395987
0.29900001 37158.88259128  1839.36477534
0.30000001 36399.97337318  2136.49653828
0.30100001 35665.81773409  1777.22778182
0.30200001 34953.85425738  1588.65275121
0.30300001 34265.79635424  1718.77242650
0.30400001 33600.98717677  1690.96975972
0.30500001 32957.40636281  1966.56853077
0.30600001 32335.96031847  2084.69946043
0.30700001 31736.76351942  1466.23854401
0.30800001 31158.33072936  1444.18869768
0.30900001 30600.61545342  1422.92868595
0.31000001 30064.23785176  1682.99611462
0.31100001 29546.19015951  1797.59029441
0.31200001 29049.13885556  1636.62856061
0.31300001 28570.48725944  1345.67001363
0.31400001 28112.30971709  1461.13736673
0.31500001 27671.95820375  1311.65088096
0.31600002 27249.67280501  1554.86640387
0.31700002 26845.06310740  1536.61148502
0.31800002 26458.30258938  1392.63282273
0.31900002 26088.99666657  1753.18065900
0.32000002 25736.05881539  1239.19129064
0.32100002 25400.26839553  1349.51632375
0.32200002 25080.74611276  1215.16220670
0.32300002 24776.36059667  1324.54430022
0.32400002 24487.84697042  1551.91737524
0.32500002 24213.95945738  1539.28147559
0.32600002 23955.72269451  1410.03390457
0.32700002 23711.55703959  1283.26952775
0.32800002 23482.52742601  1158.86278335
0.32900002 23266.19419278  1497.17966720
0.33000002 23065.01469395  1374.21364054
0.33100002 22874.99313665  1253.09218337
0.33200002 22700.13637249  1360.64623860
0.33300002 22536.96900467  1467.83286078
0.33400002 22386.92466711  1462.42592313
0.33500002 22248.40316288  1345.58348701
0.33600002 22121.82349774  1453.73570000
0.33700002 22006.05292879  1227.27762996
0.33800002 21902.99932204  1447.89783875
0.33900002 21809.71380073  1557.21363912
0.34000002 21727.93813676  1333.66090599
0.34100002 21656.37245174  1222.06915533
0.34200002 21595.97476909  1222.22424994
0.34300002 21544.12562617  1334.01232195
0.34400002 21502.68183509  1335.31660520
0.34500002 21470.38875282  1114.31322905
0.34600002 21448.46687302  1228.03202897
0.34700002 21433.40693359  1118.82389492
0.34800002 21428.55262987  1233.96326163
0.34900002 21431.81250127  1350.20425153
0.35000002 21443.24133182  1241.88538055
0.35100002 21462.80647778  1246.55985927
0.35200002 21489.39388384  1479.22249805
0.35300002 21523.76000974  1600.07639491
0.35400002 21565.90757417  1263.22309599
0.35500002 21614.79417960  1385.07607663
0.35600002 21669.99414729  1160.42824155
0.35700002 21732.09023281  1517.11729101
0.35800002 21801.05533831  1408.78426269
0.35900002 21875.83950847  1299.42492835
0.36000002 21957.32004423  1545.68561773
0.36100002 22043.61647847  1316.66527462
0.36200002 22136.82091309  1446.41994697
0.36300002 22233.55460942  1578.13778093
0.36400002 22336.34782591  1589.78963181
0.36500002 22443.64213739  1478.58721405
0.36600002 22556.29371456  1738.41363893
0.36700002 22673.09536309  1376.71041566
0.36800002 22795.66485075  2018.78417481
0.36900002 22921.65340338  1272.15182415
0.37000002 23050.72113295  1411.04996099
0.37100002 23184.28436841  1552.41975485
0.37200002 23321.91359685  1957.29169133
0.37300002 23462.43583105  1447.86698372
0.37400002 23607.41800245  1593.50079065
0.37500002 23754.55726948  1607.70851216
0.37600002 23905.71898857  1622.24216741
0.37700002 24058.68546115  1364.12753027
0.37800002 24215.25063891  1376.63706404
0.37900002 24374.10872512  1389.32426315
0.38000002 24535.60049754  1822.87252532
0.38100002 24698.93538466  1556.77397104
0.38200002 24864.57243165  1571.31672926
0.38300002 25032.12179444  1586.03531203
0.38400002 25202.05731992  1746.50265501
0.38500002 25372.56324875  1615.97862987
0.38600002 25545.90866125  1779.52808165
0.38700002 25719.73918532  2095.64444810
0.38800002 25894.86199803  1964.25484992
0.38900002 26071.31586324  1677.68925528
0.39000002 26249.53729801  1539.53543547
0.39100002 26427.77459329  1709.34854168
0.39200002 26607.33909069  2823.30488467
0.39300002 26787.36778552  1741.44686224
0.39400002 26968.70651058  1597.89593646
0.39500002 27149.69422116  1773.96110446
0.39600002 27330.94899332  2115.82551656
0.39700002 27512.13348114  1970.96933597
0.39800002 27694.50530879  2154.77108764
0.39900002 27876.12218160  2174.33763318
0.40000002 28057.64854857  2193.96793220
0.40100002 28238.81723816  2554.20114021
0.40200002 28420.87173463  1889.84595553
0.40300002 28601.42435212  2426.54495700
0.40400002 28781.57287625  1748.48063508
0.40500002 28961.35273456  2292.87040463
0.40600002 29140.58243673  2312.74243467
0.40700002 29319.04241457  1973.75802887
0.40800002 29496.91364998  2533.49003344
0.40900002 29673.02034382  2189.86900513
0.41000002 29848.98024417  2208.22766309
0.41100002 30023.56715470  2597.63915331
0.41200002 30196.50675948  2057.74105063
0.41300002 30368.54892283  2263.06437296
0.41400002 30539.32993559  2091.18071643
0.41500002 30709.05327175  1916.24501496
0.41600002 30876.16468962  3283.21712784
0.41700002 31042.56307721  2530.27943632
0.41800002 31208.31689080  2942.16421429
0.41900002 31370.38162314  2173.96754950
0.42000002 31531.45372596  3185.93823544
0.42100002 31691.37975118  3009.09664996
0.42200002 31849.34233942  2222.92495391
0.42300002 32004.80971015  2035.50599402
0.42400002 32158.52105853  2050.10581463
0.42500002 32310.50854095  2477.56991232
0.42600002 32459.22163360  3326.42119064
0.42700002 32607.02392154  3349.39365594
0.42800002 32752.04906784  2318.35390313
0.42900002 32895.60206531  2970.47300726
0.43000002 33036.86501396  3203.75013655
0.43100002 33174.31130321  3224.54321147
0.43200002 33310.44708181  3028.91909668
0.43300002 33443.80852696  3048.06885359
0.43400002 33575.05769879  2409.84988053
0.43500002 33703.53654106  3306.31709136
0.43600002 33830.32662067  2882.85141960
0.43700002 33953.57648169  2453.82508862
0.43800002 34073.56656970  2468.11891144
0.43900002 34192.06604318  2482.34411237
0.44000002 34307.07539464  2496.35445939
0.44100002 34420.23409106  2738.47395406
0.44200002 34530.37185041  2523.99765002
0.44300002 34637.94943043  2768.26504967
0.44400002 34742.12837732  3246.65205072
0.44500002 34842.86973809  3030.28452473
0.44600002 34941.54544793  3279.96302664
0.44700002 35037.58660382  3531.78889704
0.44800002 35129.80128908  2365.99222895
0.44900002 35220.38022142  2615.11335538
0.45000002 35307.66508349  2627.42002171
0.45100002 35390.80424792  2639.44630590
0.45200002 35471.95349786  2651.35128985
0.45300002 35549.70392467  2905.12194241
0.45400002 35624.87817306  2917.67766065
0.45500002 35696.99858323  2441.67481881
0.45600002 35765.69115655  2942.08589397
0.45700002 35831.48464959  2953.94773451
0.45800002 35893.58965506  3212.65589434
0.45900002 35952.97945250  2728.83126978
0.46000002 36010.12914542  2490.10054842
0.46100002 36062.90641631  3748.73929965
0.46200002 36113.39893949  3260.49837778
0.46300002 36160.28644393  3020.10726694
0.46400002 36203.76639375  2777.73410821
0.46500002 36245.02628663  4306.99667777
0.46600002 36282.42159448  4574.85075568
0.46700002 36316.64216177  3314.25692077
0.46800002 36348.50478689  2812.82917625
0.46900002 36376.33498944  2820.98491214
0.47000002 36401.00313593  3086.07719213
0.47100002 36422.97029103  2836.62106071
0.47200002 36441.49094523  2844.07629562
0.47300002 36457.48199203  3110.55251099
0.47400002 36469.01998129  3118.10135619
0.47500002 36478.55294020  4167.31008541
0.47600002 36485.16950597  3654.71960264
0.47700002 36487.74387516  2616.17135985
