# SAXS profile: number of points = 501, q_min = 0, q_max = 0.5, delta_q = 0.001
#    q    intensity    error
0.00000000 1628779.37420969 317.61197797
0.00100000 1628712.25678580 537.47505750
0.00200000 1628510.85416599 732.82990758
0.00300000 1628175.33649177 1172.28628403
0.00400000 1627705.54613491 1342.85712659
0.00500000 1627101.95716016 2196.58772911
0.00600000 1626364.33622320 2049.21914707
0.00700000 1625493.27067491 2535.76960764
0.00800000 1624488.21621540 2631.67102138
0.00900000 1623350.54884900 3409.03629831
0.01000000 1622079.43615607 3747.00365931
0.01100000 1620676.04740680 3792.38211605
0.01200000 1619139.91264276 3473.05526489
0.01300000 1617472.42508314 4076.03069098
0.01400000 1615672.73220123 4362.31657033
0.01500000 1613742.55072469 4647.57875304
0.01600000 1611680.97885421 4109.78667980
0.01700000 1609489.91540379 5214.74755984
0.01800000 1607168.95795135 5954.56125715
0.01900000 1604718.81272982 5776.98798650
0.02000000 1602140.11334764 7065.43821947
0.02100000 1599434.52820653 7389.38785534
0.02200000 1596600.10810809 7711.57887252
0.02300000 1593639.78153406 6884.52416960
0.02400000 1590553.70267728 7157.49198841
0.02500000 1587342.70897614 9285.95527161
0.02600000 1584007.21322900 7056.75245770
0.02700000 1580548.26021994 7302.13329666
0.02800000 1576965.65529055 7545.78100661
0.02900000 1573261.92135132 7079.67897114
0.03000000 1569437.57621849 10217.03909081
0.03100000 1565492.48854433 8265.80071985
0.03200000 1561427.80000611 11593.60194903
0.03300000 1557246.33441981 7941.95667167
0.03400000 1552945.92247997 12229.44970380
0.03500000 1548530.12885595 11706.88831475
0.03600000 1543998.46767992 10283.03026997
0.03700000 1539352.92126035 8774.31205697
0.03800000 1534594.62086565 8977.37894753
0.03900000 1529724.73113631 11931.85345543
0.04000000 1524742.30682560 11252.59874581
0.04100000 1519651.20650161 14360.70456730
0.04200000 1514451.76349115 12698.67862600
0.04300000 1509143.99205242 10956.38589087
0.04400000 1503731.69595789 10150.18941911
0.04500000 1498214.02329860 11371.44496521
0.04600000 1492591.64255639 12627.32588303
0.04700000 1486867.77145479 13917.08298807
0.04800000 1481042.22200802 15239.92517355
0.04900000 1475118.22123923 14382.40332655
0.05000000 1469094.71368280 13486.29009961
0.05100000 1462975.44651874 11411.20901443
0.05200000 1456758.17949319 11581.22806667
0.05300000 1450449.03476032 14098.36527511
0.05400000 1444045.56266510 13104.71409231
0.05500000 1437551.82795206 16905.61028535
0.05600000 1430966.75487474 19575.62612017
0.05700000 1424294.94851627 17347.91328270
0.05800000 1417534.99322428 13799.70380338
0.05900000 1410688.98774634 15235.44177924
0.06000000 1403759.50162925 17982.16005598
0.06100000 1396748.08119695 14288.73353838
0.06200000 1389655.17665925 14445.46623660
0.06300000 1382483.78169516 14599.02941728
0.06400000 1375232.18572628 16090.21732548
0.06500000 1367906.92696290 17604.96297353
0.06600000 1360504.90958179 17774.99747535
0.06700000 1353029.84358998 22081.44808078
0.06800000 1345484.17794012 13925.76189353
0.06900000 1337868.87953750 15452.38628212
0.07000000 1330183.72166665 21249.68594871
0.07100000 1322433.04668186 17138.73308774
0.07200000 1314616.07523561 15834.55136801
0.07300000 1306737.36549287 14504.78543660
0.07400000 1298795.84152516 17533.74468229
0.07500000 1290794.62062548 16186.56530135
0.07600000 1282733.38382221 14815.57127771
0.07700000 1274617.19606403 17895.62627184
0.07800000 1266444.89914439 21010.32186211
0.07900000 1258218.43006724 18118.34624279
0.08000000 1249941.26594833 19742.82322181
0.08100000 1241613.65629248 19853.40329560
0.08200000 1233237.17380337 23030.70530150
0.08300000 1224813.58950968 16975.91714732
0.08400000 1216344.58168645 15508.39414445
0.08500000 1207833.33192684 15581.05071331
0.08600000 1199279.51302043 15650.59837974
0.08700000 1190686.34291447 20432.17860386
0.08800000 1182052.25187767 17358.43813404
0.08900000 1173383.94772278 22176.95765361
0.09000000 1164679.55276040 20667.23963459
0.09100000 1155941.95302691 20737.59961158
0.09200000 1147171.84427840 22404.26717146
0.09300000 1138372.70693921 19261.26710654
0.09400000 1129542.80822664 20924.78150581
0.09500000 1120686.82640995 19365.46927059
0.09600000 1111805.55728516 17794.44878083
0.09700000 1102901.29519699 21076.44474208
0.09800000 1093975.47732566 17870.09026232
0.09900000 1085029.98758964 22785.63081082
0.10000000 1076064.40725354 17932.61419020
0.10100000 1067080.95924437 19591.60733316
0.10200000 1058082.74410485 21251.59291494
0.10300000 1049070.04516006 18002.04282178
0.10400000 1040045.87632087 16380.72332269
0.10500000 1031012.49541349 21311.02928287
0.10600001 1021966.20351467 19683.07000585
0.10700001 1012915.28653222 19691.07409680
0.10800001 1003856.24014558 16413.05029881
0.10900001 994793.50594700 18055.50298273
0.11000001 985727.04851042 21336.06296929
0.11100001 976659.14960497 19689.44938288
0.11200001 967592.16171184 21320.89428705
0.11300001 958525.02746346 16390.77874132
0.11400001 949461.64761914 21291.67845037
0.11500001 940402.87844186 17999.31194093
0.11600001 931349.18228992 17979.69681080
0.11700001 922304.12402175 17957.26214040
0.11800001 913265.24828031 19562.14253951
0.11900001 904236.94014468 19531.51882709
0.12000001 895220.21478233 17873.07243004
0.12100001 886217.03383865 24326.65872485
0.12200001 877226.91982847 22658.77240665
0.12300001 868252.68747868 19379.40089757
0.12400001 859294.60705369 22556.48449796
0.12500001 850354.67162585 16071.70405104
0.12600001 841435.26890346 17632.27689077
0.12700001 832536.15328886 17583.16438609
0.12800001 823657.72120490 17531.55542210
0.12900001 814803.07503708 17477.52678330
0.13000001 805972.22638770 22172.29699301
0.13100001 797166.47458815 23675.84541129
0.13200001 788388.07686661 18874.01144991
0.13300001 779638.55578866 23506.10356518
0.13400001 770916.41306420 17172.16391060
0.13500001 762225.48032326 18659.28063806
0.13600001 753564.46327763 18582.90054062
0.13700001 744936.37112160 16962.20197026
0.13800001 736340.55710389 16887.97147354
0.13900001 727781.52572756 19868.43658932
0.14000001 719256.26830618 21297.17910893
0.14100001 710768.05569056 15139.36030023
0.14200001 702315.91766954 15064.67714454
0.14300001 693905.01218467 17986.01876418
0.14400001 685529.40426504 14910.26524608
0.14500001 677197.66229244 16313.69245418
0.14600001 668904.51771242 14749.34531135
0.14700001 660657.11307086 16133.24746230
0.14800001 652449.75012428 14582.25260325
0.14900001 644285.87349836 17395.71940520
0.15000001 636167.28760156 17291.02769285
0.15100001 628094.51619159 17184.66677386
0.15200001 620068.44382552 18499.74289448
0.15300001 612089.67539092 16967.12660250
0.15400001 604156.58475349 23879.29013927
0.15500001 596273.75552408 20929.20980661
0.15600001 588438.03043366 15243.48789780
0.15700001 580656.31284193 16513.86631663
0.15800001 572920.32273408 19129.81047899
0.15900001 565238.61817963 24418.30945792
0.16000001 557606.29061950 14812.81180951
0.16100001 550029.34559474 20048.57059331
0.16200001 542503.48209493 14590.63183971
0.16300001 535032.07432001 14477.96861457
0.16400001 527614.82421662 14364.31426743
0.16500001 520252.17672683 18135.99173692
0.16600001 512945.27404682 12849.27972153
0.16700001 505692.82575223 14017.80579170
0.16800001 498495.66598109 15164.23887515
0.16900001 491357.24936295 17541.45463053
0.17000001 484275.11200298 16148.15437225
0.17100001 477250.35609532 14775.67172244
0.17200001 470283.60560865 12203.86014185
0.17300001 463375.31994881 12094.09642180
0.17400001 456525.96363720 17975.71066714
0.17500001 449735.00744591 18996.80761169
0.17600001 443001.39776685 19994.86903255
0.17700001 436330.34876570 16310.02920719
0.17800001 429717.31902404 14999.28372898
0.17900001 423164.74134377 11425.44855595
0.18000001 416673.07062415 13575.20928216
0.18100001 410243.09802348 14559.52823659
0.18200001 403871.04551171 13303.51286759
0.18300001 397562.45214325 13167.26903700
0.18400001 391313.58404907 13030.74296442
0.18500001 385126.93168497 11819.54609179
0.18600001 379001.64349574 12757.19592276
0.18700001 372937.19030353 15775.24389514
0.18800001 366934.77890332 13523.38191541
0.18900001 360995.58854530 12346.04971157
0.19000001 355114.40382738 11191.43096540
0.19100001 349300.26618033 12071.81776959
0.19200001 343543.85578198 10940.15460431
0.19300001 337852.27709733 11797.80207372
0.19400001 332221.87465653 17491.48252721
0.19500001 326654.20039984 9603.63394558
0.19600001 321146.96353750 12336.86118729
0.19700001 315702.85852265 9376.37534123
0.19800001 310320.44408161 11115.67883232
0.19900001 305000.89893477 9150.02740047
0.20000001 299741.30847449 10844.64105314
0.20100001 294545.44835214 9817.20025756
0.20200001 289409.99643772 10575.04176965
0.20300001 284336.72009372 10440.84485532
0.20400001 279324.88474198 11166.01279533
0.20500001 274373.64165806 8478.14592797
0.20600001 269484.25204997 10877.73234817
0.20700001 264655.71009232 10734.43610875
0.20800001 259888.11778064 9776.99145307
0.20900001 255183.04862294 12861.22625856
0.21000001 250536.22487328 9515.36627050
0.21100001 245949.90833990 7821.20745494
0.21200001 241423.50204675 9256.17750605
0.21300001 236957.16482348 9127.59042051
0.21400001 232551.35673635 8249.75977024
0.21500001 228205.24780917 8133.23541644
0.21600001 223916.86142153 10203.89185740
0.21700001 219688.25440101 10057.32876198
0.21800001 215518.27842777 9203.70851541
0.21900001 211405.36248413 9069.29047938
0.22000001 207350.44885411 7561.03447497
0.22100001 203355.46007448 9480.43199694
0.22200001 199416.86809580 9338.69237450
0.22300001 195534.88669603 9197.96150511
0.22400001 191708.67992883 6470.16825355
0.22500001 187941.99650613 7645.48077940
0.22600001 184229.04274885 8782.19888313
0.22700001 180573.20963675 8645.84568626
0.22800001 176972.10617601 9726.38741539
0.22900001 173425.70643931 6581.50587062
0.23000001 169933.91149578 7654.67340533
0.23100001 166498.39334701 8691.21654375
0.23200001 163114.85833758 6841.03748222
0.23300001 159785.86263518 6730.18085249
0.23400001 156509.90300315 7172.06664432
0.23500001 153285.88870131 6511.58486000
0.23600001 150114.75757275 5336.57988412
0.23700001 146995.76663910 6822.07385239
0.23800001 143928.05702311 6191.78530600
0.23900001 140911.79814609 5072.82497320
0.24000001 137945.72976384 5984.08604020
0.24100001 135031.55522854 6372.13939264
0.24200001 132166.25629959 6744.44437799
0.24300001 129350.69973987 6627.93016819
0.24400001 126583.34590816 6977.90727327
0.24500001 123865.17628291 5941.81278736
0.24600001 121195.60363059 4939.32705962
0.24700001 118573.74625011 4852.03792608
0.24800001 115998.41907493 7365.31996759
0.24900001 113469.86076572 5957.16797202
0.25000001 110988.31703457 5432.32343425
0.25100001 108551.72148142 4103.25526612
0.25200001 106161.84713961 5640.37920537
0.25300001 103817.27399172 3955.43832622
0.25400001 101515.96555934 4271.28445299
0.25500001 99259.36583469  4192.71581122
0.25600001 97046.46201253  4489.36954510
0.25700001 94876.54991521  4038.89492098
0.25800001 92749.20408949  5044.62944911
0.25900001 90664.68636324  4243.10752256
0.26000001 88622.27595450  4163.47472134
0.26100001 86619.17560721  3744.54713868
0.26200001 84659.25906921  3673.78872114
0.26300001 82738.27821016  3276.43597216
0.26400001 80857.36315526  4499.71247251
0.26500001 79016.76343390  4098.59971326
0.26600001 77213.87689132  3401.65750741
0.26700001 75450.95935769  3336.44158068
0.26800001 73725.58204638  3867.27558925
0.26900001 72037.22701783  3501.00939874
0.27000001 70386.85833859  4577.96148298
0.27100001 68772.67773837  3928.29553831
0.27200001 67195.32460673  3852.30814201
0.27300001 65653.06911560  3238.00952202
0.27400001 64145.21035465  3439.78706806
0.27500001 62674.15906837  2854.18133905
0.27600001 61235.48395627  2798.76792668
0.27700001 59832.58184870  3493.02629364
0.27800001 58461.70799572  2446.62259541
0.27900001 57124.80200306  3119.01433698
0.28000001 55819.60983860  2352.79666605
0.28100001 54546.69727250  2768.79048460
0.28200001 53305.86333301  2262.83400559
0.28300001 52096.06140502  2441.22155298
0.28400001 50917.25843617  2394.38419129
0.28500001 49768.90210075  2348.59460130
0.28600001 48649.60150229  2303.80198818
0.28700001 47560.34824533  2260.06785559
0.28800001 46499.37740066  2620.47253745
0.28900001 45468.15564141  1977.86486402
0.29000001 44464.13214834  2329.03135217
0.29100001 43488.92065803  2476.25925948
0.29200001 42540.10377136  2056.60141418
0.29300001 41618.34942132  2753.05394454
0.29400001 40722.90428861  1801.98860007
0.29500001 39854.77031169  2300.41745129
0.29600001 39010.60021024  2259.29901813
0.29700001 38191.80418799  2048.60847362
0.29800001 37398.28349424  2515.96964118
0.29900001 36629.24716820  1648.31620060
0.30000001 35883.81434069  1620.15429418
0.30100001 35162.76996467  2070.73562125
0.30200001 34463.71943395  1566.37612243
0.30300001 33788.22328122  1540.74305456
0.30400001 33135.54851850  1819.14169979
0.30500001 32503.82221300  1790.31061225
0.30600001 31893.95796627  1615.58851727
0.30700001 31305.98268141  2169.50470253
0.30800001 30738.38277486  1709.66893088
0.30900001 30191.27677087  1403.89443631
0.31000001 29665.26346758  1660.66152754
0.31100001 29157.06686143  1773.91603184
0.31200001 28669.76677119  1749.85929773
0.31300001 28200.47793310  1726.71534560
0.31400001 27751.30765291  1573.49921842
0.31500001 27319.93860329  1553.95818133
0.31600002 26906.04757177  1535.25914714
0.31700002 26509.70770650  1517.41574097
0.31800002 26130.94932275  1375.40258273
0.31900002 25769.35180026  1484.31473398
0.32000002 25423.79352409  1468.98685938
0.32100002 25095.17238221  1696.93563683
0.32200002 24782.68057737  1200.72093083
0.32300002 24484.99010900  1308.96763321
0.32400002 24202.94419057  1179.89358516
0.32500002 23935.29716925  1872.69773920
0.32600002 23683.04980353  1393.98437744
0.32700002 23444.63785835  1384.17148470
0.32800002 23221.15217563  1489.75308837
0.32900002 23010.11956079  1594.60136107
0.33000002 22813.93985185  1812.33946765
0.33100002 22628.89576623  1126.91906252
0.33200002 22458.61151402  1682.71154737
0.33300002 22299.97289640  2234.45739003
0.33400002 22154.11197119  1224.56859720
0.33500002 22019.70218800  1109.79304283
0.33600002 21897.02867397  1438.96330745
0.33700002 21784.93461746  1214.94586115
0.33800002 21685.33341176  1543.77895869
0.33900002 21595.33325784  1431.77066280
0.34000002 21516.78276436  1650.87523578
0.34100002 21448.16302931  1430.37806017
0.34200002 21390.52880715  1210.59703517
0.34300002 21341.36280508  1101.21437290
0.34400002 21302.33341220  1433.11454818
0.34500002 21272.31658805  2097.66323809
0.34600002 21252.58206040  1216.81664350
0.34700002 21239.52736587  1219.57371911
0.34800002 21236.58254872  1111.73514908
0.34900002 21241.58599909  1338.21998132
0.35000002 21254.54929871  1790.48331772
0.35100002 21275.59580199  1235.68666270
0.35200002 21303.52172610  1240.82368171
0.35300002 21338.98287770  1246.41004892
0.35400002 21382.24863924  1480.18623216
0.35500002 21432.11450970  1258.92246593
0.35600002 21488.19059301  1495.90045898
0.35700002 21550.93190034  1273.01360765
0.35800002 21620.51672093  1280.69136862
0.35900002 21695.79334916  1288.73018598
0.36000002 21777.71253871  1415.11582779
0.36100002 21864.26356962  1187.22956807
0.36200002 21957.63721891  1673.83076448
0.36300002 22054.44075077  1685.84153084
0.36400002 22157.16434825  1213.10480553
0.36500002 22264.49768979  1711.24937350
0.36600002 22376.92974688  1724.59005728
0.36700002 22493.43954686  1489.96550616
0.36800002 22615.65766697  1376.95438228
0.36900002 22741.34034008  1640.78778326
0.37000002 22869.85546373  1527.24902021
0.37100002 23002.94006978  1668.63335170
0.37200002 23139.89866097  1424.14513055
0.37300002 23279.73115471  1828.39017150
0.37400002 23423.95828576  1449.35748759
0.37500002 23570.32946035  2525.79662462
0.37600002 23720.55843417  1609.67717160
0.37700002 23872.67587214  1759.65502189
0.37800002 24028.30243097  1502.60996370
0.37900002 24186.09326362  1516.46811947
0.38000002 24346.53702789  1808.82605418
0.38100002 24508.78000571  2246.96505737
0.38200002 24673.21670812  1984.46691384
0.38300002 24839.58632962  1573.83626440
0.38400002 25008.26350372  2021.91820006
0.38500002 25177.40727936  1749.32634064
0.38600002 25349.52417106  2354.46391655
0.38700002 25522.05745116  2079.53733964
0.38800002 25695.83438572  1499.35200744
0.38900002 25870.83723336  2270.16607478
0.39000002 26047.69164762  1527.69718751
0.39100002 26224.47534222  1850.39906781
0.39200002 26402.57132067  1712.07481840
0.39300002 26581.15444381  1570.94630206
0.39400002 26760.95977081  1744.14563570
0.39500002 26940.48423936  1600.26483963
0.39600002 27120.24993615  1776.51205623
0.39700002 27299.91537413  1955.76603006
0.39800002 27480.66795761  1973.66166622
0.39900002 27660.82541768  2655.43936591
0.40000002 27840.86158718  1842.09069419
0.40100002 28020.39934851  1858.59317685
0.40200002 28200.93620350  2045.69600913
0.40300002 28379.99553887  1891.81059225
0.40400002 28558.52198743  3122.87452729
0.40500002 28736.78667325  1925.07743045
0.40600002 28914.45290802  2118.27292041
0.40700002 29091.38560376  2492.55003663
0.40800002 29267.82548195  2334.25553191
0.40900002 29442.31012804  2172.84259040
0.41000002 29616.77182474  2008.46147646
0.41100002 29789.90210199  2025.11764085
0.41200002 29961.41238573  2412.94246082
0.41300002 30132.01705366  2058.31818246
0.41400002 30301.29421327  2640.75791581
0.41500002 30469.65934500  2661.82956651
0.41600002 30635.31220642  2682.73441703
0.41700002 30800.37274760  3089.89354045
0.41800002 30964.77025225  2140.74949283
0.41900002 31125.47669588  2156.99563723
0.42000002 31285.17815154  2173.22500327
0.42100002 31443.88280392  2587.51723854
0.42200002 31600.61494619  2205.56502468
0.42300002 31754.75700257  2423.52316928
0.42400002 31907.31319991  2034.09131288
0.42500002 32058.10383374  2458.21551846
0.42600002 32205.71316604  2269.05362864
0.42700002 32352.36672670  4569.44849301
0.42800002 32496.30398917  2300.25098687
0.42900002 32638.86999891  2736.76937910
0.43000002 32779.07861089  2754.91779240
0.43100002 32915.50963902  2346.21763825
0.43200002 33050.74549336  2361.31062367
0.43300002 33183.24709679  3672.39013023
0.43400002 33313.59142179  3695.31030358
0.43500002 33441.32354046  3499.30026110
0.43600002 33567.26491845  3300.50147951
0.43700002 33689.71808422  3320.12187454
0.43800002 33809.07844763  2671.59350554
0.43900002 33926.88200627  2463.09175038
0.44000002 34041.21927538  2477.00943796
0.44100002 34153.82470997  2943.71829126
0.44200002 34263.40935041  2276.80365923
0.44300002 34370.46105207  2517.98009600
0.44400002 34474.27688484  2761.38970934
0.44500002 34574.55676266  3238.25313985
0.44600002 34672.81118855  2324.81210037
0.44700002 34768.52412005  2336.44493160
0.44800002 34860.53369137  2817.42846646
0.44900002 34950.81148506  2831.01586446
0.45000002 35037.92741561  3318.44226280
0.45100002 35120.93852110  2857.43969350
0.45200002 35201.95860863  2870.36784098
0.45300002 35279.68821622  3123.31094580
0.45400002 35354.85206537  3619.45315173
0.45500002 35427.05000502  2665.53136871
0.45600002 35495.80418029  3893.17998701
0.45700002 35561.76762209  2687.40290657
0.45800002 35624.04830860  3188.53059498
0.45900002 35683.67837661  5663.00002676
0.46000002 35741.12806746  2471.49912300
0.46100002 35794.33366294  3224.71167253
0.46200002 35845.17700820  3236.28195957
0.46300002 35892.43619332  2498.11367745
0.46400002 35936.39491088  3007.87639660
0.46500002 35978.19840204  3269.33904375
0.46600002 36016.17943893  3279.81353606
0.46700002 36051.02946079  3543.09534333
0.46800002 36083.53928182  3046.17253055
0.46900002 36112.13183409  3309.67703946
0.47000002 36137.60654900  2808.43422607
0.47100002 36160.37407362  3072.18552691
0.47200002 36179.79167337  3337.04324316
0.47300002 36196.64121904  2830.93944392
0.47400002 36209.18594651  2837.89508307
0.47500002 36219.72520271  2586.08850205
0.47600002 36227.43052205  2592.07277671
0.47700002 36231.13668178  2597.77262321
