# SAXS profile: number of points = 501, q_min = 0, q_max = 0.5, delta_q = 0.001
#    q    intensity    error
0.00000000 1646666.22097351 296.39991978
0.00100000 1646598.52911261 543.37752751
0.00200000 1646395.40450628 814.96575104
0.00300000 1646057.01221212 1185.16109101
0.00400000 1645583.21287531 1851.28118483
0.00500000 1644974.46462106 2220.71561514
0.00600000 1644230.51900363 1726.44211524
0.00700000 1643352.01256578 2366.42699644
0.00800000 1642338.37021305 3325.73534009
0.00900000 1641190.95454586 2461.78653705
0.01000000 1639908.96822360 2976.43490585
0.01100000 1638493.55072890 2949.28851972
0.01200000 1636944.27722703 4149.65392471
0.01300000 1635262.47553683 4464.26675511
0.01400000 1633447.37141753 5145.35944806
0.01500000 1631500.62991180 5481.84236060
0.01600000 1629421.39241196 4570.52721003
0.01700000 1627211.53295522 5272.16560328
0.01800000 1624870.61212327 5557.05774352
0.01900000 1622399.43905507 5353.91839046
0.02000000 1619798.58117073 6633.07548995
0.02100000 1617069.72689282 5869.96337476
0.02200000 1614210.96789831 6682.83371072
0.02300000 1611225.11213576 6960.49280126
0.02400000 1608112.42374034 6030.42186400
0.02500000 1604873.79642010 7510.80971027
0.02600000 1601509.49045035 8431.94785288
0.02700000 1598020.69309453 8054.02466208
0.02800000 1594407.17219542 7629.23866883
0.02900000 1590671.40555279 7873.82381901
0.03000000 1586813.96365046 9592.29085118
0.03100000 1582834.65024866 13675.69200741
0.03200000 1578734.77448940 9377.68499239
0.03300000 1574517.01088356 8833.04083826
0.03400000 1570179.34466343 8243.44193984
0.03500000 1565725.12151831 11836.88246528
0.03600000 1561154.05948777 10397.28651669
0.03700000 1556468.03876283 13307.80234688
0.03800000 1551668.27670639 16339.06770988
0.03900000 1546755.92064440 9280.53595365
0.04000000 1541729.93111439 13274.29532201
0.04100000 1536594.31093219 11616.65352927
0.04200000 1531349.43383287 10864.92473710
0.04300000 1525995.05720649 10071.56784506
0.04400000 1520535.24382636 12316.33604699
0.04500000 1514969.05339882 12543.94434500
0.04600000 1509297.24173203 11704.60065374
0.04700000 1503522.95545542 11907.90236102
0.04800000 1497646.09683106 14310.00912104
0.04900000 1491669.75893864 12306.27608407
0.05000000 1485593.01693034 12501.26581960
0.05100000 1479419.52735415 11539.47285092
0.05200000 1473147.25356944 15224.97757514
0.05300000 1466782.04280150 11880.93510056
0.05400000 1460321.57423596 14457.18425913
0.05500000 1453770.10191147 12211.66942572
0.05600000 1447126.30453392 13610.22352925
0.05700000 1440394.83166305 12531.43562042
0.05800000 1433574.42127771 16493.27448691
0.05900000 1426666.96765707 19260.00496292
0.06000000 1419675.33554551 16887.03890526
0.06100000 1412600.98236270 14450.90872488
0.06200000 1405444.22697415 15937.73827887
0.06300000 1398208.14279449 16107.35855810
0.06400000 1390891.04682485 13561.18834075
0.06500000 1383499.46096896 15066.30983472
0.06600000 1376030.44141467 16594.92789991
0.06700000 1368487.40432556 22333.71548379
0.06800000 1360873.13417041 15493.54135777
0.06900000 1353188.43394365 17050.17506596
0.07000000 1345433.10890937 14328.86328088
0.07100000 1337611.53391899 17335.44629154
0.07200000 1329722.85492243 20384.65232092
0.07300000 1321771.83954629 20540.33534898
0.07400000 1313757.19805477 17735.72300491
0.07500000 1305682.19558948 19350.21104563
0.07600000 1297546.45697219 14986.66228061
0.07700000 1289355.24287372 16594.00275385
0.07800000 1281107.05099054 15181.11926617
0.07900000 1272804.19856224 18328.38131897
0.08000000 1264449.97970106 23044.60196110
0.08100000 1256044.66475134 20084.15513169
0.08200000 1247589.70712455 15532.49258257
0.08300000 1239087.29980875 17173.75078135
0.08400000 1230538.63110627 20396.17876796
0.08500000 1221947.23493505 17339.43207773
0.08600000 1213312.91496431 20583.85456881
0.08700000 1204638.24894160 22261.71588580
0.08800000 1195922.48358798 22351.79226798
0.08900000 1187171.76946478 17629.50160460
0.09000000 1178384.47579766 28952.90793043
0.09100000 1169563.39743790 20981.96833579
0.09200000 1160709.42816220 16191.89728367
0.09300000 1151825.85083083 21112.96883787
0.09400000 1142911.21552253 21172.43126261
0.09500000 1133969.77238876 24493.74823487
0.09600000 1125002.62198716 19642.54670325
0.09700000 1116012.17595984 19686.45570945
0.09800000 1106999.77520379 18082.84217817
0.09900000 1097967.17816472 21410.36098098
0.10000000 1088914.04733150 16497.04859288
0.10100000 1079842.84240073 23130.23477208
0.10200000 1070756.30039943 21506.14130509
0.10300000 1061654.94263293 21530.36324940
0.10400000 1052541.85319181 16577.53496766
0.10500000 1043419.03300203 16590.36340530
0.10600001 1034283.13667400 21580.31866213
0.10700001 1025142.04037220 16607.30183553
0.10800001 1015992.90694967 21594.93025351
0.10900001 1006839.59857215 19935.42499000
0.11000001 997682.25393423 18272.55134089
0.11100001 988523.31375742 19928.63094346
0.11200001 979364.87920086 18260.25903234
0.11300001 970206.09331874 18249.57747453
0.11400001 961050.79394873 18235.93967381
0.11500001 951900.02048448 21531.97947726
0.11600001 942754.21537605 24818.00588849
0.11700001 933616.59112425 24787.52166172
0.11800001 924485.08420137 19802.47143626
0.11900001 915364.03400653 21419.51940465
0.12000001 906254.24850649 18093.36692372
0.12100001 897158.06432662 16417.99335060
0.12200001 888074.60351270 29492.95897211
0.12300001 879007.10509476 16349.53292506
0.12400001 869955.57218748 21205.16807120
0.12500001 860922.05539193 22779.99865908
0.12600001 851908.92736975 19474.63899738
0.12700001 842916.12662978 16183.99039398
0.12800001 833943.81795106 16136.81363787
0.12900001 824995.36191663 19304.89237873
0.13000001 816070.80196912 17639.37121599
0.13100001 807171.17445882 22374.78601069
0.13200001 798298.86385241 19111.27570154
0.13300001 789455.46843800 23802.08349551
0.13400001 780639.48956057 17388.74544976
0.13500001 771854.56245834 22044.16734315
0.13600001 763099.83151029 18818.04273233
0.13700001 754377.89886694 15615.62324287
0.13800001 745688.36724274 17102.36350919
0.13900001 737035.81105607 18573.30331450
0.14000001 728417.00739725 16946.62247631
0.14100001 719835.39382829 18398.99353400
0.14200001 711289.96210731 19834.32152885
0.14300001 702785.96761416 21252.24866307
0.14400001 694317.21897786 18121.68027012
0.14500001 685892.46121173 19527.35929184
0.14600001 677506.62198695 14939.02171955
0.14700001 669166.49532675 16341.04658679
0.14800001 660866.81555106 17724.44882930
0.14900001 652610.55523125 20557.23345969
0.15000001 644399.92093322 18974.35656714
0.15100001 636235.15150387 15956.77835264
0.15200001 628117.68463768 23064.48246824
0.15300001 620047.41960568 15755.40567566
0.15400001 612023.15780492 18498.40081761
0.15500001 604049.34918621 16961.70652562
0.15600001 596123.09291211 15442.56945070
0.15700001 588250.88173381 19518.16517712
0.15800001 580424.65891725 17996.06739912
0.15900001 572653.06156041 13743.67412616
0.16000001 564931.28204440 17736.01843697
0.16100001 557265.36790556 16249.85889519
0.16200001 549650.48734338 17470.64156493
0.16300001 542090.44595372 16002.51072000
0.16400001 534584.94434945 18523.36919619
0.16500001 527134.51079823 15750.77992627
0.16600001 519739.77655925 15623.37842100
0.16700001 512400.32211526 15494.98647236
0.16800001 505116.35386799 16646.11022769
0.16900001 497891.49838157 16505.10395069
0.17000001 490723.48467406 15104.46957150
0.17100001 483613.04965952 12477.21727041
0.17200001 476561.05285276 14840.11188663
0.17300001 469567.88107564 13481.29450233
0.17400001 462634.26257785 13358.56496281
0.17500001 455759.35421872 14438.45702354
0.17600001 448942.30850714 13111.36073919
0.17700001 442187.97765100 11806.41956091
0.17800001 435492.60030563 14031.57224459
0.17900001 428857.80179402 13894.99343444
0.18000001 422284.57626423 12611.52946584
0.18100001 415773.36943588 13620.73622611
0.18200001 409320.61067054 13483.02155240
0.18300001 402931.88294187 13345.10459345
0.18400001 396603.22237731 13206.88792907
0.18500001 390337.42894990 11979.45626041
0.18600001 384133.44439869 15084.92107420
0.18700001 377990.96083493 13857.14927889
0.18800001 371910.68146884 11598.03514957
0.18900001 365894.50604999 12513.59269815
0.19000001 359936.78763719 10312.18945304
0.19100001 354046.49507485 14275.15535592
0.19200001 348214.97809042 12096.98891046
0.19300001 342448.41585700 11958.29924679
0.19400001 336743.60007203 14774.62615132
0.19500001 331102.19065795 11681.28583841
0.19600001 325521.88926302 13466.84119520
0.19700001 320005.00408866 11404.97888469
0.19800001 314550.74252618 9389.34010813
0.19900001 309159.73172269 11129.75086801
0.20000001 303829.32202764 12824.63628889
0.20100001 298563.14336951 11760.40277315
0.20200001 293358.05986918 12505.85468329
0.20300001 288215.85023762 11465.22706435
0.20400001 283135.60803225 9577.06239436
0.20500001 278116.54829776 11171.94227318
0.20600001 273160.01083169 9329.78061096
0.20700001 268264.97812571 10880.82802711
0.20800001 263431.39484462 10736.14700439
0.20900001 258661.14814149 8962.60920678
0.21000001 253949.77125330 8037.51064012
0.21100001 249299.27893491 10306.03267837
0.21200001 244709.68539802 8600.32229989
0.21300001 240180.63483574 8480.77861698
0.21400001 235712.85503249 10642.43590785
0.21500001 231305.33086503 8243.72238177
0.21600001 226956.01701554 8126.16057343
0.21700001 222667.40014700 7281.22432906
0.21800001 218437.91639341 10763.52883919
0.21900001 214266.25368554 8484.94404713
0.22000001 210153.23876409 7663.23821387
0.22100001 206100.89736040 8922.10826860
0.22200001 202105.54247000 6760.43071528
0.22300001 198167.48540162 7324.27060678
0.22400001 194285.79881489 6557.14602007
0.22500001 190464.24194595 6456.73810729
0.22600001 186697.38734395 7628.45560761
0.22700001 182988.18073864 7509.83529265
0.22800001 179334.26982363 6776.14570573
0.22900001 175735.86616101 6669.17643620
0.23000001 172192.59326770 10143.00518612
0.23100001 168706.46008657 7045.18210640
0.23200001 165272.76921568 7509.16862445
0.23300001 161894.51674252 5682.49780641
0.23400001 158569.83122794 6148.54549666
0.23500001 155297.76719125 6597.04946230
0.23600001 152079.36065823 7028.34798524
0.23700001 148913.76244727 7442.71019914
0.23800001 145800.19122532 5749.63081292
0.23900001 142738.64719832 6166.30985063
0.24000001 139727.99022012 6061.40050246
0.24100001 136769.72044615 7447.11163055
0.24200001 133861.21508442 6830.93812888
0.24300001 131003.15660559 5753.65891028
0.24400001 128193.89664870 4711.12592469
0.24500001 125434.47797751 5091.38570195
0.24600001 122724.18467296 5911.01063439
0.24700001 120062.54230107 5359.59214186
0.24800001 117447.94277580 6141.35321827
0.24900001 114880.87079628 4738.83614453
0.25000001 112361.37029339 5076.48695001
0.25100001 109887.65802470 4153.75366984
0.25200001 107461.14089378 5709.41068580
0.25300001 105080.64700195 4804.28740822
0.25400001 102744.17769314 5108.95447750
0.25500001 100452.88413751 5786.08640007
0.25600001 98206.07149538  6057.35077642
0.25700001 96002.90482271  4829.90637015
0.25800001 93842.91636470  4010.37722059
0.25900001 91726.35868896  4292.79378976
0.26000001 89652.45369140  3509.89372809
0.26100001 87618.57072014  3443.40999223
0.26200001 85628.69236980  4729.27290336
0.26300001 83678.33526190  3976.39467980
0.26400001 81768.38793545  3575.32293166
0.26500001 79899.59752196  3506.79350118
0.26600001 78069.14574849  3126.66943518
0.26700001 76279.19996365  4292.99357710
0.26800001 74527.43093947  3307.90017878
0.26900001 72813.35283604  3538.72911529
0.27000001 71137.79770963  3470.10193649
0.27100001 69499.12939810  3686.23399772
0.27200001 67897.71716538  3058.45281445
0.27300001 66332.16219999  5452.50399087
0.27400001 64801.51842246  2673.06276143
0.27500001 63308.28412646  3669.34832162
0.27600001 61847.98241813  4111.65406575
0.27700001 60423.95343192  2771.64687509
0.27800001 59032.63878794  2470.51605020
0.27900001 57675.85537695  2906.86324857
0.28000001 56351.33688384  2850.25075448
0.28100001 55059.70229972  2329.02551751
0.28200001 53800.60535307  2512.21938586
0.28300001 52573.09664707  2239.61402317
0.28400001 51377.10246517  3074.91972808
0.28500001 50212.16542473  2800.33259828
0.28600001 49076.81385316  2112.75693638
0.28700001 47971.96749411  2486.86691260
0.28800001 46896.01787717  3252.70795392
0.28900001 45850.40382680  2792.28972522
0.29000001 44832.29923111  2152.62294947
0.29100001 43843.56860312  2304.41807486
0.29200001 42881.85482618  2073.12336970
0.29300001 41947.60262278  2219.86723588
0.29400001 41040.12220022  2360.83314132
0.29500001 40160.40289323  2318.05856473
0.29600001 39305.25433985  1751.04916373
0.29700001 38475.83066951  2407.81759728
0.29800001 37672.20342110  2196.47792445
0.29900001 36893.50951045  1660.20800656
0.30000001 36138.95351794  1631.67382858
0.30100001 35409.25854355  2085.25133435
0.30200001 34701.81546714  1577.19758765
0.30300001 34018.39257390  2481.98203969
0.30400001 33358.40463709  1983.99120972
0.30500001 32719.71200554  1652.01833737
0.30600001 32103.16766705  2069.69131748
0.30700001 31509.03198305  1601.28908119
0.30800001 30935.64148011  1720.64046058
0.30900001 30383.23561471  1412.82052297
0.31000001 29852.14033716  1671.12289519
0.31100001 29339.45242133  1373.08643833
0.31200001 28847.84540716  1354.40640599
0.31300001 28374.84299679  1336.45516842
0.31400001 27922.21952084  1451.25742831
0.31500001 27487.65667623  1302.91498814
0.31600002 27071.13610219  1544.67909913
0.31700002 26672.36150924  1399.49887465
0.31800002 26291.58287802  1258.05230028
0.31900002 25928.28711903  1244.55784064
0.32000002 25581.36948587  1478.09159888
0.32100002 25251.79217320  1219.66161972
0.32200002 24938.47548879  1449.92303357
0.32300002 24640.42282563  1197.52460603
0.32400002 24358.17016496  1781.19127765
0.32500002 24090.70537462  1178.03554860
0.32600002 23838.94916903  1403.16061453
0.32700002 23601.33594745  1509.54151868
0.32800002 23378.88046860  1269.12258633
0.32900002 23169.16738581  1605.62337587
0.33000002 22974.64133257  1825.10559389
0.33100002 22791.33809628  1929.51477460
0.33200002 22623.25889131  1469.04138567
0.33300002 22466.87282572  1350.70845825
0.33400002 22323.61207162  1682.64233958
0.33500002 22192.05295290  1565.87133051
0.33600002 22072.37415030  1227.33442275
0.33700002 21963.60953825  1224.91056196
0.33800002 21867.50481674  1223.15893985
0.33900002 21781.27525365  1444.09861771
0.34000002 21706.48512845  1221.31544359
0.34100002 21642.03571133  1110.23648457
0.34200002 21588.71593499  1221.81343620
0.34300002 21543.99776459  1222.83737103
0.34400002 21509.66114560  1224.43751870
0.34500002 21484.50962441  1226.55071255
0.34600002 21469.74675024  1452.75048266
0.34700002 21461.84674563  1680.46267977
0.34800002 21464.22365649  1348.38259396
0.34900002 21474.65457102  1352.90330205
0.35000002 21493.24352731  1244.78125784
0.35100002 21520.09331248  1818.01756914
0.35200002 21553.82856176  1255.40280404
0.35300002 21595.36808193  1376.05691936
0.35400002 21644.71152387  1498.35522621
0.35500002 21700.78315893  1390.58625069
0.35600002 21763.15408614  2214.29221737
0.35700002 21832.45977423  1172.40314541
0.35800002 21908.53051887  1651.68419405
0.35900002 21990.40678860  1424.97842740
0.36000002 22078.99606203  1315.13546273
0.36100002 22172.40137401  1324.35759680
0.36200002 22272.61319549  1576.56699972
0.36300002 22376.42873738  1221.75306693
0.36400002 22486.18982459  1846.67842682
0.36500002 22600.49897278  1861.15117857
0.36600002 22720.02822565  1500.88513568
0.36700002 22843.76155201  1639.26840662
0.36800002 22973.20532899  1780.19376527
0.36900002 23106.08870890  1795.34317773
0.37000002 23241.88029832  2198.79818978
0.37100002 23382.18597261  1435.19864298
0.37200002 23526.49086327  1842.83011662
0.37300002 23673.68006333  1460.90286591
0.37400002 23825.26190519  1340.17104565
0.37500002 23978.96551682  1487.65509114
0.37600002 24136.62256993  1774.40389228
0.37700002 24296.06699336  1515.34577016
0.37800002 24458.93271810  1390.49039089
0.37900002 24624.11964886  1965.00484107
0.38000002 24791.87453369  1841.91240574
0.38100002 24961.42151826  1859.37637698
0.38200002 25133.17209206  1732.68096611
0.38300002 25306.82493169  2332.27709619
0.38400002 25482.68164150  1618.78742796
0.38500002 25659.07930955  2079.92506737
0.38600002 25838.21691724  1499.90856310
0.38700002 26017.87787983  2271.36084652
0.38800002 26198.72235013  1834.43462586
0.38900002 26380.68988599  2469.23269031
0.39000002 26564.45546441  1713.80592548
0.39100002 26748.10066058  2988.29794737
0.39200002 26932.95365787  2381.54654003
0.39300002 27118.24473334  2404.03250951
0.39400002 27304.77912439  1779.58906374
0.39500002 27490.86533448  1796.25322606
0.39600002 27677.13807266  1977.80838038
0.39700002 27863.18773358  1663.43238650
0.39800002 28050.34667387  1678.81332797
0.39900002 28236.80250152  1694.20823036
0.40000002 28422.86383650  2222.52594300
0.40100002 28608.49414502  2242.61996228
0.40200002 28795.02783698  2088.79141826
0.40300002 28979.90448167  1931.80052428
0.40400002 29164.28253955  1771.73024822
0.40500002 29348.11298947  2502.22023204
0.40600002 29531.38439148  2163.46932303
0.40700002 29713.73714130  2182.17695905
0.40800002 29895.43193323  2017.49331961
0.40900002 30075.15098616  2774.43280993
0.41000002 30254.71235480  2051.72341556
0.41100002 30432.81358568  2444.97235932
0.41200002 30609.09564125  2465.10363427
0.41300002 30784.41660144  2102.88359768
0.41400002 30958.23188949  2312.58003172
0.41500002 31130.99982983  2525.34682586
0.41600002 31300.99163936  2545.24025576
0.41700002 31470.22514916  3354.41145759
0.41800002 31638.67627729  3181.58543720
0.41900002 31803.26625403  2404.32704273
0.42000002 31966.78822340  2624.31360355
0.42100002 32129.05726279  2847.27718955
0.42200002 32289.26984200  2458.50512227
0.42300002 32446.69773894  2682.69309618
0.42400002 32602.47756992  2078.40804357
0.42500002 32756.29624563  2093.12742928
0.42600002 32906.74331825  3161.51551411
0.42700002 33056.12549320  2971.08470012
0.42800002 33202.64481405  4273.18059006
0.42900002 33347.61770585  3441.47431032
0.43000002 33490.12536723  2598.16404911
0.43100002 33628.68752349  2397.05296027
0.43200002 33765.84979511  2412.40125293
0.43300002 33900.16049692  2648.28066352
0.43400002 34032.17459307  4219.13904511
0.43500002 34161.31301825  3127.80996817
0.43600002 34288.61018113  2472.38035427
0.43700002 34412.21805941  2939.14768374
0.43800002 34532.59407699  2956.16285605
0.43900002 34651.19617426  2973.07277264
0.44000002 34766.24703181  2529.76608515
0.44100002 34879.40679117  3468.75716977
0.44200002 34989.31332023  3255.05597244
0.44300002 35096.58844443  3506.14935176
0.44400002 35200.42408276  3759.40547020
0.44500002 35300.52225388  3306.24707098
0.44600002 35398.55083191  3797.55671322
0.44700002 35493.87394350  2385.18844204
0.44800002 35585.14982772  3594.98993172
0.44900002 35674.71678949  2648.84784715
0.45000002 35760.92942689  3144.99508750
0.45100002 35842.85137244  3402.20361351
0.45200002 35922.65281581  2685.03881197
0.45300002 35998.86229763  2451.52263865
0.45400002 36072.49118188  3446.72669578
0.45500002 36142.93601780  2472.17694078
0.45600002 36209.90178696  2730.40777365
0.45700002 36273.77844362  3488.81217605
0.45800002 36333.86681409  2751.74553358
0.45900002 36391.15533853  3264.28678857
0.46000002 36446.03677697  3528.34098760
0.46100002 36496.50908956  2529.20819978
0.46200002 36544.51690491  3553.22354707
0.46300002 36588.91586345  2546.58866479
0.46400002 36629.73264895  3065.90876803
0.46500002 36668.29077945  3075.73637636
0.46600002 36702.83538411  3599.44723672
0.46700002 36734.06897059  3094.47811675
0.46800002 36762.93973969  2844.90022659
0.46900002 36787.62168953  3630.93843285
0.47000002 36809.03357448  2860.61417982
0.47100002 36827.70307417  4954.06285234
0.47200002 36842.82879282  3920.99824012
0.47300002 36855.34226079  3144.49795073
0.47400002 36863.23716878  2889.15635004
0.47500002 36869.07467878  2895.69726252
0.47600002 36871.95712639  3957.28298616
0.47700002 36870.66972516  2907.98985906
