# SAXS profile: number of points = 501, q_min = 0, q_max = 0.5, delta_q = 0.001
#    q    intensity    error
0.00000000 1646666.22097350 271.69992646
0.00100000 1646585.82666508 493.97575973
0.00200000 1646344.57238231 963.11160534
0.00300000 1645942.68693187 1283.83534154
0.00400000 1645380.04689399 1604.24560668
0.00500000 1644657.12844224 2072.26806386
0.00600000 1643773.85745609 3279.32897913
0.00700000 1642730.79248213 2562.66014278
0.00800000 1641527.73354310 2659.27504061
0.00900000 1640165.90110723 3198.32364388
0.01000000 1638644.70211013 3244.51665027
0.01100000 1636965.36237126 2946.53778056
0.01200000 1635127.83271355 4782.74912038
0.01300000 1633133.27293228 4115.49602930
0.01400000 1630981.61800988 4770.62144417
0.01500000 1628674.32352312 5472.34597072
0.01600000 1626210.73509754 4976.20507185
0.01700000 1623593.19077961 4822.07199293
0.01800000 1620821.62702226 6467.07858282
0.01900000 1617896.49133608 6795.16557023
0.02000000 1614819.16503917 5086.68059997
0.02100000 1611591.56642564 6381.90289239
0.02200000 1608212.28499420 5548.33263530
0.02300000 1604684.34664162 7509.92308412
0.02400000 1601007.46986063 6604.15611431
0.02500000 1597183.94904329 7474.82122290
0.02600000 1593214.04011880 7097.76887337
0.02700000 1589099.70670975 7341.64098125
0.02800000 1584840.77448509 7583.46345369
0.02900000 1580439.79922793 11379.16707691
0.03000000 1575897.97733140 8793.51111771
0.03100000 1571215.69496885 10558.56995602
0.03200000 1566394.49737217 10855.11436676
0.03300000 1561437.81763922 8759.66656078
0.03400000 1556344.33235064 10622.05055840
0.03500000 1551116.78087998 10888.84030460
0.03600000 1545756.38544308 12868.42250351
0.03700000 1540265.33978405 10535.41541136
0.03800000 1534644.56485866 10773.20534389
0.03900000 1528896.49274593 10090.71731942
0.04000000 1523020.68481028 13113.20870387
0.04100000 1517021.47057521 13380.12999086
0.04200000 1510899.23589900 11694.36062839
0.04300000 1504655.07357988 11916.86873591
0.04400000 1498292.26381405 13147.51522556
0.04500000 1491812.68229552 15440.26197919
0.04600000 1485215.73296498 12564.92568499
0.04700000 1478505.61319686 10645.24091011
0.04800000 1471683.15807315 11898.55888664
0.04900000 1464751.81688805 12084.20305182
0.05000000 1457711.21112750 18957.53518349
0.05100000 1450565.73678516 12445.85460139
0.05200000 1443313.82107663 12621.77995351
0.05300000 1435961.43060400 13957.54575614
0.05400000 1428508.35690734 16499.27229170
0.05500000 1420957.33166591 16710.45899992
0.05600000 1413309.20189580 12083.79424009
0.05700000 1405569.07665483 13451.29669147
0.05800000 1397735.77577157 14843.95463179
0.05900000 1389812.16680748 20013.29613677
0.06000000 1381801.80844664 13907.83585177
0.06100000 1373705.84364253 16608.10442576
0.06200000 1365526.85561819 23227.61289981
0.06300000 1357267.33229232 20847.62719875
0.06400000 1348926.58528494 15782.44178593
0.06500000 1340510.13856992 18579.47138969
0.06600000 1332019.81662751 16064.15974015
0.06700000 1323455.92104902 20248.87653968
0.06800000 1314822.55661033 16330.09691750
0.06900000 1306121.71441031 16457.13437208
0.07000000 1297354.56747081 15198.50946964
0.07100000 1288523.42423949 16699.26436030
0.07200000 1279631.72348292 18215.55843712
0.07300000 1270681.14157809 19746.38586535
0.07400000 1261674.75295506 18451.99412670
0.07500000 1252613.07851995 15707.76874090
0.07600000 1243498.20657799 20107.36694301
0.07700000 1234335.13238791 15885.89389870
0.07800000 1225123.52457999 18873.02878123
0.07900000 1215866.35596415 17508.47634710
0.08000000 1206566.84401105 24921.63933215
0.08100000 1197226.16945616 22088.82386283
0.08200000 1187846.22236244 20704.16062732
0.08300000 1178430.64348163 17817.87216567
0.08400000 1168980.28802538 16394.94930911
0.08500000 1159498.13004032 16453.27923767
0.08600000 1149985.47427968 18008.77337276
0.08700000 1140446.97270630 21075.46104527
0.08800000 1130881.32191737 16606.99299228
0.08900000 1121294.09182052 19678.71223575
0.09000000 1111684.66419529 18209.39565491
0.09100000 1102056.38995053 16729.21678541
0.09200000 1092411.44530104 21334.79652918
0.09300000 1082753.78884604 16793.51205417
0.09400000 1073080.59193243 16820.53906906
0.09500000 1063398.02056800 16844.22543752
0.09600000 1053706.42279058 18397.71500676
0.09700000 1044010.93404966 16881.65759724
0.09800000 1034310.69916634 19967.36898623
0.09900000 1024608.70306359 21516.78377611
0.10000000 1014905.85930278 16913.40694067
0.10100000 1005204.19976209 18455.54997563
0.10200000 995507.19746697 18456.70430917
0.10300000 985815.40900899 24605.95376635
0.10400000 976132.14144360 15374.08195101
0.10500000 966460.14109148 18440.06035962
0.10600001 956796.48131433 16892.24267244
0.10700001 947148.38116910 19946.94584608
0.10800001 937514.59075930 19926.87356438
0.10900001 927899.43667294 16841.37556826
0.11000001 918302.17702143 25992.54434405
0.11100001 908725.27351901 15266.58531377
0.11200001 899171.23332788 22861.42968361
0.11300001 889641.04922197 21298.00772110
0.11400001 880137.16677525 16700.60352590
0.11500001 870661.15744927 22724.25727947
0.11600001 861214.04631584 16625.73794706
0.11700001 851798.60224973 21107.57035781
0.11800001 842413.96324107 22555.63492811
0.11900001 833063.05213178 17994.16277360
0.12000001 823747.13304378 14951.01116901
0.12100001 814470.29988659 20866.73006609
0.12200001 805230.52846049 16342.15434501
0.12300001 796031.64859655 16286.80829763
0.12400001 786872.64940462 22130.79430725
0.12500001 777755.94444079 19109.46445536
0.12600001 768684.96829104 16107.79426959
0.12700001 759658.24009420 17502.52667660
0.12800001 750677.88696455 17430.74135681
0.12900001 741746.06612189 17356.85876532
0.13000001 732863.28433504 23041.22274554
0.13100001 724029.75900909 14335.78990414
0.13200001 715247.98264773 14269.19792648
0.13300001 706518.93683437 21301.54694977
0.13400001 697843.12454292 19783.85351351
0.13500001 689222.39942003 15466.15137219
0.13600001 680657.20371765 16785.00743510
0.13700001 672149.28496468 23652.93445322
0.13800001 663697.19258536 16605.70454154
0.13900001 655304.84697314 15137.54267894
0.14000001 646971.20417350 19156.81825902
0.14100001 638699.21274128 16325.15264761
0.14200001 630487.65447760 14876.35690905
0.14300001 622338.72651079 16131.02055202
0.14400001 614249.94777348 13359.93699426
0.14500001 606227.11335973 17259.28673151
0.14600001 598268.12153144 13191.81270208
0.14700001 590374.84842894 14416.95447878
0.14800001 582544.61409793 15623.84728722
0.14900001 574782.19672621 12932.60003651
0.15000001 567085.58111305 15413.38682190
0.15100001 559456.07976773 16582.27898675
0.15200001 551895.44457582 17732.40147096
0.15300001 544403.13758985 21378.71222199
0.15400001 536977.67420356 18727.09727160
0.15500001 529623.02358944 14871.81520424
0.15600001 522336.22873731 13531.12064404
0.15700001 515121.71360709 15870.90074529
0.15800001 507974.87337520 18172.80195273
0.15900001 500900.25935357 14425.92815030
0.16000001 493894.26006442 14313.05633228
0.16100001 486961.61110968 15383.11802110
0.16200001 480099.56550093 14086.12191675
0.16300001 473308.81596924 13972.07690700
0.16400001 466589.93972865 15012.53201950
0.16500001 459942.14591577 12597.81597139
0.16600001 453366.65809362 15899.56945001
0.16700001 446862.52945042 14639.21715598
0.16800001 440430.78786662 11164.92099959
0.16900001 434071.93777727 13282.60192316
0.17000001 427783.65942902 13167.18165898
0.17100001 421568.15822416 15227.04259410
0.17200001 415424.69966474 16170.40719806
0.17300001 409352.50286264 10684.10082927
0.17400001 403353.37212788 11646.82917023
0.17500001 397424.93994673 12590.42269213
0.17600001 391566.65060641 10396.09506460
0.17700001 385782.90122654 11330.44434417
0.17800001 380068.37822023 10204.83643721
0.17900001 374424.84692091 15164.20701656
0.18000001 368853.25994271 12017.23977657
0.18100001 363352.43317948 14879.28284154
0.18200001 357920.22538470 14737.36597638
0.18300001 352558.61831447 11676.74199018
0.18400001 347266.89047434 11563.98799909
0.18500001 342044.62093787 17177.48167500
0.18600001 336891.83085755 10394.79793220
0.18700001 331807.12819384 12164.04989427
0.18800001 326789.67208048 11117.38516943
0.18900001 321843.27289800 11924.29382426
0.19000001 316960.09168242 11805.17917249
0.19100001 312147.10435485 9888.82073321
0.19200001 307399.17736096 9789.12726561
0.19300001 302719.04861066 9690.03720391
0.19400001 298103.21449068 10463.42332306
0.19500001 293553.22978335 10356.55843616
0.19600001 289067.19104422 8541.93589902
0.19700001 284647.11395468 11835.62755756
0.19800001 280289.54664219 10876.63637147
0.19900001 275995.80730444 11591.82445462
0.20000001 271762.83678157 9832.37989945
0.20100001 267594.17785993 12162.15595855
0.20200001 263485.59811065 8023.13684167
0.20300001 259438.54719040 7938.81991925
0.20400001 255452.52551461 11782.74829628
0.20500001 251525.27623763 8549.34454342
0.20600001 247656.91103861 7689.74745123
0.20700001 243848.00194673 10651.28122851
0.20800001 240096.12181058 9032.41652948
0.20900001 236404.22751788 9680.75357448
0.21000001 232766.15355828 10313.86875173
0.21100001 229185.47032520 8016.90813096
0.21200001 225659.25097643 8651.77609144
0.21300001 222188.11011714 9985.13414072
0.21400001 218771.63192997 7760.92400963
0.21500001 215409.27677767 8375.11307707
0.21600001 212098.33582121 8284.56138886
0.21700001 208840.44808774 9560.71616548
0.21800001 205634.08942816 8106.09618852
0.21900001 202477.88102866 9354.47854582
0.22000001 199371.56938232 9913.75175628
0.22100001 196315.97015224 7844.78653821
0.22200001 193309.11788090 9699.28544830
0.22300001 190349.77591498 7674.90332780
0.22400001 187437.54831991 7591.22106592
0.22500001 184574.25691007 8759.89464718
0.22600001 181755.34679049 6807.64683596
0.22700001 178982.89694775 7345.45843810
0.22800001 176254.64464688 6659.78206292
0.22900001 173570.56481142 6587.00324610
0.23000001 170930.12007864 7107.27472899
0.23100001 168333.84248637 7029.62159468
0.23200001 165777.89201917 6373.33136009
0.23300001 163264.88499445 7449.77705463
0.23400001 160791.78509698 6801.49283128
0.23500001 158358.76401741 7848.26071590
0.23600001 155965.58705231 7762.40763473
0.23700001 153612.02741714 7677.52949344
0.23800001 151296.08657559 5423.96496028
0.23900001 149018.00528331 5901.11328834
0.24000001 146776.57460822 6367.16810767
0.24100001 144572.65873667 5247.98776038
0.24200001 142404.57345347 7266.90572707
0.24300001 140270.89287203 7187.48089075
0.24400001 138172.31892704 5585.61625685
0.24500001 136106.95087987 5022.34672505
0.24600001 134075.48707697 4967.49703119
0.24700001 132077.28494820 6387.25780225
0.24800001 130111.06603113 7289.47281924
0.24900001 128175.51684422 5287.24031995
0.25000001 126272.14591701 5229.56117055
0.25100001 124398.48054881 5642.71534465
0.25200001 122556.81150976 7441.64994694
0.25300001 120743.11525076 5520.37549044
0.25400001 118959.00660952 6825.27332713
0.25500001 117201.80489304 5400.65942499
0.25600001 115473.73640858 5341.81529900
0.25700001 113772.21894013 4843.28358943
0.25800001 112097.72852687 5661.49604712
0.25900001 110450.28169581 4307.56118995
0.26000001 108828.11522013 4260.62091246
0.26100001 107230.50895126 7164.07064201
0.26200001 105659.31188812 5418.73806658
0.26300001 104110.95849203 5771.91181191
0.26400001 102587.70229629 7747.93658255
0.26500001 101087.64678889 4840.07675728
0.26600001 99610.30352490  4388.33212944
0.26700001 98155.96592539  4735.04402030
0.26800001 96724.02651093  4683.37758528
0.26900001 95313.19198106  4246.20290369
0.27000001 93924.21917301  4199.82165907
0.27100001 92555.97014295  4531.54051264
0.27200001 91209.01924646  4482.01141788
0.27300001 89882.04768257  4063.56756803
0.27400001 88573.53885974  5845.85384140
0.27500001 87286.62682113  5059.13312998
0.27600001 86016.42999879  5003.57596983
0.27700001 84767.11650388  4595.22560315
0.27800001 83534.93290665  3845.53081836
0.27900001 82321.49147459  5186.25420835
0.28000001 81125.15515329  3761.36799670
0.28100001 79946.68508670  4058.09392707
0.28200001 78785.61573033  3678.89450065
0.28300001 77641.25743749  5292.02835741
0.28400001 76512.67445917  4252.19208433
0.28500001 75401.29561848  4205.13045568
0.28600001 74305.31015904  3518.72812913
0.28700001 73225.92834192  4112.36833033
0.28800001 72160.50725883  4066.60557906
0.28900001 71111.88594311  4330.71405892
0.29000001 70077.44949636  3058.88081531
0.29100001 69058.27320183  4537.12876412
0.29200001 68053.29799050  3589.13110591
0.29300001 67062.80754973  2957.46995294
0.29400001 66085.60013785  4094.00312234
0.29500001 65123.57513716  2891.48687296
0.29600001 64173.89966195  2858.94736528
0.29700001 63238.34584423  3109.42961236
0.29800001 62316.17842218  3353.85688145
0.29900001 61407.42621521  3868.66803470
0.30000001 60510.70962727  4098.08800351
0.30100001 59627.47808444  3241.34986212
0.30200001 58756.08343366  4005.69617772
0.30300001 57897.97529427  2904.16257825
0.30400001 57051.68358454  2871.12611232
0.30500001 56217.93386046  3096.48394363
0.30600001 55395.14435198  4081.51442908
0.30700001 54584.98507129  3782.73964453
0.30800001 53786.22154538  3739.48722998
0.30900001 52999.32562312  2710.91563397
0.31000001 52223.82948381  3897.98681722
0.31100001 51459.08886302  2889.94256737
0.31200001 50706.75211725  2856.81854954
0.31300001 49964.37066155  2823.98636350
0.31400001 49234.55947833  3722.13287279
0.31500001 48514.34067960  2759.49582851
0.31600002 47805.92336865  2727.80611657
0.31700002 47107.51552318  3145.84003559
0.31800002 46419.75959398  3109.65984244
0.31900002 45743.20340695  3073.94341450
0.32000002 45077.10037005  3038.64747982
0.32100002 44421.00732972  2360.08823118
0.32200002 43776.15649232  2545.14585898
0.32300002 43139.84088970  2935.23491312
0.32400002 42515.14404122  2487.13604418
0.32500002 41900.03162837  3073.36746547
0.32600002 41295.39341274  2228.09305709
0.32700002 40700.63676367  2002.47142359
0.32800002 40116.63909590  2771.65872638
0.32900002 39540.73706753  2935.89986629
0.33000002 38976.01882447  2128.67536890
0.33100002 38419.95535481  2869.97080091
0.33200002 37875.10160946  1891.86141498
0.33300002 37339.27014998  1870.69752310
0.33400002 36813.63523522  2219.86230981
0.33500002 36296.97425154  2378.17786558
0.33600002 35789.65003891  1990.08358466
0.33700002 35291.92953189  2505.02127680
0.33800002 34804.41136747  2300.74572240
0.33900002 34325.41525753  2275.77513935
0.34000002 33855.87222270  2251.24633006
0.34100002 33395.84647049  1884.52770558
0.34200002 32945.74956450  2373.08245352
0.34300002 32504.22442651  2180.38347779
0.34400002 32072.54946233  1825.72996461
0.34500002 31649.55016357  1642.61173128
0.34600002 31236.29893768  2601.35909873
0.34700002 30830.85379062  1931.24477291
0.34800002 30435.39624429  2389.93960327
0.34900002 30048.61668648  2366.32867613
0.35000002 29671.00662598  2343.26785927
0.35100002 29302.99901800  2320.79763214
0.35200002 28942.13719048  1992.23210786
0.35300002 28591.54668174  1973.67456092
0.35400002 28249.17955604  1504.26888261
0.35500002 27915.71528873  1788.83912043
0.35600002 27590.43159332  2068.45475452
0.35700002 27273.94624230  2050.45537562
0.35800002 26966.23782157  1452.13197547
0.35900002 26667.55331011  2016.06712574
0.36000002 26377.05687772  1999.64477662
0.36100002 26094.33982697  1558.61499169
0.36200002 25821.56929949  1968.37832094
0.36300002 25555.69986048  1813.94366202
0.36400002 25298.66582639  1800.63262548
0.36500002 25048.99300246  1925.26569336
0.36600002 24808.47658118  1502.27737053
0.36700002 24575.39229475  1356.56171893
0.36800002 24351.27798428  1752.19629036
0.36900002 24134.74892620  2009.21794328
0.37000002 23925.57278193  1331.45818838
0.37100002 23724.16697130  1456.18943768
0.37200002 23531.14619284  1448.22446104
0.37300002 23345.50318830  1309.68279090
0.37400002 23167.51846367  1694.12486791
0.37500002 22997.16082098  1297.03993175
0.37600002 22834.55272592  1549.55282139
0.37700002 22678.93992121  1928.84393167
0.37800002 22530.88423521  1408.96891239
0.37900002 22390.62972611  1659.14574130
0.38000002 22256.86240892  1271.97974693
0.38100002 22129.59424870  1394.82839157
0.38200002 22010.50769622  1390.95409976
0.38300002 21897.51975814  1513.55663739
0.38400002 21791.84442737  1636.02279789
0.38500002 21692.35603280  1758.38246332
0.38600002 21600.44523424  1755.46826735
0.38700002 21514.09188548  1627.75626917
0.38800002 21434.45642494  1625.91076914
0.38900002 21361.04757728  1624.50774521
0.39000002 21294.66622857  1498.71868017
0.39100002 21233.51793350  1248.53091364
0.39200002 21179.12325063  1373.36031225
0.39300002 21130.18690944  1498.55292661
0.39400002 21088.20633771  1999.16205553
0.39500002 21050.91707257  1500.50944002
0.39600002 21019.50064609  1251.71132278
0.39700002 20992.99386312  1503.93815161
0.39800002 20973.20227870  1631.82008061
0.39900002 20957.73136000  1634.70312353
0.40000002 20947.84944265  1638.01716478
0.40100002 20942.72819739  1389.13122715
0.40200002 20943.16979236  1772.42054350
0.40300002 20948.16208039  1523.35041866
0.40400002 20958.00022902  1527.83828908
0.40500002 20972.13570097  1404.92343717
0.40600002 20991.60723717  1794.15275557
0.40700002 21015.13259017  1800.57664564
0.40800002 21042.66059506  1420.06401754
0.40900002 21074.15287348  1555.27255575
0.41000002 21110.51763181  1431.60982103
0.41100002 21150.31062611  1699.21603621
0.41200002 21193.41164435  1969.39787037
0.41300002 21241.23011088  1846.71263334
0.41400002 21292.12658356  1988.15241394
0.41500002 21346.42087698  1731.62174359
0.41600002 21403.32533540  2008.16709475
0.41700002 21464.74977412  2287.92778683
0.41800002 21529.59335365  2029.70250959
0.41900002 21595.61962191  1768.68133084
0.42000002 21665.10828695  2599.48814099
0.42100002 21738.01963773  1651.22004992
0.42200002 21813.38453333  1937.68303991
0.42300002 21890.70038082  1531.47347121
0.42400002 21970.34111011  1680.73117457
0.42500002 22052.77500533  1550.08962858
0.42600002 22136.14095029  1843.16586357
0.42700002 22222.78381870  1426.70278877
0.42800002 22310.49531980  2584.22479535
0.42900002 22400.98702087  1589.35010445
0.43000002 22492.83229326  1454.16167667
0.43100002 22584.70049828  1902.53526013
0.43200002 22679.35365959  1914.93131699
0.43300002 22774.61591276  1630.89032280
0.43400002 22871.43641410  2387.77807479
0.43500002 22968.90879205  1802.60004742
0.43600002 23067.79962900  1965.72263854
0.43700002 23167.12668892  2130.91241383
0.43800002 23266.49133409  1838.51823235
0.43900002 23367.61421500  1696.48887240
0.44000002 23468.51848819  2639.15237166
0.44100002 23570.10487006  2031.50743502
0.44200002 23671.82055112  1730.29180518
0.44300002 23773.95440791  2058.34907018
0.44400002 23875.76397285  1593.70732071
0.44500002 23977.15316875  2085.29310991
0.44600002 24078.36112076  1937.34502759
0.44700002 24180.09305026  1787.39256298
0.44800002 24280.62237401  1635.29999439
0.44900002 24381.23210897  1645.73324535
0.45000002 24481.63367641  2318.65563538
0.45100002 24580.22947603  1999.84756495
0.45200002 24678.77887963  1844.61541478
0.45300002 24776.12864927  1855.97988508
0.45400002 24872.72466324  1867.31989259
0.45500002 24968.51781183  2220.20070905
0.45600002 25062.79474796  2405.27652596
0.45700002 25156.19745910  2419.52318629
0.45800002 25247.90778173  2085.98223979
0.45900002 25338.31747271  2797.35038157
0.46000002 25427.87049468  2285.83852645
0.46100002 25514.92952610  1768.18469996
0.46200002 25601.04053685  2844.78775928
0.46300002 25685.27875641  1966.46503479
0.46400002 25767.38214616  2695.91248482
0.46500002 25848.75122874  2710.24169479
0.46600002 25927.15862106  2542.67656648
0.46700002 26003.81783388  2555.65533784
0.46800002 26079.04608734  2385.05927296
0.46900002 26151.42709754  2396.77840709
0.47000002 26221.98501000  2408.35832739
0.47100002 26290.50148847  2233.64111233
0.47200002 26356.87233162  2057.02219862
0.47300002 26420.84551697  2629.93108741
0.47400002 26481.99109510  2452.89454144
0.47500002 26541.10550478  1895.03502286
0.47600002 26598.48004901  2474.05773902
0.47700002 26652.24310150  2866.44888143
