# SAXS profile: number of points = 501, q_min = 0, q_max = 0.5, delta_q = 0.001
#    q    intensity    error
0.00000000 1664650.74656090 324.60689558
0.00100000 1664569.83701998 649.18225186
0.00200000 1664327.04072464 1198.31550727
0.00300000 1663922.58460537 1297.85966223
0.00400000 1663356.34387590 2245.53114956
0.00500000 1662628.80250938 1945.27577593
0.00600000 1661739.88123579 2268.27503023
0.00700000 1660690.13581796 2391.39389496
0.00800000 1659479.37943866 2464.32698251
0.00900000 1658108.83007019 2735.87968657
0.01000000 1656577.87392615 3553.35969300
0.01100000 1654887.78671873 4468.19721868
0.01200000 1653038.48161408 4512.79525266
0.01300000 1651031.10788040 4160.59857536
0.01400000 1648865.65078865 4822.93224236
0.01500000 1646543.50605732 4346.87504955
0.01600000 1644064.11384956 4192.36367773
0.01700000 1641429.74538400 5761.41866475
0.01800000 1638640.32880966 6071.16269143
0.01900000 1635696.36702322 5397.79825474
0.02000000 1632599.22213005 6171.22533881
0.02100000 1629350.80108235 6989.91525356
0.02200000 1625949.66688229 8414.28990840
0.02300000 1622398.92327906 7592.82730656
0.02400000 1618698.25315384 7891.15434394
0.02500000 1614850.04142506 7557.49853902
0.02600000 1610854.36086811 8481.14859788
0.02700000 1606713.37608184 8097.83578634
0.02800000 1602426.74568368 7667.61232973
0.02900000 1597997.14088738 7190.98746416
0.03000000 1593425.76899735 8150.37318306
0.03100000 1588712.97509718 10676.15168390
0.03200000 1583860.29865511 10192.14149128
0.03300000 1578871.31812392 11273.14173110
0.03400000 1573744.31678108 9914.58965318
0.03500000 1568482.51625628 9316.78657679
0.03600000 1563086.99709521 8675.13323479
0.03700000 1557559.83980702 9765.90064724
0.03800000 1551902.00178025 9078.62713057
0.03900000 1546116.06976438 10204.36653301
0.04000000 1540201.40797953 12313.91082741
0.04100000 1534162.46858397 14497.83600033
0.04200000 1527999.68961737 10841.15830079
0.04300000 1521714.09075761 14060.63885127
0.04400000 1515309.15668430 11251.17101091
0.04500000 1508786.16483397 13533.81252741
0.04600000 1502145.24748073 11649.13693574
0.04700000 1495390.20803509 11843.49099845
0.04800000 1488522.02429348 14222.82860389
0.04900000 1481544.20310477 15556.21485670
0.05000000 1474456.17776321 15791.42639919
0.05100000 1467262.54248706 14878.04287390
0.05200000 1459961.58662555 11606.69515456
0.05300000 1452559.35085143 12942.30441943
0.05400000 1445055.75960363 14306.05268722
0.05500000 1437453.31462436 19319.37344979
0.05600000 1429753.12221517 13446.82874192
0.05700000 1421960.12711425 12371.05368336
0.05800000 1414073.11834860 15017.45721806
0.05900000 1406095.16729935 13920.34280642
0.06000000 1398029.59568208 14071.16853793
0.06100000 1389877.69880372 16803.62216379
0.06200000 1381642.20983974 16973.47534128
0.06300000 1373325.35735397 15820.70885642
0.06400000 1364926.58463431 22623.65919835
0.06500000 1356451.48655825 17457.53144863
0.06600000 1347901.62254368 14901.05313442
0.06700000 1339277.95295339 19124.89006320
0.06800000 1330583.71888696 15148.69634862
0.06900000 1321821.56984123 18042.86527308
0.07000000 1312992.37164408 15381.70635411
0.07100000 1304098.66515418 15492.69286767
0.07200000 1295143.67132535 15600.00625192
0.07300000 1286129.20519170 19986.44878516
0.07400000 1277058.27964802 18676.97821513
0.07500000 1267931.63256388 18790.74767537
0.07600000 1258751.02639331 17446.29004370
0.07700000 1249521.72178900 24852.98821170
0.07800000 1240243.46602236 16166.57433775
0.07900000 1230918.89743810 22156.54119311
0.08000000 1221551.49445411 16326.03648925
0.08100000 1212142.51889960 16400.28905018
0.08200000 1202693.74449224 16470.89160372
0.08300000 1193208.60536908 15034.42913325
0.08400000 1183688.42310778 19619.63653393
0.08500000 1174135.73949012 19690.25727561
0.08600000 1164552.35569809 19756.63164202
0.08700000 1154942.59535042 22867.86446176
0.08800000 1145304.94602374 21405.75044648
0.08900000 1135645.59325030 22996.82434347
0.09000000 1125963.67824932 15369.40493009
0.09100000 1116262.23172218 18485.30342578
0.09200000 1106543.89023754 24698.06079058
0.09300000 1096812.26986084 24744.08597084
0.09400000 1087064.79370623 17039.74144217
0.09500000 1077307.58338156 21718.52190180
0.09600000 1067541.10883227 21745.81340914
0.09700000 1057770.28926218 18659.06877980
0.09800000 1047994.32022898 23344.07458068
0.09900000 1038216.39277283 17130.57128627
0.10000000 1028437.23936379 21813.15487272
0.10100000 1018658.81191953 15585.48055538
0.10200000 1008884.85702497 18704.72612904
0.10300000 999115.94477211 17144.83041879
0.10400000 989355.23819605 17140.58030813
0.10500000 979605.47561284 15575.72779507
0.10600001 969863.64847178 18679.57474851
0.10700001 960137.50985568 15554.22839161
0.10800001 950425.21268346 23309.17943803
0.10900001 940731.33232575 17074.27448532
0.11000001 931055.25620131 17052.27781997
0.11100001 921399.36051455 20123.36298091
0.11200001 911766.00672226 18545.32144979
0.11300001 902156.34427504 23140.31132012
0.11400001 892572.93957744 18476.26071920
0.11500001 883017.24648814 16900.95089361
0.11600001 873490.14123867 16862.72797070
0.11700001 863994.85429628 19880.52253363
0.11800001 854529.97234377 16778.69679722
0.11900001 845098.66138154 18254.13194564
0.12000001 835702.39671518 15167.99921487
0.12100001 826345.21386942 18146.54175142
0.12200001 817025.01394078 22611.16832605
0.12300001 807745.64542560 19531.29062660
0.12400001 798505.99388591 16469.18689988
0.12500001 789308.67230309 20885.10845326
0.12600001 780156.88555647 19320.58618126
0.12700001 771049.63549822 16284.56906916
0.12800001 761988.39897417 16218.92383655
0.12900001 752975.76906286 19087.93664540
0.13000001 744012.33027185 17543.81157474
0.13100001 735097.97971383 16010.43475286
0.13200001 726235.76447685 17386.08502116
0.13300001 717426.05213145 15862.29076042
0.13400001 708669.52174031 14350.55849181
0.13500001 699968.33532458 17135.22565664
0.13600001 691322.77257552 17048.02037554
0.13700001 682734.34671307 19785.64230070
0.13800001 674201.75382507 21085.66084519
0.13900001 665729.45770304 16776.38312526
0.14000001 657315.66230151 20853.34036997
0.14100001 648963.61808742 15205.21828891
0.14200001 640672.12972599 16490.90139695
0.14300001 632443.81729564 15026.86580773
0.14400001 624275.18897862 16293.58320091
0.14500001 616173.12531936 17542.44970536
0.14600001 608134.66815754 20114.05509818
0.14700001 600162.38724199 15988.32675040
0.14800001 592253.39689887 14560.55044971
0.14900001 584411.95762684 13149.26966700
0.15000001 576636.75363398 14366.90539466
0.15100001 568929.05566738 12971.58308128
0.15200001 561290.25866207 12881.61204414
0.15300001 553720.09914103 16628.21536187
0.15400001 546216.87175760 17779.36001474
0.15500001 538784.81227428 13868.32172243
0.15600001 531420.66565111 13766.45299340
0.15700001 524129.36149369 13664.05309904
0.15800001 516905.61473187 13561.01944255
0.15900001 509754.51225112 14680.93064578
0.16000001 502672.45344945 16995.35645335
0.16100001 495663.77278477 16862.48234612
0.16200001 488726.15889319 13144.29066392
0.16300001 481859.95785108 14224.50662727
0.16400001 475066.17889822 14109.46617938
0.16500001 468343.63573810 13994.10849653
0.16600001 461693.99025415 20817.78300343
0.16700001 455115.66160468 11468.91521394
0.16800001 448609.91428386 11372.26186405
0.16900001 442177.83112130 18040.85636160
0.17000001 435816.46168464 12296.56204707
0.17100001 429528.35316353 15514.56484888
0.17200001 423312.28307571 12083.44969101
0.17300001 417168.26448449 11976.90143895
0.17400001 411097.26914813 12949.56458972
0.17500001 405097.58521573 12833.49210573
0.17600001 399168.34894997 12717.50419818
0.17700001 393314.10447573 13651.93321114
0.17800001 387529.37755250 12486.19713449
0.17900001 381815.88395963 14432.64109538
0.18000001 376175.08997540 14298.41584535
0.18100001 370605.33613154 13152.78400060
0.18200001 365104.33695175 11024.32597502
0.18300001 359674.61355031 14890.52970440
0.18400001 354314.97900728 10815.46524513
0.18500001 349025.42062733 13632.93357375
0.18600001 343805.65280440 13501.24862347
0.18700001 338654.32758902 11460.06298704
0.18800001 333570.64749111 9456.72830317
0.18900001 328558.52218719 13109.48565466
0.19000001 323610.25068508 13907.15118029
0.19100001 318732.33193574 11933.33907153
0.19200001 313919.95180206 11814.37794432
0.19300001 309175.97671211 14395.23415593
0.19400001 304496.63413591 14250.44315095
0.19500001 299883.64240969 8816.57950347
0.19600001 295334.92988050 10472.57710846
0.19700001 290852.72521012 9502.15898166
0.19800001 286433.54118478 9405.04576927
0.19900001 282078.44496131 11001.05987340
0.20000001 277784.74274738 8375.21038966
0.20100001 273555.81708124 9117.61581424
0.20200001 269387.40129963 10663.70078445
0.20300001 265280.95310403 8929.35730352
0.20400001 261235.91044770 8033.00462595
0.20500001 257250.19109798 10333.74066485
0.20600001 253323.94538332 10225.42153873
0.20700001 249457.35449248 7783.06982806
0.20800001 245648.62732440 8471.19331372
0.20900001 241900.04259763 9905.80721263
0.21000001 238205.89006591 9047.06013238
0.21100001 234569.66613505 12680.83675073
0.21200001 230988.25650728 11070.11271644
0.21300001 227462.37379746 9492.00530731
0.21400001 223991.68591793 9390.85187608
0.21500001 220575.74482597 7861.31991726
0.21600001 217211.59559605 9191.30910220
0.21700001 213900.91776623 7694.01637582
0.21800001 210642.36749913 7611.56230946
0.21900001 207434.22780275 7529.86282526
0.22000001 204276.48576491 6771.76582329
0.22100001 201170.18928932 9378.55466812
0.22200001 198112.94619781 9940.31754550
0.22300001 195103.75835002 9177.68122676
0.22400001 192141.96582743 7781.74998398
0.22500001 189229.89726689 12188.29825931
0.22600001 186362.45657002 8249.33453017
0.22700001 183542.09890712 8787.99611125
0.22800001 180766.24528661 8693.04914693
0.22900001 178035.11310745 6756.43286195
0.23000001 175348.19104252 7290.97812835
0.23100001 172705.81665684 9015.24405584
0.23200001 170104.30431580 5945.14571700
0.23300001 167546.11546236 5880.86893086
0.23400001 165028.20020305 8144.14206520
0.23500001 162550.99812691 8056.02784819
0.23600001 160114.21220169 7399.67866688
0.23700001 157717.10024890 6193.55081972
0.23800001 155358.37856883 7797.43738918
0.23900001 153037.93366562 8264.04880883
0.24000001 150754.55643052 5449.77747274
0.24100001 148509.14541927 5929.97045709
0.24200001 146300.01364751 5865.89932467
0.24300001 144125.77336625 5802.50391020
0.24400001 141986.92714830 7305.22774734
0.24500001 139881.85041251 6710.13268171
0.24600001 137811.05078688 7658.84950978
0.24700001 135774.14861554 7576.19785115
0.24800001 133769.53856816 5995.55100225
0.24900001 131795.92901937 7413.52135805
0.25000001 129855.03058390 5866.85055933
0.25100001 127944.30601731 5803.55399551
0.25200001 126065.95032134 5262.62334514
0.25300001 124215.87826151 5679.15022280
0.25400001 122395.90985334 6086.13690540
0.25500001 120603.18314026 6483.62743237
0.25600001 118840.20313135 5039.41905221
0.25700001 117104.08567468 4985.12116303
0.25800001 115395.30121362 7621.28302925
0.25900001 113714.09006403 7095.75955573
0.26000001 112058.36888431 5264.50241928
0.26100001 110427.87829875 4339.81582248
0.26200001 108823.90026653 6439.65460298
0.26300001 107243.37250212 7644.30795366
0.26400001 105688.17913427 5041.32638325
0.26500001 104156.63712788 4987.02002166
0.26600001 102648.14500767 5344.37592272
0.26700001 101163.07675639 5693.45822927
0.26800001 99700.78744894  4827.51235672
0.26900001 98259.86584525  6367.23960808
0.27000001 96841.15966859  4723.91199218
0.27100001 95443.67412754  5841.15313303
0.27200001 94067.75920187  4622.48990593
0.27300001 92712.16240841  3810.47005531
0.27400001 91375.35570066  4900.00368134
0.27500001 90060.51239788  5592.75808459
0.27600001 88762.82642420  5900.95297995
0.27700001 87486.19455657  5837.07917706
0.27800001 86227.13828065  5773.76945253
0.27900001 84987.07681352  4283.34887412
0.28000001 83764.39861584  3883.73652563
0.28100001 82559.89540762  6286.11073385
0.28200001 81373.19314917  5526.86754028
0.28300001 80203.50990689  5125.00452562
0.28400001 79049.85752032  3717.31972584
0.28500001 77913.76262777  3676.75063243
0.28600001 76793.35446867  4628.33569290
0.28700001 75689.76760244  3596.77792671
0.28800001 74600.42673856  3880.71438263
0.28900001 73528.30408637  3518.32951707
0.29000001 72470.46284381  3479.66943815
0.29100001 71428.23853083  3754.26839489
0.29200001 70400.47174766  3712.92105572
0.29300001 69387.50747457  3059.98922448
0.29400001 68388.07787944  4236.64162518
0.29500001 67404.01850046  3591.28627570
0.29600001 66432.60241475  2959.57257768
0.29700001 65475.55795663  3512.10909505
0.29800001 64532.10819756  4051.97126554
0.29900001 63602.37003688  4293.16018072
0.30000001 62684.82105760  4245.32970710
0.30100001 61781.10672697  3358.42112067
0.30200001 60889.38439588  4704.61850807
0.30300001 60011.07803476  3283.80634552
0.30400001 59145.02330802  3788.23892222
0.30500001 58291.56907854  2675.58314737
0.30600001 57449.32726304  3174.64997485
0.30700001 56619.92445475  3400.59282375
0.30800001 55802.12818873  3362.35739320
0.30900001 54996.38540883  3324.53165536
0.31000001 54202.31080714  3287.09929453
0.31100001 53419.11911704  2750.01638235
0.31200001 52648.45711090  2719.02969623
0.31300001 51888.00330609  4154.67262143
0.31400001 51140.29092946  2416.37886082
0.31500001 50402.18214198  3105.78261064
0.31600002 49676.33536924  2598.32084451
0.31700002 48960.54800870  2802.50190071
0.31800002 48255.54673913  3001.73642704
0.31900002 47561.89648519  3196.15959514
0.32000002 46878.93913485  2708.66523147
0.32100002 46206.06051328  2901.27867700
0.32200002 45544.63606568  2206.63772187
0.32300002 44891.93607667  3272.62229495
0.32400002 44250.96643314  2804.40513049
0.32500002 43619.65008648  3839.40178241
0.32600002 42998.86946963  3796.37036524
0.32700002 42388.26139523  2294.05281534
0.32800002 41788.51606839  2680.94237532
0.32900002 41196.95743027  2243.17443830
0.33000002 40616.64967769  2218.27842719
0.33100002 40045.19397385  2393.10090520
0.33200002 39485.10830964  2366.73750416
0.33300002 38934.03631933  2925.89296795
0.33400002 38393.25017669  1929.26091274
0.33500002 37861.68895253  3053.16674172
0.33600002 37339.54619239  2076.26556435
0.33700002 36827.03794331  2240.55709458
0.33800002 36324.81096100  2216.54006981
0.33900002 35831.30639349  2010.13638387
0.34000002 35347.24046972  2350.41486635
0.34100002 34872.86213735  2325.67128608
0.34200002 34408.50442571  2301.41292751
0.34300002 33952.65099561  2978.32668639
0.34400002 33506.83131856  2600.96790428
0.34500002 33069.75662418  2574.48067512
0.34600002 32642.62133917  1699.04852117
0.34700002 32223.22870332  2018.46314157
0.34800002 31813.95682725  1665.46071878
0.34900002 31413.33974633  2473.80062219
0.35000002 31022.10535291  2613.30227870
0.35100002 30640.43860224  2103.15980527
0.35200002 30266.00908304  2403.87788527
0.35300002 29901.89678885  1746.56987416
0.35400002 29545.96645402  1730.65506701
0.35500002 29199.08217798  2338.84659323
0.35600002 28860.53570677  1700.02993633
0.35700002 28530.71020746  1685.30913178
0.35800002 28209.81883067  2278.64822398
0.35900002 27897.92515985  1958.43443898
0.36000002 27594.28592961  1793.07678464
0.36100002 27298.43090926  1926.99632916
0.36200002 27012.67907156  1765.00853414
0.36300002 26733.69971692  1605.62608105
0.36400002 26463.66965547  1593.77458049
0.36500002 26201.12077740  1438.44159881
0.36600002 25947.68561254  1714.10419276
0.36700002 25701.72441198  1418.73525474
0.36800002 25464.75294589  1973.26379925
0.36900002 25235.42708974  1960.79277775
0.37000002 25013.41808624  1531.19646068
0.37100002 24799.29113148  1660.56061282
0.37200002 24593.56466964  1788.81301098
0.37300002 24395.26396547  1916.00412261
0.37400002 24204.57599822  1769.95970371
0.37500002 24021.57655911  1761.26207675
0.37600002 23846.41598540  2157.62382057
0.37700002 23678.28889020  2013.83856551
0.37800002 23517.55172330  1871.76203033
0.37900002 23364.83917525  1331.79589608
0.38000002 23218.50154005  1592.32491105
0.38100002 23078.74164053  1586.89435038
0.38200002 22947.15157101  1581.97670425
0.38300002 22821.81017992  1445.98996150
0.38400002 22703.69331840  1704.47985663
0.38500002 22591.75721633  1308.06280479
0.38600002 22487.46824669  1305.39759356
0.38700002 22388.80705629  1433.33149565
0.38800002 22296.72606920  1301.01402777
0.38900002 22210.98565381  1429.27699454
0.39000002 22132.28404914  1557.67022517
0.39100002 22058.78912021  1556.46823406
0.39200002 21992.23439430  1555.73073476
0.39300002 21930.98157025  1425.73317943
0.39400002 21876.78632129  1555.43958114
0.39500002 21827.20945888  1296.53630328
0.39600002 21783.57605566  1816.09682180
0.39700002 21744.86727268  1947.25295653
0.39800002 21712.95489109  1819.32857652
0.39900002 21685.26024779  1301.11567651
0.40000002 21663.27319722  1563.65513346
0.40100002 21645.97849417  1566.30307805
0.40200002 21634.29891342  1438.57277441
0.40300002 21627.21370584  2096.97474027
0.40400002 21625.03006827  1970.58095834
0.40500002 21627.08277127  1448.79834349
0.40600002 21634.54528458  1320.78905220
0.40700002 21646.03169619  1854.63208360
0.40800002 21661.57444748  1594.72518638
0.40900002 21681.14453672  1466.72949741
0.41000002 21705.54183858  1873.40540485
0.41100002 21733.47173262  1477.44147839
0.41200002 21764.59614996  1483.14847491
0.41300002 21800.61209318  1759.96349767
0.41400002 21839.64218411  1631.42134845
0.41500002 21882.10785500  1501.98795434
0.41600002 21927.11886600  1508.69548506
0.41700002 21976.80552583  2204.71323482
0.41800002 22029.92155103  1384.58063509
0.41900002 22084.21740377  1530.43633860
0.42000002 22142.02407094  2237.23021814
0.42100002 22203.36911394  1967.66266411
0.42200002 22266.97315742  1412.83951379
0.42300002 22332.72992040  1562.39785927
0.42400002 22400.80146478  1999.27162547
0.42500002 22471.76274707  2297.51313213
0.42600002 22543.66889448  1443.92206111
0.42700002 22618.77828656  1742.55076177
0.42800002 22695.05951481  1898.55529368
0.42900002 22774.16781651  2056.50745128
0.43000002 22854.68284783  2068.57744258
0.43100002 22935.26788125  1634.82597205
0.43200002 23018.62209673  1495.05957603
0.43300002 23102.69060689  2105.57932169
0.43400002 23188.34294553  1966.95128357
0.43500002 23274.65999261  1522.16283565
0.43600002 23362.52128082  1684.55467678
0.43700002 23450.73566997  2002.92742849
0.43800002 23539.19381907  2480.08957831
0.43900002 23629.36797320  1559.53836014
0.44000002 23719.36323207  1725.93954737
0.44100002 23810.10882307  2052.19337671
0.44200002 23901.01245616  1747.04458828
0.44300002 23992.37480300  1757.68146137
0.44400002 24083.56037431  2250.60882364
0.44500002 24174.32553636  1617.26245503
0.44600002 24264.95264255  1789.66166697
0.44700002 24356.24581378  2291.43571475
0.44800002 24446.26029375  2305.03799234
0.44900002 24536.50977474  1987.45738594
0.45000002 24626.59149151  1999.18679203
0.45100002 24715.00825992  1843.24540338
0.45200002 24803.37321059  1685.38928953
0.45300002 24890.58103460  2373.06810830
0.45400002 24977.13567510  2557.03438592
0.45500002 25062.96086634  1885.73726495
0.45600002 25147.32704610  3275.31376635
0.45700002 25230.93255918  1906.70166386
0.45800002 25312.88339621  1917.07131487
0.45900002 25393.58082212  1752.15715977
0.46000002 25473.47005834  2642.23580703
0.46100002 25550.98428193  1947.75162412
0.46200002 25627.64751719  2669.76030664
0.46300002 25702.57841189  1967.78949648
0.46400002 25775.37525843  1977.61576043
0.46500002 25847.53068090  1987.41672825
0.46600002 25916.80581041  2541.66126629
0.46700002 25984.37969635  2188.92424937
0.46800002 26050.68031521  2199.19853644
0.46900002 26114.18800143  2209.26040963
0.47000002 26175.94268169  2219.19652574
0.47100002 26235.76773966  2228.99093281
0.47200002 26293.55123849  2798.29132319
0.47300002 26349.06566018  2810.12798585
0.47400002 26401.73985904  2069.23645953
0.47500002 26452.52919304  2644.19494346
0.47600002 26501.70262804  2085.81660420
0.47700002 26547.32919150  2474.47667122
