# SAXS profile: number of points = 501, q_min = 0, q_max = 0.5, delta_q = 0.001
#    q    intensity    error
0.00000000 1664650.74656090 274.66737318
0.00100000 1664569.82520658 599.24515131
0.00200000 1664326.99526706 748.94717159
0.00300000 1663922.47643997 1397.69493000
0.00400000 1663356.15868300 1372.26888306
0.00500000 1662628.50525560 1945.27542815
0.00600000 1661739.45780767 2093.79180208
0.00700000 1660689.56188428 2590.67582421
0.00800000 1659478.61612974 2464.32584900
0.00900000 1658107.87102524 2984.59429543
0.01000000 1656576.69638710 3553.35716718
0.01100000 1654886.35780811 4468.19336062
0.01200000 1653036.79537487 3545.76408154
0.01300000 1651029.14064215 4160.59361792
0.01400000 1648863.37030001 3709.94274764
0.01500000 1646540.88195516 4346.86812192
0.01600000 1644061.13064282 5030.82728466
0.01700000 1641426.36537641 4875.03652386
0.01800000 1638636.53244469 7005.17149142
0.01900000 1635692.15434954 4907.07668447
0.02000000 1632594.56947037 6171.20775176
0.02100000 1629345.66700891 5376.84094491
0.02200000 1625944.02217670 5609.50713136
0.02300000 1622392.75790135 7008.73703316
0.02400000 1618691.58133868 7891.12181884
0.02500000 1614842.78892499 7557.46459732
0.02600000 1610846.55666298 10438.28616461
0.02700000 1606704.91652539 8772.60924602
0.02800000 1602417.66899651 6970.51717980
0.02900000 1597987.38151552 8629.13225638
0.03000000 1593415.35902816 10373.13446408
0.03100000 1588701.91454149 10676.07735696
0.03200000 1583848.53214971 12544.08095238
0.03300000 1578858.79103822 8857.39822605
0.03400000 1573731.08410363 11566.92400186
0.03500000 1568468.50522003 9316.70335123
0.03600000 1563072.19971093 10410.06133116
0.03700000 1557544.22126156 9765.80271895
0.03800000 1551885.54567790 14525.64937979
0.03900000 1546098.81228065 10204.25263361
0.04000000 1540183.24838791 14208.19112477
0.04100000 1534143.44764281 12564.63541877
0.04200000 1527979.73968098 14783.20466725
0.04300000 1521693.20941210 12051.81077796
0.04400000 1515287.30760959 13296.64674180
0.04500000 1508763.41077218 12492.56162166
0.04600000 1502121.44861333 13766.94371652
0.04700000 1495365.51901718 11843.29546142
0.04800000 1488496.24875898 14222.58231864
0.04900000 1481517.39168514 11111.38095485
0.05000000 1474428.38127634 11279.37764200
0.05100000 1467233.76464458 11444.42389736
0.05200000 1459931.68153305 15088.39463178
0.05300000 1452528.35213897 14118.57624097
0.05400000 1445023.70738267 20266.45844115
0.05500000 1437420.10902664 16904.06127072
0.05600000 1429718.76844917 12224.09604067
0.05700000 1421924.65203311 16081.96856518
0.05800000 1414036.43902333 16268.48999058
0.05900000 1406057.36758844 13919.96858927
0.06000000 1397990.67562509 14070.77680754
0.06100000 1389837.53206548 14218.03861746
0.06200000 1381600.85037430 16972.96724022
0.06300000 1373282.67928707 19775.27150633
0.06400000 1364882.67667823 18630.64940795
0.06500000 1356406.43082874 13428.42429336
0.06600000 1347855.25332694 17609.72970865
0.06700000 1339230.32900363 15026.16499463
0.06800000 1330534.81664296 15148.13959655
0.06900000 1321771.37162522 16654.32006221
0.07000000 1312940.93361754 16779.38591739
0.07100000 1304045.83009003 21125.54343693
0.07200000 1295089.58172842 17017.47790113
0.07300000 1286073.89080820 17130.50502823
0.07400000 1277001.57997133 17239.52213753
0.07500000 1267873.57035121 15899.13531744
0.07600000 1258691.67730805 18899.25642079
0.07700000 1249461.07004725 14618.69520500
0.07800000 1240181.38991315 14696.15015966
0.07900000 1230855.49670495 14770.26665324
0.08000000 1221486.73360847 17809.27741146
0.08100000 1212076.38382548 23853.66435286
0.08200000 1202626.21310618 17967.23646692
0.08300000 1193139.79396249 24053.69937517
0.08400000 1183618.14373629 24145.81126559
0.08500000 1174064.13249091 18174.51362416
0.08600000 1164479.30855639 19755.39239720
0.08700000 1154868.10530217 16768.68567641
0.08800000 1145229.19844940 18346.57262078
0.08900000 1135568.36782968 16863.19105433
0.09000000 1125885.02917232 18441.99764416
0.09100000 1116182.30279897 18483.97980275
0.09200000 1106462.55753088 16978.66874308
0.09300000 1096729.49394239 15463.88659127
0.09400000 1086980.62682465 17038.42212624
0.09500000 1077222.04041386 21716.79735549
0.09600000 1067454.23404292 17084.60581897
0.09700000 1057681.93222478 21767.09518852
0.09800000 1047904.67391338 17117.52365320
0.09900000 1038125.24237206 17129.06730459
0.10000000 1028344.79751406 21811.19418099
0.10100000 1018565.06932682 17142.45092301
0.10200000 1008789.75037685 24937.28380227
0.10300000 999019.45192372 20260.11543806
0.10400000 989257.26883530 18696.96326059
0.10500000 979506.28272844 28033.47113064
0.10600001 969763.10205961 17121.16837247
0.10700001 960035.66217706 17107.83630505
0.10800001 950322.02937573 17091.54250268
0.10900001 940626.84573457 17072.37805361
0.11000001 930949.41934285 18600.37027398
0.11100001 921292.24741394 18573.25258217
0.11200001 911657.60445584 21633.63597219
0.11300001 902046.66988405 16967.49865936
0.11400001 892461.90036610 23092.45275927
0.11500001 882905.04484921 16898.80335414
0.11600001 873376.71693114 18393.31452474
0.11700001 863880.12497487 24465.08629147
0.11800001 854414.07103255 16776.42107487
0.11900001 844981.65223694 18251.60454800
0.12000001 835584.10261402 19715.60782988
0.12100001 826225.80468945 18143.91952571
0.12200001 816904.27062078 16579.07295331
0.12300001 807623.83045856 18026.16474513
0.12400001 798382.98823924 22454.52260223
0.12500001 789184.55712243 14915.58883244
0.12600001 780031.65591887 16345.56412004
0.12700001 770923.30129298 22202.59212357
0.12800001 761861.11834087 16216.21466814
0.12900001 752847.41296427 17616.63029367
0.13000001 743882.91701252 14617.30000828
0.13100001 734967.41399145 18918.06212789
0.13200001 726104.32393429 23177.25111257
0.13300001 717293.57688078 15859.36173249
0.13400001 708535.97948412 15782.63968709
0.13500001 699833.88963285 15704.27322379
0.13600001 691187.48265299 17044.68412589
0.13700001 682598.09684239 16955.73752508
0.13800001 674064.70479320 14054.24975768
0.13900001 665591.48062332 19568.39045314
0.14000001 657176.89652661 19459.00882385
0.14100001 648824.05503187 17965.93893116
0.14200001 640531.73626510 23356.99086455
0.14300001 632302.54313632 16389.28269114
0.14400001 624133.17677167 13574.89723511
0.14500001 616030.32309153 14840.17118332
0.14600001 607991.16403407 16087.44695926
0.14700001 600018.20161987 15984.48564525
0.14800001 592108.58235014 15880.35292784
0.14900001 584266.57472195 13145.99855148
0.15000001 576490.82551347 14363.26959537
0.15100001 568782.44614298 19452.36057595
0.15200001 561143.16590040 12878.23626510
0.15300001 553572.42944637 20460.03795783
0.15400001 546068.73698453 19044.14810105
0.15500001 538636.21905756 13864.49693285
0.15600001 531271.61770744 12511.44718749
0.15700001 523979.75849920 17385.64920755
0.15800001 516755.70632718 12324.62417761
0.15900001 509604.21536223 14676.60209518
0.16000001 502521.75257424 19417.44143602
0.16100001 495512.86859706 13245.05960282
0.16200001 488574.88908328 13140.22226219
0.16300001 481708.42928696 18960.04467180
0.16400001 474914.43215356 18806.61240113
0.16500001 468191.78258395 17486.96390509
0.16600001 461541.87766373 11561.62458134
0.16700001 454963.38965221 14904.60134872
0.16800001 448457.54507226 11368.39930436
0.16900001 442025.34854550 13525.97630416
0.17000001 435663.92806796 14527.21436740
0.17100001 429375.75836601 12185.68459785
0.17200001 423159.70978210 12079.09448614
0.17300001 417015.76420866 11972.52315583
0.17400001 410944.78241968 11866.03115275
0.17500001 404945.18851410 12828.66417799
0.17600001 399016.14710125 10593.87920588
0.17700001 393162.03449395 17845.62558854
0.17800001 387377.47104894 11441.19414782
0.17900001 381664.15584377 11335.42596397
0.18000001 376023.62577176 13271.75449851
0.18100001 370454.09020101 12136.07656825
0.18200001 364953.43706257 13023.36401677
0.18300001 359524.05160669 10915.15072240
0.18400001 354164.81141719 12776.49617545
0.18500001 348875.64468344 10706.99404116
0.18600001 343656.25530626 11567.47010010
0.18700001 338505.37631010 10500.43726923
0.18800001 333422.17851570 10397.77112827
0.18900001 328410.54294256 12167.61119091
0.19000001 323462.86404545 11120.65379132
0.19100001 318585.57316449 9175.26494067
0.19200001 313773.73696812 9992.12512589
0.19300001 309030.43585330 13489.17916240
0.19400001 304351.73927533 10682.74655337
0.19500001 299739.42788937 9693.57355601
0.19600001 295191.44688574 10467.48920122
0.19700001 290710.00343382 11224.31376301
0.19800001 286291.57961326 12818.70608298
0.19900001 281937.29339796 8458.11920167
0.20000001 277644.45957970 10045.17702234
0.20100001 273416.32484580 9112.96653781
0.20200001 269248.82765294 8198.62718953
0.20300001 265143.26863101 8924.72284394
0.20400001 261099.14638983 9634.55895717
0.20500001 257114.49543756 14300.70891219
0.20600001 253189.18630818 10219.98198841
0.20700001 249323.69874797 10890.45967609
0.20800001 245515.96290874 8466.61838113
0.20900001 241768.54706781 8377.28055190
0.21000001 238075.47259401 8288.59797018
0.21100001 234440.35252893 9691.76463171
0.21200001 230860.10973076 11063.97128189
0.21300001 227335.45720857 8756.96222566
0.21400001 223865.98835206 7941.64631224
0.21500001 220451.21599919 8571.14368327
0.21600001 217088.36472755 12012.58523014
0.21700001 213778.99847290 9087.74565475
0.21800001 210521.72805267 8990.33082156
0.21900001 207314.92956846 8209.67159908
0.22000001 204158.56414248 8121.42806559
0.22100001 201053.61666689 6695.08575157
0.22200001 197997.77726964 6623.02596284
0.22300001 194990.02804828 6551.66525222
0.22400001 192029.69893446 7129.10291005
0.22500001 189119.07066080 10257.81887771
0.22600001 186253.12652017 8244.49503528
0.22700001 183434.28579990 9410.17930653
0.22800001 180659.91459432 8067.36886772
0.22900001 177930.39697550 7366.31878315
0.23000001 175244.97123684 7286.68624863
0.23100001 172604.14673945 8409.27442684
0.23200001 170004.26581253 8912.47405672
0.23300001 167447.67739263 6465.15512990
0.23400001 164931.42190799 8720.74934584
0.23500001 162455.89251906 5750.93886717
0.23600001 160020.71111905 7964.23116908
0.23700001 157625.31148351 7878.11344056
0.23800001 155268.25382155 6123.00387906
0.23900001 152949.48233286 6607.41794931
0.24000001 150667.88727198 6535.97325901
0.24100001 148424.20604284 5926.57882762
0.24200001 146216.81456023 7994.40471423
0.24300001 144044.25817790 5799.22210856
0.24400001 141907.24423521 6779.61891404
0.24500001 139803.94704559 7222.27224602
0.24600001 137734.87337792 6123.69276006
0.24700001 135699.77996311 5048.03205343
0.24800001 133696.96489182 4993.58187494
0.24900001 131725.21680095 5433.66545009
0.25000001 129786.07334906 6352.37966059
0.25100001 127877.18342025 5800.50931436
0.25200001 126000.71419575 5259.90006295
0.25300001 124152.45792317 5676.25064479
0.25400001 122334.32342831 8422.71856653
0.25500001 120543.43325646 5554.64166726
0.25600001 118782.29091733 5494.86903781
0.25700001 117048.00364013 4529.75795519
0.25800001 115341.07494361 4929.10107093
0.25900001 113661.73342123 4876.08859448
0.26000001 112007.92279086 4823.62142322
0.26100001 110379.26145612 4771.69569853
0.26200001 108777.16317599 4720.38521938
0.26300001 107198.48987221 5518.57851975
0.26400001 105645.14206861 4619.33405553
0.26500001 104115.43401211 7892.99142595
0.26600001 102608.80071522 4520.43092941
0.26700001 101125.61694576 4065.24999359
0.26800001 99665.18033367  6434.38434682
0.26900001 98226.10584941  5569.42046522
0.27000001 96809.22160239  6296.47207098
0.27100001 95413.56957269  4671.44858735
0.27200001 94039.47868380  5006.19188464
0.27300001 92685.74145568  5333.13781575
0.27400001 91350.66307241  4898.67953909
0.27500001 90037.65630068  5218.58280616
0.27600001 88741.79219069  4055.94380403
0.27700001 87466.98119046  3647.37328826
0.27800001 86209.60479843  4690.23377103
0.27900001 84971.36012120  3925.67702339
0.28000001 83750.46555513  3883.09051924
0.28100001 82547.67355192  4190.12010781
0.28200001 81362.68063613  3453.84595647
0.28300001 80194.77600384  3757.92738140
0.28400001 79042.81165579  3716.98839404
0.28500001 77908.38811532  3676.49700918
0.28600001 76789.65054020  4297.53299589
0.28700001 75687.72057576  3923.65162036
0.28800001 74600.04351757  3557.30324351
0.28900001 73529.54097119  4158.09573874
0.29000001 72473.29566238  4428.84330756
0.29100001 71432.72501218  4067.37955472
0.29200001 70406.56050443  3403.80532871
0.29300001 69395.09404298  3366.35617137
0.29400001 68397.20523430  3329.23412237
0.29500001 67414.69131340  3891.17616681
0.29600001 66444.82163982  3552.14033301
0.29700001 65489.21892324  3220.10504689
0.29800001 64547.31842841  3184.44210541
0.29900001 63618.99912258  3721.71162485
0.30000001 62702.78324328  3114.13387720
0.30100001 61800.48368828  3359.47445233
0.30200001 60910.15219339  3045.20320307
0.30300001 60033.26255873  3558.77197296
0.30400001 59168.50648954  3248.35116006
0.30500001 58316.39433161  2944.39488920
0.30600001 57475.40748863  3440.76543220
0.30700001 56647.25915410  3140.52419619
0.30800001 55830.70905830  4399.18092852
0.30900001 55026.21129686  3070.46273573
0.31000001 54233.37351642  3794.98049148
0.31100001 53451.29794099  3001.82503449
0.31200001 52681.77974788  3957.45548203
0.31300001 51922.42087683  2445.54613909
0.31400001 51175.79809769  2901.66788952
0.31500001 50438.82090519  2868.96026892
0.31600002 49713.91522441  2363.89678085
0.31700002 48999.17412607  3038.43893142
0.31800002 48295.13817050  2542.01471796
0.31900002 47602.43533346  3198.88380587
0.32000002 46920.36538577  3162.90198042
0.32100002 46248.43030217  2233.79928936
0.32200002 45587.87914791  2429.60613423
0.32300002 44935.97895039  3712.61075668
0.32400002 44295.89341671  2807.25237821
0.32500002 43665.25823238  2775.80059727
0.32600002 43045.24921262  3378.19131817
0.32700002 42435.39015448  2296.60342391
0.32800002 41836.33713931  3303.39733695
0.32900002 41245.41172915  2041.64797727
0.33000002 40665.79117748  3230.49060412
0.33100002 40094.90506516  1996.72636680
0.33200002 39535.39441342  2172.27234891
0.33300002 38984.87857907  1953.14250930
0.33400002 38444.62016125  2704.57915642
0.33500002 37913.56284206  2484.09675505
0.33600002 37391.83084170  2079.17285242
0.33700002 36879.76486379  2243.76500057
0.33800002 36377.92126777  2959.70781451
0.33900002 35884.79100523  2013.13687073
0.34000002 35401.06244119  2353.99375851
0.34100002 34927.03897235  2329.28433938
0.34200002 34462.90845669  2659.67508610
0.34300002 34007.35498298  2105.73552027
0.34400002 33561.70840887  2257.86404014
0.34500002 33124.86882194  1891.09885061
0.34600002 32697.86895525  2042.30899167
0.34700002 32278.57283254  2190.42405616
0.34800002 31869.48582922  2335.71472705
0.34900002 31468.93573817  2478.17880675
0.35000002 31077.71639868  1799.86603047
0.35100002 30696.08540162  1782.82872457
0.35200002 30321.61479902  1926.63549558
0.35300002 29957.48152719  1908.89081332
0.35400002 29601.52820186  1891.53774169
0.35500002 29254.52109545  1562.19150049
0.35600002 28915.87719562  2477.51247547
0.35700002 28585.91371875  1688.57000335
0.35800002 28264.83617838  2435.29840048
0.35900002 27952.74666441  1811.33806965
0.36000002 27648.89729780  1646.90664555
0.36100002 27352.83306527  1485.25890580
0.36200002 27066.74564688  2210.67655542
0.36300002 26787.51803650  1901.37812029
0.36400002 26517.13708623  2613.26398363
0.36500002 26254.25381770  2306.17376458
0.36600002 26000.45913058  1860.72294582
0.36700002 25754.13753485  1421.62845926
0.36800002 25516.72857507  2542.23178836
0.36900002 25286.96458184  1403.42660077
0.37000002 25064.49911303  1813.29127423
0.37100002 24849.89915015  1386.62443826
0.37200002 24643.69818875  1792.45947267
0.37300002 24444.84431191  2057.03374629
0.37400002 24253.62033644  1637.11945026
0.37500002 24070.07278002  1764.81781983
0.37600002 23894.27863505  1891.71012915
0.37700002 23725.55309472  1748.81060146
0.37800002 23564.27053896  1741.51749668
0.37900002 23410.83089474  1467.85916664
0.38000002 23263.89482176  1595.43798246
0.38100002 23123.46881371  1722.46727353
0.38200002 22991.19767620  1717.09767979
0.38300002 22865.10830402  1975.54545106
0.38400002 22746.28727524  1707.67759809
0.38500002 22633.58864376  1572.58181347
0.38600002 22528.55714647  1307.78280431
0.38700002 22429.14965688  1566.45188625
0.38800002 22336.32211172  1563.98934836
0.38900002 22249.77809048  1431.77328795
0.39000002 22170.26760333  1820.40075915
0.39100002 22095.98587585  1559.09283726
0.39200002 22028.57663167  1298.58465396
0.39300002 21966.48266102  1557.86302413
0.39400002 21911.44877685  1817.55476215
0.39500002 21861.03053939  1558.25433067
0.39600002 21816.54667755  1818.84558268
0.39700002 21776.95572690  1950.12647774
0.39800002 21744.16032653  1431.52686292
0.39900002 21715.62062837  2214.99340904
0.40000002 21692.70715305  1565.77967649
0.40100002 21674.48711723  1437.66879860
0.40200002 21661.93817955  1833.24991499
0.40300002 21653.94533991  1574.67497973
0.40400002 21650.80892957  1578.34404575
0.40500002 21651.98764385  1450.46672099
0.40600002 21658.48655480  1454.47573350
0.40700002 21669.08926532  1326.14832587
0.40800002 21683.66959527  1463.32251197
0.40900002 21702.32435204  1735.10091416
0.41000002 21725.80131564  1339.39571457
0.41100002 21752.82110835  1882.05417147
0.41200002 21782.99116013  1484.40200294
0.41300002 21818.08812716  1896.86467165
0.41400002 21856.21899700  2448.98945465
0.41500002 21897.74737183  1776.34535097
0.41600002 21941.86276151  1646.95629692
0.41700002 21990.64739187  1792.45775384
0.41800002 22042.88155423  1523.93468846
0.41900002 22096.20281514  2227.29734931
0.42000002 22153.10310833  1538.86538034
0.42100002 22213.56592203  1546.73066844
0.42200002 22276.29764278  1696.11738289
0.42300002 22341.18762079  2415.52932002
0.42400002 22408.38912650  1571.38836196
0.42500002 22478.44960328  1723.64759726
0.42600002 22549.50205966  1444.29567536
0.42700002 22623.74134166  1888.17754185
0.42800002 22699.19828796  1752.83217486
0.42900002 22777.48256846  1616.06246481
0.43000002 22857.14483358  1773.25738022
0.43100002 22936.91809744  1783.57483578
0.43200002 23019.49754664  1644.62808016
0.43300002 23102.73984451  1654.38727866
0.43400002 23187.62736561  1664.29203303
0.43500002 23273.19098189  1522.06676234
0.43600002 23360.27828545  2143.77283985
0.43700002 23447.75067550  1694.56902162
0.43800002 23535.45890828  1704.79104681
0.43900002 23624.92546156  1871.09418523
0.44000002 23714.20349441  1568.69463550
0.44100002 23804.26791420  1893.86764500
0.44200002 23894.54530190  1587.79261056
0.44300002 23985.23110874  2555.86634807
0.44400002 24075.72621946  1767.76028144
0.44500002 24165.87174389  1778.36658591
0.44600002 24255.87997667  2114.26387836
0.44700002 24346.60779280  1963.31054546
0.44800002 24436.03640106  2304.07398145
0.44900002 24525.74743349  1986.58563626
0.45000002 24615.32400327  1831.74942251
0.45100002 24703.15605005  2344.82368340
0.45200002 24791.01829975  1853.00475063
0.45300002 24877.69626998  2033.00543553
0.45400002 24963.80520143  2214.91372147
0.45500002 25049.17925856  2227.37312523
0.45600002 25133.08900968  2067.44799992
0.45700002 25216.24963011  1905.59207486
0.45800002 25297.79401391  2264.27916053
0.45900002 25378.13643835  3327.07384475
0.46000002 25457.65389913  1760.39685056
0.46100002 25534.89043630  1946.52479021
0.46200002 25611.17841430  2490.17499524
0.46300002 25685.78856402  2145.27716254
0.46400002 25758.31446268  2515.29952649
0.46500002 25830.22010955  1986.08571835
0.46600002 25899.21939613  2358.51252609
0.46700002 25966.61321364  2005.14196739
0.46800002 26032.69173852  2380.81993579
0.46900002 26096.00623035  2023.74537908
0.47000002 26157.58869559  2956.85396629
0.47100002 26217.27923100  2227.42014904
0.47200002 26274.93859321  3169.15186863
0.47300002 26330.31900511  1872.08577000
0.47400002 26382.91498646  2067.76106007
0.47500002 26433.64752222  2264.83502705
0.47600002 26482.73355928  2084.32364358
0.47700002 26528.36468601  3423.75090866
