# SAXS profile: number of points = 501, q_min = 0, q_max = 0.5, delta_q = 0.001
#    q    intensity    error
0.00000000 1646666.22097350 296.39991978
0.00100000 1646585.74235600 543.37330788
0.00200000 1646344.23227438 889.02591358
0.00300000 1645941.91556913 1086.32170297
0.00400000 1645378.68930796 2221.26131497
0.00500000 1644655.00818861 1628.20852255
0.00600000 1643770.80226077 1898.55535391
0.00700000 1642726.64219675 2168.39925782
0.00800000 1641522.29474110 2216.05519146
0.00900000 1640159.03198751 4182.40571036
0.01000000 1638636.22990520 2974.12488570
0.01100000 1636955.13796549 3241.17131429
0.01200000 1635115.67552997 4463.86598991
0.01300000 1633118.98706102 4801.37003372
0.01400000 1630965.07619553 5137.54021777
0.01500000 1628655.34474552 4299.65030159
0.01600000 1626189.22257789 4561.46097324
0.01700000 1623568.88644251 6137.09066605
0.01800000 1620794.36128055 5543.11696501
0.01900000 1617866.20659145 4853.59883878
0.02000000 1614785.66130397 5595.23256952
0.02100000 1611554.67303394 6381.75679455
0.02200000 1608171.76711289 8877.10855777
0.02300000 1604640.20326685 5776.70499471
0.02400000 1600959.44757891 6603.95802239
0.02500000 1597131.97569901 8097.45948661
0.02600000 1593157.90100512 9033.20571186
0.02700000 1589039.30505936 10010.94808039
0.02800000 1584775.90382820 8961.90814714
0.02900000 1580370.29097735 7822.83329952
0.03000000 1575823.78749359 9525.85523326
0.03100000 1571136.69707694 9049.74779157
0.03200000 1566310.43373209 7753.23700407
0.03300000 1561348.61998556 9555.45399482
0.03400000 1556249.86638557 11438.43704571
0.03500000 1551016.92897166 12563.23770482
0.03600000 1545651.03925142 11151.87276357
0.03700000 1540154.23007887 10534.65542094
0.03800000 1534527.63501610 11670.08320438
0.03900000 1528773.72854096 11007.17135524
0.04000000 1522891.84997001 12175.52090471
0.04100000 1516886.43560970 11467.66198493
0.04200000 1510757.97882785 10718.82835706
0.04300000 1504507.39360799 12908.67403635
0.04400000 1498138.26042061 13146.16384572
0.04500000 1491651.92101027 12350.87847985
0.04600000 1485048.21324748 13610.46750712
0.04700000 1478331.39448152 12772.78384236
0.04800000 1471502.02826494 22712.63486305
0.04900000 1464563.67849462 10984.22810000
0.05000000 1457515.90904669 11149.99722342
0.05100000 1450363.39713928 14706.68553209
0.05200000 1443104.11942857 12619.94611251
0.05300000 1435744.29092072 13955.43515832
0.05400000 1428283.89123968 18853.34824357
0.05500000 1420725.26257330 13127.50203857
0.05600000 1413069.58643376 13289.92008057
0.05700000 1405321.75381681 12226.29982891
0.05800000 1397480.79191881 14841.24670315
0.05900000 1389549.32874056 16257.72790560
0.06000000 1381531.15911260 12641.01069645
0.06100000 1373427.18226218 15327.44807032
0.06200000 1365240.12797168 14191.67179363
0.06300000 1356972.63378742 14329.63168278
0.06400000 1348623.78120963 17093.80722625
0.06500000 1340199.21685321 13267.97286749
0.06600000 1331700.61647905 14721.95100399
0.06700000 1323128.52290176 16195.09387823
0.06800000 1314486.73343536 16325.92599347
0.06900000 1305777.80045847 16452.80105608
0.07000000 1297002.17834758 19338.30338475
0.07100000 1288162.78274008 25041.88566937
0.07200000 1279262.66733806 18210.30492265
0.07300000 1270303.70516060 15510.40896676
0.07400000 1261288.81203752 17027.39976048
0.07500000 1252218.71448100 17130.35281704
0.07600000 1243095.46329457 18665.07925640
0.07700000 1233923.86456332 15880.60088155
0.07800000 1224703.78790473 17415.28868072
0.07900000 1215438.15750343 16043.78443156
0.08000000 1206130.21079618 16119.93102349
0.08100000 1196781.17583195 30912.85922212
0.08200000 1187392.78086921 17739.64897862
0.08300000 1177968.67891797 19295.12786624
0.08400000 1168509.90618440 28307.15380602
0.08500000 1159019.40722463 17941.62126611
0.08600000 1149498.48479462 15000.95593089
0.08700000 1139951.55031637 15047.36117077
0.08800000 1130377.42688472 21126.75510067
0.08900000 1120782.09991377 22695.83858927
0.09000000 1111164.41149249 27301.31087286
0.09100000 1101528.05437044 18241.30543737
0.09200000 1091874.92879706 16754.82156965
0.09300000 1082209.09804591 19836.89369936
0.09400000 1072527.97121128 19868.58160046
0.09500000 1062837.35179966 18365.83030234
0.09600000 1053137.92830607 16855.47333488
0.09700000 1043434.43851501 19940.03305746
0.09800000 1033726.43042107 19956.08967757
0.09900000 1024016.56181155 16896.27406440
0.10000000 1014306.29774544 16903.41524685
0.10100000 1004597.03190853 24592.53649775
0.10200000 994892.45984839 18445.30707319
0.10300000 985193.24343258 15369.01532052
0.10400000 975502.63262717 21509.83406136
0.10500000 965823.55754054 16892.25481615
0.10600001 956152.62346201 18415.50039439
0.10700001 946497.55382480 19933.23942156
0.10800001 936856.72472327 21444.65143814
0.10900001 927234.82006364 19889.18782646
0.11000001 917630.65335325 16806.40620723
0.11100001 908047.13987215 18306.23120156
0.11200001 898486.59904799 16752.28342790
0.11300001 888949.90631560 15201.04411367
0.11400001 879439.78706104 18204.40444931
0.11500001 869957.65382097 16650.99027820
0.11600001 860504.43359237 19632.40957693
0.11700001 851082.98481644 18077.00344884
0.11800001 841692.56350903 27043.58333925
0.11900001 832335.95014930 16480.25258920
0.12000001 823014.46742465 17925.25594488
0.12100001 813732.18035798 14891.29960205
0.12200001 804487.09044649 23748.46002880
0.12300001 795283.04326193 17750.71836192
0.12400001 786119.15569300 16213.70835012
0.12500001 776997.60524431 16153.78097420
0.12600001 767921.79228122 19017.58408202
0.12700001 758890.66471263 17484.84173898
0.12800001 749905.81869532 20314.94958588
0.12900001 740969.71458223 17338.69213843
0.13000001 732082.86001975 21578.14331617
0.13100001 723245.43240412 17184.31228395
0.13200001 714459.93228811 18529.51921738
0.13300001 705727.22234737 14185.11783791
0.13400001 697047.83735847 14115.21937198
0.13500001 688423.83685528 22470.15509438
0.13600001 679855.71987353 23750.76069365
0.13700001 671344.60668638 19455.56761916
0.13800001 662889.79440980 17967.62872475
0.13900001 654494.81176888 16493.27003437
0.14000001 646158.86884938 15032.88679274
0.14100001 637884.44673048 17663.02116301
0.14200001 629670.86324919 16207.72878448
0.14300001 621520.03490599 17452.28340334
0.14400001 613429.52486521 14676.30207468
0.14500001 605405.18256637 14584.21153599
0.14600001 597444.77617587 17125.75531698
0.14700001 589550.39416755 17014.42517836
0.14800001 581719.18192504 15601.70919530
0.14900001 573955.80306056 14205.40679597
0.15000001 566258.51722231 14108.33162227
0.15100001 558628.65787585 15284.08080066
0.15200001 551067.85859615 15176.40954187
0.15300001 543575.37069210 18834.88748328
0.15400001 536150.06881665 12465.48968825
0.15500001 528795.72673988 16085.96676657
0.15600001 521509.31702728 15966.00849430
0.15700001 514295.58294353 13407.68648014
0.15800001 507149.51014826 18143.27458189
0.15900001 500076.02080600 14402.19007900
0.16000001 493071.22401807 15479.97180874
0.16100001 486140.08548235 14175.84556183
0.16200001 479279.65202011 14062.06565408
0.16300001 472490.69507972 12785.59881244
0.16400001 465773.87178170 17291.85580624
0.16500001 459128.26510478 11432.29434084
0.16600001 452555.17812683 17004.76162096
0.16700001 446053.61959999 14612.71726803
0.16800001 439624.72782024 14487.83358938
0.16900001 433268.74116072 13258.02410554
0.17000001 426983.77960382 21904.26892799
0.17100001 420771.51069989 11941.49603756
0.17200001 414631.53376217 15063.56433292
0.17300001 408563.17727741 15995.24914578
0.17400001 402567.98329507 11624.15106661
0.17500001 396643.51101963 19895.63945237
0.17600001 390789.58114933 11413.01025649
0.17700001 385010.23456758 13363.70587302
0.17800001 379300.36222835 14257.90128959
0.17900001 373661.70934165 10088.86662876
0.18000001 368095.14451043 10993.16201007
0.18100001 362599.51336887 10888.86390082
0.18200001 357172.56533983 10784.82611989
0.18300001 351816.48684645 10681.14904523
0.18400001 346530.51706327 14424.33345417
0.18500001 341314.22039548 10474.93391880
0.18600001 336167.43932888 12258.34625425
0.18700001 331088.98312896 10270.38074188
0.18800001 326077.79586546 12017.59773441
0.18900001 321138.02472808 9152.43413718
0.19000001 316261.68699211 9966.98753648
0.19100001 311455.62216060 10763.90681047
0.19200001 306714.67142671 12431.14622031
0.19300001 302041.86060049 9668.36041468
0.19400001 297433.37453050 8699.92661612
0.19500001 292890.93604670 11194.29210469
0.19600001 288412.61514336 8522.59318023
0.19700001 284000.38418238 11808.73653236
0.19800001 279650.73491582 9182.33231491
0.19900001 275365.13216428 10739.24066194
0.20000001 271140.54522539 8174.88782490
0.20100001 266980.29370852 11325.30459438
0.20200001 262880.26292770 12007.05657672
0.20300001 258841.88703517 11088.78696469
0.20400001 254864.73069866 8620.79992335
0.20500001 250946.43190240 10080.51864599
0.20600001 247087.28339398 8439.26656323
0.20700001 243287.51469802 9867.74206259
0.20800001 239545.07460833 8260.71228835
0.20900001 235862.66471863 8915.60914782
0.21000001 232234.19246010 9555.27630047
0.21100001 228663.25814615 7998.64114808
0.21200001 225146.81891124 7912.78532471
0.21300001 221685.64560522 8539.33147241
0.21400001 218279.10254730 8447.40166794
0.21500001 214927.06167167 10445.45569108
0.21600001 211626.35500996 10332.65727187
0.21700001 208378.86933906 7495.38828450
0.21800001 205182.86842729 7414.28330117
0.21900001 202037.30349787 7333.95446373
0.22000001 198941.53627853 7913.89468735
0.22100001 195896.74322583 9785.04278680
0.22200001 192900.60432860 10324.04083183
0.22300001 189952.22337759 7658.87400874
0.22400001 187050.90383746 8206.85879394
0.22500001 184198.74578577 9366.50666612
0.22600001 181390.90459815 7411.63271236
0.22700001 178629.59494909 6720.04567977
0.22800001 175912.63949330 6646.85939758
0.22900001 173239.73455529 5976.77112480
0.23000001 170610.71631086 8867.49239962
0.23100001 168025.81698300 6432.02857830
0.23200001 165481.32974107 6361.93002277
0.23300001 162979.82733807 7436.76987315
0.23400001 160518.29729158 6789.92429657
0.23500001 158096.85727723 6715.95481478
0.23600001 155715.29022164 6642.81459504
0.23700001 153373.33606737 6570.51402790
0.23800001 151069.12493298 7582.15973901
0.23900001 148802.74553134 5892.58900176
0.24000001 146573.02441751 5828.47659165
0.24100001 144380.83685290 6813.33201337
0.24200001 142224.49934531 5702.49157099
0.24300001 140102.60398608 7691.63332267
0.24400001 138015.82128212 6593.70617366
0.24500001 135962.22382845 5017.00629660
0.24600001 133942.53304079 6947.59951748
0.24700001 131956.05907758 6381.39531887
0.24800001 130001.64560091 5826.67403147
0.24900001 128077.79721940 6243.79290982
0.25000001 126186.17358129 5226.00062610
0.25100001 124324.29922690 5169.40460641
0.25200001 122494.23795290 6043.25351531
0.25300001 120692.16299518 5518.04595320
0.25400001 118919.75505502 5003.54893066
0.25500001 117174.17952259 6299.28418917
0.25600001 115457.72574059 4895.98509167
0.25700001 113767.71326477 4402.81071166
0.25800001 112104.74208051 4790.79637948
0.25900001 110468.67307437 5169.93414449
0.26000001 108857.88652965 4687.96510521
0.26100001 107271.66023682 5902.08702549
0.26200001 105711.80435045 4587.36396685
0.26300001 104174.69462733 4537.84991269
0.26400001 102662.54822268 4897.00378194
0.26500001 101173.60204272 4440.50960377
0.26600001 99707.26451858  4791.93135951
0.26700001 98263.98881915  4345.23379120
0.26800001 96842.84495226  3907.60897874
0.26900001 95442.80587614  6184.69411344
0.27000001 94064.59120441  4970.84355743
0.27100001 92706.99419867  4160.69009653
0.27200001 91370.58532256  3741.62564603
0.27300001 90054.02540780  3701.22061942
0.27400001 88755.87184629  5125.65184169
0.27500001 87479.19593587  4345.96665977
0.27600001 86219.15365445  5373.60900582
0.27700001 84979.89071527  4606.76009370
0.27800001 83757.68180499  3855.78506438
0.27900001 82554.09149042  3813.99920737
0.28000001 81367.44750113  4458.52949684
0.28100001 80198.56498978  5088.59918944
0.28200001 79046.98209252  4362.20791324
0.28300001 77912.03319677  4646.67387978
0.28400001 76792.74431217  3939.46796967
0.28500001 75690.41673005  4221.25474083
0.28600001 74603.46437806  4496.35101089
0.28700001 73532.96072619  4447.27367522
0.28800001 72476.19773475  3456.02765257
0.28900001 71436.16126257  3728.96779441
0.29000001 70410.19303777  3688.08608589
0.29100001 69399.42036787  3343.66423160
0.29200001 68402.51819044  3006.29081677
0.29300001 67420.09118003  5351.80709120
0.29400001 66450.75812312  3528.53542337
0.29500001 65496.45770141  2908.04285960
0.29600001 64554.41178753  4026.25885378
0.29700001 63626.23731290  4550.54870803
0.29800001 62711.37896407  3093.86602765
0.29900001 61809.69500926  3615.86732921
0.30000001 60919.81407827  3025.58270943
0.30100001 60043.50804422  4623.95077338
0.30200001 59178.69802478  2958.63914781
0.30300001 58327.00378562  3191.65379825
0.30400001 57487.05715334  3419.04288606
0.30500001 56659.45100045  2860.73581645
0.30600001 55842.60566803  3343.01774658
0.30700001 55038.25235224  3814.15106858
0.30800001 54245.09213888  2765.68615364
0.30900001 53463.67271751  2734.66698897
0.31000001 52693.42076105  2949.77783386
0.31100001 51933.79791746  2430.50185761
0.31200001 51186.34760653  2643.51904730
0.31300001 50448.73858131  2851.36283962
0.31400001 49723.51251605  2819.32329315
0.31500001 49007.64003926  3252.14714699
0.31600002 48303.49113076  2526.51422322
0.31700002 47609.08375149  4087.71612445
0.31800002 46925.18808299  2245.37035609
0.31900002 46252.24316014  3552.17244289
0.32000002 45589.63749514  2634.16937920
0.32100002 44936.81325689  2604.53781969
0.32200002 44295.11674337  2360.70835862
0.32300002 43661.68595859  2546.34964568
0.32400002 43039.70114524  2517.82263622
0.32500002 42427.19419165  2489.62787305
0.32600002 41824.86171858  3282.41530310
0.32700002 41232.30998981  2028.62974756
0.32800002 40650.36710300  3209.75313844
0.32900002 40076.19295055  2380.52597399
0.33000002 39513.13086205  2354.19244824
0.33100002 38958.56570078  1940.13666377
0.33200002 38414.94384056  2302.59184284
0.33300002 37880.12871027  2087.57399208
0.33400002 37355.37537784  2064.81847179
0.33500002 36839.49664309  2228.05286249
0.33600002 36332.63372003  2754.92208228
0.33700002 35835.26006912  1998.53254870
0.33800002 35347.90327620  3055.64964342
0.33900002 34868.85033820  1778.31145147
0.34000002 34399.12902329  2287.37019273
0.34100002 33938.63472564  1915.15724827
0.34200002 33488.04105509  2584.43969082
0.34300002 33045.68131719  2216.70440774
0.34400002 32613.13259184  1856.50266071
0.34500002 32188.95976838  1837.66780021
0.34600002 31774.44199626  1653.85978423
0.34700002 31367.55496564  1801.12509143
0.34800002 30970.45598226  2269.82482644
0.34900002 30581.86043173  1926.65729845
0.35000002 30202.28284244  1749.16529366
0.35100002 29832.08569931  2362.70129929
0.35200002 29468.94116274  2340.57076271
0.35300002 29115.82513042  2009.86550395
0.35400002 28770.82123074  1838.45556372
0.35500002 28434.51909133  1518.40339139
0.35600002 28106.27046900  1655.59994039
0.35700002 27786.65777765  2387.42974934
0.35800002 27475.67083914  1627.52143924
0.35900002 27173.48637223  1614.10516696
0.36000002 26879.32000771  1601.06677210
0.36100002 26592.89696780  2165.99156062
0.36200002 26316.16825509  1576.20697230
0.36300002 26046.19675280  1990.97137409
0.36400002 25784.94218103  1411.72565128
0.36500002 25530.88652785  1962.30403148
0.36600002 25285.85120294  1531.18479212
0.36700002 25048.11640783  2073.98413681
0.36800002 24819.13456947  1373.73916349
0.36900002 24597.70520968  1774.72451495
0.37000002 24383.45126747  1764.02086551
0.37100002 24176.84821841  1349.06819449
0.37200002 23978.51054317  1878.23681982
0.37300002 23787.42585300  2135.15944571
0.37400002 23603.73132469  1460.48094490
0.37500002 23427.69485903  1849.85087370
0.37600002 23259.23492890  1841.43371655
0.37700002 23097.63990126  2226.38161555
0.37800002 22943.55798860  1565.20960013
0.37900002 22797.08473067  2209.03761505
0.38000002 22657.01801669  1424.33350509
0.38100002 22523.34980182  1290.58800478
0.38200002 22397.75695345  1544.10143752
0.38300002 22278.08019956  2053.14796846
0.38400002 22165.65697582  1536.08010119
0.38500002 22059.31264262  1532.68111502
0.38600002 21960.53899123  1912.21402325
0.38700002 21867.15691111  1909.00288878
0.38800002 21780.41725655  1397.97614784
0.38900002 21699.79092379  1396.38161210
0.39000002 21626.13393959  1775.72194191
0.39100002 21557.64246885  1394.34838094
0.39200002 21495.73662193  1393.89110729
0.39300002 21439.32794986  1647.18364443
0.39400002 21389.78481842  1394.07929159
0.39500002 21344.79457556  2155.39745836
0.39600002 21305.67930716  2156.88054685
0.39700002 21271.33303500  1904.84796353
0.39800002 21243.68845259  1398.57829554
0.39900002 21220.32800809  1655.18566305
0.40000002 21202.48139961  1402.86224827
0.40100002 21189.30332464  1661.02956632
0.40200002 21181.72961196  1280.43561571
0.40300002 21178.58813344  1668.44925220
0.40400002 21180.20679203  1415.36738594
0.40500002 21186.12053121  1548.28176178
0.40600002 21197.39998149  1423.51146320
0.40700002 21212.58386640  1557.85223296
0.40800002 21231.89411255  1563.09211863
0.40900002 21255.01333817  1437.90172046
0.41000002 21282.97156552  1968.14288878
0.41100002 21314.43227755  1975.84796575
0.41200002 21349.06169880  1719.34676538
0.41300002 21388.55092447  1593.87489041
0.41400002 21431.00819503  1600.89638802
0.41500002 21476.85244278  1340.15565593
0.41600002 21525.25369610  1481.04515074
0.41700002 21578.25572283  1488.25236772
0.41800002 21634.64717787  1495.71140351
0.41900002 21692.21532956  1913.25348273
0.42000002 21753.27067955  1511.09101936
0.42100002 21817.71462333  1657.27368132
0.42200002 21884.58602030  1666.29245854
0.42300002 21953.53112614  1535.86911036
0.42400002 22024.77496210  1684.89536444
0.42500002 22098.78246027  1694.53471935
0.42600002 22173.79401955  1562.25473168
0.42700002 22252.06686866  1428.58276066
0.42800002 22331.48573342  1580.73429255
0.42900002 22413.64113027  2023.95188997
0.43000002 22497.20459859  2472.55538858
0.43100002 22580.84897593  1463.23908298
0.43200002 22667.34939302  1619.46885413
0.43300002 22754.38510850  1481.31054076
0.43400002 22843.14966639  1788.61870364
0.43500002 22932.49123380  1649.76349754
0.43600002 23023.44554028  1660.10561935
0.43700002 23114.76863227  1670.50440822
0.43800002 23206.19267252  1833.75343188
0.43900002 23299.52440882  1691.54555224
0.44000002 23392.54175081  1702.15838116
0.44100002 23486.45423934  2335.72798479
0.44200002 23580.51221542  2193.69515536
0.44300002 23674.98959533  2207.45613448
0.44400002 23769.29804847  1745.26079192
0.44500002 23863.13283998  1756.08802892
0.44600002 23956.94462770  1927.57585609
0.44700002 24051.40720533  2101.13103303
0.44800002 24144.65632520  1951.37121668
0.44900002 24238.05765096  1636.06896898
0.45000002 24331.33791794  2798.22564987
0.45100002 24422.91397639  1655.87364607
0.45200002 24514.52511864  2165.49067898
0.45300002 24605.00026040  1843.16065686
0.45400002 24694.86613113  1853.96716266
0.45500002 24783.99142881  1864.74760348
0.45600002 24871.64777183  2216.43699623
0.45700002 24958.54186964  1714.65190771
0.45800002 25043.86062646  1896.69687444
0.45900002 25127.96944076  2253.97896566
0.46000002 25211.31051443  1917.69842517
0.46100002 25292.26084597  2103.30451164
0.46200002 25372.38096887  2290.74552434
0.46300002 25450.72814192  2125.64491516
0.46400002 25526.99892533  1958.55908537
0.46500002 25602.73291855  2684.44667374
0.46600002 25675.52522549  2338.14181548
0.46700002 25746.68810046  2530.38462644
0.46800002 25816.56210163  2724.29284490
0.46900002 25883.68401458  3467.11963808
0.47000002 25949.07916152  2016.63278262
0.47100002 26012.53275035  2210.02488722
0.47200002 26074.02168473  2034.94711884
0.47300002 26133.16508132  2787.10218802
0.47400002 26189.57984734  1866.00765257
0.47500002 26244.16768195  1873.83366131
0.47600002 26297.11860236  2257.87071022
0.47700002 26346.52111149  2077.95021855
