# SAXS profile: number of points = 501, q_min = 0, q_max = 0.5, delta_q = 0.001
#    q    intensity    error
0.00000000 1628779.37420969 244.31690613
0.00100000 1628699.41289857 586.33180257
0.00200000 1628459.44906747 806.08745281
0.00300000 1628059.71711823 1465.25379760
0.00400000 1627500.10628911 1342.68763871
0.00500000 1626781.07840997 1903.33393708
0.00600000 1625902.54424281 1707.19774096
0.00700000 1624865.09234724 2339.80583022
0.00800000 1623668.48642426 2411.14780414
0.00900000 1622313.98862268 2676.81819566
0.01000000 1620800.98035397 3209.18607967
0.01100000 1619130.69712668 3205.87891989
0.01200000 1617303.06807821 3469.11523313
0.01300000 1615319.23171297 3731.38758983
0.01400000 1613179.19343818 4718.54934998
0.01500000 1610884.37343102 4639.34720207
0.01600000 1608434.18236917 5742.11028775
0.01700000 1605830.76176945 4769.31757640
0.01800000 1603074.13412243 5025.63763662
0.01900000 1600164.87854605 6240.64330792
0.02000000 1597104.32341831 6540.14250025
0.02100000 1593894.24156138 6311.82148275
0.02200000 1590533.25052136 7682.27594904
0.02300000 1587024.61211972 7427.27552280
0.02400000 1583367.75836873 7125.15523755
0.02500000 1579565.14552291 7392.36521866
0.02600000 1575616.93725329 9571.87333161
0.02700000 1571525.20916983 9900.60927123
0.02800000 1567289.64077347 8181.25230003
0.02900000 1562912.82530614 9846.35125152
0.03000000 1558396.04978939 7246.54196461
0.03100000 1553739.58458331 11186.92552375
0.03200000 1548944.92204351 12267.64434761
0.03300000 1544015.72293848 11811.72082501
0.03400000 1538950.61136481 10503.33840719
0.03500000 1533752.14602200 9938.71436517
0.03600000 1528421.55030371 8482.73999620
0.03700000 1522961.05579891 13021.31762928
0.03800000 1517371.72601974 9764.28750882
0.03900000 1511655.87681672 14511.89708949
0.04000000 1505813.06764117 10186.82587464
0.04100000 1499847.62697280 11338.84858566
0.04200000 1493760.00933934 14452.12876083
0.04300000 1487551.05618108 11781.40491182
0.04400000 1481224.56182777 10998.09288234
0.04500000 1474781.71258626 10175.99428967
0.04600000 1468222.31800655 15526.45173470
0.04700000 1461550.64343778 11575.48163438
0.04800000 1454767.38460568 13900.30300666
0.04900000 1447875.79994357 18460.41730857
0.05000000 1440875.64925997 11022.69923012
0.05100000 1433771.71368324 17893.47182032
0.05200000 1426561.83469512 15877.63396007
0.05300000 1419252.12269991 12645.53700276
0.05400000 1411842.62327018 11647.70218516
0.05500000 1404335.80506753 16514.98983801
0.05600000 1396732.59015840 20301.50914531
0.05700000 1389037.94881294 14501.55686252
0.05800000 1381251.23501610 13446.48140073
0.05900000 1373374.44559960 16068.48176401
0.06000000 1365411.85711604 13742.87098392
0.06100000 1357364.23182556 15148.18553507
0.06200000 1349234.07398894 15300.31511423
0.06300000 1341024.52524363 16735.98685754
0.06400000 1332734.24268732 12994.15947390
0.06500000 1324368.56418735 13111.24939877
0.06600000 1315930.05870632 14547.60747966
0.06700000 1307418.29633275 16002.80069603
0.06800000 1298837.69910994 20164.45622256
0.06900000 1290190.82727210 17611.10561680
0.07000000 1281477.65311789 21836.38023169
0.07100000 1272701.50209535 15119.69455307
0.07200000 1263865.13845545 17991.12108874
0.07300000 1254970.46608315 22288.27652197
0.07400000 1246020.60337300 15419.50568936
0.07500000 1237016.20193352 15512.18389934
0.07600000 1227959.25042176 15601.22300800
0.07700000 1218854.44950114 15686.65750060
0.07800000 1209701.85456592 18635.45794352
0.07900000 1200504.05752806 15846.65430264
0.08000000 1191264.71546739 21710.80045787
0.08100000 1181984.59010798 15992.25225449
0.08200000 1172665.72669818 14599.68898249
0.08300000 1163311.83016844 19055.04867245
0.08400000 1153923.52441834 20597.53587769
0.08500000 1144504.24502608 14764.10545394
0.08600000 1135054.79891148 20737.45214977
0.08700000 1125579.91185415 17829.18664099
0.08800000 1116078.26550614 19369.53920753
0.08900000 1106555.94547302 14938.50596554
0.09000000 1097011.65777831 14974.20983209
0.09100000 1087449.13896003 16507.47870495
0.09200000 1077870.05814627 28568.94723353
0.09300000 1068279.02663518 15062.73498339
0.09400000 1058673.03221496 15086.09141807
0.09500000 1049057.85056674 18127.72050984
0.09600000 1039434.12952620 16636.14402510
0.09700000 1029806.81946055 21193.42534086
0.09800000 1020175.19691650 24239.36381841
0.09900000 1010542.30347178 24253.01642376
0.10000000 1000909.13352664 18196.52890325
0.10100000 991277.47012149 24266.47360987
0.10200000 981650.72337388 21233.10614530
0.10300000 972029.47840180 22745.49086457
0.10400000 962417.42988695 16673.88275722
0.10500000 952816.91605501 16664.76864587
0.10600001 943224.99773958 22708.14288908
0.10700001 933648.88637108 21175.15773935
0.10800001 924087.53565780 21152.36468667
0.10900001 914545.29557285 16598.99789589
0.11000001 905020.82067370 15068.59737349
0.11100001 895517.24650985 16549.15949453
0.11200001 886036.96852582 18021.99278824
0.11300001 876580.63462151 19486.38842507
0.11400001 867151.26756711 16454.19607682
0.11500001 857749.59457052 16417.32801314
0.11600001 848377.29732302 16377.92449608
0.11700001 839036.87397320 17821.14404248
0.11800001 829727.60457842 20734.89381499
0.11900001 820452.34563464 16244.95720873
0.12000001 811212.19065079 17668.20234463
0.12100001 802011.14258707 20547.52644104
0.12200001 792847.75513772 16090.84594858
0.12300001 783725.17001838 20408.20438880
0.12400001 774643.01781139 17429.46872199
0.12500001 765603.06366668 17363.87830215
0.12600001 756609.14992118 17296.08598225
0.12700001 747659.63270520 20097.09187422
0.12800001 738756.51716857 17153.92713711
0.12900001 729902.09066776 14233.09143886
0.13000001 721097.06190823 17003.46952125
0.13100001 712341.61486016 19746.11049471
0.13200001 703637.65310534 19652.60057766
0.13300001 694986.49413582 16763.07502882
0.13400001 686389.03699554 16679.25438535
0.13500001 677846.57335058 19359.29904765
0.13600001 669359.78834626 15130.87872900
0.13700001 660930.15221774 24626.25863284
0.13800001 652556.71830258 14966.38904002
0.13900001 644242.93760777 20293.65349166
0.14000001 635988.08246330 18831.60800985
0.14100001 627794.67944560 20058.04095428
0.14200001 619662.03044378 17279.27653391
0.14300001 611591.89344799 13210.38552158
0.14400001 603582.23859783 15753.49717049
0.14500001 595638.24639102 13044.47821130
0.14600001 587758.22889321 18144.09738187
0.14700001 579943.87329677 15449.70551349
0.14800001 572192.43758849 14067.35174179
0.14900001 564508.79568463 13971.59335239
0.15000001 556891.03416293 13874.94077083
0.15100001 549340.58790561 16282.45579381
0.15200001 541858.73223649 12435.65849163
0.15300001 534445.12298249 14814.81950817
0.15400001 527098.33366591 12255.03683606
0.15500001 519822.35643124 19462.14994326
0.15600001 512614.19113330 16900.89067930
0.15700001 505478.43063663 13177.82330865
0.15800001 498409.90865972 16641.90763562
0.15900001 491413.87446142 18870.29367001
0.16000001 484485.99593116 12870.37108942
0.16100001 477631.72719240 18570.32242984
0.16200001 470847.83261606 18419.56808146
0.16300001 464135.01229400 14843.03839387
0.16400001 457493.90376809 15852.16451394
0.16500001 450923.77912549 11228.00263031
0.16600001 444425.75067832 15586.01181215
0.16700001 437999.15211752 13245.09498540
0.16800001 431644.94000363 10942.19974574
0.16900001 425363.05199359 15185.46167320
0.17000001 419151.93735570 10751.24770084
0.17100001 413012.88759901 12786.87960388
0.17200001 406946.19848974 11616.27978444
0.17300001 400950.30495861 12557.76414434
0.17400001 395027.62804119 11406.42329837
0.17500001 389175.02723079 12329.06544494
0.17600001 383392.55968275 12214.88752839
0.17700001 377684.26539613 13109.42147107
0.17800001 372045.12618638 13985.17695390
0.17900001 366476.99845255 14842.31913838
0.18000001 360980.21484376 11760.73595513
0.18100001 355554.09621804 12618.61547084
0.18200001 350196.22418409 10574.17548874
0.18300001 344908.71799677 11423.37727969
0.18400001 339691.03616349 10369.06936873
0.18500001 334542.55813724 11200.48537557
0.18600001 329463.09131500 9241.44014798
0.18700001 324451.62316730 10064.48982614
0.18800001 319506.84229311 11775.42522906
0.18900001 314633.10544235 11657.15710741
0.19000001 309822.13826877 12426.96655312
0.19100001 305081.09724346 9664.96961734
0.19200001 300404.98810333 8696.72481652
0.19300001 295796.13855185 11189.96845017
0.19400001 291251.27579351 9371.01024147
0.19500001 286771.93221688 10960.42376727
0.19600001 282356.46372137 15018.54101506
0.19700001 278006.41012241 8256.79077083
0.19800001 273718.37157668 8987.54315546
0.19900001 269494.11355590 8893.30616764
0.20000001 265330.23837949 10399.61918478
0.20100001 261230.28500172 8706.80581061
0.20200001 257189.87120459 11747.14792248
0.20300001 253210.80892829 8523.07623137
0.20400001 249292.66191757 10732.04960281
0.20500001 245432.53978457 9859.02558915
0.20600001 241631.23770390 9753.44537094
0.20700001 237888.68076834 8164.33990989
0.20800001 234202.87560335 10279.16469613
0.20900001 230576.88146576 10168.44095332
0.21000001 227004.15438613 10777.02273894
0.21100001 223488.43566804 8528.31910825
0.21200001 220026.87776482 8435.83089230
0.21300001 216619.81786080 9039.54542668
0.21400001 213267.11916322 8941.22439363
0.21500001 209968.13007109 9524.15483030
0.21600001 206720.18621072 10093.11356893
0.21700001 203524.79681185 7320.78728745
0.21800001 200380.47619902 6582.49895436
0.21900001 197286.15896604 8463.57661981
0.22000001 194241.03644903 8370.81786156
0.22100001 191246.55388474 8279.06370913
0.22200001 188299.91800769 10707.67534381
0.22300001 185400.74661538 6229.46538084
0.22400001 182548.13589002 6777.09986538
0.22500001 179743.98599103 9139.98211985
0.22600001 176983.72871292 7834.18512194
0.22700001 174269.47973291 8344.02308419
0.22800001 171599.22544306 8252.20714180
0.22900001 168972.33296638 7578.40949193
0.23000001 166388.83547232 8071.52279048
0.23100001 163849.22482077 7412.53928145
0.23200001 161349.18764276 7330.90068725
0.23300001 158891.75053057 6692.52084887
0.23400001 156473.94484546 6067.27749834
0.23500001 154095.50713267 6000.47933155
0.23600001 151756.54436460 5934.43994806
0.23700001 149456.78322411 7469.85037885
0.23800001 147194.14615727 6332.29246720
0.23900001 144968.87911067 5218.87989483
0.24000001 142779.92497850 7226.09234496
0.24100001 140627.84003289 8167.66533545
0.24200001 138511.26948105 7068.23041596
0.24300001 136428.58409443 4993.28641405
0.24400001 134380.53967717 5432.33357342
0.24500001 132365.23984349 5861.13309753
0.24600001 130383.43751369 6762.98922376
0.24700001 128434.33376638 6211.08467476
0.24800001 126516.73701820 6143.02045652
0.24900001 124629.52961273 5608.32909789
0.25000001 122773.87305153 5546.92384688
0.25100001 120947.44055436 5028.99481617
0.25200001 119152.45244569 4521.83578424
0.25300001 117385.12919952 6708.56045114
0.25400001 115646.99011645 4865.84733936
0.25500001 113935.26411463 5687.64865370
0.25600001 112252.05385809 4760.04856906
0.25700001 110595.00853889 5564.03514284
0.25800001 108964.54191330 5926.58171508
0.25900001 107360.50725410 4605.76597912
0.26000001 105781.45012622 6626.15034943
0.26100001 104226.35488554 4505.70553489
0.26200001 102697.37354969 6077.11736735
0.26300001 101190.59110145 4407.86235695
0.26400001 99708.63097273  4359.76009558
0.26500001 98249.28788483  6272.23483536
0.26600001 96812.31311926  4652.79998868
0.26700001 95397.76187638  4601.98825068
0.26800001 94005.04140768  4172.41396032
0.26900001 92633.17442603  4877.13686432
0.27000001 91282.72585526  4081.70727977
0.27100001 89952.40853697  4037.06428618
0.27200001 88643.03422383  3629.93242325
0.27300001 87353.12588741  4308.25637265
0.27400001 86081.27663536  5326.27924388
0.27500001 84830.61602362  4565.58397046
0.27600001 83596.10790678  4168.10213749
0.27700001 82381.99429823  3778.86225730
0.27800001 81184.77701998  3397.58307908
0.27900001 80005.63424258  3696.26047694
0.28000001 78843.38997474  4652.54866261
0.28100001 77698.39685268  3943.97081091
0.28200001 76570.47749370  4550.58369283
0.28300001 75458.67112480  3535.99349627
0.28400001 74362.48096410  3178.99621168
0.28500001 73282.83681079  3772.60061758
0.28600001 72218.31163632  3419.89830941
0.28700001 71169.86381828  3689.44591497
0.28800001 70135.01554859  3040.35306794
0.28900001 69116.33652563  4810.49724988
0.29000001 68111.77250765  3865.00271389
0.29100001 67121.95256172  3527.92999364
0.29200001 66145.80566814  3779.24078574
0.29300001 65183.73462087  3449.52339942
0.29400001 64234.63561209  3979.33586454
0.29500001 63300.34372960  3653.69601303
0.29600001 62377.86078459  2778.93382950
0.29700001 61469.34856136  3297.21601292
0.29800001 60573.64762070  2716.72822439
0.29900001 59690.85867049  2954.69764406
0.30000001 58819.87267743  2921.28911482
0.30100001 57962.10051325  3675.95658857
0.30200001 57115.53787938  3634.26184731
0.30300001 56281.90095495  2566.45480504
0.30400001 55459.93218478  2791.02121933
0.30500001 54650.06694540  2759.28201070
0.30600001 53850.66087672  3719.73457616
0.30700001 53063.61114988  3187.00063654
0.30800001 52287.55698408  2908.23405714
0.30900001 51523.00375067  2395.81978783
0.31000001 50769.49630644  3078.91624927
0.31100001 50026.45957183  3043.60994445
0.31200001 49295.38287287  2314.41833546
0.31300001 48574.07679655  2516.62303798
0.31400001 47864.89116662  3392.42432205
0.31500001 47165.08620707  4247.68786492
0.31600002 46476.65058633  2651.95780802
0.31700002 45797.92069607  3276.84138096
0.31800002 45129.38253791  2591.32926802
0.31900002 44471.76114038  2134.64463581
0.32000002 43824.42651564  3376.23397863
0.32100002 43186.70843131  2294.50992760
0.32200002 42559.88908521  3093.04008572
0.32300002 41941.31775738  2038.34813953
0.32400002 41333.86685262  3627.04698806
0.32500002 40736.06535496  2191.19305920
0.32600002 40148.24552297  2560.05299700
0.32700002 39570.00097885  2141.52855438
0.32800002 39002.29056954  1924.76313075
0.32900002 38442.26352034  2093.18134780
0.33000002 37893.37559913  2445.82804387
0.33100002 37352.72159007  2604.23187258
0.33200002 36823.05331671  2207.17392032
0.33300002 36302.02373492  2364.35091782
0.33400002 35791.08590074  1798.50215168
0.33500002 35288.73693753  2134.26291105
0.33600002 34795.48691754  1758.91194698
0.33700002 34311.56032878  1913.55581016
0.33800002 33837.68551003  2753.03422347
0.33900002 33372.08907864  2212.56961070
0.34000002 32915.63189758  2693.81544207
0.34100002 32468.30363075  1665.62405514
0.34200002 32030.96528343  1647.99324188
0.34300002 31601.85053901  2119.85223455
0.34400002 31182.39903514  2581.90276239
0.34500002 30771.29305735  2235.84225944
0.34600002 30369.69154432  1738.81677172
0.34700002 29975.80421082  2034.15817009
0.34800002 29591.67881973  1549.12445958
0.34900002 29215.95966346  1993.98934147
0.35000002 28849.21970502  1670.80263835
0.35100002 28491.92511802  2106.12320448
0.35200002 28141.47666647  1639.10038607
0.35300002 27801.11551982  1771.48716483
0.35400002 27468.98549068  1462.72354666
0.35500002 27145.50770074  1594.52719786
0.35600002 26829.93805896  1867.76622644
0.35700002 26522.97142286  1851.56872273
0.35800002 26224.65903269  1412.19795580
0.35900002 25935.14268201  1540.54754828
0.36000002 25653.65166394  1666.97436408
0.36100002 25379.87697214  1929.37833881
0.36200002 25115.74079218  1641.06258109
0.36300002 24858.39475320  1628.72210138
0.36400002 24609.80268205  1616.86411280
0.36500002 24368.37819095  1739.17123387
0.36600002 24135.88399905  1727.28462021
0.36700002 23910.77640719  1319.87492020
0.36800002 23694.38602682  1442.63276158
0.36900002 23485.60937438  1564.14165843
0.37000002 23283.99080353  1295.75414960
0.37100002 23089.93817944  1932.62791717
0.37200002 22904.22847808  1409.64080846
0.37300002 22725.79179140  1784.88377185
0.37400002 22554.71627317  2156.79484579
0.37500002 22391.37251454  2146.88489839
0.37600002 22235.53483639  1508.90346548
0.37700002 22086.53288909  1878.45971120
0.37800002 21945.10041418  1372.33691941
0.37900002 21811.32789926  1491.89489898
0.38000002 21683.95966816  1487.08602449
0.38100002 21562.93679635  1359.11197066
0.38200002 21450.04601239  1355.53572197
0.38300002 21342.99822787  1721.09945863
0.38400002 21243.29971126  1840.20092467
0.38500002 21149.76504403  1714.40003569
0.38600002 21063.61566051  1834.11442053
0.38700002 20983.04563230  1465.45597639
0.38800002 20908.98115633  1220.03910827
0.38900002 20841.15599171  1463.04921993
0.39000002 20780.23240824  1340.63675733
0.39100002 20724.61601638  1706.05047129
0.39200002 20675.35033118  1706.33674367
0.39300002 20631.77468719  2072.87450103
0.39400002 20594.93464839  1586.32491645
0.39500002 20562.75293247  1343.57034026
0.39600002 20536.55513220  1467.54229928
0.39700002 20514.95516352  1592.16574567
0.39800002 20500.04816181  1595.00632280
0.39900002 20489.56381470  1598.18605327
0.40000002 20484.53576010  1355.35937278
0.40100002 20484.22208967  1482.23838064
0.40200002 20489.48228380  1610.16604156
0.40300002 20499.10884164  1614.91987106
0.40400002 20513.55500250  1744.67793563
0.40500002 20532.28748666  1625.54127734
0.40600002 20556.40167925  1254.96838198
0.40700002 20584.48042921  1889.65539294
0.40800002 20616.54286549  1517.78995767
0.40900002 20652.41488575  1397.13593322
0.41000002 20693.16651694  1403.30715384
0.41100002 20737.37737051  1537.88397867
0.41200002 20784.86874286  1802.67175148
0.41300002 20837.08122718  1552.77936662
0.41400002 20892.22835404  2861.19080866
0.41500002 20950.82367828  1307.33145947
0.41600002 21012.01246586  1314.30144202
0.41700002 21077.77436816  1718.04947016
0.41800002 21146.72932145  1594.88640100
0.41900002 21216.97337667  2005.00407910
0.42000002 21290.65729887  1613.40608656
0.42100002 21367.74439367  1487.83611263
0.42200002 21447.22560928  1905.15714115
0.42300002 21528.72675587  1779.99521252
0.42400002 21612.62428618  1653.36583624
0.42500002 21699.02826442  1386.56797180
0.42600002 21786.51266336  1953.59668310
0.42700002 21877.22576589  1685.42155287
0.42800002 21969.06851008  1555.08058818
0.42900002 22063.68556924  1423.10778665
0.43000002 22159.50264899  1575.87310556
0.43100002 22255.47771434  1586.37052665
0.43200002 22354.21093512  2323.04971046
0.43300002 22453.50756519  1754.06809411
0.43400002 22554.34124333  1618.83791945
0.43500002 22655.85981993  2074.37062341
0.43600002 22758.81945082  1939.39289141
0.43700002 22862.16498257  1652.24874159
0.43800002 22965.57191291  2117.19617498
0.43900002 23070.81057194  1674.94092690
0.44000002 23175.69356004  1992.99386214
0.44100002 23281.36286599  2469.68708986
0.44200002 23387.21052761  1554.08021321
0.44300002 23493.35815491  2034.05504545
0.44400002 23599.26521454  2362.87654158
0.44500002 23704.67480039  2537.34851088
0.44600002 23809.96516323  1756.10406384
0.44700002 23915.77055946  1767.85384354
0.44800002 24020.40355085  2750.21623489
0.44900002 24125.06135384  1628.44171856
0.45000002 24229.50346046  2622.60157885
0.45100002 24332.16516139  1814.69296374
0.45200002 24434.79758340  1826.37903193
0.45300002 24536.29924098  2339.29088050
0.45400002 24636.92359216  2690.35218377
0.45500002 24736.82601273  2030.39877535
0.45600002 24835.22397607  2894.17296322
0.45700002 24932.72727414  1884.16628940
0.45800002 25028.52386864  1895.53534503
0.45900002 25123.12901624  1906.84558271
0.46000002 25216.76580092  1918.11338155
0.46100002 25307.99898518  2806.15106047
0.46200002 25398.25490495  1940.29977542
0.46300002 25486.66034993  2128.64597331
0.46400002 25572.86285376  1962.07799545
0.46500002 25658.43786619  1793.52489185
0.46600002 25740.90787091  2163.78081818
0.46700002 25821.75928679  2356.49386420
0.46800002 25901.12788959  2368.78776341
0.46900002 25977.72305419  2014.57251834
0.47000002 26052.45444224  2760.90899037
0.47100002 26125.15159010  2219.59298430
0.47200002 26195.65175963  2230.29789652
0.47300002 26263.79937138  1867.35622381
0.47400002 26329.14015524  3751.90264995
0.47500002 26392.44837295  2072.86299346
0.47600002 26453.98485220  2082.06097648
0.47700002 26511.98250393  2091.00015919
