# SAXS profile: number of points = 501, q_min = 0, q_max = 0.5, delta_q = 0.001
#    q    intensity    error
0.00000000 1646666.22097350 296.39991978
0.00100000 1646585.62637588 543.37326961
0.00200000 1646343.76993162 1185.36755189
0.00300000 1645940.88739968 987.56456762
0.00400000 1645376.85283148 1234.03268651
0.00500000 1644652.14684082 2220.28048612
0.00600000 1643766.67565727 2243.74160362
0.00700000 1642721.01672355 2365.51836239
0.00800000 1641514.99285503 2659.25440070
0.00900000 1640149.77453887 2952.26972037
0.01000000 1638624.80833703 3244.47726060
0.01100000 1636941.31781613 3830.44285046
0.01200000 1635099.23100171 3188.44364025
0.01300000 1633099.71692373 4458.36242384
0.01400000 1630942.74515050 4770.50774105
0.01500000 1628629.75908336 3908.71159585
0.01600000 1626160.11700670 5390.72102886
0.01700000 1623536.09487719 5260.25718337
0.01800000 1620757.66173787 6466.82336133
0.01900000 1617825.35769921 5824.17155052
0.02000000 1614740.44938582 5086.43264565
0.02100000 1611504.92134406 6381.55977785
0.02200000 1608117.28183589 6657.60584927
0.02300000 1604580.79777146 6354.14024841
0.02400000 1600894.84558864 9005.03391704
0.02500000 1597062.00809225 8097.10475083
0.02600000 1593082.34935722 8387.57895300
0.02700000 1588958.08173256 9343.07394851
0.02800000 1584688.74432224 6893.39635393
0.02900000 1580277.00771811 9244.62091961
0.03000000 1575724.18512756 13188.81203575
0.03100000 1571030.52166046 8295.04153605
0.03200000 1566197.65113358 12404.28596830
0.03300000 1561229.05154969 8758.49538296
0.03400000 1556123.24075759 10620.54160821
0.03500000 1550883.10174195 8374.76913614
0.03600000 1545509.86654796 10293.09618689
0.03700000 1540005.60666436 14044.85178232
0.03800000 1534371.35639619 13464.10927549
0.03900000 1528609.58756579 11005.98954016
0.04000000 1522719.79981957 12174.14536369
0.04100000 1516706.26311429 15288.39984106
0.04200000 1510569.57441646 13640.44388980
0.04300000 1504310.56509652 11914.14022859
0.04400000 1497932.85525721 12133.25669108
0.04500000 1491437.87858072 12349.10620845
0.04600000 1484825.45374234 13608.42591616
0.04700000 1478099.70985200 12770.78208706
0.04800000 1471261.34217455 15139.27991538
0.04900000 1464313.86310609 14277.06082985
0.05000000 1457256.74960247 13377.61758429
0.05100000 1450094.88884594 16966.11098985
0.05200000 1442826.24951011 11470.46921814
0.05300000 1435456.85936773 16278.08154408
0.05400000 1427986.71351266 11780.89093587
0.05500000 1420418.46901018 14317.81883554
0.05600000 1412752.88684135 19326.46039384
0.05700000 1404995.18723068 14668.15043938
0.05800000 1397144.40592937 18547.09285472
0.05900000 1389202.85664558 13753.10892314
0.06000000 1381174.59453410 16429.07256953
0.06100000 1373060.55718400 15323.35653425
0.06200000 1364863.26592265 16767.34600562
0.06300000 1356585.63070786 15627.86719644
0.06400000 1348226.47954670 13145.20879034
0.06500000 1339791.51552921 18569.51127388
0.06600000 1331282.64988364 21407.02601173
0.06700000 1322700.13158797 20237.31296038
0.06800000 1314048.00647621 14960.43725402
0.06900000 1305328.61085341 13705.95105566
0.07000000 1296542.63324986 15188.99765980
0.07100000 1287692.81592371 19469.91628869
0.07200000 1278782.20381947 16803.19894536
0.07300000 1269812.70476383 19732.89035663
0.07400000 1260787.46235028 17020.63153939
0.07500000 1251707.07962728 17123.35365192
0.07600000 1242573.32739497 15786.89486465
0.07700000 1233391.30845381 17316.81478265
0.07800000 1224160.95022744 18858.20032263
0.07900000 1214884.97933769 16036.48247943
0.08000000 1205566.79523438 16112.40097416
0.08100000 1196207.49499623 19127.35874241
0.08200000 1186808.93571413 19208.50352590
0.08300000 1177374.64084975 20768.88963932
0.08400000 1167905.89707495 16379.88097533
0.08500000 1158405.39900167 19426.45945324
0.08600000 1148874.49928616 16492.09421158
0.08700000 1139317.55665348 18046.79094483
0.08800000 1129733.82293323 22622.92086670
0.08900000 1120128.76363220 19658.26072509
0.09000000 1110501.44321364 16674.17995313
0.09100000 1100855.54610407 15191.80724997
0.09200000 1091192.80423427 15222.14033431
0.09300000 1081517.75452602 18299.28126650
0.09400000 1071827.46787894 22910.31320264
0.09500000 1062127.66017915 15294.63902547
0.09600000 1052419.12054006 21437.77849314
0.09700000 1042706.82495800 16860.57015223
0.09800000 1032990.04701987 15339.90291949
0.09900000 1023271.63993066 18418.89038485
0.10000000 1013552.55639156 19961.91853688
0.10100000 1003835.05432755 23038.01558034
0.10200000 994122.19488794 18431.02636015
0.10300000 984414.91695151 18428.24811221
0.10400000 974716.46362916 16886.96352682
0.10500000 965029.36776693 18412.76120330
0.10600001 955350.83988189 16866.71987175
0.10700001 945688.14315798 16852.16350410
0.10800001 936040.12503493 19895.53379393
0.10900001 926410.96450906 16814.35979722
0.11000001 916799.71706906 15264.71600770
0.11100001 907209.36512285 16765.22985667
0.11200001 897642.20831125 19779.54699130
0.11300001 888098.93093551 24298.38789438
0.11400001 878582.54471750 18186.65953196
0.11500001 869094.15713479 15122.23904622
0.11600001 859635.01716383 18103.91431401
0.11700001 850207.81997739 16553.54703455
0.11800001 840811.85526834 18010.19078810
0.11900001 831449.92449073 23945.75895322
0.12000001 822123.17762622 16413.69001447
0.12100001 812835.76894060 16362.38479958
0.12200001 803586.12228462 19274.01405102
0.12300001 794377.38333508 17730.50403140
0.12400001 785209.17041024 19139.47443055
0.12500001 776083.40818931 19068.37023772
0.12600001 767003.72174916 23378.27454058
0.12700001 757968.72817629 17463.60032018
0.12800001 748980.36809651 17391.32496684
0.12900001 740040.94208262 15873.87895584
0.13000001 731150.98700667 17240.54108625
0.13100001 722310.73831088 14301.75329271
0.13200001 713522.51321238 17081.72977154
0.13300001 704787.39938468 18416.09561411
0.13400001 696105.96141243 19734.60493644
0.13500001 687479.90817827 19634.42710330
0.13600001 678909.80832537 18137.07638459
0.13700001 670397.28277248 19428.11417085
0.13800001 661941.06341952 20702.20773467
0.13900001 653545.07590834 24704.00503433
0.14000001 645208.14399933 13646.15288915
0.14100001 636933.20289753 14923.34564772
0.14200001 628719.15912192 21577.64255878
0.14300001 620568.15661583 17425.55465969
0.14400001 612477.68192172 15985.66825220
0.14500001 604453.62174648 17208.79542290
0.14600001 596493.76377886 14467.95692297
0.14700001 588600.05379421 14373.61399175
0.14800001 580769.67878327 14278.22322651
0.14900001 573007.49339531 19339.00381452
0.15000001 565311.68285877 14084.74124299
0.15100001 557683.48470606 16529.73926664
0.15200001 550124.46452857 16412.96417369
0.15300001 542634.13662578 17548.78880659
0.15400001 535211.04610947 17421.12037298
0.15500001 527859.17307727 14822.28627952
0.15600001 520575.63193534 14711.46805280
0.15700001 513364.91620830 13383.42399721
0.15800001 506221.96699144 12073.39448259
0.15900001 499151.96720682 13177.61255625
0.16000001 492150.78334453 13073.98617667
0.16100001 485223.41821342 12970.02258109
0.16200001 478367.17653693 11696.07801845
0.16300001 471582.45210643 12761.02175642
0.16400001 464870.11463659 13806.64305651
0.16500001 458229.16410138 14832.87874224
0.16600001 451660.97815266 14708.34044797
0.16700001 445164.52742746 14583.59060708
0.16800001 438740.90708813 15570.91552776
0.16900001 432390.43897595 12128.55238596
0.17000001 426111.08124619 16394.62462510
0.17100001 419904.74367411 13000.25147804
0.17200001 413770.87478478 13958.56112003
0.17300001 407708.77037340 14897.67917298
0.17400001 401720.07926759 13708.69835241
0.17500001 395802.21300315 16718.68626684
0.17600001 389955.12881027 13459.30190656
0.17700001 384182.79803372 10257.68119198
0.17800001 378480.11391568 11178.41069248
0.17900001 372848.82901134 14093.68640232
0.18000001 367289.71357844 10969.10781415
0.18100001 361801.87461174 11852.62997216
0.18200001 356382.77363894 13695.79063790
0.18300001 351034.66742608 11626.26873437
0.18400001 345756.90108085 12473.18079573
0.18500001 340548.95977717 10451.44806931
0.18600001 335410.65549235 11289.92319725
0.18700001 330340.82324924 13973.41748361
0.18800001 325338.39668173 11990.34717620
0.18900001 320407.53259162 10044.77662134
0.19000001 315540.14345315 11752.29319819
0.19100001 310743.24563547 9844.34648688
0.19200001 306011.75252856 10630.84878516
0.19300001 301348.31289303 11400.00721542
0.19400001 296749.31909605 13019.87699058
0.19500001 292216.46865813 12886.74687679
0.19600001 287747.99029844 9353.24886665
0.19700001 283345.60990984 10939.97451562
0.19800001 279005.96325316 9161.16123636
0.19900001 274730.45761810 9066.10552986
0.20000001 270516.06668346 8156.05979597
0.20100001 266366.11384045 10492.16172006
0.20200001 262276.37790041 10382.21090989
0.20300001 258248.58249975 10273.12909740
0.20400001 254281.92230051 12510.67116851
0.20500001 250374.15330635 11604.84255427
0.20600001 246525.82163408 10716.47797298
0.20700001 242736.71264004 8330.72437159
0.20800001 239005.10736092 9740.65361094
0.20900001 235333.48763189 7413.00521083
0.21000001 231716.01330511 7333.81216779
0.21100001 228156.08230238 7980.90013622
0.21200001 224650.69876552 8613.10819785
0.21300001 221200.56546348 11360.86157929
0.21400001 217805.07223280 10536.32086738
0.21500001 214464.21820429 8338.36919800
0.21600001 211174.59370271 8935.85335500
0.21700001 207938.30835136 8159.49960548
0.21800001 204753.59724600 8071.38718506
0.21900001 201619.18105981 7984.11994747
0.22000001 198534.67345241 8555.85215697
0.22100001 195501.14141658 7161.20714870
0.22200001 192516.23341951 6439.66831238
0.22300001 189579.15014166 7006.84572056
0.22400001 186689.13196556 8190.98605231
0.22500001 183848.13046435 8102.18749269
0.22600001 181051.51025382 6781.28463723
0.22700001 178301.42961067 9146.86377157
0.22800001 175595.77163901 6634.88654514
0.22900001 172933.93426338 7756.08731851
0.23000001 170316.01099596 6491.59506611
0.23100001 167742.29733782 8172.40511279
0.23200001 165208.79818290 5774.04776957
0.23300001 162718.32952488 6282.55500009
0.23400001 160267.84085175 9039.10665155
0.23500001 157857.32358764 8382.22427895
0.23600001 155486.67508160 7738.57218482
0.23700001 153155.52782029 6561.18312215
0.23800001 150861.99230908 5949.24294810
0.23900001 148606.41207514 11769.62839305
0.24000001 146387.28354917 6879.47071579
0.24100001 144205.74129854 5234.66865674
0.24200001 142059.94825345 7249.31950228
0.24300001 139948.46707490 5634.32555095
0.24400001 137871.96042142 6080.15374220
0.24500001 135828.64052693 5513.28477979
0.24600001 133819.23926690 6445.40396419
0.24700001 131842.83479441 5395.00905500
0.24800001 129898.32120201 5336.87277905
0.24900001 127984.37724637 5759.29724854
0.25000001 126102.64193905 7121.64704042
0.25100001 124250.46537638 6575.33493879
0.25200001 122429.91540880 4646.21550958
0.25300001 120637.36460842 5055.91218994
0.25400001 118874.39171287 6820.41854721
0.25500001 117138.08618923 5847.53353922
0.25600001 115430.72694454 5339.82568110
0.25700001 113749.78734344 5282.54037416
0.25800001 112095.68543589 7403.35989490
0.25900001 110468.52911194 4308.27283921
0.26000001 108866.35767016 5540.75353579
0.26100001 107288.67043686 5481.37843198
0.26200001 105737.16209226 4588.46436611
0.26300001 104208.36890434 5777.31224542
0.26400001 102704.34876954 6123.74708515
0.26500001 101223.48896420 5250.46262102
0.26600001 99765.06065660  4395.14995520
0.26700001 98329.37825464  5929.26178933
0.26800001 96915.88494462  4301.61175682
0.26900001 95523.27581310  3868.69285350
0.27000001 94152.41949146  6506.40325685
0.27100001 92801.97834978  6058.11343336
0.27200001 91472.61235710  3745.80365329
0.27300001 90162.88486659  4817.40316640
0.27400001 88871.54076089  5132.33172183
0.27500001 87601.39359169  5802.71658613
0.27600001 86347.81437118  5740.40297107
0.27700001 85114.73019924  4259.14130074
0.27800001 83898.74676379  3511.16271824
0.27900001 82700.98434038  4168.12980802
0.28000001 81520.22619076  4123.29323588
0.28100001 80357.05858834  4078.92448700
0.28200001 79210.99205265  4707.50948049
0.28300001 78081.31034850  4324.14317176
0.28400001 76967.24796139  3290.35000608
0.28500001 75869.91141811  4231.26516006
0.28600001 74787.89185454  3863.54267607
0.28700001 73722.09162749  4140.23286177
0.28800001 72669.96726440  4410.34052203
0.28900001 71634.32615696  4674.14000299
0.29000001 70612.61710507  4006.91314729
0.29100001 69605.83010243  3658.48260336
0.29200001 68612.90150701  3618.64459677
0.29300001 67634.26309582  3579.20537246
0.29400001 66668.56730856  3245.09266736
0.29500001 65717.73781429  4085.01477591
0.29600001 64778.95016628  3174.49260317
0.29700001 63853.96557226  3710.55411505
0.29800001 62942.08253406  3387.54304234
0.29900001 62043.22946887  3071.14000409
0.30000001 61156.14686685  2761.20016175
0.30100001 60282.36361704  3823.10768158
0.30200001 59419.97729043  2970.70190527
0.30300001 58570.41244243  3739.13530734
0.30400001 57732.62224818  2641.26759290
0.30500001 56906.98218444  2612.03060593
0.30600001 56091.87996257  2583.03119456
0.30700001 55289.28090399  3831.54734804
0.30800001 54497.63254149  3031.15846546
0.30900001 53717.55215097  3247.22618126
0.31000001 52948.49500838  3211.06163181
0.31100001 52190.05075755  3175.24283842
0.31200001 51443.45898123  2656.79756487
0.31300001 50706.70849902  3104.77190839
0.31400001 49982.21708338  3306.32381661
0.31500001 49266.81676415  2335.24722519
0.31600002 48563.15451969  3001.93153877
0.31700002 47869.08959788  2511.69125012
0.31800002 47185.34462695  2709.38261676
0.31900002 46512.46962448  3348.89797153
0.32000002 45849.72724363  2649.19736558
0.32100002 45196.72775710  2401.30225944
0.32200002 44554.71862209  2374.54384140
0.32300002 43920.88169592  2988.37693209
0.32400002 43298.34701153  2110.79451676
0.32500002 42685.25256139  2713.50163382
0.32600002 42082.13906926  2683.36772481
0.32700002 41488.64235554  2449.48956066
0.32800002 40905.75779817  2018.69924293
0.32900002 40330.57346930  2195.99982939
0.33000002 39766.29692005  2369.27608269
0.33100002 39210.40215150  2929.01717942
0.33200002 38665.46703291  2703.87623765
0.33300002 38129.20044820  2101.30033621
0.33400002 37602.90918171  3023.27404138
0.33500002 37085.39981876  1869.10423938
0.33600002 36576.82633310  2773.43798805
0.33700002 36077.62492501  2194.96280438
0.33800002 35588.39634169  1990.63704364
0.33900002 35107.39614535  2148.57274585
0.34000002 34635.67108886  2303.09905812
0.34100002 34173.03640951  1928.38453591
0.34200002 33720.27643317  1734.90830465
0.34300002 33275.68163209  2918.94293101
0.34400002 32840.80113528  2719.21846278
0.34500002 32414.28074717  2186.99162559
0.34600002 31997.32631327  1998.55309618
0.34700002 31588.05563851  1813.78624067
0.34800002 31188.39347572  2449.06871367
0.34900002 30797.23163405  2101.91115857
0.35000002 30415.02660571  1761.48634930
0.35100002 30042.20411446  2537.96552379
0.35200002 29676.29899393  1571.36010615
0.35300002 29320.50873430  1868.30290504
0.35400002 28972.66791031  1851.35356716
0.35500002 28633.64703648  1987.74787142
0.35600002 28302.50739044  1970.27914531
0.35700002 27979.95776831  1652.77618366
0.35800002 27666.15025515  1787.78671417
0.35900002 27361.07510563  1772.99775082
0.36000002 27063.97609087  1612.06581221
0.36100002 26774.57199060  1890.01712634
0.36200002 26494.91488588  1586.91300226
0.36300002 26221.91245609  1718.05978550
0.36400002 25957.71373741  1847.54036277
0.36500002 25700.63938781  1834.25471999
0.36600002 25452.62123877  1821.51692523
0.36700002 25211.88978330  1948.37493474
0.36800002 24979.93766010  1797.43149947
0.36900002 24755.48027738  2335.67967481
0.37000002 24538.23068966  2048.32890385
0.37100002 24328.64854069  1629.04638345
0.37200002 24127.40479498  1349.92836223
0.37300002 23933.36266181  1745.46022161
0.37400002 23746.76162873  1736.48202636
0.37500002 23567.81234586  1727.99208306
0.37600002 23396.48989587  2116.91450606
0.37700002 23232.03768510  1712.43357889
0.37800002 23075.00610285  1574.17699091
0.37900002 22925.80054211  1437.44776209
0.38000002 22782.98039234  1562.45686932
0.38100002 22646.45963921  1427.40641868
0.38200002 22518.16155265  1293.66844249
0.38300002 22395.84014504  1677.00058951
0.38400002 22280.78967089  1672.73036379
0.38500002 22171.82020859  1283.74845089
0.38600002 22070.47571375  1793.66764623
0.38700002 21974.58419694  1534.70503302
0.38800002 21885.34012100  1660.11255353
0.38900002 21802.34854252  1658.06868521
0.39000002 21726.23331469  1911.36546641
0.39100002 21655.43942707  1400.67388850
0.39200002 21591.29868644  1400.08782965
0.39300002 21532.59191186  1399.83386651
0.39400002 21480.87264237  1909.11264654
0.39500002 21433.79336358  1400.48412473
0.39600002 21392.57562089  1656.10632015
0.39700002 21356.30642823  2039.95448667
0.39800002 21326.70318420  1659.32421986
0.39900002 21301.39539531  1278.08378427
0.40000002 21281.74006233  1280.09672540
0.40100002 21266.90109740  1538.87303632
0.40200002 21257.55325290  1542.02298603
0.40300002 21252.80501588  2060.67207197
0.40400002 21252.91223462  2194.89461502
0.40500002 21257.30422935  1424.02687779
0.40600002 21267.25853388  1687.87605351
0.40700002 21280.99042913  1823.35534636
0.40800002 21299.01031008  1698.70264777
0.40900002 21320.89066960  2097.97574129
0.41000002 21347.72149930  1710.91322063
0.41100002 21378.10936949  1453.28394380
0.41200002 21411.74982257  1724.39535367
0.41300002 21450.34050837  1598.47945042
0.41400002 21491.90065626  1337.87087924
0.41500002 21537.00394900  1478.30002111
0.41600002 21584.67734016  1755.15812108
0.41700002 21637.01157343  1627.96882792
0.41800002 21692.79651554  1499.73155817
0.41900002 21749.89709414  2192.38973097
0.42000002 21810.55431510  1377.33657026
0.42100002 21874.65282487  1938.53182520
0.42200002 21941.29748725  1392.17539153
0.42300002 22009.97635382  1679.80147492
0.42400002 22081.12821197  1407.67199022
0.42500002 22155.14066370  1698.85626659
0.42600002 22230.13792341  2420.52868249
0.42700002 22308.51224331  1861.86852005
0.42800002 22388.08623709  1728.80810115
0.42900002 22470.43878694  1594.27770748
0.43000002 22554.31488949  1603.95017937
0.43100002 22638.35047125  2053.75125207
0.43200002 22725.23780233  1623.60469173
0.43300002 22812.83946238  1633.62751132
0.43400002 22902.20887282  2390.99071963
0.43500002 22992.16071024  1804.42485805
0.43600002 23083.86917566  2874.98062272
0.43700002 23175.94724055  2131.72372821
0.43800002 23268.23412096  1685.43461842
0.43900002 23362.46746670  2004.49980364
0.44000002 23456.52795860  2172.30915719
0.44100002 23551.44188814  2029.89887254
0.44200002 23646.59059277  2042.71082516
0.44300002 23742.25810198  2055.60480389
0.44400002 23837.76854869  2068.52246384
0.44500002 23932.91833351  1921.33477487
0.44600002 24028.03837608  1611.08004947
0.44700002 24123.88574446  2431.68779828
0.44800002 24218.57768925  2120.45767007
0.44900002 24313.43132456  1805.27236140
0.45000002 24408.30583822  1981.46636185
0.45100002 24501.50893108  2159.56309953
0.45200002 24594.72454675  2172.57509580
0.45300002 24686.91651228  1849.29700358
0.45400002 24778.46692340  1691.13044767
0.45500002 24869.38653930  1701.06611991
0.45600002 24958.88938060  1710.93194813
0.45700002 25047.68446221  2409.08640575
0.45800002 25134.89632607  2076.64523288
0.45900002 25220.95952656  2088.29554777
0.46000002 25306.20574066  2449.89389386
0.46100002 25389.16037506  2111.36267686
0.46200002 25471.41259002  1945.88865704
0.46300002 25551.81355464  2489.76883077
0.46400002 25630.23831385  1966.48012783
0.46500002 25708.02963646  1796.99135676
0.46600002 25783.02892335  2709.15189252
0.46700002 25856.32442479  1996.62546671
0.46800002 25928.40211637  2736.09476301
0.46900002 25997.79329207  1832.84451396
0.47000002 26065.42445531  1841.52232505
0.47100002 26131.12327345  2590.11706163
0.47200002 26194.87515743  2601.93707271
0.47300002 26256.33150693  2053.50778449
0.47400002 26315.00365362  2249.93291903
0.47500002 26371.89634942  2071.24883746
0.47600002 26427.21979065  2458.12796534
0.47700002 26478.88776405  2278.24361120
