# SAXS profile: number of points = 501, q_min = 0, q_max = 0.5, delta_q = 0.001
#    q    intensity    error
0.00000000 1664650.74656090 324.60689558
0.00100000 1664569.64200816 848.93053759
0.00200000 1664326.25984245 823.84152471
0.00300000 1663920.83237846 998.35253499
0.00400000 1663353.22884356 1996.02395046
0.00500000 1662623.94640146 1795.63393319
0.00600000 1661732.88391965 1744.81959915
0.00700000 1660680.61030592 2590.66185975
0.00800000 1659466.96017479 3136.39268715
0.00900000 1658093.11870795 3233.28171970
0.01000000 1656558.49910439 3006.65380570
0.01100000 1654864.35668714 4170.25836042
0.01200000 1653010.60053024 3545.70789359
0.01300000 1650998.41196107 4160.51618164
0.01400000 1648827.77095814 4822.82144385
0.01500000 1646500.09215932 3951.60039714
0.01600000 1644014.81549347 4611.46176361
0.01700000 1641374.11436807 7090.73649215
0.01800000 1638578.01067851 5603.93704868
0.01900000 1635627.07270062 5397.56958346
0.02000000 1632522.53403280 5656.69083631
0.02100000 1629266.38316419 5914.23723903
0.02200000 1625857.14250794 6170.12813614
0.02300000 1622298.07080193 7008.32798487
0.02400000 1618588.57184632 7283.64890542
0.02500000 1614731.24465095 7556.94257010
0.02600000 1610726.09834961 7175.78509636
0.02700000 1606575.39217240 8771.90204302
0.02800000 1602278.62965594 10454.86853796
0.02900000 1597838.60424848 8628.32885910
0.03000000 1593256.49840906 8149.50736396
0.03100000 1588532.61348759 9149.94827471
0.03200000 1583668.58611348 7839.15986232
0.03300000 1578668.01165747 8051.20723062
0.03400000 1573529.04587684 12391.54180803
0.03500000 1568254.98825556 8468.57732764
0.03600000 1562846.88456124 15612.84109829
0.03700000 1557306.91769154 8876.64984136
0.03800000 1551635.98336353 9984.77801504
0.03900000 1545836.72019579 11130.02490084
0.04000000 1539908.47046137 11364.52503863
0.04100000 1533855.60577524 10629.61984088
0.04200000 1527678.76676626 12809.58705361
0.04300000 1521378.75447167 14057.54034384
0.04400000 1514959.23227325 12271.17035131
0.04500000 1508421.35070807 10408.10780350
0.04600000 1501765.33122057 12704.93529274
0.04700000 1494995.14989667 11840.36213785
0.04800000 1488111.48552310 13125.14391300
0.04900000 1481118.02868629 12219.22430544
0.05000000 1474013.89261380 12403.82748394
0.05100000 1466804.41584593 12585.18247423
0.05200000 1459487.15765965 13923.50813293
0.05300000 1452068.47482538 12937.93071383
0.05400000 1444548.21956805 14301.02804064
0.05500000 1436929.04445465 15691.26589743
0.05600000 1429211.90534414 12219.76236092
0.05700000 1421401.84756077 14839.43598122
0.05800000 1413497.81383501 17513.23873115
0.05900000 1405502.46168475 13914.47502057
0.06000000 1397419.54277827 12786.38941379
0.06100000 1389250.13201464 15504.03219781
0.06200000 1380996.88724541 15660.50543339
0.06300000 1372662.33907559 13177.55907125
0.06400000 1364245.74043057 15961.67590951
0.06500000 1355752.70835464 14764.14768462
0.06600000 1347184.90389115 16247.05070110
0.06700000 1338543.10253660 16383.76834179
0.06800000 1329830.76168286 13763.74902769
0.06900000 1321050.65973219 18032.34234960
0.07000000 1312203.23709424 18167.45466832
0.07100000 1303291.35139112 18298.21143058
0.07200000 1294318.05229837 15590.06167028
0.07300000 1285285.25396108 19973.33378242
0.07400000 1276196.16318904 17228.64901046
0.07500000 1267051.31672601 20222.13996281
0.07600000 1257852.40940784 14528.19600975
0.07700000 1248604.86446771 20452.14863895
0.07800000 1239308.41851798 19091.54708259
0.07900000 1229965.64954414 17711.50618417
0.08000000 1220580.27187412 19279.06629865
0.08100000 1211153.18866589 17876.62190345
0.08200000 1201686.40587968 17953.19574630
0.08300000 1192183.22845902 16523.66032193
0.08400000 1182645.18267851 18094.47214431
0.08500000 1173074.84227624 18159.19941092
0.08600000 1163473.87425566 16701.66824911
0.08700000 1153846.25855803 19800.00272662
0.08800000 1144191.23494527 15274.95370389
0.08900000 1134514.63381740 16847.54310351
0.09000000 1124815.50462172 15353.73235934
0.09100000 1115097.06651018 18466.00828896
0.09200000 1105361.46643412 15419.79318128
0.09300000 1095613.20867800 20082.59105879
0.09400000 1085849.32988384 15473.35367805
0.09500000 1076075.43480941 17045.03568854
0.09600000 1066292.60099076 18617.46968846
0.09700000 1056505.62396152 17083.69674261
0.09800000 1046713.69466596 20206.80882560
0.09900000 1036920.04937234 26441.46250234
0.10000000 1027125.16015711 21785.32567143
0.10100000 1017331.71128846 15565.17591477
0.10200000 1007542.53088071 20236.49268459
0.10300000 997758.71722687 21791.05140930
0.10400000 987983.48885644 17116.81474970
0.10500000 978219.19320195 24885.89744592
0.10600001 968463.14540227 17098.21763661
0.10700001 958722.93121826 18637.57465992
0.10800001 948996.99498811 20170.93207775
0.10900001 939289.67931833 18597.93652583
0.11000001 929600.35781351 21668.98536058
0.11100001 919931.52867866 18545.82049118
0.11200001 910285.78656797 20058.14825131
0.11300001 900663.62112922 20021.75324034
0.11400001 891068.19498508 15370.92708722
0.11500001 881500.75127379 19939.54793273
0.11600001 871962.22997420 15302.93785669
0.11700001 862455.66271326 22898.19892343
0.11800001 852980.11656640 18270.83495738
0.11900001 843538.32901147 22775.53595607
0.12000001 834131.85175674 18167.39258704
0.12100001 824764.55140653 15093.19200175
0.12200001 815435.05048046 27080.59930226
0.12300001 806146.34303419 20992.05176164
0.12400001 796897.98509002 17930.20550935
0.12500001 787692.00606041 20842.33146246
0.12600001 778532.18861629 16314.14278123
0.12700001 769417.09676977 16250.08984959
0.12800001 760348.41397532 16184.01675421
0.12900001 751328.76610077 17581.09395539
0.13000001 742358.56181954 17504.81571279
0.13100001 733437.85903468 17426.48435211
0.13200001 724569.73668624 18791.71700681
0.13300001 715754.39177193 15825.33034813
0.13400001 706992.77166257 17179.92516136
0.13500001 698286.60669584 14245.04744822
0.13600001 689636.57416888 17006.43872087
0.13700001 681043.93794107 18326.89323417
0.13800001 672507.62593794 18228.32006062
0.13900001 664032.08134876 18128.07667571
0.14000001 655615.42406056 15252.89356010
0.14100001 647260.79482269 17922.65225393
0.14200001 638967.12206798 15076.42995628
0.14300001 630737.03021641 13623.92049528
0.14400001 622567.11387641 24373.50365796
0.14500001 614464.13422025 14802.44169163
0.14600001 606425.03817502 13371.67272256
0.14700001 598452.60813320 15942.77823279
0.14800001 590543.77097886 18478.11546570
0.14900001 582702.97070723 15732.98095139
0.15000001 574928.70141453 13022.13570146
0.15100001 567222.61296053 12932.67618573
0.15200001 559585.73320411 17979.49045625
0.15300001 552017.74158269 16577.09356199
0.15400001 544517.05922545 15192.02666932
0.15500001 537088.05849612 12567.86116192
0.15600001 529727.24224652 14970.09257240
0.15700001 522439.94776924 17334.55828512
0.15800001 515220.16346452 13516.80162647
0.15900001 508073.84920523 15851.90484342
0.16000001 500996.65860832 14518.88385180
0.16100001 493993.45144787 18006.06215524
0.16200001 487061.63886215 15481.25492204
0.16300001 480201.61666846 15356.84842602
0.16400001 473414.40352516 16403.80985656
0.16500001 466698.81606725 13944.96128245
0.16600001 460056.37855971 20743.94308864
0.16700001 453485.74499825 13713.40957622
0.16800001 446988.21994990 12464.26710182
0.16900001 440564.40575442 19098.46789125
0.17000001 434211.96423168 17820.05985353
0.17100001 427932.79952022 11040.66674898
0.17200001 421726.24948803 13132.55602921
0.17300001 415592.19726605 11931.65254697
0.17400001 409531.54292945 13975.26456246
0.17500001 403542.30800765 10653.51743454
0.17600001 397624.21211320 11612.61566322
0.17700001 391781.14881900 10460.55716753
0.17800001 386008.03270591 12437.17940122
0.17900001 380306.66012842 14375.59243186
0.18000001 374677.96759743 18310.51314138
0.18100001 369120.97364897 13100.10397360
0.18200001 363632.90019460 14972.58537279
0.18300001 358216.43369050 16807.51586273
0.18400001 352870.33333674 9792.15221268
0.18500001 347594.77626256 11637.47365905
0.18600001 342389.20760092 14406.02659040
0.18700001 337252.38422116 10461.56945280
0.18800001 332183.34518342 14126.09742133
0.18900001 327186.46702394 11189.77770091
0.19000001 322253.51610953 10155.82004004
0.19100001 317391.25030085 10054.95528463
0.19200001 312594.78818941 9954.58150026
0.19300001 307867.10070358 9854.82635919
0.19400001 303204.11276328 11529.33693263
0.19500001 298607.82487781 14046.51274602
0.19600001 294076.04232000 10427.93695345
0.19700001 289610.88035582 9461.58790836
0.19800001 285209.06305109 10216.18912129
0.19900001 280871.66364602 9268.76533836
0.20000001 276595.98917146 10007.24336118
0.20100001 272385.00926646 10729.24602209
0.20200001 268234.88494552 10618.07842242
0.20300001 264147.01342431 10507.76869066
0.20400001 260120.53175562 11198.18942137
0.20500001 256153.73616314 10289.69606804
0.20600001 252246.75939033 11748.39337393
0.20700001 248399.30767158 7750.05876569
0.20800001 244609.87878000 9202.22407469
0.20900001 240880.83963688 8346.52148797
0.21000001 237206.47820888 11261.37808532
0.21100001 233590.12266355 11142.24937778
0.21200001 230028.84112876 8084.36400365
0.21300001 226523.12782344 10179.94984565
0.21400001 223072.47750800 7913.49651372
0.21500001 219677.10403253 7117.53850715
0.21600001 216333.50297910 8449.98702587
0.21700001 213043.35905242 10449.77725558
0.21800001 209805.48026232 7581.32138773
0.21900001 206618.22656124 6818.40179891
0.22000001 203481.31598853 9443.56832154
0.22100001 200396.04641206 10009.78299158
0.22200001 197359.69336946 7922.01846644
0.22300001 194371.79287706 10449.42807918
0.22400001 191431.09523463 9691.19965451
0.22500001 188540.25509557 8308.96943497
0.22600001 185694.04186744 7587.45890950
0.22700001 182894.89695365 6255.00577161
0.22800001 180140.46363434 6806.60774031
0.22900001 177430.48390297 9182.02797621
0.23000001 174764.96492128 6055.60632090
0.23100001 172143.95065310 7188.73171925
0.23200001 169563.60035008 8889.37216876
0.23300001 167026.78377789 5862.64038787
0.23400001 164530.25088527 8119.56826521
0.23500001 162074.28080054 8032.40173638
0.23600001 159658.75755274 8513.80364918
0.23700001 157282.88086724 7860.99875755
0.23800001 154945.30283849 6110.26830644
0.23900001 152645.92798622 6594.30440091
0.24000001 150383.56196898 5980.00262455
0.24100001 148159.27907496 5916.00029330
0.24200001 145971.03194729 5852.70880277
0.24300001 143817.67455212 6316.47256512
0.24400001 141699.54107779 5207.45838094
0.24500001 139615.14977751 6182.15912459
0.24600001 137564.93542626 6116.13731838
0.24700001 135548.44292927 6050.88277861
0.24800001 133564.12431246 6485.20636279
0.24900001 131610.75262822 5922.48414845
0.25000001 129689.99536617 4882.82855653
0.25100001 127799.37268362 4830.81651598
0.25200001 125940.69573449 5257.39459216
0.25300001 124110.25096089 5674.32094239
0.25400001 122309.87329304 5146.18816228
0.25500001 120536.62376082 5554.32788568
0.25600001 118792.86382030 5495.35814033
0.25700001 117075.88156174 5437.00419697
0.25800001 115385.92208083 6724.11492741
0.25900001 113723.48294450 6209.30246256
0.26000001 112086.28919414 6143.44980141
0.26100001 110474.16576373 5644.12539593
0.26200001 108888.31477495 4295.64422113
0.26300001 107325.82871819 7650.18543302
0.26400001 105788.32796832 5887.12073000
0.26500001 104274.37481998 6240.82162828
0.26600001 102783.29825696 4116.47128998
0.26700001 101315.34380225 4887.45241630
0.26800001 99869.89883127  6044.62591280
0.26900001 98445.66101074  5183.16429749
0.27000001 97043.51041402  4733.78266201
0.27100001 95662.20679923  5854.52733317
0.27200001 94302.22622234  5020.17925052
0.27300001 92962.55866705  5349.06587884
0.27400001 91641.17341584  7938.41702283
0.27500001 90341.59799834  4114.15656755
0.27600001 89058.87434497  4070.43604457
0.27700001 87796.95154264  4759.47296838
0.27800001 86552.45115743  4346.66430284
0.27900001 85326.51940263  3942.08538297
0.28000001 84117.85774691  4609.23823339
0.28100001 82927.09101217  4910.94256217
0.28200001 81753.85696462  3470.45139240
0.28300001 80597.19869706  4463.47307510
0.28400001 79456.57901231  3736.44580490
0.28500001 78333.01847045  4368.63264687
0.28600001 77224.95265965  3656.98780629
0.28700001 76133.38494585  4275.65110094
0.28800001 75055.77562444  3579.03483006
0.28900001 73995.15237828  4184.42606506
0.29000001 72948.45896256  4139.46049977
0.29100001 71917.20378083  3464.97104217
0.29200001 70899.88101859  4985.67986923
0.29300001 69897.29122991  4931.95310264
0.29400001 68907.86894902  4268.84268346
0.29500001 67933.52414725  3619.49833790
0.29600001 66971.50553755  3281.93878423
0.29700001 66023.62800350  4722.01009834
0.29800001 65088.95592582  3211.16379261
0.29900001 64167.67792166  3465.05477180
0.30000001 63258.26473606  3427.33294565
0.30100001 62362.66083426  3672.53727039
0.30200001 61478.52501979  3911.87873220
0.30300001 60607.50203748  3040.07244612
0.30400001 59748.46706992  4646.93724636
0.30500001 58901.75005458  2973.94950105
0.30600001 58065.90670138  2941.32864321
0.30700001 57242.62185227  3173.53110574
0.30800001 56430.61855926  3400.22708227
0.30900001 55630.46501039  2845.49842000
0.31000001 54841.58275052  2814.19595208
0.31100001 54063.26091861  3542.22502309
0.31200001 53297.22146258  2752.53513276
0.31300001 52541.08832833  3464.55952840
0.31400001 51797.41642369  2447.42804190
0.31500001 51063.08515744  2904.46842127
0.31600002 50340.67121013  2872.43883525
0.31700002 49628.06049122  2603.98445727
0.31800002 48925.90567059  3043.43610634
0.31900002 48234.84286166  2778.32708038
0.32000002 47554.20274687  4579.46994136
0.32100002 46883.29312867  2490.90948187
0.32200002 46223.67081679  2687.44434854
0.32300002 45572.42333954  2436.30186709
0.32400002 44932.57730384  2628.55589674
0.32500002 44302.17683245  3249.56482453
0.32600002 43682.03713270  2785.38522966
0.32700002 43071.78519636  2119.13193201
0.32800002 42472.10170623  2095.99831845
0.32900002 41880.40596146  2280.38821259
0.33000002 41299.72527858  2255.58460290
0.33100002 40727.58575791  2839.52741351
0.33200002 40166.57523273  2608.21668625
0.33300002 39614.27333153  2183.14270668
0.33400002 39072.08785068  2356.04700897
0.33500002 38538.84817639  2136.59384408
0.33600002 38014.79535714  2305.97759557
0.33700002 37499.97866057  1901.24900813
0.33800002 36995.52907780  2257.46729123
0.33900002 36499.31890084  2419.90495773
0.34000002 36012.49896446  2763.05911390
0.34100002 35534.96460830  2005.23814781
0.34200002 35067.33531722  2525.90028252
0.34300002 34607.89017640  1964.34393944
0.34400002 34158.35383027  2828.31183109
0.34500002 33717.36459893  1924.92443612
0.34600002 33286.07762697  1905.79446479
0.34700002 32862.39892691  2058.50076627
0.34800002 32448.57865189  2378.15644203
0.34900002 32043.24917716  2355.17892607
0.35000002 31647.07505298  2166.08415459
0.35100002 31260.27068794  2145.70508165
0.35200002 30880.59104858  2125.66558551
0.35300002 30510.99337204  1782.14720727
0.35400002 30149.44671491  1926.54973633
0.35500002 29796.79858121  2864.06841528
0.35600002 29452.36335060  1734.89154534
0.35700002 29116.39007917  2032.61528770
0.35800002 28789.21189806  1550.29913414
0.35900002 28470.87042240  1998.65519832
0.36000002 28160.68965103  1982.37184188
0.36100002 27858.23640991  1966.51300132
0.36200002 27565.54091825  1651.03815150
0.36300002 27279.68273315  1936.31197212
0.36400002 27002.45929299  1921.90013121
0.36500002 26732.77165712  1467.62923349
0.36600002 26471.95617590  1748.73750781
0.36700002 26218.59712642  1881.44661891
0.36800002 25974.07992968  1581.43193143
0.36900002 25737.13272914  1428.41093413
0.37000002 25507.35940767  1987.27846559
0.37100002 25285.37460023  1552.01636648
0.37200002 25071.85359342  1683.32433000
0.37300002 24865.50499076  2231.92783370
0.37400002 24666.77508960  1526.25678097
0.37500002 24475.61245244  1794.55199002
0.37600002 24292.23322739  1785.84361031
0.37700002 24115.75443479  1640.83600947
0.37800002 23946.69680662  1633.64373354
0.37900002 23785.54968954  2169.24223445
0.38000002 23630.86057142  1755.65486932
0.38100002 23482.59561069  1480.10807146
0.38200002 23342.49989395  1877.43735541
0.38300002 23208.51001318  1336.81024009
0.38400002 23081.76286701  1466.26905559
0.38500002 22961.20327805  1462.39910606
0.38600002 22848.22578909  1458.97352688
0.38700002 22740.91566509  1852.92989617
0.38800002 22640.10426850  1321.05014665
0.38900002 22545.76793804  1582.71298423
0.39000002 22458.30476860  2239.20538304
0.39100002 22376.15585063  1447.28982899
0.39200002 22300.82964867  1971.95095511
0.39300002 22230.85338725  2102.14959589
0.39400002 22168.03365542  1313.45605631
0.39500002 22109.64879125  1575.97584051
0.39600002 22057.44410065  1313.52085843
0.39700002 22010.10073084  1445.40338347
0.39800002 21969.53113411  1577.85180081
0.39900002 21933.28983152  1973.99617836
0.40000002 21902.70541348  1976.17168956
0.40100002 21876.97772833  1319.18181952
0.40200002 21856.82648964  1453.36974629
0.40300002 21841.34823464  1588.30291888
0.40400002 21830.67697352  1458.83505788
0.40500002 21824.42302917  1462.01816800
0.40600002 21823.67323212  1598.80237674
0.40700002 21826.90236186  1870.12908297
0.40800002 21834.30536836  1741.39510716
0.40900002 21845.74396399  1477.86464919
0.41000002 21862.14863717  1617.36183281
0.41100002 21882.14947619  1622.78028205
0.41200002 21905.44385639  2306.97192905
0.41300002 21933.72805978  1770.70995017
0.41400002 21965.03146661  1914.25258302
0.41500002 21999.84114137  1510.06916750
0.41600002 22037.32415804  1791.96509882
0.41700002 22079.46426953  1661.25897036
0.41800002 22125.26175362  2224.91642737
0.41900002 22172.26963525  1676.22366385
0.42000002 22222.99646745  1964.73521079
0.42100002 22277.26420409  2679.28669278
0.42200002 22333.82809542  1983.91404372
0.42300002 22392.81669027  1424.18320899
0.42400002 22454.11523966  1717.73989723
0.42500002 22518.37408313  1870.60142373
0.42600002 22583.73115917  1735.78565915
0.42700002 22652.38384473  1454.28311174
0.42800002 22722.45158846  2339.50372641
0.42900002 22795.22466128  1617.32126636
0.43000002 22869.64625068  1774.22724020
0.43100002 22944.20208509  1784.14123868
0.43200002 23021.78328793  1794.31787449
0.43300002 23100.01029961  1804.57289012
0.43400002 23180.09495041  1815.00152063
0.43500002 23260.90542950  1673.38961590
0.43600002 23343.46508023  2295.24631278
0.43700002 23426.43082428  2000.85155152
0.43800002 23509.71172809  1702.92604972
0.43900002 23594.97068137  1712.99495265
0.44000002 23680.02427124  1723.07704775
0.44100002 23766.10560983  1575.69287660
0.44200002 23852.40673955  2535.98800473
0.44300002 23939.27307428  1594.35566230
0.44400002 24026.15484648  1764.12050321
0.44500002 24112.66388761  1774.45101958
0.44600002 24199.19180990  1784.81147652
0.44700002 24286.62370623  1795.26730944
0.44800002 24372.78724841  1969.80875877
0.44900002 24459.34098056  1816.10615388
0.45000002 24545.86874528  2324.73933904
0.45100002 24630.82038880  2337.95758211
0.45200002 24715.89325001  2687.11204149
0.45300002 24799.91473810  3039.97369267
0.45400002 24883.43265510  2207.78266696
0.45500002 24966.36581608  1707.69950275
0.45600002 25047.98901759  2403.85561995
0.45700002 25128.89825699  2416.89754890
0.45800002 25208.41096228  3471.19835402
0.45900002 25286.66867292  2268.21428746
0.46000002 25364.27570656  3157.09154682
0.46100002 25439.66655455  1939.26587336
0.46200002 25514.39852936  2480.76508659
0.46300002 25587.47455008  1958.97714440
0.46400002 25658.49393183  1968.64804022
0.46500002 25729.05202345  1978.30690385
0.46600002 25796.83659593  2710.60273379
0.46700002 25862.92926767  1815.57772064
0.46800002 25928.01942948  2553.65075464
0.46900002 25990.36854102  2198.78528278
0.47000002 26051.12198715  2024.56304119
0.47100002 26110.01718210  2403.16609534
0.47200002 26167.01082924  2042.20445696
0.47300002 26221.82446881  2423.68335053
0.47400002 26273.93029491  1872.01762224
0.47500002 26324.28570749  3007.28654176
0.47600002 26373.12626486  1886.99727369
0.47700002 26418.56320022  2651.89549973
