# SAXS profile: number of points = 501, q_min = 0, q_max = 0.5, delta_q = 0.001
#    q    intensity    error
0.00000000 1682732.95097188 302.89193117
0.00100000 1682651.39797844 605.75451766
0.00200000 1682406.67566118 1135.62454203
0.00300000 1681999.01743248 1110.11939105
0.00400000 1681428.27918788 1261.07125731
0.00500000 1680694.96778086 1815.15063705
0.00600000 1679798.99008123 1940.16791253
0.00700000 1678740.91113469 2014.48917708
0.00800000 1677520.56020920 2491.11813709
0.00900000 1676139.13572580 3268.47145438
0.01000000 1674596.01223643 3039.39189345
0.01100000 1672892.50970066 3914.56864314
0.01200000 1671028.51086397 4887.75860858
0.01300000 1669005.18414872 3504.91104130
0.01400000 1666822.52152906 4125.38592367
0.01500000 1664481.91082391 5592.65946940
0.01600000 1661982.79093521 5509.47319824
0.01700000 1659327.47619611 8960.36877341
0.01800000 1656515.82913141 6137.39142310
0.01900000 1653548.45075896 5456.71013373
0.02000000 1650426.64386610 6758.49741236
0.02100000 1647152.32603992 6522.72350685
0.02200000 1643724.05644157 9640.44202902
0.02300000 1640145.02006340 5904.52234099
0.02400000 1636414.80666392 7977.52254624
0.02500000 1632535.87998400 8913.64631180
0.02600000 1628508.25707931 8574.09636569
0.02700000 1624334.22198479 8186.64485376
0.02800000 1620013.24064971 7751.76371200
0.02900000 1615548.19110986 8723.96063255
0.03000000 1610940.20748385 8239.95954003
0.03100000 1606189.60514169 7709.71045943
0.03200000 1601298.11821680 8719.06865527
0.03300000 1596269.13825025 8140.97298038
0.03400000 1591100.85551037 10859.26383991
0.03500000 1585796.73962617 9419.63306836
0.03600000 1580357.85886572 14033.57843527
0.03700000 1574786.21981139 9873.91005486
0.03800000 1569082.75631862 11932.87491405
0.03900000 1563250.19575243 14069.25241332
0.04000000 1557287.81061661 12450.51662282
0.04100000 1551200.04674147 14658.84112139
0.04200000 1544987.50300095 12954.72081367
0.04300000 1538651.08490888 16248.15621084
0.04400000 1532194.27651531 11376.54303148
0.04500000 1525618.27643940 10526.76659656
0.04600000 1518923.48233466 13920.93436274
0.04700000 1512113.62937774 11975.94050165
0.04800000 1505189.50553613 16594.71507066
0.04900000 1498154.96443623 15730.62785880
0.05000000 1491009.06248429 15968.70780281
0.05100000 1483756.83343205 15045.29499187
0.05200000 1476396.23624998 15258.55581271
0.05300000 1468933.43077514 13088.19747835
0.05400000 1461368.36373822 13261.91851938
0.05500000 1453703.54725710 17095.55451324
0.05600000 1445940.24397763 17307.90552807
0.05700000 1438083.18369209 12511.32428213
0.05800000 1430131.31824506 13922.32903318
0.05900000 1422087.63525234 19198.18397257
0.06000000 1413955.58288182 16819.00244414
0.06100000 1405736.36675590 14380.68370394
0.06200000 1397432.71207160 15846.88769563
0.06300000 1389046.90558001 17335.30619216
0.06400000 1380578.49937061 18844.89739772
0.06500000 1372033.07654718 21733.00494913
0.06600000 1363411.97786517 13702.29101866
0.06700000 1354716.60534330 15199.92102329
0.06800000 1345949.79217785 16716.69720134
0.06900000 1337114.46840803 22463.52412097
0.07000000 1328211.37650747 15559.99700444
0.07100000 1319243.16710506 19946.95762090
0.07200000 1310212.96231547 15781.51587040
0.07300000 1301122.71318472 15886.70907237
0.07400000 1291975.47555726 23255.55964988
0.07500000 1282771.94967870 14623.60091178
0.07600000 1273513.65441101 19121.80841742
0.07700000 1264206.25632765 25145.06361737
0.07800000 1254849.41396501 14869.96625283
0.07900000 1245445.64594825 16439.88329761
0.08000000 1235998.62634826 18020.86081754
0.08100000 1226509.53114878 16594.67473504
0.08200000 1216980.10526268 15151.40302150
0.08300000 1207413.75836878 21298.77969722
0.08400000 1197812.10068583 21380.94700084
0.08500000 1188177.43293031 18392.98752522
0.08600000 1178511.69362255 18455.49398864
0.08700000 1168819.09592122 21599.77790690
0.08800000 1159098.40408594 20116.15374764
0.08900000 1149355.52308223 26377.71049369
0.09000000 1139589.84754839 17110.94236473
0.09100000 1129804.16084710 17150.42796741
0.09200000 1120001.20018649 15624.01747672
0.09300000 1110184.80951881 17218.96720479
0.09400000 1100352.35590000 17248.02398935
0.09500000 1090509.70686735 17273.67456869
0.09600000 1080657.71023657 22012.99859230
0.09700000 1070801.08672676 15740.77671490
0.09800000 1060939.02914883 17330.43985598
0.09900000 1051074.94331497 18919.34986930
0.10000000 1041209.25875346 18929.18521432
0.10100000 1031344.30182642 18935.48227210
0.10200000 1021483.45512825 23672.88018608
0.10300000 1011627.67757237 22093.94951750
0.10400000 1001780.11376745 18933.64504094
0.10500000 991943.10759346 15771.89615279
0.10600001 982114.01428851 17339.22373814
0.10700001 972300.52623584 17326.39619286
0.10800001 962500.99173948 28326.40551998
0.10900001 952719.58277005 17291.86124113
0.11000001 942956.02349319 17270.24038318
0.11100001 933212.87115338 17245.77467073
0.11200001 923492.02207144 20349.14766432
0.11300001 913794.89748840 21876.25087582
0.11400001 904123.99341164 18715.36754482
0.11500001 894480.95887522 17120.36635904
0.11600001 884866.60156936 17082.35054773
0.11700001 875284.05520064 15492.52850667
0.11800001 865732.04416242 16998.64948774
0.11900001 856213.56817527 16953.02944839
0.12000001 846730.28362972 24589.04859487
0.12100001 837286.28829580 16854.57377738
0.12200001 827879.40814227 15274.37579982
0.12300001 818513.57183684 22836.52973018
0.12400001 809187.47081307 16689.49237189
0.12500001 799903.97428773 18141.82299170
0.12600001 790666.17741518 21087.06794536
0.12700001 781473.11170845 19505.56978747
0.12800001 772326.34178310 19427.87004317
0.12900001 763228.31584412 16371.24814647
0.13000001 754179.71496616 17783.55851713
0.13100001 745180.30664306 19180.94199714
0.13200001 736233.79955355 20563.01099088
0.13300001 727339.73237980 14619.52931004
0.13400001 718499.12258119 23279.37266915
0.13500001 709714.26832311 21717.25763462
0.13600001 700985.15120728 17286.29464383
0.13700001 692313.53940113 17197.06912962
0.13800001 683698.03587229 18531.63613619
0.13900001 675143.57377792 15595.81728974
0.14000001 666647.60151328 15509.55718065
0.14100001 658213.88166852 16823.94760891
0.14200001 649840.91401612 18120.81474201
0.14300001 641531.73082694 15242.79464341
0.14400001 633282.42916053 22038.22957433
0.14500001 625100.39522626 16427.63916147
0.14600001 616981.95479027 14964.89801940
0.14700001 608930.39711680 16221.90654448
0.14800001 600942.57872389 17460.38744858
0.14900001 593022.50120998 14677.30759743
0.15000001 585169.27268866 19881.12697765
0.15100001 577384.14683737 14480.79508596
0.15200001 569668.21834891 15688.66347363
0.15300001 562021.45888846 15579.23557556
0.15400001 554441.92033519 14179.85278173
0.15500001 546934.12868001 14078.08513661
0.15600001 539494.74746110 16516.63247302
0.15700001 532128.87886225 15133.74602911
0.15800001 524830.70546914 15020.65549948
0.15900001 517605.97104583 18633.81583718
0.16000001 510450.75643065 13560.12498465
0.16100001 503369.35858066 12231.87599091
0.16200001 496359.55003699 15776.78904269
0.16300001 489421.76545730 16855.68639807
0.16400001 482556.98550459 13137.61455058
0.16500001 475763.85386107 11846.52052043
0.16600001 469044.36053932 17624.34267936
0.16700001 462396.48950615 12817.63129429
0.16800001 455821.78486802 12710.59107119
0.16900001 449321.46671735 17186.54691345
0.17000001 442892.47561916 12496.21178966
0.17100001 436537.11070175 14641.45538433
0.17200001 430254.22135923 15631.13660013
0.17300001 424044.39767794 13281.07116246
0.17400001 417907.90861708 10970.08311927
0.17500001 411843.24736277 17396.25959019
0.17600001 405849.79283050 14007.90626113
0.17700001 399931.78169300 14949.45070576
0.17800001 394083.97429458 10581.15520958
0.17900001 388307.85876814 12581.17521834
0.18000001 382605.16395970 11426.50376139
0.18100001 376974.12179123 11320.53341213
0.18200001 371412.31352471 15292.90273178
0.18300001 365922.50878161 13129.30023530
0.18400001 360503.13956757 18007.13267207
0.18500001 355154.76049818 12881.46377182
0.18600001 349876.62368648 12758.25168547
0.18700001 344667.36149118 9719.62005325
0.18800001 339526.43926944 10588.13250887
0.18900001 334457.66770257 14298.06596983
0.19000001 329453.51434247 10382.72799507
0.19100001 324520.19758366 11215.41855842
0.19200001 319652.90624046 10179.34728022
0.19300001 314854.93348296 10078.50689703
0.19400001 310121.91727507 10885.27981073
0.19500001 305455.97915714 8980.40621159
0.19600001 300854.77648357 11557.33678477
0.19700001 296320.74984599 8800.72668633
0.19800001 291850.24144576 13938.76819018
0.19900001 287444.51052833 11210.33644040
0.20000001 283100.82854965 9389.03942259
0.20100001 278822.37342676 13517.30930259
0.20200001 274604.97273631 10870.23835953
0.20300001 270450.32929603 9930.93656113
0.20400001 266357.45170938 10647.63963535
0.20500001 262324.49504371 8105.82727999
0.20600001 258351.79813963 8824.00608255
0.20700001 254439.01471487 11113.89668809
0.20800001 250584.82777755 10998.16861104
0.20900001 246791.26112467 9328.71011149
0.21000001 243052.76421601 9231.14442130
0.21100001 239372.74141178 11418.08030511
0.21200001 235748.19218361 8285.37060598
0.21300001 232179.51926917 8198.25921297
0.21400001 228666.56982035 11061.74583802
0.21500001 225209.02548431 7296.77277067
0.21600001 221803.80499639 10107.59987156
0.21700001 218452.48880895 10000.75541050
0.21800001 215153.98229243 9894.93211347
0.21900001 211906.16424501 7692.19412579
0.22000001 208709.43878777 8302.46186754
0.22100001 205564.54888025 7529.82978152
0.22200001 202469.32120651 9481.63876044
0.22300001 199422.74696399 10050.90692225
0.22400001 196423.81336556 8618.09521893
0.22500001 193475.29419241 10494.10045323
0.22600001 190571.74897171 7786.76203121
0.22700001 187715.77298325 7061.86771358
0.22800001 184904.85605189 6986.63031632
0.22900001 182139.07931075 6912.17838673
0.23000001 179418.06188222 8703.57059351
0.23100001 176741.97774791 6150.62111651
0.23200001 174107.16163498 9736.07293908
0.23300001 171516.19316050 6622.24053112
0.23400001 168965.74461072 7147.25133507
0.23500001 166456.72050614 8838.85227692
0.23600001 163988.50995213 6412.77098498
0.23700001 161560.13845524 6344.46693722
0.23800001 159170.73344484 7418.15238307
0.23900001 156819.97721668 8468.27917025
0.24000001 154506.75901214 6702.50352298
0.24100001 152231.98112138 8289.03176414
0.24200001 149993.67642574 6013.99674076
0.24300001 147790.81968333 7572.80195879
0.24400001 145623.51643276 6957.16382667
0.24500001 143490.45723666 5824.27793475
0.24600001 141392.04615371 7334.00578093
0.24700001 139328.02584029 6737.90364838
0.24800001 137296.49419623 5640.82673090
0.24900001 135296.26050258 7610.41501330
0.25000001 133329.21847559 6525.79890701
0.25100001 131392.63091257 6456.63418850
0.25200001 129488.76362025 7862.55809900
0.25300001 127613.28675508 7779.30632863
0.25400001 125768.49842923 6734.90340952
0.25500001 123951.08769093 6187.63859028
0.25600001 122163.91138440 6122.24470869
0.25700001 120403.82768172 4659.62835175
0.25800001 118671.21094139 6915.56514481
0.25900001 116966.66830787 4561.70027984
0.26000001 115287.67989994 4964.86416981
0.26100001 113634.38265119 5805.58088435
0.26200001 112007.61431752 5302.44071269
0.26300001 110404.81726818 4809.23406776
0.26400001 108827.41657084 4758.47901472
0.26500001 107273.98339685 4708.25535408
0.26600001 105743.92096787 5929.06192923
0.26700001 104237.32312334 4609.37464663
0.26800001 102753.88227725 6219.17901913
0.26900001 101291.92795948 5333.02025943
0.27000001 99852.45043769  4870.80276285
0.27100001 98434.44177402  5220.96303876
0.27200001 97038.15058393  5165.82619080
0.27300001 95662.50927489  5111.24811244
0.27400001 94305.54350334  5446.14539506
0.27500001 92971.02178837  4618.80058103
0.27600001 91653.77756107  4569.85756547
0.27700001 90357.64103746  4144.70519054
0.27800001 89079.35992476  4846.36280607
0.27900001 87820.07544755  4057.28767770
0.28000001 86578.48219032  4744.06815615
0.28100001 85355.06583235  5054.72723783
0.28200001 84149.79698281  3572.15905099
0.28300001 82961.54556776  4240.99441015
0.28400001 81789.58144289  5944.05811270
0.28500001 80635.21604021  4497.02621141
0.28600001 79496.72506853  5133.50126428
0.28700001 78375.13964767  5417.28990886
0.28800001 77267.84756059  4354.42975539
0.28900001 76178.07580381  3313.74645432
0.29000001 75102.46134583  3606.04485221
0.29100001 74042.67273175  5837.52459449
0.29200001 72997.40025703  5454.00101837
0.29300001 71967.08078454  4125.87293668
0.29400001 70950.41997329  3767.46747892
0.29500001 69949.14165533  4037.46464747
0.29600001 68960.56460418  3379.41262840
0.29700001 67986.50330280  3342.89652564
0.29800001 67026.02140056  4509.17580318
0.29900001 66079.38677489  3270.92980020
0.30000001 65144.83564878  4706.06315005
0.30100001 64224.55713189  4945.93337887
0.30200001 63316.00477550  3453.25506394
0.30300001 62421.01728255  2846.39852284
0.30400001 61538.37841435  3659.99522946
0.30500001 60668.38309526  3620.08259068
0.30600001 59809.49458559  3029.65009166
0.30700001 58963.61467360  2996.53103958
0.30800001 58129.40963011  2694.29826391
0.30900001 57307.28595189  2664.78892293
0.31000001 56496.83802757  2899.13538064
0.31100001 55697.30941051  2867.29762421
0.31200001 54910.20073354  3351.44426045
0.31300001 54133.45376559  3059.62295169
0.31400001 53369.48215291  3278.22059646
0.31500001 52614.97866597  3740.92516027
0.31600002 51872.95108284  2713.21483485
0.31700002 51140.96588493  3171.25144468
0.31800002 50419.67769919  2653.83986135
0.31900002 49709.80292784  3817.71304562
0.32000002 49010.78497111  3067.83023053
0.32100002 48321.60997538  2333.93387232
0.32200002 47643.98650583  2770.02150661
0.32300002 46975.18932519  2511.29374024
0.32400002 46318.08724859  2483.80754632
0.32500002 45670.52290495  2233.28867580
0.32600002 45033.48935241  2208.89275733
0.32700002 44406.72233803  3495.69734798
0.32800002 43790.77167659  3025.50455840
0.32900002 43183.09953518  2565.07623385
0.33000002 42586.55733063  2325.86493875
0.33100002 41998.92609148  2719.01060392
0.33200002 41422.65088975  2275.96766092
0.33300002 40855.30464578  2456.22103162
0.33400002 40298.21715780  2632.48116050
0.33500002 39750.52932902  2404.11212767
0.33600002 39212.14353031  2775.04352906
0.33700002 38683.31345814  2941.86612781
0.33800002 38164.90635552  2328.82269610
0.33900002 37655.14066444  2688.57717077
0.34000002 37154.82130262  2280.56303956
0.34100002 36664.19057954  1880.87306581
0.34200002 36183.51605706  2606.29878502
0.34300002 35711.29506980  2764.05436931
0.34400002 35249.13727529  2553.80011654
0.34500002 34795.78405218  2347.67166119
0.34600002 34352.36094096  1788.04047166
0.34700002 33916.65138239  2655.67392902
0.34800002 33491.06682604  1928.58317452
0.34900002 33074.06439635  2257.30500196
0.35000002 32666.51240757  1891.88115569
0.35100002 32268.44624150  2044.52885070
0.35200002 31877.66981274  2531.88404479
0.35300002 31497.15922250  2675.99877429
0.35400002 31124.80047103  1988.87484430
0.35500002 30761.56290134  1806.93429041
0.35600002 30406.75758419  1628.28194576
0.35700002 30060.46920088  1614.24727255
0.35800002 29723.28789838  2240.83878080
0.35900002 29394.98578093  1746.06223809
0.36000002 29074.98142925  2046.73341466
0.36100002 28762.85421565  2030.36997525
0.36200002 28460.71070761  2324.52865715
0.36300002 28165.40312229  3229.44527497
0.36400002 27878.91232033  2136.91873057
0.36500002 27600.18388044  2121.35023353
0.36600002 27330.34806166  1654.98930527
0.36700002 27068.17062851  1494.16308947
0.36800002 26814.87511242  2671.56613400
0.36900002 26569.24891310  1769.51206143
0.37000002 26330.95219397  1465.31755901
0.37100002 26100.61703061  2038.98029902
0.37200002 25878.74176768  1737.49880459
0.37300002 25664.24058288  1583.74036139
0.37400002 25457.42798749  1575.17843134
0.37500002 25258.26096471  1567.02258448
0.37600002 25066.99776909  1701.04654919
0.37700002 24882.84315085  1975.20018288
0.37800002 24705.96688154  1404.53428375
0.37900002 24537.30325729  1818.21425750
0.38000002 24375.00140064  1810.94081485
0.38100002 24219.28224033  1804.09441955
0.38200002 24071.81355692  1382.92575436
0.38300002 23930.69848704  1791.93078760
0.38400002 23796.74442078  1923.96687757
0.38500002 23669.04176794  1781.56885827
0.38600002 23549.00105145  1640.42349096
0.38700002 23434.72299213  1636.68113131
0.38800002 23326.93449044  1905.57736880
0.38900002 23225.72724536  1630.44612987
0.39000002 23131.47236363  1627.99310208
0.39100002 23042.52397048  1761.37061575
0.39200002 22960.68495252  1624.23893049
0.39300002 22884.02354818  2163.91336923
0.39400002 22814.63782712  2027.65103295
0.39500002 22749.77291993  1756.73754811
0.39600002 22691.03126932  1756.62626894
0.39700002 22637.28792414  1756.87999903
0.39800002 22590.41320706  2163.25807120
0.39900002 22547.73788222  1758.72363814
0.40000002 22510.92223501  1354.03203659
0.40100002 22478.88303193  1626.57205326
0.40200002 22452.45807720  1492.97627058
0.40300002 22430.84795760  1359.30945063
0.40400002 22414.08674620  1361.65583435
0.40500002 22401.71928312  1909.97067657
0.40600002 22394.84890898  2187.52894508
0.40700002 22392.04041829  1644.47152624
0.40800002 22393.37716923  2198.13400708
0.40900002 22398.88095151  1790.79061692
0.41000002 22409.31758166  1657.84139324
0.41100002 22423.41635516  1662.92063569
0.41200002 22440.66066008  1529.21889314
0.41300002 22463.08507181  1673.94917887
0.41400002 22488.45674147  1819.87844803
0.41500002 22517.42651736  1826.61372564
0.41600002 22548.98500747  2397.74643438
0.41700002 22585.29651436  1840.92760612
0.41800002 22625.30929369  2275.20121038
0.41900002 22666.50739046  2284.78405322
0.42000002 22711.36387244  1577.64496616
0.42100002 22759.94957917  1728.84585196
0.42200002 22810.67017151  1447.33709096
0.42300002 22863.82681891  1599.55340005
0.42400002 22919.34928403  1899.44116192
0.42500002 22977.92371713  1908.77621363
0.42600002 23037.56112764  1918.22261819
0.42700002 23100.44955997  1927.96361163
0.42800002 23164.70453980  1639.71368855
0.42900002 23231.80821186  2097.83238094
0.43000002 23300.52657687  1807.65493749
0.43100002 23369.40508631  2271.50628203
0.43200002 23441.17336376  2283.75642319
0.43300002 23513.76722388  1683.82095069
0.43400002 23588.10388376  1846.94862162
0.43500002 23663.21803029  1702.33198577
0.43600002 23740.00861851  2023.00493029
0.43700002 23817.26553363  1721.27386169
0.43800002 23894.90538678  1730.82755371
0.43900002 23974.41472695  1898.77373636
0.44000002 24053.78361865  2068.50522031
0.44100002 24134.11912533  2560.14747814
0.44200002 24214.69654039  2252.69332591
0.44300002 24295.82789275  1618.10221434
0.44400002 24376.99996037  2440.74723670
0.44500002 24457.83806426  1799.85238845
0.44600002 24538.63704800  2138.91039965
0.44700002 24620.36028217  1654.48828937
0.44800002 24700.73547006  2329.03245785
0.44900002 24781.64589193  2174.58953008
0.45000002 24862.46368080  2522.91862158
0.45100002 24941.75727323  2367.47171258
0.45200002 25021.14380217  2380.26152271
0.45300002 25099.38977301  1880.19537700
0.45400002 25177.19323578  2405.68092769
0.45500002 25254.48906068  2418.36998707
0.45600002 25330.35008246  2083.67469654
0.45700002 25405.61018555  2443.51170345
0.45800002 25479.40031678  1929.68247445
0.45900002 25551.92689215  1939.39134303
0.46000002 25623.82636115  3189.39781833
0.46100002 25693.51091434  1958.61642983
0.46200002 25762.47565005  3220.56723365
0.46300002 25829.95938517  2337.09483594
0.46400002 25895.27859826  2167.43492140
0.46500002 25960.12500342  1996.07410612
0.46600002 26022.26213736  2916.57527859
0.46700002 26082.67525975  2563.40544602
0.46800002 26142.09820089  2390.82570428
0.46900002 26198.78231892  2031.71566513
0.47000002 26253.89430781  2411.28903699
0.47100002 26307.17468624  2235.05766728
0.47200002 26358.51027739  1870.13639282
0.47300002 26407.76172863  2065.35114269
0.47400002 26454.22973837  2073.35035402
0.47500002 26498.94491822  2838.03713526
0.47600002 26542.20255215  2658.73255567
0.47700002 26582.03117336  2858.89758820
