# SAXS profile: number of points = 501, q_min = 0, q_max = 0.5, delta_q = 0.001
#    q    intensity    error
0.00000000 1682732.95097188 378.61491397
0.00100000 1682651.37939074 555.27496839
0.00200000 1682406.60214164 757.08299494
0.00300000 1681998.84433785 1009.19934255
0.00400000 1681427.98627065 1513.28524515
0.00500000 1680694.50559442 1512.62511491
0.00600000 1679798.32551598 2116.54597632
0.00700000 1678740.00524777 2618.83451703
0.00800000 1677519.37016319 2491.11636987
0.00900000 1676137.63148810 3519.88917659
0.01000000 1674594.15620398 3592.00462016
0.01100000 1672890.26202804 3914.56338358
0.01200000 1671025.85419559 5865.30100538
0.01300000 1669002.07098757 5607.84720585
0.01400000 1666818.92176695 5250.47983632
0.01500000 1664477.76925330 5193.17087132
0.01600000 1661978.07292455 6780.87084066
0.01700000 1659322.14985331 5376.20400669
0.01800000 1656509.84715681 5665.26393220
0.01900000 1653541.81767160 5456.68824454
0.02000000 1650419.28619616 5718.70308536
0.02100000 1647144.22885591 6522.69144200
0.02200000 1643715.13712721 7939.14447302
0.02300000 1640135.31865277 6494.93615750
0.02400000 1636404.25949831 6750.16787822
0.02500000 1632524.44825030 7640.21476674
0.02600000 1628495.92629272 9233.57232441
0.02700000 1624320.91448406 8186.57778395
0.02800000 1619998.95062126 7751.69533421
0.02900000 1615532.78694123 8723.87745003
0.03000000 1610923.80635357 11236.19406579
0.03100000 1606172.16511065 9251.55209673
0.03200000 1601279.53910318 7926.33408363
0.03300000 1596249.37327952 9769.04661483
0.03400000 1591079.91197520 9188.48691562
0.03500000 1585774.58494715 11132.13810039
0.03600000 1580334.54262852 9647.94282861
0.03700000 1574761.53207898 9873.75526277
0.03800000 1569056.75112889 15604.27011214
0.03900000 1563222.89450288 11255.20536165
0.04000000 1557259.11385758 10534.85839342
0.04100000 1551169.92762750 13681.31939603
0.04200000 1544955.97926477 10961.46318142
0.04300000 1538618.05594514 15232.31946091
0.04400000 1532159.79389186 18615.74236034
0.04500000 1525582.28787134 11579.17010297
0.04600000 1518885.86790832 13920.58962650
0.04700000 1512074.53142849 14153.01827240
0.04800000 1505148.74000675 14381.69687992
0.04900000 1498112.52273472 15730.18222092
0.05000000 1490965.09902516 12546.47189254
0.05100000 1483711.19176995 11572.94783492
0.05200000 1476348.83504980 15258.06592128
0.05300000 1468884.29372686 15467.35233400
0.05400000 1461317.51569170 13261.45707334
0.05500000 1453650.91413972 20758.13602227
0.05600000 1445885.78961248 13598.55648587
0.05700000 1438026.96919971 21268.41986724
0.05800000 1430073.20130034 17718.60779144
0.05900000 1422027.69341964 14078.07482238
0.06000000 1413893.79357041 12937.12881558
0.06100000 1405672.62702777 15687.30725072
0.06200000 1397367.01056292 15846.14264049
0.06300000 1388979.29777865 17334.46244676
0.06400000 1380508.81206602 16151.95385655
0.06500000 1371961.48491802 21731.87093767
0.06600000 1363338.32128058 20552.32615492
0.06700000 1354640.99289189 15199.07265155
0.06800000 1345872.07211494 15322.75425827
0.06900000 1337034.69216726 21058.29738756
0.07000000 1328129.50705071 15559.03790371
0.07100000 1319159.21514286 15671.61220992
0.07200000 1310126.91823411 17215.06851207
0.07300000 1301034.59975991 15885.63320740
0.07400000 1291885.13955407 15987.07935120
0.07500000 1282679.48641780 14622.54683056
0.07600000 1273419.09927458 14707.99128614
0.07700000 1264109.50145745 16269.09004659
0.07800000 1254750.44241307 14868.79343989
0.07900000 1245344.56433698 17932.96256758
0.08000000 1235895.27021471 15016.12823753
0.08100000 1226404.08405144 16593.24803574
0.08200000 1216872.35099728 15150.06148084
0.08300000 1207303.83432198 18254.43483167
0.08400000 1197699.92252830 18324.80967482
0.08500000 1188063.03877510 19923.81809559
0.08600000 1178394.95992983 19991.47143384
0.08700000 1168700.11919440 21597.57921689
0.08800000 1158977.22157871 20114.05062513
0.08900000 1149232.03083247 23271.94971743
0.09000000 1139464.06587413 20219.79079877
0.09100000 1129676.16793436 21825.34458987
0.09200000 1119871.07451307 15622.20222349
0.09300000 1110052.24715652 15651.73742042
0.09400000 1100217.54331316 20381.53094776
0.09500000 1090372.62423893 18841.63983246
0.09600000 1080518.43018288 20438.00706765
0.09700000 1070659.45136313 17312.56414245
0.09800000 1060795.25995241 20478.65345624
0.09900000 1050928.72972066 15763.93168707
0.10000000 1041060.93590842 18926.48870487
0.10100000 1031193.69611366 20510.44358034
0.10200000 1021330.58957802 15779.55835119
0.10300000 1011472.56934000 15778.97282396
0.10400000 1001622.59314123 17353.11224255
0.10500000 991783.63779557 17346.29664118
0.10600001 981952.15717923 17336.36615074
0.10700001 972136.63732879 26772.64425189
0.10800001 962334.84150186 17307.59293894
0.10900001 952551.28497369 17288.80663598
0.11000001 942785.41510682 17267.11569044
0.11100001 933040.28827771 21945.10861332
0.11200001 923317.20662414 23475.34108357
0.11300001 913617.88685938 20309.72658108
0.11400001 903944.86610298 17152.35464191
0.11500001 894299.84750615 17116.89988727
0.11600001 884683.37336343 20184.05211378
0.11700001 875098.72618399 15489.24818292
0.11800001 865544.64890765 18539.96725280
0.11900001 856024.19505563 16949.27986044
0.12000001 846538.83131253 23047.02076811
0.12100001 837092.93274143 18382.56166897
0.12200001 827683.88154294 21379.07566745
0.12300001 818316.15258128 16742.74927064
0.12400001 808988.13635299 16685.38109845
0.12500001 799702.83402208 18137.26113026
0.12600001 790462.98578903 18069.98470666
0.12700001 781268.15149163 18000.41905866
0.12800001 772119.53611806 17928.61647362
0.12900001 763019.76278875 16366.77468322
0.13000001 753969.33769953 16297.04800253
0.13100001 744968.12494544 16225.40652614
0.13200001 736019.92150311 17620.31775141
0.13300001 727124.10234447 18999.75368997
0.13400001 718281.69729524 17454.24606717
0.13500001 709495.26859435 17368.44499408
0.13600001 700764.66398213 17280.85742860
0.13700001 692091.40236283 20056.80978622
0.13800001 683474.38144537 15675.48567764
0.13900001 674918.30367730 15590.61355017
0.14000001 666420.91779359 18323.24399887
0.14100001 657985.82636552 16818.11851509
0.14200001 649611.45219215 20901.24946010
0.14300001 641300.78716785 15237.30742182
0.14400001 633050.12219499 15145.72488794
0.14500001 624866.74653955 17789.95711317
0.14600001 616747.10574145 16319.12918776
0.14700001 608694.21483537 18918.21708958
0.14800001 600705.35992827 17453.49505615
0.14900001 592784.01211516 13337.64090187
0.15000001 584929.76776039 13248.65986488
0.15100001 577143.42790640 15790.64493260
0.15200001 569426.56576788 13068.34030103
0.15300001 561778.77425747 14274.79932750
0.15400001 554198.32280388 14173.62277458
0.15500001 546689.62992826 14071.79173844
0.15600001 539249.40628488 15239.18894082
0.15700001 531882.53850422 15126.74010899
0.15800001 524583.74856747 13762.45529324
0.15900001 517358.18329840 13658.25668376
0.16000001 510202.24239865 17249.93862974
0.16100001 503120.22492278 12225.82204273
0.16200001 496109.79263293 16981.83900347
0.16300001 489171.42308471 21660.51163674
0.16400001 482306.20796594 13130.78713177
0.16500001 475512.65009811 16576.37176501
0.16600001 468792.62048300 12917.58126729
0.16700001 462144.34606199 13975.24568475
0.16800001 455569.34401620 16168.15678254
0.16900001 449068.66961434 11451.25161587
0.17000001 442639.49156709 15895.18489274
0.17100001 436284.02562957 11256.12839277
0.17200001 430001.00549213 14506.08460530
0.17300001 423791.07743256 13273.13717200
0.17400001 417654.50708567 15348.80386026
0.17500001 411589.86857281 11952.57034785
0.17600001 405596.51249827 15076.02308159
0.17700001 399678.69284621 11738.56376331
0.17800001 393831.01581832 14804.10858384
0.17900001 388055.12149907 16763.98204058
0.18000001 382352.73079534 10380.87713143
0.18100001 376721.95964852 11312.96098263
0.18200001 371160.50980829 11207.19212307
0.18300001 365671.08546382 12111.02692268
0.18400001 360252.18943467 11996.39847489
0.18500001 354904.43241713 13862.56778511
0.18600001 349626.79035019 17652.65747875
0.18700001 344418.10401892 11655.10919064
0.18800001 339277.92636075 14427.79450015
0.18900001 334209.96409322 13334.97819736
0.19000001 329206.57189436 13204.47622258
0.19100001 324274.10954647 11206.91375545
0.19200001 319407.61370755 10171.53593914
0.19300001 314610.58028497 9155.16831890
0.19400001 309878.58292101 11783.13367237
0.19500001 305213.65079455 14357.25081183
0.19600001 300613.55677365 10659.75722693
0.19700001 296080.73402481 8793.59821610
0.19800001 291611.45456180 9575.06256304
0.19900001 287206.91225286 8616.20777479
0.20000001 282864.55366068 13645.38671349
0.20100001 278587.45711569 12661.80052433
0.20200001 274371.38018002 10025.53070562
0.20300001 270218.22571866 10749.28152715
0.20400001 266126.75608333 10638.41757726
0.20500001 262095.47092133 10528.37556455
0.20600001 258124.29768238 9617.71178626
0.20700001 254213.19348077 10310.88761497
0.20800001 250360.69250877 8633.68888928
0.20900001 246568.97429027 10096.99997448
0.21000001 242832.19181537 9991.33100456
0.21100001 239154.04326793 11407.64840316
0.21200001 235531.32707027 10535.31675790
0.21300001 231964.71577506 10424.49481975
0.21400001 228453.73226440 7367.63321384
0.21500001 224998.14998013 8018.93444441
0.21600001 221595.01097575 10098.08512759
0.21700001 218245.85180659 11418.62350639
0.21800001 214949.51069579 7061.09176021
0.21900001 211703.88242540 7684.85129539
0.22000001 208509.51339628 7603.29976550
0.22100001 205366.88399000 7522.58931625
0.22200001 202273.94961207 9472.48950823
0.22300001 199229.75088043 7363.53194073
0.22400001 196233.30441076 9934.31150555
0.22500001 193287.29705923 6552.43968016
0.22600001 190386.26162821 7130.91776649
0.22700001 187532.84885716 7696.34848105
0.22800001 184724.52198611 8883.40268241
0.22900001 181961.42045622 7533.20316314
0.23000001 179242.98679519 7452.92374341
0.23100001 176569.63607690 7988.01071389
0.23200001 173937.62048421 9118.68018514
0.23300001 171349.42830154 6014.36521783
0.23400001 168801.77850531 5950.26297373
0.23500001 166295.63139143 7652.92531859
0.23600001 163830.30422288 5824.16759059
0.23700001 161404.88891534 6338.37028750
0.23800001 159018.43937451 8551.21698183
0.23900001 156670.61153027 6768.17073824
0.24000001 154360.42604002 6696.15559835
0.24100001 152088.68298663 7729.14723498
0.24200001 149853.42262613 6008.37326440
0.24300001 147653.70701869 5944.53852577
0.24400001 145489.55260052 7485.43783538
0.24500001 143359.68564299 6347.96718056
0.24600001 141264.43518729 6280.61708553
0.24700001 139203.58907174 6214.04851012
0.24800001 137175.31232798 6148.19778939
0.24900001 135178.36406757 8110.70222775
0.25000001 133214.51753149 5517.07950457
0.25100001 131281.23909801 6451.16039447
0.25200001 129380.73361542 5891.99888759
0.25300001 127508.59049407 4858.07752766
0.25400001 125667.19962074 5287.44767420
0.25500001 123853.14295081 6182.74918862
0.25600001 122069.28359872 7529.23376860
0.25700001 120312.60158156 5587.31748180
0.25800001 118583.44016592 6449.75361579
0.25900001 116882.27554937 5925.93165074
0.26000001 115206.74866212 4961.37886588
0.26100001 113556.95618220 4909.06744803
0.26200001 111933.68021564 5740.51906148
0.26300001 110334.34017588 4369.24007771
0.26400001 108760.38568197 5187.87064251
0.26500001 107210.41432526 4705.46530739
0.26600001 105683.86355019 5079.16672257
0.26700001 104180.79056442 5025.68157464
0.26800001 102700.85850309 6215.96975504
0.26900001 101242.39502647 5740.44406965
0.27000001 99806.42048622  4462.84430323
0.27100001 98391.99122614  4817.27211840
0.27200001 96999.15312788  5163.75016113
0.27300001 95626.97406756  5109.34946623
0.27400001 94273.53731397  4277.66195806
0.27500001 92942.53096311  5386.94934956
0.27600001 91628.75270125  4568.60982590
0.27700001 90336.15208796  6403.93012459
0.27800001 89061.28045272  4099.93623968
0.27900001 87805.56052334  4425.40045982
0.28000001 86567.37979220  5838.10436949
0.28100001 85347.42943127  5776.31429730
0.28200001 84145.56991995  4643.57349581
0.28300001 82960.81122189  4240.95687039
0.28400001 81792.20311689  3846.27853362
0.28500001 80641.26533846  5189.26567014
0.28600001 79506.16895139  3422.74073536
0.28700001 78387.96044004  4740.90407181
0.28800001 77284.00156301  4020.31395160
0.28900001 76197.53836453  4971.88961362
0.29000001 75125.30303216  4590.90748560
0.29100001 74068.75421471  4217.47506462
0.29200001 73026.79714867  4172.38625259
0.29300001 71999.68987878  3492.70512135
0.29400001 70986.29074339  4397.60091972
0.29500001 69988.15444435  3418.22162487
0.29600001 69002.82856349  4303.70662123
0.29700001 68031.85243601  3345.12634263
0.29800001 67074.57106335  3008.29465460
0.29900001 66130.97544925  2975.89403609
0.30000001 65199.49194086  3238.13292053
0.30100001 64282.27208165  2911.98706315
0.30200001 63376.67032198  3744.61074325
0.30300001 62484.71903561  4558.88531666
0.30400001 61604.98081797  3663.95640761
0.30500001 60737.88905020  3624.23001120
0.30600001 59881.88727867  3309.07324768
0.30700001 59038.81463687  3818.63071150
0.30800001 58207.39922726  4316.66093106
0.30900001 57388.04565357  3202.25309908
0.31000001 56580.31292897  2903.41889541
0.31100001 55783.50467105  2871.73495643
0.31200001 54999.04969833  4389.74935951
0.31300001 54224.86813433  3575.58797407
0.31400001 53463.45468100  3536.60769459
0.31500001 52711.46106435  3248.08038457
0.31600002 51971.91416072  3459.77048949
0.31700002 51242.34885218  2933.11218718
0.31800002 50523.48776040  2901.05880456
0.31900002 49815.97068026  2630.28337646
0.32000002 49119.18715675  3784.14235773
0.32100002 48432.28241374  3041.06315675
0.32200002 47756.85947502  2776.58394135
0.32300002 47090.20475611  2517.44246546
0.32400002 46435.19329278  3395.57367032
0.32500002 45789.70789425  3358.67523308
0.32600002 45154.64268492  3543.73652572
0.32700002 44529.86423060  2629.04330867
0.32800002 43915.81117266  2600.69446080
0.32900002 43309.97590616  2358.22829976
0.33000002 42715.21588973  2544.97268322
0.33100002 42129.40058556  2937.26194792
0.33200002 41554.77716405  2283.22733940
0.33300002 40989.10028804  3491.04183685
0.33400002 40433.58391289  3047.68153176
0.33500002 39887.46962721  2010.32856441
0.33600002 39350.52855875  2983.75396927
0.33700002 38823.18240090  2165.16898503
0.33800002 38306.12970063  2142.65346627
0.33900002 37797.65822115  2120.44872663
0.34000002 37298.61814771  2480.17173119
0.34100002 36809.15582350  3021.29565308
0.34200002 36329.63821043  2429.90796678
0.34300002 35858.52612965  2405.39004669
0.34400002 35397.46343639  2381.36446546
0.34500002 34945.04714991  1995.01283627
0.34600002 34502.56772868  2334.61635593
0.34700002 34067.71252671  2134.00161374
0.34800002 33642.96421421  2289.57203803
0.34900002 33226.68647093  2267.72145904
0.35000002 32819.85252368  2073.55838065
0.35100002 32422.40194264  2054.28348438
0.35200002 32032.24738710  2035.32909538
0.35300002 31652.27022398  2016.88275420
0.35400002 31280.38898203  1998.81695062
0.35500002 30917.53636739  2146.29547628
0.35600002 30563.04502755  1800.31625262
0.35700002 30217.09794930  2271.72153143
0.35800002 29880.18997107  1930.85796739
0.35900002 29552.05322826  2074.55423489
0.36000002 29232.15466386  1899.50550003
0.36100002 28920.07467196  2669.61221942
0.36200002 28618.00806403  2337.37591934
0.36300002 28322.66100703  2010.34257350
0.36400002 28036.11293620  2302.46588395
0.36500002 27757.15863595  1523.86808130
0.36600002 27487.17816412  1815.80307553
0.36700002 27224.70932106  2254.20603856
0.36800002 26971.08916662  2388.55976974
0.36900002 26725.14829737  2076.54412107
0.37000002 26486.44185489  2358.35289447
0.37100002 26255.59688905  2197.59356371
0.37200002 26033.23222626  1893.52723567
0.37300002 25818.13371515  1448.39737003
0.37400002 25610.67585422  2449.02099457
0.37500002 25410.85151163  1863.12372109
0.37600002 25218.78595621  1568.73465472
0.37700002 25033.89601995  1703.30636589
0.37800002 24856.19852476  1836.99743899
0.37900002 24686.63285457  1829.27958118
0.38000002 24523.40407244  1541.66387005
0.38100002 24366.73314008  1535.83526258
0.38200002 24218.22813904  1391.33727250
0.38300002 24076.02425592  1802.81278169
0.38400002 23940.92927454  1382.58873110
0.38500002 23812.07096284  1930.20656369
0.38600002 23690.89328133  1512.78206215
0.38700002 23575.28754279  1646.49815999
0.38800002 23466.24404457  1780.03202633
0.38900002 23363.63269231  2050.15886588
0.39000002 23268.04364731  1774.07207194
0.39100002 23177.67622221  1499.13216908
0.39200002 23094.33545550  1497.55225356
0.39300002 23016.18073668  1768.33324978
0.39400002 22945.27116484  2311.16254757
0.39500002 22878.80774075  2038.50186628
0.39600002 22818.45952913  1766.49112814
0.39700002 22763.01393695  2038.42799463
0.39800002 22714.46752291  2039.19141848
0.39900002 22670.09680840  1360.20587295
0.40000002 22631.48287192  1633.54051109
0.40100002 22597.66412305  1635.16705342
0.40200002 22569.45254498  1773.62051228
0.40300002 22545.93287437  1639.54031631
0.40400002 22527.27160203  1915.94454053
0.40500002 22512.99884058  1371.04169435
0.40600002 22504.15854996  1923.43052240
0.40700002 22499.38834080  1790.05142121
0.40800002 22498.73597159  1518.32726898
0.40900002 22502.19344666  1799.05045130
0.41000002 22510.60304974  1526.55661815
0.41100002 22522.60150434  1531.08652281
0.41200002 22537.72668589  1815.07590465
0.41300002 22558.02027262  1681.02375037
0.41400002 22581.29968152  1686.82316614
0.41500002 22608.08177230  1551.81880638
0.41600002 22637.44035535  1699.16635358
0.41700002 22671.60777584  2416.56678733
0.41800002 22709.40024884  1712.74304792
0.41900002 22748.34512151  1576.46039162
0.42000002 22790.97351158  1727.10005455
0.42100002 22837.23255890  1879.27595632
0.42200002 22885.70998318  1597.30820396
0.42300002 22936.58759350  1604.64374408
0.42400002 22989.83653406  1905.28279304
0.42500002 23046.07681287  1914.43769156
0.42600002 23103.40357783  1627.75037621
0.42700002 23163.99650023  1784.55437494
0.42800002 23225.89560343  1793.50374348
0.42900002 23290.66814687  1802.69779999
0.43000002 23357.05954776  1812.04076558
0.43100002 23423.59829110  2428.55878590
0.43200002 23493.01570989  1525.87144267
0.43300002 23563.27782746  1994.16029704
0.43400002 23635.25834419  2004.86088405
0.43500002 23708.03319704  1860.60653348
0.43600002 23782.46553741  2026.62289681
0.43700002 23857.38146432  1567.43003648
0.43800002 23932.66897019  1891.15959165
0.43900002 24009.80569941  1901.57670151
0.44000002 24086.88489812  1912.01701382
0.44100002 24164.90569648  1922.55998832
0.44200002 24243.15774951  2738.62844496
0.44300002 24321.95281420  2429.76320129
0.44400002 24400.82477894  1791.63064430
0.44500002 24479.35323933  2128.96945212
0.44600002 24557.85760345  1975.92531642
0.44700002 24637.34777344  1821.19283372
0.44800002 24715.48403091  2330.42309972
0.44900002 24794.14907257  2677.76822674
0.45000002 24872.73740660  2019.16891836
0.45100002 24949.83501811  2706.55823103
0.45200002 25026.98818871  1870.64232082
0.45300002 25103.04283091  1880.46902758
0.45400002 25178.72632138  1718.44815288
0.45500002 25253.87622649  2418.31130206
0.45600002 25327.58210081  2430.68816941
0.45700002 25400.75554524  2443.04478413
0.45800002 25472.44498171  2630.66688016
0.45900002 25542.93978748  2467.44810041
0.46000002 25612.78611214  2302.46151668
0.46100002 25680.48143318  2313.55468196
0.46200002 25747.46738418  1966.97786404
0.46300002 25812.92506403  1976.23763657
0.46400002 25876.33880684  2346.33713252
0.46500002 25939.27133175  2175.78618243
0.46600002 25999.52349240  2003.39337766
0.46700002 26058.08732936  2012.20559894
0.46800002 26115.66643770  2572.13210936
0.46900002 26170.55429039  2398.53141440
0.47000002 26223.90947117  2037.99122115
0.47100002 26275.43760020  1860.30107027
0.47200002 26325.08196537  2241.31758476
0.47300002 26372.64081392  2437.62330597
0.47400002 26417.46552916  2446.91786062
0.47500002 26460.60221664  2267.14450538
0.47600002 26502.24092348  2275.48251354
0.47700002 26540.50401321  2664.13591912
