# SAXS profile: number of points = 501, q_min = 0, q_max = 0.5, delta_q = 0.001
#    q    intensity    error
0.00000000 1664650.74656090 274.66737318
0.00100000 1664569.70049320 649.18219861
0.00200000 1664326.49678535 748.94694727
0.00300000 1663921.36778878 1697.19985560
0.00400000 1663354.17963048 1621.77038676
0.00500000 1662625.43424818 1945.27183507
0.00600000 1661735.01667229 1744.82183854
0.00700000 1660683.51276597 2391.38435777
0.00800000 1659470.74366473 2464.31415839
0.00900000 1658097.91826672 2984.57638046
0.01000000 1656564.40269136 3006.66452071
0.01100000 1654871.48692998 3276.64568678
0.01200000 1653019.10846351 3868.06488340
0.01300000 1651008.37256951 4507.25305591
0.01400000 1648839.34417864 4822.85529552
0.01500000 1646513.33676796 6717.77471315
0.01600000 1644029.86428332 6288.41451200
0.01700000 1641391.11297961 4874.93182423
0.01800000 1638597.00204057 4670.00166595
0.01900000 1635648.18894424 5397.63926707
0.02000000 1632545.95607537 5656.77199369
0.02100000 1629292.15864646 5914.33080403
0.02200000 1625885.37563051 6731.16576092
0.02300000 1622328.85821414 6424.42257096
0.02400000 1618622.05706175 8497.76618705
0.02500000 1614767.54998019 8186.87185230
0.02600000 1610765.30890272 6523.59979943
0.02700000 1606617.57547232 8772.13236385
0.02800000 1602323.91037803 11849.18586064
0.02900000 1597887.04301039 10066.68883317
0.03000000 1593308.24832092 9631.54880382
0.03100000 1588587.74977226 10675.31016967
0.03200000 1583727.24415386 10191.28528552
0.03300000 1578730.24566061 8856.67708645
0.03400000 1573594.96804297 9913.64875609
0.03500000 1568324.67175306 8468.95361855
0.03600000 1562920.44857137 14746.15511375
0.03700000 1557384.41106476 9764.80070897
0.03800000 1551717.47397600 14524.07622858
0.03900000 1545922.32075725 14840.85496655
0.04000000 1539998.28675032 11365.18788287
0.04100000 1533949.71364790 12563.04873728
0.04200000 1527777.24932019 10839.58008681
0.04300000 1521481.65131555 17071.02492016
0.04400000 1515066.66717490 15340.05071757
0.04500000 1508533.39647881 13531.54519516
0.04600000 1501882.08100936 11647.09607966
0.04700000 1495116.60316178 17223.74406946
0.04800000 1488237.72880387 16407.82172349
0.04900000 1481249.02288756 11109.36818877
0.05000000 1474149.92766038 13532.69696609
0.05100000 1466945.45156092 14874.82757176
0.05200000 1459633.24781223 12764.49334696
0.05300000 1452219.66333704 14115.57578567
0.05400000 1444704.60580280 13110.69490906
0.05500000 1437090.67324806 12071.56221841
0.05600000 1429378.83905781 13443.30860866
0.05700000 1421574.07277030 16078.00351353
0.05800000 1413675.43651895 16264.33665657
0.05900000 1405685.47147545 17711.63776783
0.06000000 1397608.04644913 19182.17133368
0.06100000 1389444.09935054 20674.92916450
0.06200000 1381196.38777200 15662.76776947
0.06300000 1372867.48465245 15815.43416265
0.06400000 1364456.48149757 15964.14158011
0.06500000 1355969.12179987 16108.91392052
0.06600000 1347406.99413272 20312.16138693
0.06700000 1338770.91908037 16386.55681642
0.06800000 1330064.25914466 15142.78229918
0.06900000 1321289.91889501 16648.25375753
0.07000000 1312448.32217712 20966.36292860
0.07100000 1303542.16227510 16893.90721436
0.07200000 1294574.61982117 21263.38912668
0.07300000 1285547.78745900 15696.53922035
0.07400000 1276464.27605158 25848.40280141
0.07500000 1267325.44757444 18781.76401340
0.07600000 1258132.34785797 21797.14394850
0.07700000 1248890.54463120 14612.02005732
0.07800000 1239600.08634412 20564.96639687
0.07900000 1230263.14246202 20668.42176279
0.08000000 1220883.60203136 19283.85739871
0.08100000 1211462.27890069 20861.38142145
0.08200000 1202001.34052298 16461.40913092
0.08300000 1192503.98591224 15025.55092767
0.08400000 1182971.69951393 18099.46785213
0.08500000 1173407.12437498 21191.73366106
0.08600000 1163811.81988413 15187.74496258
0.08700000 1154189.99239011 16758.83947646
0.08800000 1144540.71443560 21391.46695743
0.08900000 1134869.75051964 18384.89082195
0.09000000 1125176.30287715 18430.38870690
0.09100000 1115463.45826023 16932.73609191
0.09200000 1105733.41866950 16967.48010673
0.09300000 1095990.80083792 15453.47101801
0.09400000 1086232.19050868 15478.80944221
0.09500000 1076463.88952709 23251.62110667
0.09600000 1066686.53768747 17072.31883822
0.09700000 1056904.90291893 15536.50280332
0.09800000 1047118.35787183 29544.44585646
0.09900000 1037329.97970574 17115.94546998
0.10000000 1027540.36638745 20237.40846771
0.10100000 1017751.95700691 15571.60567457
0.10200000 1007967.87420429 23359.65658344
0.10300000 998189.07301106 21800.45038007
0.10400000 988418.82204644 18681.11661553
0.10500000 978659.42251577 17116.75410513
0.10600001 968908.35324331 17106.07778141
0.10700001 959172.90531326 17092.46197701
0.10800001 949451.78904008 18628.24497764
0.10900001 939748.97769492 20157.61652029
0.11000001 930064.11882855 17034.12513813
0.11100001 920399.99023738 18555.26467664
0.11200001 910758.44133916 23156.03446117
0.11300001 901140.70818566 18491.40820256
0.11400001 891549.44318710 19992.99720483
0.11500001 881986.24189355 16881.21746475
0.11600001 872451.80037162 16842.68279932
0.11700001 862949.21346644 16801.62197746
0.11800001 853477.55940827 19804.94769885
0.11900001 844039.55049165 15192.71262445
0.12000001 834636.76620695 21208.12122833
0.12100001 825273.22193371 18123.00080740
0.12200001 815947.04525857 18065.06843309
0.12300001 806661.87151692 24006.25842738
0.12400001 797416.73001925 16446.72083157
0.12500001 788214.00641647 17876.69450788
0.12600001 779057.25502940 19293.35382997
0.12700001 769945.18558112 22174.42238974
0.12800001 760879.42133189 14723.01749666
0.12900001 751862.32620815 24924.23728853
0.13000001 742894.93476164 16057.67477175
0.13100001 733976.79836460 23252.38606825
0.13200001 725111.08266596 18805.75681545
0.13300001 716298.08127053 15837.35132351
0.13400001 707538.61416545 17193.18913480
0.13500001 698834.62120223 15681.84963915
0.13600001 690186.38341627 15601.66393275
0.13700001 681595.64629692 15519.93359800
0.13800001 673061.13473921 15436.65785317
0.13900001 664587.28058490 18143.23361557
0.14000001 656171.98289394 15265.84190197
0.14100001 647818.73290000 16558.24759386
0.14200001 639526.24522570 15089.62246781
0.14300001 631297.33849127 20454.03473188
0.14400001 623128.50898910 16263.65485177
0.14500001 615026.22718840 14815.98251187
0.14600001 606987.83500007 13384.08239314
0.14700001 599016.03197567 19947.23480583
0.14800001 591107.68902325 19816.88620944
0.14900001 583267.19214901 14435.86368678
0.15000001 575493.16985728 18248.88927721
0.15100001 567787.20802805 16829.21364004
0.15200001 560150.24623861 12855.44875779
0.15300001 552582.04511642 17870.50418236
0.15400001 545081.05348658 15207.76210995
0.15500001 537651.59126493 15097.25739520
0.15600001 530290.14239438 13737.16678705
0.15700001 523002.10720475 17353.21073607
0.15800001 515781.45203697 22142.49878104
0.15900001 508634.09548667 12207.21886787
0.16000001 501555.87790622 14535.09002781
0.16100001 494551.47363938 18026.40206508
0.16200001 487618.29243038 15498.94815654
0.16300001 480756.73548538 11826.61625125
0.16400001 473967.80694036 18769.12604092
0.16500001 467250.31613368 13961.44010521
0.16600001 460606.12647965 11538.18401307
0.16700001 454033.30491588 13729.96778891
0.16800001 447533.59549861 13613.97261787
0.16900001 441107.50632905 15747.53871952
0.17000001 434752.62045334 13381.68628943
0.17100001 428470.85270950 13265.45822630
0.17200001 422261.59011917 15340.76429346
0.17300001 416124.70199969 16291.28285264
0.17400001 410061.09426908 11840.51465620
0.17500001 404068.80487040 11734.15864761
0.17600001 398147.38207540 11627.89484269
0.17700001 392300.96323248 12569.32345563
0.17800001 386524.43592909 15567.27239232
0.17900001 380819.28198064 12338.54531897
0.18000001 375186.97771639 15279.49038923
0.18100001 369625.99578918 17154.34327489
0.18200001 364134.02521689 9995.47946437
0.18300001 358713.46299418 10890.54125096
0.18400001 353363.13349454 10786.41015948
0.18500001 348083.23709048 9711.52277362
0.18600001 342873.21078333 13464.63162358
0.18700001 337731.68893307 11428.84089345
0.18800001 332658.04909183 11317.02736479
0.18900001 327656.16292766 11205.84130157
0.19000001 322718.32049841 14793.40851062
0.19100001 317851.02716107 10984.93201773
0.19200001 313049.32267598 11781.61181561
0.19300001 308316.44497189 13458.01345895
0.19400001 303648.06430364 15098.90071098
0.19500001 299046.27079404 12308.74508753
0.19600001 294508.93116924 8702.73932731
0.19700001 290038.14600846 10336.96001224
0.19800001 285630.47736234 13641.71224352
0.19900001 281287.23802256 8438.61753949
0.20000001 277005.42942385 12527.57113776
0.20100001 272788.33802113 10745.13314249
0.20200001 268632.06161297 11451.78532781
0.20300001 264537.85560024 9713.83051676
0.20400001 260505.01579904 9612.63553733
0.20500001 256531.76877457 11890.24804472
0.20600001 252618.22911232 9412.55566164
0.20700001 248764.12934611 10089.87356322
0.20800001 244967.96698059 11519.61919180
0.20900001 241232.11348015 9878.45551398
0.21000001 237550.79101124 9774.02775820
0.21100001 233927.47867764 8182.78359097
0.21200001 230359.21186333 8095.97488367
0.21300001 226846.16149766 8009.93834116
0.21400001 223388.46687261 9365.56191641
0.21500001 219985.70318307 9265.79825614
0.21600001 216634.80644049 7756.60961132
0.21700001 213337.29249923 7673.74277401
0.21800001 210092.02965264 11042.43760064
0.21900001 206897.17667894 10924.17144516
0.22000001 203752.65971720 10807.04158238
0.22100001 200659.77584804 7350.16793686
0.22200001 197615.69776321 7932.29448329
0.22300001 194620.01070794 9154.92573660
0.22400001 191671.56752972 7115.80728102
0.22500001 188772.77664812 7039.33717408
0.22600001 185918.70039935 6963.58525275
0.22700001 183111.68916035 6888.66207197
0.22800001 180349.17209156 7433.99322517
0.22900001 177631.17703936 7353.93107720
0.23000001 174957.62950065 10912.10786801
0.23100001 172328.49311014 8395.84458139
0.23200001 169740.12428413 7118.90114915
0.23300001 167195.14831583 8802.82497515
0.23400001 164690.36897074 8708.00367118
0.23500001 162226.25637071 7465.65267128
0.23600001 159802.49950230 6817.17495120
0.23700001 157418.36026957 7867.77001840
0.23800001 155072.55872005 5559.35149306
0.23900001 152764.96246316 6049.49279968
0.24000001 150494.29497199 7616.51662880
0.24100001 148261.66954986 5381.89885923
0.24200001 146065.14290677 5856.48218187
0.24300001 143903.50108066 6846.92890530
0.24400001 141777.03120039 8857.52044324
0.24500001 139684.34409973 6700.65830343
0.24600001 137625.83001529 6628.74841626
0.24700001 135601.06767682 7062.10393869
0.24800001 133608.48664935 7984.44353988
0.24900001 131646.86121513 6911.46054076
0.25000001 129717.78044859 5860.64959792
0.25100001 127818.93775782 5314.71168340
0.25200001 125952.10850221 4779.88274379
0.25300001 124113.41615139 5201.59351699
0.25400001 122304.83486533 5145.97617042
0.25500001 120523.46431200 5090.91137340
0.25600001 118771.68891089 6410.10835380
0.25700001 117046.51626068 6794.55059041
0.25800001 115348.55390883 4929.42068452
0.25900001 113678.09620122 5320.13515394
0.26000001 112032.86550042 8333.56509455
0.26100001 110412.81582258 6508.83580071
0.26200001 108819.07888912 5151.49543836
0.26300001 107248.74460262 5521.16563339
0.26400001 105703.46251966 4621.88411737
0.26500001 104181.67910294 4572.53411220
0.26600001 102682.96630199 4523.69829449
0.26700001 101207.36233971 4882.24339030
0.26800001 99754.36491687  4427.59769635
0.26900001 98322.54876277  5176.68243733
0.27000001 96912.87975512  4333.45962332
0.27100001 95524.19000763  4287.12585042
0.27200001 94156.97333411  4626.87388860
0.27300001 92809.85150183  4577.38209269
0.27400001 91481.36079591  4528.32757370
0.27500001 90174.61964288  3733.22942989
0.27600001 88884.76032273  5909.05914591
0.27700001 87615.93803402  4018.94326782
0.27800001 86364.42965381  4698.65701769
0.27900001 85131.73148335  4648.19275898
0.28000001 83916.34086167  3537.07393472
0.28100001 82718.87012405  4198.81004622
0.28200001 81538.99151912  3807.46338919
0.28300001 80375.98867941  4451.22246374
0.28400001 79228.92671641  3725.74045518
0.28500001 78099.01197450  3350.44777229
0.28600001 76984.74954623  3645.61298732
0.28700001 75886.99088756  4261.81360997
0.28800001 74803.34810197  3566.99782308
0.28900001 73736.80321263  3528.30620073
0.29000001 72684.28060580  4759.00349793
0.29100001 71647.30824799  3765.78269977
0.29200001 70624.41691415  4966.30923248
0.29300001 69616.18321824  3684.08859030
0.29400001 68621.32088029  4858.38974830
0.29500001 67641.73778543  3603.95195981
0.29600001 66674.48620164  3267.38335098
0.29700001 65721.45949585  2937.74937853
0.29800001 64781.77030968  4067.64755030
0.29900001 63855.66649305  4022.90717950
0.30000001 62941.45847857  3694.34908029
0.30100001 62041.15070722  3091.51068609
0.30200001 61152.45244283  3891.13073315
0.30300001 60277.01359073  2748.63194986
0.30400001 59413.67648498  2989.99341066
0.30500001 58562.84798721  2688.03484987
0.30600001 57722.81702282  3455.57660467
0.30700001 56895.58129716  2628.57598037
0.30800001 56079.84051555  4418.81124263
0.30900001 55275.87134364  2827.36095309
0.31000001 54483.44699072  3558.31409143
0.31100001 53701.67748294  3015.88635023
0.31200001 52932.23676971  3976.26981440
0.31300001 52172.99566981  2948.81785487
0.31400001 51426.21005708  2915.86624829
0.31500001 50688.84368040  2402.65130421
0.31600002 49963.65567595  3801.23510381
0.31700002 49248.31436247  2584.05917695
0.31800002 48543.55753120  2787.37120542
0.31900002 47849.98428263  3904.55890234
0.32000002 47167.09319668  3406.64346743
0.32100002 46493.92343004  2919.35359040
0.32200002 45832.25689323  2664.68754195
0.32300002 45179.07120367  2195.70296447
0.32400002 44537.38148905  3473.91592064
0.32500002 43905.31080707  2576.36376015
0.32600002 43283.62595057  2335.36814875
0.32700002 42671.97770927  2939.24596380
0.32800002 42071.00975293  3737.16797332
0.32900002 41478.11857340  2874.43375325
0.33000002 40896.43099204  2233.55868440
0.33100002 40323.33826486  2008.10234068
0.33200002 39761.55568515  2184.69878058
0.33300002 39208.59070808  2357.22058500
0.33400002 38665.84819337  2137.25486010
0.33500002 38132.30352185  2306.24182622
0.33600002 37607.92655619  2091.18885519
0.33700002 37092.99261894  2068.67629632
0.33800002 36588.51319249  2232.63118074
0.33900002 36092.44493816  2208.85773482
0.34000002 35605.79000070  2549.73074270
0.34100002 35128.66363012  2522.94074140
0.34200002 34661.50155602  1783.33433951
0.34300002 34202.65556863  2647.28566639
0.34400002 33753.92106030  1921.44204736
0.34500002 33313.76837965  1901.88312687
0.34600002 32883.45237358  3080.85079879
0.34700002 32460.89640871  1863.90476006
0.34800002 32048.30637579  2684.36626917
0.34900002 31644.26798482  1827.45656267
0.35000002 31249.55861214  2303.40507440
0.35100002 30864.37395963  1955.56682670
0.35200002 30486.40436473  2098.53174384
0.35300002 30118.60757876  1919.15776582
0.35400002 29758.93654731  1743.12979082
0.35500002 29408.41523343  2198.57322698
0.35600002 29066.11705485  1712.13970621
0.35700002 28732.40741013  1697.22338610
0.35800002 28407.60766283  1682.72471961
0.35900002 28091.73088005  1516.95353937
0.36000002 27784.13625630  1654.96215450
0.36100002 27484.42828167  2686.32814749
0.36200002 27194.55398375  1480.74353455
0.36300002 26911.51576217  1616.30571324
0.36400002 26637.41349253  1604.23830358
0.36500002 26370.74128636  2026.85527128
0.36600002 26113.15762666  1581.28233498
0.36700002 25863.11277061  1427.64389256
0.36800002 25621.98726663  1418.17706239
0.36900002 25388.55829280  1549.97155720
0.37000002 25162.36243257  1400.28553570
0.37100002 24944.10747702  1531.06938947
0.37200002 24734.20639993  2214.20626181
0.37300002 24531.85381743  1789.10818366
0.37400002 24337.04522076  2190.33417363
0.37500002 24149.92264340  1362.05570161
0.37600002 23970.59502945  1762.19837707
0.37700002 23798.38986575  1754.17940010
0.37800002 23633.59825262  1477.92713674
0.37900002 23476.82124127  1471.99676156
0.38000002 23326.57926951  1599.73688209
0.38100002 23182.80715152  1594.04989525
0.38200002 23047.27848205  1324.06621152
0.38300002 22917.97885965  1980.11346728
0.38400002 22795.91908482  1843.05014532
0.38500002 22680.16485644  1575.81792888
0.38600002 22572.01680067  1965.45845603
0.38700002 22469.63291640  1569.27923723
0.38800002 22373.80049451  1566.61358484
0.38900002 22284.50690437  1825.10120193
0.39000002 22202.08993416  1953.22895449
0.39100002 22125.10016005  1300.95595105
0.39200002 22055.02643236  1430.15825676
0.39300002 21990.27905203  1559.55066426
0.39400002 21932.75886468  1689.37083159
0.39500002 21879.82934460  1559.59430957
0.39600002 21832.94453674  1560.18229051
0.39700002 21791.03646812  1691.20242042
0.39800002 21755.92042780  1692.71946908
0.39900002 21725.14379429  1694.56129624
0.40000002 21700.17588691  1305.26564144
0.40100002 21680.06632926  1438.03886775
0.40200002 21665.51626300  1964.52078023
0.40300002 21655.68136650  1837.26809418
0.40400002 21650.78008401  1578.34194291
0.40500002 21650.11369132  1450.34118490
0.40600002 21655.15157136  1322.04706607
0.40700002 21664.11520275  1458.42830455
0.40800002 21677.35074847  1728.87719086
0.40900002 21694.62600142  1334.21956231
0.41000002 21716.75524466  1740.48943155
0.41100002 21742.63549141  2015.54240555
0.41200002 21771.69644459  1348.75665865
0.41300002 21805.88503004  1895.80373434
0.41400002 21843.03976103  1631.67514746
0.41500002 21883.73348828  2048.31755156
0.41600002 21927.08756841  1508.69333163
0.41700002 21975.11880248  1515.62401562
0.41800002 22026.77113653  2076.57394729
0.41900002 22079.69014780  1669.22465427
0.42000002 22136.25776401  1397.90474404
0.42100002 22196.34600751  1967.04027639
0.42200002 22258.81528805  1836.01846604
0.42300002 22323.58129184  1987.69177241
0.42400002 22390.70860578  2426.59316014
0.42500002 22460.84552779  1865.82252641
0.42600002 22531.98849742  1731.80871798
0.42700002 22606.49259681  1741.60427219
0.42800002 22682.26526213  1605.56422266
0.42900002 22760.76441001  1908.49018622
0.43000002 22840.91613377  1624.33182783
0.43100002 22921.21919076  1485.29507395
0.43200002 23004.43217287  1643.55173447
0.43300002 23088.31904503  1653.35460516
0.43400002 23174.02403729  1663.31565410
0.43500002 23260.35949551  1673.35034140
0.43600002 23348.48839350  1836.59218407
0.43700002 23436.93049316  1539.80640637
0.43800002 23525.72066486  1549.16877919
0.43900002 23616.38600697  1714.54970536
0.44000002 23706.82735373  1568.20670377
0.44100002 23798.23877864  2366.73495870
0.44200002 23889.89338735  2222.47688715
0.44300002 23981.99806800  2555.52183523
0.44400002 24074.12447343  2089.03225018
0.44500002 24165.72277177  2101.69300906
0.44600002 24257.43448744  1951.75327136
0.44700002 24349.87788980  2290.83662044
0.44800002 24441.09998734  2304.55142702
0.44900002 24532.60025797  2483.92589384
0.45000002 24623.99753636  1832.39486351
0.45100002 24713.78122115  2010.71333545
0.45200002 24803.65628252  1853.94937670
0.45300002 24892.34637003  1695.16886814
0.45400002 24980.53256911  2045.90571437
0.45500002 25068.12388308  1886.12573035
0.45600002 25154.19687046  2241.61636035
0.45700002 25239.63036797  2254.15149500
0.45800002 25323.47370934  3312.69037029
0.45900002 25406.10521585  1928.32347727
0.46000002 25487.99856998  2467.49325851
0.46100002 25567.57644667  2657.74969759
0.46200002 25646.36452092  1959.25411043
0.46300002 25723.52803499  1969.39339970
0.46400002 25798.48354594  1799.44431261
0.46500002 25872.95655515  1989.37172381
0.46600002 25944.55370342  2180.89928767
0.46700002 26014.44415483  2739.32109934
0.46800002 26083.15422789  2201.93998428
0.46900002 26149.08823236  1843.51080776
0.47000002 26213.38475281  2037.17329262
0.47100002 26275.73187166  2604.45066656
0.47200002 26336.07651315  2615.96260404
0.47300002 26394.18034803  1876.62631169
0.47400002 26449.43400962  2826.78339376
0.47500002 26502.90628249  2270.76911791
0.47600002 26554.81468326  2659.99591290
0.47700002 26603.09224881  2670.41852651
