# SAXS profile: number of points = 501, q_min = 0, q_max = 0.5, delta_q = 0.001
#    q    intensity    error
0.00000000 1664650.74656090 249.69761198
0.00100000 1664569.68115631 599.24509945
0.00200000 1664326.41936358 898.73629491
0.00300000 1663921.18315491 1098.18802000
0.00400000 1663353.84821375 1372.26697692
0.00500000 1662624.91059153 2394.17996602
0.00600000 1661734.27362105 2093.78527000
0.00700000 1660682.49237442 2391.38288841
0.00800000 1659469.40870737 2688.34055561
0.00900000 1658096.23770008 3233.28780173
0.01000000 1656562.33439689 3279.99356373
0.01100000 1654868.98766082 4468.14646122
0.01200000 1653016.14823205 4190.39611949
0.01300000 1651004.89507099 3467.11043257
0.01400000 1648835.31163873 4080.86757721
0.01500000 1646508.70728540 4741.94528814
0.01600000 1644024.56124213 5449.94166415
0.01700000 1641385.12795336 5318.08805313
0.01800000 1638590.35603738 6537.97581478
0.01900000 1635640.81270030 5397.61492547
0.02000000 1632537.70085029 7199.49158642
0.02100000 1629283.07012751 5914.29781271
0.02200000 1625875.46605758 5609.27061274
0.02300000 1622318.01329797 6424.37962509
0.02400000 1618610.29928895 7890.72556883
0.02500000 1614754.77424890 6297.54390718
0.02600000 1610751.54358635 7175.89845489
0.02700000 1606602.64806348 9446.82400329
0.02800000 1602307.94340154 8364.04784813
0.02900000 1597869.91874573 8628.49795740
0.03000000 1593289.88988763 9631.43782708
0.03100000 1588568.27994417 9150.15371351
0.03200000 1583706.51065677 9407.21710658
0.03300000 1578708.06368249 10466.83494474
0.03400000 1573571.57275126 9087.37625193
0.03500000 1568299.84790739 10162.58348373
0.03600000 1562894.32157684 12143.68943986
0.03700000 1557356.81864756 8876.93427683
0.03800000 1551688.47510447 10892.85359935
0.03900000 1545891.73347322 12057.95607950
0.04000000 1539966.24436332 10417.87212587
0.04100000 1533916.10100389 10630.03907284
0.04200000 1527741.95191122 12810.11686107
0.04300000 1521444.76775910 18074.76467997
0.04400000 1515027.96648436 13294.37102332
0.04500000 1508493.10575609 14572.04407869
0.04600000 1501840.01349235 12705.56710479
0.04700000 1495072.83042517 13993.88234361
0.04800000 1488192.06051153 12032.03336906
0.04900000 1481201.57502600 14441.71602873
0.05000000 1474100.78481880 13532.24583478
0.05100000 1466894.26683603 19451.01888435
0.05200000 1459580.20325420 15084.76210360
0.05300000 1452164.66719899 16467.54809372
0.05400000 1444647.69263300 20261.18483404
0.05500000 1437031.74524136 13278.17394545
0.05600000 1429317.81806923 15886.86828919
0.05700000 1421511.04712265 16077.29069342
0.05800000 1413610.15310206 12510.45043910
0.05900000 1405618.25250388 13915.62134973
0.06000000 1397538.67829389 14066.22745419
0.06100000 1389372.65899977 14213.28296577
0.06200000 1381122.74660234 18272.25479166
0.06300000 1372791.52099471 13178.79921773
0.06400000 1364378.26067220 17293.49526278
0.06500000 1355888.76886362 22819.60904743
0.06600000 1347324.33288628 16248.73221486
0.06700000 1338685.93905590 17750.97638261
0.06800000 1329977.15312080 16518.31701497
0.06900000 1321200.16972484 18034.38316109
0.07000000 1312356.33767411 16771.91478088
0.07100000 1303447.79608794 14077.23685710
0.07200000 1294477.89203952 19844.34701461
0.07300000 1285448.76044277 24256.41924610
0.07400000 1276362.87534159 15794.99132257
0.07500000 1267221.44997874 17335.59024827
0.07600000 1258026.04530433 23248.32240712
0.07700000 1248781.77558059 16071.82220531
0.07800000 1239488.71492942 22031.91294108
0.07900000 1230149.32076575 14761.79254157
0.08000000 1220767.16640876 16315.55394443
0.08100000 1211343.46928232 17879.43044548
0.08200000 1201879.94003682 20948.76833787
0.08300000 1192380.10588527 16526.38904319
0.08400000 1182845.40333067 16589.40756040
0.08500000 1173278.13399334 21189.40409466
0.08600000 1163680.23407871 18223.23332128
0.08700000 1154055.93550320 21326.95468956
0.08800000 1144404.21113690 19861.13601703
0.08900000 1134730.49395817 24510.17982073
0.09000000 1125034.24802253 19963.73366897
0.09100000 1115318.92457284 20008.82244687
0.09200000 1105586.51036197 15422.93254422
0.09300000 1095841.16176514 16996.49721768
0.09400000 1086079.91858957 23214.95935090
0.09500000 1076309.04464972 20148.50626288
0.09600000 1066529.06815970 20173.39827255
0.09700000 1056744.89455231 24854.64108836
0.09800000 1046955.82066389 21766.21253500
0.09900000 1037164.63825820 18668.96436651
0.10000000 1027372.62069492 21790.57430969
0.10100000 1017581.57383711 15568.99881195
0.10200000 1007794.96340668 17127.47620871
0.10300000 998013.55811708 21796.61713461
0.10400000 988240.45941175 18677.74556158
0.10500000 978478.61317991 21780.93495416
0.10600001 968725.02397179 18657.64483961
0.10700001 958987.16653098 17089.15211176
0.10800001 949263.33990073 18624.54760536
0.10900001 939558.05996699 20153.52133483
0.11000001 929870.65935767 15482.34720705
0.11100001 920204.08793767 20097.25822660
0.11200001 910559.91977184 16977.39050339
0.11300001 900939.73889586 23109.10539067
0.11400001 891345.99071243 23063.57859562
0.11500001 881780.28045417 15342.97760237
0.11600001 872243.46413000 16838.66086799
0.11700001 862738.43118643 22905.70642674
0.11800001 853264.41126428 16753.84750425
0.11900001 843824.04216952 22783.25021171
0.12000001 834418.94374008 21202.58635918
0.12100001 825053.20589715 24157.55900669
0.12200001 815724.39566781 16555.12739001
0.12300001 806436.98161656 19499.64713420
0.12400001 797189.54386642 17936.76558213
0.12500001 787984.60882880 25317.94667466
0.12600001 778825.53206286 16320.28979345
0.12700001 769711.20005444 16256.30131125
0.12800001 760643.34340209 16190.29432735
0.12900001 751624.25385917 14656.67364105
0.13000001 742654.60570020 20430.42916580
0.13100001 733734.41632783 18886.32476653
0.13200001 724866.49702024 18799.41348643
0.13300001 716051.55339345 23028.21904275
0.13400001 707289.73565904 20051.66495128
0.13500001 698583.83282781 15676.22194776
0.13600001 689933.79346997 15595.95413675
0.13700001 681341.20016865 21155.64526279
0.13800001 672804.86796385 15430.78037440
0.13900001 664328.90072217 19531.27060229
0.14000001 655911.90680228 13872.53748311
0.14100001 647556.86098948 15172.25796855
0.14200001 639262.75949970 16454.62420561
0.14300001 631031.88296597 17719.37610947
0.14400001 622861.37379173 16256.68262279
0.14500001 614757.35099705 16155.82394631
0.14600001 606717.50972290 16053.74606459
0.14700001 598744.10120800 18608.96754345
0.14800001 590834.24162444 14525.66051564
0.14900001 582992.41299790 19675.99486701
0.15000001 575216.93761429 15634.39710203
0.15100001 567509.41707241 14233.13685177
0.15200001 559871.05391876 12849.04129374
0.15300001 552301.65642028 20413.07018457
0.15400001 544799.44270391 13933.24640468
0.15500001 537368.68768319 15089.31346225
0.15600001 530006.17120029 13729.81051292
0.15700001 522716.72432637 17343.74173172
0.15800001 515495.30902520 14753.47644065
0.15900001 508346.74764176 15860.41927504
0.16000001 501267.60346347 14526.73583407
0.16100001 494262.17555379 15613.74286278
0.16200001 487328.06340686 15489.72322660
0.16300001 480465.65672973 13001.40128487
0.16400001 473675.93747281 12895.82800650
0.16500001 466957.69319597 13952.69653142
0.16600001 460312.70070121 12683.91706667
0.16700001 453739.23914793 16007.92111295
0.16800001 447238.94104695 11337.50769086
0.16900001 440812.30865477 14612.92872190
0.17000001 434456.84336383 15601.34598189
0.17100001 428174.68123824 14360.97948687
0.17200001 421965.11356581 12044.99473554
0.17300001 415827.81446673 10853.10647011
0.17400001 409763.84064071 11831.93145728
0.17500001 403771.27450630 10659.56215039
0.17600001 397849.63643016 17956.94418837
0.17700001 392003.17186483 10466.48518313
0.17800001 386226.62634546 12444.22248862
0.17900001 380521.30269856 11301.48322396
0.18000001 374889.03602967 11196.06158987
0.18100001 369328.10370972 13107.45501981
0.18200001 363836.18546802 13982.22526803
0.18300001 358415.86608850 15827.64539416
0.18400001 353065.76894718 9797.57555113
0.18500001 347786.05087426 13584.52378891
0.18600001 342576.31835555 11531.11942062
0.18700001 337435.27614786 11418.81028432
0.18800001 332362.08652321 16018.19151678
0.18900001 327360.74394901 13994.67246503
0.19000001 322423.36454859 9237.42983077
0.19100001 317556.86475107 12803.89339175
0.19200001 312755.78420393 10865.13645664
0.19300001 308023.43728285 10756.17893817
0.19400001 303355.94397590 9760.47795865
0.19500001 298754.96317496 11418.41523213
0.19600001 294218.32674456 11302.39755600
0.19700001 289748.58692826 9466.08678229
0.19800001 285341.96057427 9369.20371823
0.19900001 280999.73766824 9272.99178129
0.20000001 276718.93857171 10845.99930991
0.20100001 272503.05484185 9908.21154233
0.20200001 268347.90865428 8988.31362519
0.20300001 264255.00138154 9703.44410936
0.20400001 260223.32438580 11202.61464431
0.20500001 256251.46529244 8709.98771698
0.20600001 252339.24465122 8618.64730845
0.20700001 248486.68339103 10078.62035475
0.20800001 244692.08739587 8438.20703272
0.20900001 240957.77108918 10626.23820735
0.21000001 237278.02122929 10513.78961768
0.21100001 233656.38237657 8916.32797300
0.21200001 230089.64675662 8821.63747369
0.21300001 226578.58067512 8000.49006187
0.21400001 223122.62850294 10073.98715317
0.21500001 219721.64615512 10678.47250799
0.21600001 216372.58604282 7042.92800867
0.21700001 213077.13582003 9754.67173904
0.21800001 209833.77080919 8271.64763639
0.21900001 206640.93916445 8182.98157782
0.22000001 203498.62042926 7420.57754482
0.22100001 200407.66514420 9343.00579079
0.22200001 197365.89413368 7262.07841803
0.22300001 194372.32651440 11102.54781549
0.22400001 191426.13073055 7752.75866119
0.22500001 188529.59788623 7669.38440468
0.22600001 185677.95531966 6954.56814537
0.22700001 182873.28846783 6879.69343749
0.22800001 180113.16466192 6186.88749871
0.22900001 177397.77275343 6732.24579437
0.23000001 174726.55076581 7265.13032442
0.23100001 172099.87396688 8384.70625620
0.23200001 169514.18849150 7109.42540156
0.23300001 166971.78078565 7032.85173931
0.23400001 164469.69609124 6957.06847370
0.23500001 162008.25958707 6882.11119276
0.23600001 159587.10592799 7375.31844929
0.23700001 157205.80956583 6734.69720034
0.23800001 154862.70763495 6107.01116444
0.23900001 152557.96075907 6590.50421652
0.24000001 150290.07588768 6519.58380039
0.24100001 148060.36136717 8061.88705778
0.24200001 145866.68903832 5848.52517364
0.24300001 143707.98059569 5259.71233860
0.24400001 141584.55020977 8325.17194614
0.24500001 139494.81361953 5662.09475266
0.24600001 137439.28672746 6110.55097696
0.24700001 135417.52986366 7556.29852385
0.24800001 133428.04162763 5481.89134960
0.24900001 131469.40749688 4930.10301436
0.25000001 129543.42972747 7803.69657596
0.25100001 127647.67937066 5790.09901018
0.25200001 125784.07450777 5250.85643874
0.25300001 123948.58128167 5194.68528728
0.25400001 122143.11771253 5139.17192090
0.25500001 120364.88044929 6008.61511631
0.25600001 118616.21553200 4572.65532510
0.25700001 116894.26282151 6785.71227784
0.25800001 115199.56546362 6265.70466202
0.25900001 113532.32887965 5756.08934655
0.26000001 111890.40463181 5694.66241318
0.26100001 110273.61968771 5633.87949642
0.26200001 108683.23334691 4716.30913425
0.26300001 107116.13865888 4665.97922076
0.26400001 105574.09310378 6294.85559917
0.26500001 104055.73421732 6227.73598760
0.26600001 102560.16311309 5339.79514516
0.26700001 101087.92766364 4876.48186125
0.26800001 99638.27109628  6030.60664348
0.26900001 98209.73956250  5568.49249670
0.27000001 96803.47944340  5902.59243838
0.27100001 95418.08452638  5839.58704936
0.27200001 94054.12586433  4236.66830005
0.27300001 92710.31025499  3810.39393180
0.27400001 91385.16907107  4523.56608309
0.27500001 90081.68803309  3729.38206106
0.27600001 88795.10697313  4796.26793014
0.27700001 87529.65364507  6204.97744056
0.27800001 86281.39398259  5055.22711269
0.27900001 85052.07072133  5001.06199510
0.28000001 83839.85853750  4594.00526599
0.28100001 82645.73094302  3845.50604278
0.28200001 81469.05949646  5187.54260896
0.28300001 80309.36359151  4105.41486111
0.28400001 79165.42811600  3384.32221214
0.28500001 78038.78180277  4017.43667736
0.28600001 76927.64769491  4967.60308503
0.28700001 75833.18179923  4258.79169142
0.28800001 74752.69615319  3888.63543795
0.28900001 73689.29606966  3526.03298383
0.29000001 72640.00183936  4439.03072252
0.29100001 71606.01455822  3763.61230333
0.29200001 70586.27004068  3412.49338665
0.29300001 69581.14345223  4602.79285724
0.29400001 68589.32788304  3642.09348299
0.29500001 67612.70329141  3902.60541872
0.29600001 66648.56469093  4453.79054630
0.29700001 65698.32019862  3524.05806228
0.29800001 64761.76719119  4066.39155443
0.29900001 63838.62642042  3160.01215740
0.30000001 62927.39150112  3693.52341901
0.30100001 62029.80768034  4214.92563141
0.30200001 61144.03335409  3612.69538175
0.30300001 60271.51465300  3298.05743795
0.30400001 59410.84545207  3805.26483135
0.30500001 58562.73065164  3225.63535700
0.30600001 57725.54754470  3721.56622640
0.30700001 56900.99978531  2891.70894599
0.30800001 56087.89225731  3379.57610797
0.30900001 55286.59543283  2570.82680934
0.31000001 54496.75837709  2796.50128852
0.31100001 53717.54958797  3268.17587166
0.31200001 52950.71176039  2734.63963834
0.31300001 52193.88825750  2949.99870398
0.31400001 51449.61334537  3403.39208394
0.31500001 50714.66758374  2644.26289301
0.31600002 49991.80459524  2852.53250526
0.31700002 49278.81698490  2820.71961777
0.31800002 48576.49622629  2556.82399993
0.31900002 47885.18645108  2758.18687018
0.32000002 47204.43096787  2954.76149634
0.32100002 46533.51229825  2697.08250051
0.32200002 45873.95044413  2889.37090554
0.32300002 45222.82329899  2637.39517968
0.32400002 44583.29712827  3694.84092446
0.32500002 43953.22833144  2364.24426390
0.32600002 43333.52050910  2975.71299427
0.32700002 42723.83907335  2942.81817472
0.32800002 42124.77460230  2286.74349757
0.32900002 41533.79021619  2878.29179828
0.33000002 40953.83688043  2033.35809740
0.33100002 40382.58640896  2212.15818824
0.33200002 39822.40112973  2585.86773981
0.33300002 39271.20318068  2360.98484703
0.33400002 38730.10797682  2919.28202700
0.33500002 38198.20102364  2695.26519187
0.33600002 37675.33122837  3428.07855081
0.33700002 37162.00282802  2072.52499587
0.33800002 36658.92556005  2423.33838891
0.33900002 36164.19226254  2213.24867128
0.34000002 35678.98356461  2737.47014364
0.34100002 35203.18047407  2167.10789262
0.34200002 34737.29190926  1965.95712871
0.34300002 34279.71976556  1945.71698604
0.34400002 33832.20434417  1925.89832350
0.34500002 33393.12889141  2079.72416585
0.34600002 32963.93052857  3946.27713013
0.34700002 32542.41152159  2038.45675426
0.34800002 32130.84110435  2354.86945607
0.34900002 31727.82313326  1998.85295206
0.35000002 31334.00591661  2309.62968550
0.35100002 30949.68961678  1797.55805808
0.35200002 30572.58355909  2590.10940180
0.35300002 30205.64254362  1924.70363404
0.35400002 29846.67724804  2225.06989423
0.35500002 29496.83018632  2205.18312918
0.35600002 29155.10995031  1717.38183297
0.35700002 28822.05633806  2012.06784826
0.35800002 28497.82676343  1841.52965268
0.35900002 28182.50982855  1674.04116311
0.36000002 27875.38451057  1962.28778557
0.36100002 27576.02256555  1647.11590586
0.36200002 27286.65487957  1634.33427142
0.36300002 27003.96139843  2506.50781573
0.36400002 26730.24702878  1463.48109415
0.36500002 26463.71879227  1452.85823051
0.36600002 26206.51107201  1875.46905371
0.36700002 25956.53435777  1576.08084086
0.36800002 25715.65693220  1850.37018221
0.36900002 25482.32310588  1555.69589931
0.37000002 25256.23120889  1405.50933335
0.37100002 25037.99815247  1955.96850832
0.37200002 24828.13130934  1805.87421633
0.37300002 24625.66838674  1795.95008052
0.37400002 24430.85156540  1923.92965191
0.37500002 24243.59286664  2051.00805368
0.37600002 24064.05266357  2177.31558814
0.37700002 23891.69546628  1490.12511682
0.37800002 23726.73038375  1888.41056070
0.37900002 23569.66305510  1477.81794356
0.38000002 23419.12503276  1739.92397673
0.38100002 23275.04756464  1333.66028863
0.38200002 23139.19759463  1462.28166127
0.38300002 23009.49278839  1457.88153214
0.38400002 22887.05620556  1453.90031434
0.38500002 22770.82660407  1713.96019969
0.38600002 22662.28531011  1710.20944195
0.38700002 22559.27754728  1969.42502318
0.38800002 22463.06074240  1835.00751898
0.38900002 22373.08463569  1570.59061583
0.39000002 22290.16276585  1307.31810815
0.39100002 22212.50760124  1697.92416148
0.39200002 22141.78461234  1827.36157063
0.39300002 22076.39290061  1435.18637046
0.39400002 22018.19034686  1695.95119182
0.39500002 21964.58910192  1304.69665447
0.39600002 21916.90055530  1435.66663889
0.39700002 21874.24846353  1828.24977320
0.39800002 21838.41348324  1437.73201979
0.39900002 21806.87077627  1439.25353942
0.40000002 21781.01867968  1834.17966992
0.40100002 21760.06594469  1443.34524250
0.40200002 21744.68396225  1577.35944936
0.40300002 21733.94551647  1448.78487677
0.40400002 21728.15368802  1847.97955872
0.40500002 21726.62388684  1323.15145740
0.40600002 21730.69235239  1724.65648026
0.40700002 21738.70341765  1330.40871220
0.40800002 21750.99986564  1601.30868598
0.40900002 21767.29673782  1606.42657537
0.41000002 21788.48250310  2283.54201694
0.41100002 21813.31608783  1482.86929791
0.41200002 21841.39511120  1623.68938950
0.41300002 21874.48262373  1765.92706589
0.41400002 21910.68772050  1500.33441275
0.41500002 21950.29074050  1506.66802782
0.41600002 21992.65624394  1650.76885589
0.41700002 22039.66383684  1796.45308446
0.41800002 22090.29703657  1804.88780490
0.41900002 22142.12021037  1534.44900329
0.42000002 22197.60871039  1541.95696213
0.42100002 22256.51810772  1831.48896187
0.42200002 22318.05186587  1840.90459539
0.42300002 22381.69079024  1565.82316188
0.42400002 22447.69727037  1431.04076880
0.42500002 22516.78405537  1582.70482625
0.42600002 22586.83302351  1736.02406845
0.42700002 22660.27582779  1745.74773250
0.42800002 22734.92107718  1609.29146471
0.42900002 22812.34527180  1618.53597373
0.43000002 22891.48462969  1923.91491687
0.43100002 22970.64991962  1637.34800386
0.43200002 23052.78087329  1647.00600754
0.43300002 23135.60610534  2259.19204324
0.43400002 23220.29529565  1818.14920781
0.43500002 23305.53582679  1829.01853836
0.43600002 23392.59609722  2146.73864557
0.43700002 23479.98692777  1696.89873568
0.43800002 23567.69857025  1707.12632684
0.43900002 23657.27672955  1561.38033814
0.44000002 23746.74365645  1885.01660078
0.44100002 23837.13735125  2054.52296567
0.44200002 23927.78133367  2385.00171746
0.44300002 24018.90310800  1599.65902280
0.44400002 24109.95628235  1770.27362393
0.44500002 24200.60688571  1942.82481286
0.44600002 24291.30916663  1791.60559249
0.44700002 24382.78485780  1802.37554211
0.44800002 24473.08180228  1813.08835125
0.44900002 24563.62813991  2155.45847143
0.45000002 24654.10627831  1667.85036877
0.45100002 24742.99048909  2684.11973546
0.45200002 24831.92012841  2024.79486323
0.45300002 24919.72675115  2036.44016662
0.45400002 25007.11957989  1706.73599221
0.45500002 25093.80351171  2059.69948986
0.45600002 25179.03428021  1726.02288171
0.45700002 25263.61987763  2082.73292142
0.45800002 25346.65748255  2094.14094046
0.45900002 25428.49849429  1754.56647926
0.46000002 25509.65268570  1763.99256682
0.46100002 25588.44374590  1950.60715920
0.46200002 25666.51167853  2317.30111672
0.46300002 25742.84569058  2150.04257398
0.46400002 25817.17590106  2160.89772533
0.46500002 25890.94549620  2352.71032875
0.46600002 25961.87208927  2546.08091647
0.46700002 26031.14588356  2375.60248593
0.46800002 26099.20243935  2019.68687649
0.46900002 26164.51559271  2213.51812406
0.47000002 26228.21878389  2964.83799185
0.47100002 26289.93941989  1861.32779915
0.47200002 26349.79373833  2243.42154521
0.47300002 26407.31945123  1877.56050197
0.47400002 26462.08013821  2639.59261890
0.47500002 26515.09655875  2839.76697604
0.47600002 26566.47774688  2471.08104475
0.47700002 26614.24799605  2480.71417329
