# SAXS profile: number of points = 501, q_min = 0, q_max = 0.5, delta_q = 0.001
#    q    intensity    error
0.00000000 1664650.74656090 349.57665678
0.00100000 1664569.61666627 599.24507623
0.00200000 1664326.15592739 823.84147327
0.00300000 1663920.59497207 1697.19906733
0.00400000 1663352.80851541 1372.26611917
0.00500000 1662623.28053582 2543.81371991
0.00600000 1661731.93064572 2268.26417768
0.00700000 1660679.30715378 2391.37830169
0.00800000 1659465.25520646 2688.33382694
0.00900000 1658090.98585746 3233.27756064
0.01000000 1656555.85939816 3006.64901463
0.01100000 1654861.14710731 3574.50023338
0.01200000 1653006.83804855 3223.36347552
0.01300000 1650993.97344789 4507.21374630
0.01400000 1648822.63530797 4080.83620329
0.01500000 1646494.17261550 5137.06204731
0.01600000 1644008.09287338 5030.66498908
0.01700000 1641366.52554465 5318.02778132
0.01800000 1638569.53341223 6070.90039447
0.01900000 1635617.65489201 6869.59446052
0.02000000 1632512.04952775 7713.61978295
0.02100000 1629254.82967307 6989.50353619
0.02200000 1625844.54050396 6730.99670349
0.02300000 1622284.25357733 7592.29065233
0.02400000 1618573.57919446 6676.61631861
0.02500000 1614714.99555590 7556.86652433
0.02600000 1610708.59837809 9785.05518270
0.02700000 1606556.47261422 8771.79874223
0.02800000 1602258.36090725 9060.77144645
0.02900000 1597816.82914454 8628.21127354
0.03000000 1593233.24007004 8149.38839755
0.03100000 1588507.91895565 7624.83836183
0.03200000 1583642.28527162 12542.44747703
0.03300000 1578639.99564332 10466.38365362
0.03400000 1573499.41861894 10739.13402758
0.03500000 1568223.59645177 10162.08937427
0.03600000 1562813.83934811 10408.34065107
0.03700000 1557272.02425921 9764.09604367
0.03800000 1551599.27437923 10892.22741023
0.03900000 1545798.04331591 12984.70416518
0.04000000 1539868.01005901 9470.18870070
0.04100000 1533813.15135998 12561.93029209
0.04200000 1527634.33317344 10838.56609670
0.04300000 1521332.25148906 11044.87265849
0.04400000 1514910.61679008 13293.34127970
0.04500000 1508370.65670767 11448.53381637
0.04600000 1501712.49954450 11645.78097534
0.04700000 1494940.14661115 12916.28346743
0.04800000 1488054.21084265 18593.23822959
0.04900000 1481058.46963737 14440.32075113
0.05000000 1473952.22229194 11275.73502560
0.05100000 1466740.28551873 13728.68971199
0.05200000 1459420.76990111 13922.87479368
0.05300000 1451999.64505721 14113.43720789
0.05400000 1444476.99513956 11916.93576563
0.05500000 1436855.35365432 12069.58553373
0.05600000 1429135.74727550 18328.66681410
0.05700000 1421323.21581886 18548.26883224
0.05800000 1413416.58154880 15010.48479692
0.05900000 1405418.76237778 17708.27723304
0.06000000 1397333.24231426 16621.27969385
0.06100000 1389161.17804125 16794.95942737
0.06200000 1380905.29501757 14354.51121269
0.06300000 1372568.09991679 22400.31243798
0.06400000 1364148.74999540 13300.45093447
0.06500000 1355653.14120073 14763.06339826
0.06600000 1347082.61183971 14891.99897066
0.06700000 1338438.05574105 13652.06880746
0.06800000 1329723.01729247 15138.89726051
0.06900000 1320939.93969774 16643.84401944
0.07000000 1312089.85397675 25152.76367860
0.07100000 1303175.14469889 15481.72144415
0.07200000 1294198.98128323 18422.92336162
0.07300000 1285163.53336393 17118.37906650
0.07400000 1276071.45528145 15791.38499916
0.07500000 1266923.70180983 20220.10322865
0.07600000 1257722.06598066 18884.69770603
0.07700000 1248471.51389642 17528.54087699
0.07800000 1239172.20049930 19089.44864391
0.07900000 1229826.54958181 16233.71121590
0.08000000 1220438.24322846 16311.15788592
0.08100000 1211008.26103042 16384.94254049
0.08200000 1201538.51017830 23934.64824589
0.08300000 1192032.47748111 21027.45388963
0.08400000 1182491.59334848 16584.44537516
0.08500000 1172918.19148396 16643.70991850
0.08600000 1163314.29999055 21253.75325872
0.08700000 1153683.81232943 16751.48974163
0.08800000 1144025.89703302 21381.84501972
0.08900000 1134346.30624673 21439.14619505
0.09000000 1124644.09059934 19956.81032517
0.09100000 1114922.74843720 21540.30851180
0.09200000 1105184.43384768 18500.78829190
0.09300000 1095433.24808713 21623.85333339
0.09400000 1085666.27722853 23206.11776639
0.09500000 1075889.60410213 15492.81102727
0.09600000 1066103.79414556 32574.80296139
0.09700000 1056313.95095016 17080.59738987
0.09800000 1046519.21031428 18648.97320463
0.09900000 1036722.62440966 18661.00811686
0.10000000 1026925.08261906 21781.08202665
0.10100000 1017128.54810217 24899.30802860
0.10200000 1007336.68663205 15563.35254051
0.10300000 997550.16407937 18674.13995001
0.10400000 987771.84492257 17113.14801837
0.10500000 978004.75039008 24880.44202053
0.10600001 968246.12796686 18648.42130212
0.10700001 958503.35891350 17080.53065961
0.10800001 948774.64240743 17063.71274674
0.10900001 939064.54069913 20142.93534604
0.11000001 929372.59490371 23211.08165026
0.11100001 919701.12821033 18541.17561752
0.11200001 910052.68880784 18510.47256177
0.11300001 900427.89254978 16937.04945627
0.11400001 890829.90029018 15366.81650354
0.11500001 881259.85967720 18400.70673651
0.11600001 871718.91345673 19888.26794708
0.11700001 862209.86000666 21365.56133717
0.11800001 852731.88463982 16743.39134349
0.11900001 843287.65861753 25804.60356914
0.12000001 833878.88328031 15134.90244447
0.12100001 824509.35109769 16597.37401947
0.12200001 815177.21195306 16544.02229600
0.12300001 805886.29400063 25482.12581688
0.12400001 796635.67026787 14936.91952131
0.12500001 787427.50986892 16370.61870157
0.12600001 778265.48803002 20756.34154387
0.12700001 769148.32070959 23628.23752571
0.12800001 760077.41803919 17648.99847865
0.12900001 751055.86163569 21968.38498826
0.13000001 742083.55622687 17498.33108061
0.13100001 733160.84438642 27581.51226594
0.13200001 724290.68074804 14449.59976208
0.13300001 715473.35953292 18695.31976595
0.13400001 706709.71205586 17173.04681259
0.13500001 698001.88550699 19934.93478998
0.13600001 689350.18882918 15582.76175322
0.13700001 680755.76609822 19728.30303178
0.13800001 672217.87964108 18220.46648687
0.13900001 663740.56121401 13938.55244281
0.14000001 655322.35355125 22176.10949001
0.14100001 646966.17182010 22048.60817551
0.14200001 638671.05681266 17809.34325920
0.14300001 630439.39463739 20426.23734971
0.14400001 622268.10042532 14887.76500493
0.14500001 614163.65927428 13450.18477258
0.14600001 606123.32174278 14701.52186241
0.14700001 598149.65355504 14606.81522891
0.14800001 590239.79453711 15830.23203633
0.14900001 582397.75430647 14414.34509917
0.15000001 574622.38690105 23427.35581933
0.15100001 566915.14342394 16803.36564395
0.15200001 559277.23811883 17969.57850869
0.15300001 551708.46305632 14018.91270780
0.15400001 544206.97400669 16448.65656558
0.15500001 536777.04651123 12560.58348113
0.15600001 529415.48217327 13714.50871295
0.15700001 522127.35957096 13611.86090645
0.15800001 514907.11647591 12280.53530758
0.15900001 507760.02684084 14623.48946325
0.16000001 500682.40520851 15718.92485349
0.16100001 493678.65989561 13196.03120192
0.16200001 486746.35475884 22611.80297774
0.16300001 479885.97109067 11805.19544613
0.16400001 473098.49203781 14051.02587687
0.16500001 466382.54467537 16258.09627495
0.16600001 459739.98166248 13819.78450125
0.16700001 453169.17443729 14845.82285551
0.16800001 446671.54150350 15852.37375645
0.16900001 440247.75151523 13471.58183247
0.17000001 433895.15436594 14468.23460552
0.17100001 427616.17676249 16548.74682216
0.17200001 421409.86136806 10935.58641891
0.17300001 415275.99228196 16258.05586562
0.17400001 409215.55812876 13964.48158063
0.17500001 403226.64898876 11709.70243965
0.17600001 397308.88309816 13713.11674779
0.17700001 391466.30207188 12542.58091078
0.17800001 385693.70922063 11391.46423987
0.17900001 379992.68922976 13337.74402195
0.18000001 374364.78231407 16262.40691188
0.18100001 368808.34779504 15102.70255561
0.18200001 363321.05021453 9973.16329950
0.18300001 357905.37906768 9878.18892891
0.18400001 352560.29434965 11740.25835646
0.18500001 347285.34927517 10658.18787277
0.18600001 342080.80552093 9595.36704818
0.18700001 336944.92240191 11402.21671278
0.18800001 331877.02709787 10349.58557902
0.18900001 326881.21348842 10247.72652704
0.19000001 321949.55764230 11068.62631472
0.19100001 317088.58235418 10045.36676362
0.19200001 312293.37286907 12657.25100046
0.19300001 307566.88016453 10740.23596285
0.19400001 302905.38634531 11517.97786005
0.19500001 298310.50682408 11401.42810959
0.19600001 293780.18653620 10417.44590686
0.19700001 289316.56100195 10311.24272139
0.19800001 284916.48755215 8504.75755536
0.19900001 280580.71886975 8417.42196390
0.20000001 276306.67197522 12495.96983065
0.20100001 272097.52134484 8244.55528641
0.20200001 267949.31497168 8159.05702651
0.20300001 263863.25473973 11303.90236732
0.20400001 259838.61439050 8789.04154718
0.20500001 255873.82736828 7906.50163940
0.20600001 251968.83573133 7823.63271927
0.20700001 248123.39250354 7741.45021204
0.20800001 244336.22158149 8425.93499953
0.20900001 240609.27604378 8337.11180902
0.21000001 236937.07991554 7499.05893382
0.21100001 233323.03997654 11129.50953301
0.21200001 229763.93429276 8809.14965723
0.21300001 226260.59046650 7262.96529733
0.21400001 222812.38863592 10059.97982251
0.21500001 219419.41019652 8531.02707177
0.21600001 216078.25101775 11253.35584505
0.21700001 212790.65236366 10437.38199191
0.21800001 209555.28135871 9637.44784535
0.21900001 206370.61187981 9534.32271964
0.22000001 203236.34302913 8084.74210797
0.22100001 200153.72604765 6665.11939254
0.22200001 197120.16096316 9231.13757439
0.22300001 194134.85657038 8479.81093597
0.22400001 191196.97461940 7098.18801839
0.22500001 188308.94230929 7022.04079077
0.22600001 185465.55448323 6315.10242878
0.22700001 182669.27927244 7496.74757586
0.22800001 179917.69271514 6798.19034073
0.22900001 177210.73807507 6113.77075272
0.23000001 174548.18200374 9072.14218868
0.23100001 171930.06159648 7179.79971182
0.23200001 169352.86146572 7102.65934578
0.23300001 166819.05389143 7611.95378907
0.23400001 164325.56485922 5792.47643524
0.23500001 161872.71600668 7449.38274295
0.23600001 159460.35239273 7369.46053438
0.23700001 157087.60564057 6168.83056528
0.23800001 154753.09905849 7212.26852275
0.23900001 152457.01987632 7683.83416521
0.24000001 150197.84700885 5972.61766881
0.24100001 147976.77692777 5371.55725656
0.24200001 145791.84315846 7971.16940174
0.24300001 143641.65354474 7885.92715263
0.24400001 141526.83872873 7281.55619704
0.24500001 139445.72179454 5660.10211539
0.24600001 137398.75646057 6617.81141798
0.24700001 135385.61580976 5539.97966101
0.24800001 133404.77177981 5480.93530786
0.24900001 131454.60702960 7394.32199522
0.25000001 129537.29186313 5852.49512325
0.25100001 127649.98937192 7720.27172245
0.25200001 125794.74609818 5251.30192431
0.25300001 123967.70728865 4723.16987115
0.25400001 122170.64847583 6074.93578287
0.25500001 120400.76941278 5548.06771703
0.25600001 118660.40244644 6404.10222303
0.25700001 116946.67888854 4525.83668712
0.25800001 115260.22064574 4477.85978395
0.25900001 113601.22235199 4430.44788135
0.26000001 111967.40360026 5260.22887003
0.26100001 110358.70545908 4770.80706273
0.26200001 108776.29916788 4291.22520522
0.26300001 107217.14344454 5519.53880570
0.26400001 105682.95842212 7141.52625330
0.26500001 104172.51080257 4987.78005324
0.26600001 102684.70583512 4935.02719596
0.26700001 101220.20767078 5289.76830319
0.26800001 99778.13596843  4428.65277453
0.26900001 98357.28518355  4780.16428613
0.27000001 96958.43592413  4335.49666751
0.27100001 95580.46369544  5069.58803431
0.27200001 94223.83177202  5401.85253112
0.27300001 92887.33401234  6108.27137372
0.27400001 91569.26970065  4910.40232008
0.27500001 90272.90222712  4111.02816198
0.27600001 88993.50969188  5176.75270377
0.27700001 87734.84006365  3658.54300380
0.27800001 86493.53791448  3619.75473303
0.27900001 85270.80566020  3939.51140795
0.28000001 84065.38910838  4606.36321421
0.28100001 82877.73447434  5609.16533470
0.28200001 81707.60308551  3468.48791514
0.28300001 80554.16937704  3774.76855567
0.28400001 79416.56892888  4413.57602712
0.28500001 78296.09834404  3358.90277794
0.28600001 77191.04617129  4652.30457295
0.28700001 76102.52274130  4602.68079325
0.28800001 75027.93517772  3902.95337268
0.28900001 73970.20044485  4504.78542032
0.29000001 72926.49493877  3183.24165475
0.29100001 71898.08764502  5038.61822066
0.29200001 70883.75693172  3426.87539108
0.29300001 69883.98349967  4006.44896369
0.29400001 68897.34163644  4268.19051642
0.29500001 67925.78228163  3619.08585128
0.29600001 66966.57749464  4773.37786978
0.29700001 66021.31064848  4426.72908853
0.29800001 65089.42164783  4086.96497874
0.29900001 64170.88920125  3176.45916583
0.30000001 63264.10951866  3142.01214799
0.30100001 62370.87865118  3955.56131131
0.30200001 61489.38555665  4192.03905878
0.30300001 60620.84315585  3870.03481028
0.30400001 59764.25307296  3827.90059054
0.30500001 58919.98141487  2704.42727498
0.30600001 58086.54000563  3209.86235267
0.30700001 57265.65076563  3439.37514781
0.30800001 56455.94538876  2878.40651192
0.30900001 55658.05169092  3882.14928924
0.31000001 54871.47055459  2559.75422256
0.31100001 54095.38070868  2531.66393703
0.31200001 53331.44935268  3004.69399879
0.31300001 52577.43180304  3219.31630172
0.31400001 51835.86397941  3184.01809569
0.31500001 51103.59218448  2906.77246108
0.31600002 50383.10457846  2874.86008336
0.31700002 49672.48883833  2606.31561275
0.31800002 48972.24722591  3514.98321107
0.31900002 48283.05299771  3708.13864580
0.32000002 47604.09856882  2292.13745462
0.32100002 46935.07005104  3173.74958713
0.32200002 46277.14899906  3138.97916524
0.32300002 45627.58167590  2882.75074678
0.32400002 44989.46107943  2193.23633147
0.32500002 44360.58656532  3687.69573579
0.32600002 43742.02310024  2574.65560160
0.32700002 43133.28789372  2334.37365135
0.32800002 42535.15247995  2518.93184914
0.32900002 41944.85397543  3114.40555515
0.33000002 41365.52760284  2669.93810556
0.33100002 40794.67387852  2641.04731196
0.33200002 40234.92776302  2612.65515801
0.33300002 39683.88261141  2186.97887428
0.33400002 39142.96940952  2557.01459777
0.33500002 38610.90669978  2140.58876881
0.33600002 38087.90949320  2695.48148248
0.33700002 37574.25664205  2095.51639216
0.33800002 37070.66877216  2073.54795597
0.33900002 36575.52071968  2424.95713856
0.34000002 36089.54177659  2584.37220901
0.34100002 35613.00060661  2192.33642117
0.34200002 35146.15450973  1808.26973516
0.34300002 34687.57153804  2505.83028658
0.34400002 34238.74868008  2126.22639373
0.34500002 33798.45138412  2104.96765189
0.34600002 33367.85287703  2431.51555431
0.34700002 32944.74668842  2063.65903030
0.34800002 32531.55150442  2043.63216230
0.34900002 32126.74931720  2529.98162855
0.35000002 31731.07775986  2840.09024941
0.35100002 31344.75608797  2151.50415978
0.35200002 30965.45911881  1803.58325180
0.35300002 30596.31194223  1949.59708930
0.35400002 30235.09869943  2254.02671480
0.35500002 29882.67767414  1595.73506338
0.35600002 29538.45573268  2056.31969323
0.35700002 29202.68978303  2509.09522500
0.35800002 28875.74465034  1865.95070769
0.35900002 28557.57074292  2004.74156111
0.36000002 28247.42863196  1988.47783273
0.36100002 27944.97801179  1972.63609129
0.36200002 27652.38872933  1957.37442892
0.36300002 27366.42517149  1793.04826217
0.36400002 27089.28870353  1779.76635212
0.36500002 26819.39556108  1472.38488605
0.36600002 26558.51108126  1754.45532513
0.36700002 26304.96731117  2032.84797010
0.36800002 26060.27142217  1875.16691901
0.36900002 25823.10936536  1576.50090143
0.37000002 25593.04827111  1851.52916488
0.37100002 25370.73665699  1698.82460702
0.37200002 25156.89850282  1689.03424549
0.37300002 24950.25412275  1959.59305163
0.37400002 24751.00924073  1809.91763647
0.37500002 24559.48582625  2077.73259932
0.37600002 24375.59974463  2343.34839246
0.37700002 24198.74667881  1783.68970219
0.37800002 24029.18386761  1502.66508435
0.37900002 23867.43469234  1904.62137868
0.38000002 23712.21601408  1355.15320940
0.38100002 23563.28298770  2025.26426874
0.38200002 23422.59807845  2556.69381437
0.38300002 23287.98434192  1743.80435013
0.38400002 23160.60498144  1738.78250135
0.38500002 23039.31383510  2000.96450137
0.38600002 22925.64419421  1730.08382108
0.38700002 22817.56757425  1460.78074531
0.38800002 22716.07736752  2518.41803666
0.38900002 22620.88358587  1455.65392771
0.39000002 22532.58460013  1453.68976435
0.39100002 22449.64767687  1584.04721513
0.39200002 22373.47034089  1714.59098081
0.39300002 22302.65816624  1581.70459209
0.39400002 22238.91427668  2371.78031998
0.39500002 22179.77149936  1449.22633843
0.39600002 22126.54256130  2108.21707512
0.39700002 22078.30231820  1449.88218193
0.39800002 22036.81002494  1582.68377098
0.39900002 21999.62138431  1583.97281472
0.40000002 21968.06608002  1849.93093225
0.40100002 21941.28218172  1587.67125389
0.40200002 21920.16133338  1722.59596000
0.40300002 21903.67122062  1460.09879275
0.40400002 21891.99441612  1329.93872379
0.40500002 21884.72881836  1999.17007228
0.40600002 21882.93780127  2137.52546571
0.40700002 21885.07295754  1473.30318131
0.40800002 21891.44659063  1477.34434317
0.40900002 21901.83649235  2155.14081296
0.41000002 21917.13359018  1621.42961983
0.41100002 21936.10088233  1762.34642839
0.41200002 21958.22266635  1496.34315450
0.41300002 21985.40890270  1774.88214481
0.41400002 22015.65948909  1507.52235495
0.41500002 22049.38964712  1513.47017709
0.41600002 22085.76540508  1657.75762986
0.41700002 22126.88185796  1942.29778152
0.41800002 22171.55554432  1950.87526478
0.41900002 22217.44796912  1539.66921722
0.42000002 22267.00200659  1968.62574069
0.42100002 22320.16967125  1836.72684928
0.42200002 22375.67626285  1561.71039877
0.42300002 22433.50764687  1854.80250013
0.42400002 22493.74957413  1720.77192396
0.42500002 22556.92577397  1729.66515031
0.42600002 22621.15931793  1883.55091986
0.42700002 22688.73761466  1456.61702389
0.42800002 22757.64821790  1610.90020544
0.42900002 22829.38472612  2061.49353846
0.43000002 22902.69427180  1480.65925484
0.43100002 22976.22048417  2084.40282110
0.43200002 23052.68545987  1497.27199157
0.43300002 23129.89010491  1505.75591718
0.43400002 23208.96823537  1514.38524912
0.43500002 23288.67271756  1523.07926790
0.43600002 23370.20469863  1838.30038871
0.43700002 23452.11672274  1694.88455587
0.43800002 23534.35676821  1859.68495995
0.43900002 23618.57170834  2494.12129060
0.44000002 23702.68584651  1724.72601736
0.44100002 23787.74146409  2207.97826733
0.44200002 23873.09731819  1903.64087037
0.44300002 23959.00815303  2233.93802606
0.44400002 24044.81117908  2246.98771117
0.44500002 24130.42752778  2744.35365279
0.44600002 24216.02015025  1948.42107363
0.44700002 24302.48435282  1959.75243109
0.44800002 24387.79476753  1642.51805543
0.44900002 24473.38631397  2147.53975083
0.45000002 24559.07103235  1827.56335748
0.45100002 24643.15864624  2339.12872956
0.45200002 24727.32835611  2016.26644971
0.45300002 24810.54023663  1858.55765721
0.45400002 24893.20842069  2208.65002180
0.45500002 24975.33680765  2049.97574233
0.45600002 25056.13259173  1889.35776762
0.45700002 25136.26499196  2417.60608151
0.45800002 25214.93940880  2083.25839269
0.45900002 25292.50254789  2094.21931022
0.46000002 25369.39073939  1929.72279805
0.46100002 25444.08252545  2292.25750336
0.46200002 25518.07379904  2303.89940214
0.46300002 25590.37726316  2493.52647870
0.46400002 25660.75046886  1789.83743003
0.46500002 25730.66567667  2518.00306246
0.46600002 25797.73689414  2349.27102161
0.46700002 25863.31906518  2723.40762664
0.46800002 25927.73954869  2736.02484555
0.46900002 25989.52434657  2931.61848524
0.47000002 26049.65295573  2024.44887541
0.47100002 26107.97762271  2033.28939363
0.47200002 26164.46505096  2413.27954836
0.47300002 26218.74667394  1864.15297687
0.47400002 26270.30242526  1871.75913652
0.47500002 26320.17149690  2443.03843414
0.47600002 26368.53704859  1886.66891525
0.47700002 26413.45393749  2840.76710562
