# SAXS profile: number of points = 501, q_min = 0, q_max = 0.5, delta_q = 0.001
#    q    intensity    error
0.00000000 1664650.74656090 249.69761198
0.00100000 1664569.67143985 649.18218728
0.00200000 1664326.38384123 1123.42034467
0.00300000 1663921.09767085 1098.18796358
0.00400000 1663353.70410536 1372.26685803
0.00500000 1662624.69256305 2094.90719555
0.00600000 1661733.95893182 2617.23109187
0.00700000 1660682.05339463 2391.38225627
0.00800000 1659468.83550867 3360.42453378
0.00900000 1658095.52567151 2984.57207379
0.01000000 1656561.45049179 3006.65916247
0.01100000 1654867.91961394 4468.14357750
0.01200000 1653014.87276056 5157.40662913
0.01300000 1651003.38201121 3467.10725514
0.01400000 1648833.58433559 3709.87572922
0.01500000 1646506.71458060 3951.61629095
0.01600000 1644022.34573920 4611.48288595
0.01700000 1641382.62170878 4874.90660516
0.01800000 1638587.50405997 5136.97205638
0.01900000 1635637.63484893 5888.29575115
0.02000000 1632534.24735209 6685.22804532
0.02100000 1629279.24684462 8602.59481337
0.02200000 1625871.22292722 7852.95836352
0.02300000 1622313.43041372 9344.52578453
0.02400000 1618605.31590270 7283.72425368
0.02500000 1614749.38034451 6297.52287096
0.02600000 1610745.70756259 6523.52041400
0.02700000 1606596.41538840 7422.47577905
0.02800000 1602301.23526842 8364.01283167
0.02900000 1597862.72929018 7909.42087314
0.03000000 1593282.23945236 9631.39158020
0.03100000 1588560.13146964 11437.63347286
0.03200000 1583697.81867454 8623.23501985
0.03300000 1578698.95869254 8856.50156655
0.03400000 1573561.86808947 10739.56024524
0.03500000 1568289.67202433 9315.64108200
0.03600000 1562883.51769807 11276.20510131
0.03700000 1557345.43617886 9764.55633643
0.03800000 1551676.51239850 11800.50042291
0.03900000 1545879.17338742 10202.80301685
0.04000000 1539953.06731532 14206.06770428
0.04100000 1533902.29659800 12562.66039162
0.04200000 1527727.61107425 12809.99661315
0.04300000 1521429.74944766 15062.15521869
0.04400000 1515012.45987328 11248.96803698
0.04500000 1508476.85917136 15612.73621787
0.04600000 1501823.08377518 10587.85323281
0.04700000 1495055.27370060 12917.27816553
0.04800000 1488173.85282149 12031.88615988
0.04900000 1481182.66824542 11108.87052893
0.05000000 1474081.15479810 13532.06563118
0.05100000 1466874.06498438 13729.94188785
0.05200000 1459559.29243467 18565.59506495
0.05300000 1452142.99489071 16467.30232973
0.05400000 1444625.36226766 14301.79175340
0.05500000 1437008.70847286 15692.13582855
0.05600000 1429294.08741837 13442.51151945
0.05700000 1421486.60461658 22260.48126738
0.05800000 1413585.07038831 15012.27414848
0.05900000 1405592.38529088 16445.43167600
0.06000000 1397512.16377283 21738.30272307
0.06100000 1389345.30516415 14213.00313602
0.06200000 1381094.71145911 13051.34563335
0.06300000 1372762.81428728 14496.37599666
0.06400000 1364348.83211553 14632.64190876
0.06500000 1355858.59365374 13423.00070507
0.06600000 1347293.43447327 18956.41950998
0.06700000 1338654.39324789 13654.27545013
0.06800000 1329944.70700501 17894.40687037
0.06900000 1321167.30076950 20808.38596135
0.07000000 1312322.61871361 15373.86019816
0.07100000 1303413.47370777 16892.23941045
0.07200000 1294442.79626828 17008.97913978
0.07300000 1285412.92876308 15694.89259559
0.07400000 1276326.24206746 17230.40507540
0.07500000 1267184.22287055 20224.26114498
0.07600000 1257988.12985097 20341.66901332
0.07700000 1248743.15445396 21915.44338825
0.07800000 1239449.57057202 19093.72153009
0.07900000 1230109.40448465 20665.83896465
0.08000000 1220726.63744430 17798.19520887
0.08100000 1211302.29503821 16388.92082081
0.08200000 1201838.11531578 14962.88523782
0.08300000 1192337.63155385 19530.49132146
0.08400000 1182802.16955187 16588.80120662
0.08500000 1173234.41209271 16648.19708915
0.08600000 1163635.93842097 19741.08462219
0.08700000 1154011.01611721 21326.12457927
0.08800000 1144358.53799865 18332.62463971
0.08900000 1134684.35932199 22977.35935551
0.09000000 1124987.66608167 19962.90707239
0.09100000 1115271.75058540 15390.75088115
0.09200000 1105538.69791186 15422.26556051
0.09300000 1095792.90003608 15450.68061657
0.09400000 1086031.13939682 20118.72780286
0.09500000 1076259.71300320 15498.14059570
0.09600000 1066479.35021952 24827.64044020
0.09700000 1056694.55664844 18640.09285560
0.09800000 1046905.00451501 15546.54004801
0.09900000 1037113.41698198 17112.37218487
0.10000000 1027320.94814859 17120.30440602
0.10100000 1017529.47642920 21795.48241019
0.10200000 1007742.45699141 17126.58386214
0.10300000 997960.67941250 20238.64353053
0.10400000 988187.31620729 17120.34605872
0.10500000 978425.16012712 18668.35293356
0.10600001 968671.13321274 17101.88966158
0.10700001 958932.91495858 18641.65674403
0.10800001 949208.81188823 17071.52128522
0.10900001 939503.23882521 20152.34542128
0.11000001 929815.54825558 18577.71552859
0.11100001 920148.71266786 26279.44847086
0.11200001 910504.31210485 18519.65858006
0.11300001 900883.86073768 21567.16064146
0.11400001 891289.98484434 16912.22825872
0.11500001 881724.09625515 19944.59999644
0.11600001 872187.08367860 18368.26084726
0.11700001 862681.93493865 16796.41806428
0.11800001 853207.76535862 16752.73526184
0.11900001 843767.31795952 22781.71865796
0.12000001 834362.06912127 19686.77394826
0.12100001 824996.19029990 16607.17409307
0.12200001 815667.37948955 22573.59579084
0.12300001 806379.91512918 14998.66712806
0.12400001 797132.48034632 16440.85818179
0.12500001 787927.53060009 20848.56344207
0.12600001 778768.50029455 17802.64875566
0.12700001 769654.24408673 19210.57083773
0.12800001 760586.43492385 16189.08303033
0.12900001 751567.33333488 16121.12005986
0.13000001 742597.78557779 17510.45660928
0.13100001 733677.78908719 21790.23136303
0.13200001 724810.07768262 17351.95407770
0.13300001 715995.16152294 17269.80411008
0.13400001 707233.63232438 15753.62990274
0.13500001 698527.91714491 18524.96123610
0.13600001 689878.16773859 21265.49552323
0.13700001 681285.63746246 14102.61336046
0.13800001 672749.55633502 15429.51180213
0.13900001 664273.97103297 16739.70485944
0.14000001 655857.28961764 15258.52056256
0.14100001 647502.53103361 19308.52638607
0.14200001 639208.66870833 16453.23190857
0.14300001 630978.29995361 16354.95830622
0.14400001 622808.20396122 21673.72652020
0.14500001 614704.59744542 20193.04697863
0.14600001 606665.09341068 16052.35912891
0.14700001 598692.12561605 15949.15897884
0.14800001 590782.75709839 14524.39476851
0.14900001 582941.24400307 15739.41433068
0.15000001 575166.21858274 16935.77010525
0.15100001 567459.28297273 14231.87948849
0.15200001 559821.46686803 15417.48392505
0.15300001 552252.58437202 16584.14589128
0.15400001 544750.84853077 18998.18673905
0.15500001 537320.72081218 16345.29709849
0.15600001 529958.72006731 14976.63413592
0.15700001 522670.01386637 13626.00790460
0.15800001 515448.99441840 15981.49682625
0.15900001 508301.21047044 14639.07555252
0.16000001 501222.60144083 16946.33695462
0.16100001 494217.90433996 14411.39477083
0.16200001 487284.51159686 15488.33893225
0.16300001 480422.76464166 11818.40056811
0.16400001 473633.77406312 16411.41104606
0.16500001 466916.23481174 17439.32219355
0.16600001 460271.97079286 16141.73877781
0.16700001 453699.24534146 14863.18797915
0.16800001 447199.73573712 17004.77075431
0.16900001 440773.83201962 14611.65322138
0.17000001 434419.22811497 13371.42447277
0.17100001 428137.77024503 11045.95499393
0.17200001 421928.96094545 10949.05705358
0.17300001 415792.52519888 13022.62250422
0.17400001 409729.37381127 12906.47588458
0.17500001 403737.68414930 12790.41043791
0.17600001 397816.87149531 11618.24228074
0.17700001 391971.22473734 15698.44829218
0.17800001 386195.51212161 11406.28498925
0.17900001 380491.13424891 13355.23944295
0.18000001 374859.71842526 17301.65112116
0.18100001 369299.70558259 11090.07068250
0.18200001 363808.65466852 9986.54804239
0.18300001 358389.18200677 10880.69607972
0.18400001 353040.02008175 14695.29153012
0.18500001 347761.28654033 11643.04842341
0.18600001 342552.53893781 10569.45908826
0.18700001 337412.32968904 10466.53096144
0.18800001 332340.02114805 11306.20805363
0.18900001 327339.65181680 14926.68882809
0.19000001 322403.27969596 12007.91071964
0.19100001 317537.61766823 10059.59220305
0.19200001 312737.46827226 9053.75013428
0.19300001 308006.16149686 11651.87364001
0.19400001 303339.58357290 12421.75653429
0.19500001 298739.50559245 8782.94187946
0.19600001 294203.88958898 14779.33309192
0.19700001 289735.05663191 8605.13158863
0.19800001 285329.40320455 11923.91632343
0.19900001 280988.12006676 8429.64400039
0.20000001 276708.32928699 12514.13478344
0.20100001 272493.36978742 10733.51434322
0.20200001 268339.16402382 11439.29910300
0.20300001 264247.20228672 12128.94715823
0.20400001 260216.45407007 9601.98760903
0.20500001 256245.59783349 9501.58721678
0.20600001 252334.39718092 9401.98008337
0.20700001 248482.63946299 10853.72220479
0.20800001 244688.94858700 9205.19868097
0.20900001 240955.64097277 9108.12365932
0.21000001 237276.74795328 9011.77131327
0.21100001 233656.10610218 8173.29097783
0.21200001 230090.35823699 8086.52602253
0.21300001 226580.06345819 10182.50853319
0.21400001 223125.01748156 7915.36036937
0.21500001 219724.93177592 9966.72337656
0.21600001 216376.84456252 9155.98661055
0.21700001 213082.17275525 9754.90232994
0.21800001 209839.68900562 7582.55752073
0.21900001 206647.72271543 7501.31268924
0.22000001 203506.15551047 8770.09818640
0.22100001 200416.22226584 8676.01867212
0.22200001 197375.13481378 8582.85814321
0.22300001 194382.49282136 9796.87810145
0.22400001 191437.11621027 7753.20357314
0.22500001 188541.41925895 7030.70985663
0.22600001 185690.48346628 9484.14189153
0.22700001 182886.59634187 6254.72189067
0.22800001 180127.24118413 7424.84523273
0.22900001 177412.52963001 9181.09884254
0.23000001 174742.13455737 6054.81524876
0.23100001 172116.24390083 7786.53924232
0.23200001 169531.24827816 9480.18785207
0.23300001 166989.51517227 7033.59871171
0.23400001 164488.08569465 9277.12847194
0.23500001 162027.31106756 7456.49720799
0.23600001 159606.93536544 6808.83218473
0.23700001 157226.21401490 7858.16654814
0.23800001 154883.75490167 6107.84116344
0.23900001 152579.56775677 6591.43763886
0.24000001 150312.30535492 5433.79009560
0.24100001 148083.12141719 5912.95931788
0.24200001 145890.06341283 5849.46236923
0.24300001 143731.91847503 5786.64731153
0.24400001 141608.95999902 6244.95543137
0.24500001 139519.80163323 6177.93710856
0.24600001 137464.70992475 8148.90838982
0.24700001 135443.47410699 6550.04671767
0.24800001 133454.45440742 6479.88134029
0.24900001 131496.33146773 6903.55772865
0.25000001 129570.71701389 4878.33772636
0.25100001 127675.42387324 5791.35750087
0.25200001 125812.15781242 6684.40026081
0.25300001 123977.02140668 5668.22968688
0.25400001 122171.93561777 7476.92281355
0.25500001 120394.08590584 4623.13311751
0.25600001 118645.78146768 5031.17460118
0.25700001 116924.17494089 4524.96578430
0.25800001 115229.72293612 4476.67494788
0.25900001 113562.74990155 4871.84220129
0.26000001 111921.03377249 5258.05041542
0.26100001 110304.52997958 4768.46505664
0.26200001 108714.31056870 6004.29165681
0.26300001 107147.43385131 4243.03858128
0.26400001 105605.57723647 6296.73284067
0.26500001 104087.29050928 6229.62463176
0.26600001 102591.97079667 5341.45121228
0.26700001 101119.79778872 5691.02248885
0.26800001 99670.24868160  4826.03366954
0.26900001 98241.80827294  6366.06947734
0.27000001 96835.57112278  5904.54922863
0.27100001 95450.23547765  4283.80677096
0.27200001 94086.34148005  5393.97021231
0.27300001 92742.52546110  4574.06157220
0.27400001 91417.36426706  6410.64297261
0.27500001 90113.91938246  4103.78808289
0.27600001 88827.27049148  4428.92791631
0.27700001 87561.69214836  3651.32273539
0.27800001 86313.41413952  4334.65986323
0.27900001 85083.92525017  3930.87753260
0.28000001 83871.66569055  4949.26722664
0.28100001 82677.36011489  4196.70299806
0.28200001 81500.52790358  3459.69757325
0.28300001 80340.60811989  3422.51006790
0.28400001 79196.58416689  4401.35037339
0.28500001 78069.75393211  4353.95038287
0.28600001 76958.42851982  5300.89680735
0.28700001 75863.66616277  4260.50369336
0.28800001 74782.92877877  5186.94418561
0.28900001 73719.23051702  4168.82268306
0.29000001 72669.66366601  3806.43716300
0.29100001 71635.43681713  4706.44842166
0.29200001 70615.33820518  3413.89868713
0.29300001 69609.84533045  4604.69148658
0.29400001 68617.73521006  4250.86889748
0.29500001 67640.78872618  3904.22651009
0.29600001 66676.20590351  4158.59515906
0.29700001 65725.69923539  3525.52667388
0.29800001 64788.68070082  4649.23594718
0.29900001 63865.07943642  3161.32158176
0.30000001 62953.37638834  3126.57958634
0.30100001 62055.46916310  2811.11288617
0.30200001 61169.16019813  3058.15230888
0.30300001 60296.13898550  2749.50406790
0.30400001 59435.06605691  2991.06984092
0.30500001 58586.51939538  3226.94564107
0.30600001 57748.78914777  3723.06461262
0.30700001 56923.72335045  2892.86375763
0.30800001 56110.08351471  3120.84299284
0.30900001 55308.22864489  3343.38257987
0.31000001 54517.86602561  2797.58442755
0.31100001 53738.15665716  3269.42960581
0.31200001 52970.67520330  2984.36798225
0.31300001 52213.34561328  2705.17356430
0.31400001 51468.46842063  2675.07377282
0.31500001 50732.92847959  2885.68910855
0.31600002 50009.50091421  3329.13263349
0.31700002 49295.93596015  3056.84113362
0.31800002 48592.93130227  2790.20624749
0.31900002 47900.99353404  2989.02213805
0.32000002 47219.71124641  3183.08088584
0.32100002 46548.11841056  2697.92907082
0.32200002 45887.96073072  2667.92616321
0.32300002 45236.24662713  2858.02619723
0.32400002 44595.95400969  3043.67400528
0.32500002 43965.29102576  2579.88339955
0.32600002 43344.89338300  2551.28054533
0.32700002 42734.61373112  2312.79740465
0.32800002 42134.83325645  2911.09576754
0.32900002 41543.16096727  2467.66387831
0.33000002 40962.62385303  2440.55324473
0.33100002 40390.66114196  2011.45502012
0.33200002 39829.90562762  2188.45426834
0.33300002 39277.95869116  2361.39098834
0.33400002 38736.21068596  2141.14414706
0.33500002 38203.59984799  2310.55382823
0.33600002 37680.09555438  3238.03916481
0.33700002 37166.01936144  2072.74899795
0.33800002 36662.33327992  2050.70770913
0.33900002 36166.97814382  2213.41916722
0.34000002 35681.05690984  2372.61199158
0.34100002 35204.53909950  2889.58870613
0.34200002 34738.02309859  2680.90705960
0.34300002 34279.77690939  1945.72022953
0.34400002 33831.62395376  2451.10127153
0.34500002 33391.89775958  1733.03957580
0.34600002 32962.04114354  2401.94405189
0.34700002 32539.89264462  1868.44072415
0.34800002 32127.68710040  1850.07294930
0.34900002 31723.96649511  1998.60998385
0.35000002 31329.55115739  1649.50094656
0.35100002 30944.60004033  2287.42494332
0.35200002 30566.85523065  1780.36656723
0.35300002 30199.24647264  1763.93807001
0.35400002 29839.67803043  1747.85922342
0.35500002 29489.26676007  1574.72691957
0.35600002 29147.00711224  2029.06899622
0.35700002 28813.32734098  2011.45847695
0.35800002 28488.52859479  1840.92880499
0.35900002 28172.59076421  1673.45197066
0.36000002 27864.90248655  2263.32681167
0.36100002 27565.04769386  1496.78216067
0.36200002 27275.07671540  1485.12799750
0.36300002 26991.81539655  2210.62978569
0.36400002 26717.56319049  2047.90131555
0.36500002 26450.59821373  1452.13791072
0.36600002 26192.77108396  2018.67696306
0.36700002 25942.34132547  1718.42077080
0.36800002 25700.93116901  1849.31058987
0.36900002 25467.13729454  1837.45404284
0.37000002 25240.59206388  1545.10291638
0.37100002 25021.85060380  1396.21932983
0.37200002 24811.55063969  1665.84758886
0.37300002 24608.68934552  1932.76655275
0.37400002 24413.38677094  1922.55429928
0.37500002 24225.75872692  1776.23271400
0.37600002 24045.78038266  1631.74673407
0.37700002 23873.06060713  1895.04364077
0.37800002 23707.66283939  1482.55876589
0.37900002 23550.27695887  1342.36585025
0.38000002 23399.39439467  1471.00299831
0.38100002 23254.98694078  1599.01297780
0.38200002 23118.77360580  1859.44304920
0.38300002 22988.75198744  1986.22826581
0.38400002 22865.98556175  2641.02145750
0.38500002 22749.48895535  1317.19547292
0.38600002 22640.64217229  1314.28934037
0.38700002 22537.42724659  1574.01399347
0.38800002 22440.86185106  1571.30922125
0.38900002 22350.71694496  1307.51700322
0.39000002 22267.53726926  1567.18934726
0.39100002 22189.72534230  1826.65827672
0.39200002 22118.79093552  1564.68334491
0.39300002 22053.21661715  1824.68322935
0.39400002 21994.84364913  1694.15291234
0.39500002 21941.03218380  1433.62711081
0.39600002 21893.27581961  1955.61695524
0.39700002 21850.45486037  1565.36666036
0.39800002 21814.47374495  1827.83484169
0.39900002 21782.85575711  1960.45711102
0.40000002 21756.92281069  1439.54686597
0.40100002 21735.89335624  2228.14653352
0.40200002 21720.47764094  1444.30322917
0.40300002 21709.68942596  1447.16796570
0.40400002 21703.85441746  2109.61474933
0.40500002 21702.28142686  1718.16970197
0.40600002 21706.36974117  1855.24350968
0.40700002 21714.39477308  1727.59733000
0.40800002 21726.70201743  1732.81320150
0.40900002 21743.06409423  1738.35805670
0.41000002 21764.25732848  1475.94318066
0.41100002 21789.18346737  1615.88592250
0.41200002 21817.34002713  1621.90113447
0.41300002 21850.56154348  1628.30392337
0.41400002 21886.82716050  2043.68258295
0.41500002 21926.56991503  1778.68343579
0.41600002 21969.01678704  1511.57827166
0.41700002 22016.19513462  2070.62325053
0.41800002 22066.92136556  2080.35911031
0.41900002 22118.94119368  2368.93871409
0.42000002 22174.63714975  1960.45976331
0.42100002 22233.76751558  1548.13730547
0.42200002 22295.43075278  2121.96772245
0.42300002 22359.31578726  1990.87357204
0.42400002 22425.59772072  1429.63192244
0.42500002 22494.87113411  2299.87573373
0.42600002 22565.17296726  2167.94909556
0.42700002 22638.85407697  1598.75595068
0.42800002 22713.80553137  1607.79680073
0.42900002 22791.49722488  1764.06196880
0.43000002 22870.87822828  1774.32281703
0.43100002 22950.38110811  1933.34019616
0.43200002 23032.82777895  1795.17868216
0.43300002 23115.96208275  1805.81904348
0.43400002 23200.94655386  1665.24801782
0.43500002 23286.52688860  1827.52671682
0.43600002 23373.96083633  1991.81216706
0.43700002 23461.69158808  2158.00649454
0.43800002 23549.79119263  2171.05535293
0.43900002 23639.74669333  2340.33503355
0.44000002 23729.57451551  1726.68257145
0.44100002 23820.35218113  1895.14730934
0.44200002 23911.39268767  2065.58575521
0.44300002 24002.87945749  2397.88777144
0.44400002 24094.39014211  1769.13068002
0.44500002 24185.43023050  1779.80589501
0.44600002 24276.56717394  1953.29268738
0.44700002 24368.49557992  2128.83187475
0.44800002 24459.21428842  1812.06097643
0.44900002 24550.22144201  1657.14002587
0.45000002 24641.09016630  2167.06077738
0.45100002 24730.43631728  1844.39602795
0.45200002 24819.82869049  2192.45967128
0.45300002 24908.09607343  2205.11384989
0.45400002 24995.90935650  2047.16507332
0.45500002 25083.09025563  1887.25180028
0.45600002 25168.77413471  1897.85150357
0.45700002 25253.85756968  2081.92811671
0.45800002 25337.34394060  2267.81907688
0.45900002 25419.67578663  1929.35348365
0.46000002 25501.27631260  1939.75467465
0.46100002 25580.58218266  1950.00787220
0.46200002 25659.11737476  2138.43094336
0.46300002 25735.97001439  3045.08011642
0.46400002 25810.76687396  1980.33118226
0.46500002 25885.03854908  1809.36428034
0.46600002 25956.42591070  1818.24772122
0.46700002 26026.17299492  2375.14866009
0.46800002 26094.72390762  2386.49308808
0.46900002 26160.52743542  2397.61245309
0.47000002 26224.71632609  2038.05392588
0.47100002 26286.94610670  2419.45063434
0.47200002 26347.24840867  2243.20483584
0.47300002 26405.29728498  2065.15839854
0.47400002 26460.51235095  2073.84275380
0.47500002 26514.00134868  2082.40976463
0.47600002 26565.87234604  3421.41886161
0.47700002 26614.14885928  2671.52838912
