# SAXS profile: number of points = 501, q_min = 0, q_max = 0.5, delta_q = 0.001
#    q    intensity    error
0.00000000 1646666.22097350 271.69992646
0.00100000 1646585.81000978 642.16848115
0.00200000 1646344.51508765 814.94056077
0.00300000 1645942.55295399 1481.34835043
0.00400000 1645379.81338885 1234.03490693
0.00500000 1644656.76867079 1480.19115039
0.00600000 1643773.34392177 1898.55828952
0.00700000 1642730.07853557 1971.27617617
0.00800000 1641526.81329553 3102.48580812
0.00900000 1640164.73901253 3198.32137780
0.01000000 1638643.27363924 2974.13767008
0.01100000 1636963.63007986 3241.18812868
0.01200000 1635125.77949140 3507.34495078
0.01300000 1633130.84296303 5487.31987437
0.01400000 1630978.81392661 4403.64299282
0.01500000 1628671.10697988 3908.81083081
0.01600000 1626207.09877807 4561.51111599
0.01700000 1623589.09791899 7452.27429375
0.01800000 1620817.01322664 5543.19443467
0.01900000 1617891.35898259 4853.67429596
0.02000000 1614813.50977181 5595.32906447
0.02100000 1611585.32537414 6381.87817783
0.02200000 1608205.41664744 7212.80162136
0.02300000 1604676.91557808 9242.93945445
0.02400000 1600999.36535597 6003.74789384
0.02500000 1597175.23859978 8097.67882953
0.02600000 1593204.63622210 7742.97488619
0.02700000 1589089.60486048 10011.26496915
0.02800000 1584829.97923508 9651.61501616
0.02900000 1580428.14654809 8534.31238321
0.03000000 1575885.58453268 8793.44196589
0.03100000 1571202.51924707 8295.94968335
0.03200000 1566380.43958895 10855.01694631
0.03300000 1561423.03029005 8759.58360375
0.03400000 1556328.61911820 8170.72562737
0.03500000 1551100.20283937 13401.50637139
0.03600000 1545738.94142197 14584.04758630
0.03700000 1540246.94524838 9657.34879334
0.03800000 1534625.27580169 11670.82576259
0.03900000 1528876.20368202 11925.23494098
0.04000000 1522999.50913808 10303.09215675
0.04100000 1516999.22613803 12424.22423814
0.04200000 1510876.05359945 12668.69629717
0.04300000 1504630.82516278 9930.56390703
0.04400000 1498267.13645314 13147.29473296
0.04500000 1491786.39335212 14410.65722937
0.04600000 1485188.43904524 12564.69477842
0.04700000 1478477.32096366 13838.54836782
0.04800000 1471653.80497764 14061.65276082
0.04900000 1464721.35877450 18675.19819366
0.05000000 1457679.60764756 13381.49942133
0.05100000 1450533.15346506 11314.15912409
0.05200000 1443280.10648084 12621.48511935
0.05300000 1435926.48609294 11631.00507957
0.05400000 1428472.37497744 12963.38740745
0.05500000 1420920.21707080 11935.73038019
0.05600000 1413270.91905798 16916.85369053
0.05700000 1405529.68366716 17119.35234617
0.05800000 1397695.38649849 13606.56522289
0.05900000 1389770.54112343 17511.10963603
0.06000000 1381759.17200532 15171.71641742
0.06100000 1373662.03434892 16607.57477137
0.06200000 1365481.73162554 20646.08474725
0.06300000 1357221.20674069 18241.05387146
0.06400000 1348879.37115889 17097.04682901
0.06500000 1340461.75844504 21232.91524700
0.06600000 1331970.20924735 18740.82172097
0.06700000 1323405.22286741 25647.59441945
0.06800000 1314770.60714155 16329.45170506
0.06900000 1306068.69608013 16456.46634108
0.07000000 1297300.43512813 15197.87530922
0.07100000 1288468.29496791 16698.54988491
0.07200000 1279575.45780114 15412.48711124
0.07300000 1270623.81804165 16924.71004933
0.07400000 1261616.12238962 15612.50024624
0.07500000 1252553.51317570 14279.11071950
0.07600000 1243437.60989777 20106.38709465
0.07700000 1234273.28606405 17329.19774888
0.07800000 1225060.78145453 14516.97094103
0.07900000 1215802.46839529 18966.51939657
0.08000000 1206502.03806865 16124.90049522
0.08100000 1197160.37356146 14725.07328568
0.08200000 1187779.42862606 16266.64003835
0.08300000 1178362.83272507 16332.10962807
0.08400000 1168911.41238372 19374.70756968
0.08500000 1159428.36384996 19443.61457455
0.08600000 1149914.81941401 21008.94473710
0.08700000 1140375.19639281 22579.42994886
0.08800000 1130808.73251586 19625.18647449
0.08900000 1121220.60234959 22704.71826401
0.09000000 1111610.33060099 15173.48172549
0.09100000 1101981.26688551 24331.74751597
0.09200000 1092335.34390261 15238.07876343
0.09300000 1082676.94228537 24425.19296575
0.09400000 1073002.95821036 18348.35144772
0.09500000 1063319.59320442 18374.16343421
0.09600000 1053627.20647421 19929.35954729
0.09700000 1043930.91238406 23018.67770024
0.09800000 1034230.00846117 16894.14798254
0.09900000 1024527.48185825 18441.49554061
0.10000000 1014823.81821398 18449.49788276
0.10100000 1005121.70605167 16916.19910845
0.10200000 995423.98521455 18455.16155394
0.10300000 985731.69991909 23066.12286315
0.10400000 976047.82759532 19984.58021019
0.10500000 966375.19611640 16901.90297530
0.10600001 956711.16292970 15355.21488754
0.10700001 947062.53956886 23013.62079449
0.10800001 937428.44083591 18392.34687478
0.10900001 927812.68621576 21432.47406032
0.11000001 918214.87041711 29047.72879291
0.11100001 908637.80541309 18318.13901942
0.11200001 899083.35168868 16763.40988141
0.11300001 889552.78613450 15211.35335906
0.11400001 880048.65259008 15180.83997196
0.11500001 870572.35480210 16662.75565553
0.11600001 861125.10219629 19646.57013179
0.11700001 851709.34966357 16582.78181891
0.11800001 842324.62574285 18042.59433319
0.11900001 832973.64158335 14993.52625472
0.12000001 823657.42182948 16444.32120143
0.12100001 814380.43991441 16393.47902774
0.12200001 805140.71480165 16340.33157671
0.12300001 795941.76848199 22206.77638691
0.12400001 786782.91347397 22128.27048408
0.12500001 777666.17136481 22046.83699705
0.12600001 768595.28491560 17570.08904113
0.12700001 759568.73644712 20417.20859789
0.12800001 750588.41552430 17428.66382987
0.12900001 741656.65570611 15908.53601470
0.13000001 732774.08433861 17278.81372314
0.13100001 723940.87466750 14334.02999409
0.13200001 715159.36409527 15694.17298490
0.13300001 706430.62306733 15619.18181235
0.13400001 697755.01198843 22607.26345426
0.13500001 689134.66167490 14058.34776099
0.13600001 680569.88740442 19579.99658384
0.13700001 672062.17661170 15302.85648303
0.13800001 663610.48870523 19370.79107875
0.13900001 655218.79004184 15135.55476373
0.14000001 646885.56912110 21890.60869143
0.14100001 638613.96766087 14962.72596798
0.14200001 630402.96531530 16226.57309255
0.14300001 622254.70621861 16128.84274595
0.14400001 614166.54060532 17365.55975475
0.14500001 606144.22674403 21239.29470701
0.14600001 598185.90665220 17146.99982308
0.14700001 590293.34801214 14414.96423850
0.14800001 582463.81474558 15621.68024849
0.14900001 574701.94003705 15516.95311310
0.15000001 567006.09035773 23116.83939460
0.15100001 559377.53889305 15304.57018626
0.15200001 551817.63394818 12664.21529670
0.15300001 544326.18610328 13831.32904157
0.15400001 536901.48948686 17476.14430751
0.15500001 529547.65091169 16108.84030096
0.15600001 522261.66408388 12299.26276964
0.15700001 515048.21329781 12206.64323127
0.15800001 507902.13127959 12113.46640276
0.15900001 500828.54684827 20433.80567590
0.16000001 493823.51106715 14311.00602624
0.16100001 486891.90720992 13014.62129407
0.16200001 480030.92915433 19952.48651218
0.16300001 473241.14366560 11641.73268375
0.16400001 466523.36995495 12701.09934664
0.16500001 459876.57427855 13741.11268818
0.16600001 453302.22515534 15897.30978676
0.16700001 446799.20972436 13511.20873999
0.16800001 440368.59866193 11163.34450317
0.16900001 434010.86024077 12174.00520459
0.17000001 427723.68751019 14262.44703350
0.17100001 421509.31220878 16312.41115277
0.17200001 415367.05968675 14012.40842024
0.17300001 409296.17953944 12819.15694855
0.17400001 403298.28783099 10586.58055553
0.17500001 397370.93225303 13637.77103900
0.17600001 391513.94798138 14552.57413377
0.17700001 385731.35675734 10299.02771185
0.17800001 380018.19017831 11223.83777704
0.17900001 374375.86711765 11118.96377858
0.18000001 368805.52180624 14018.29854601
0.18100001 363306.03279285 9918.25516375
0.18200001 357875.09117341 11788.40606011
0.18300001 352514.71314523 12648.22850514
0.18400001 347224.31002406 11562.57007003
0.18500001 342003.37193338 10496.08398049
0.18600001 336851.88829197 13228.17427817
0.18700001 331768.55470597 10291.46105320
0.18800001 326752.24140419 12968.79707406
0.18900001 321807.18838921 9171.50530242
0.19000001 316925.36873928 11803.88591641
0.19100001 312113.74273293 9887.76383698
0.19200001 307367.14909052 14237.24701860
0.19300001 302688.40055022 11450.70273389
0.19400001 298073.83845651 9590.52620553
0.19500001 293525.17803714 10355.56877050
0.19600001 289040.42224775 8541.14488104
0.19700001 284621.68663336 9298.59094174
0.19800001 280265.34665663 10039.10519168
0.19900001 275972.89835852 9935.02481044
0.20000001 271741.31574927 9012.30116276
0.20100001 267573.93220668 12971.98484647
0.20200001 263466.67826471 10429.32895203
0.20300001 259420.94580601 11907.42197530
0.20400001 255436.10745771 9425.59281070
0.20500001 251510.08605173 10103.16063424
0.20600001 247643.16199430 8458.25259772
0.20700001 243835.32525648 8368.42875837
0.20800001 240084.85631366 9784.65878159
0.20900001 236394.04698695 10424.97796493
0.21000001 232757.33716449 7366.77006950
0.21100001 229177.92953645 8016.64435416
0.21200001 225652.90007142 8651.53259773
0.21300001 222182.80096116 7132.06824803
0.21400001 218767.45156933 11993.92609932
0.21500001 215406.37233167 8375.00015220
0.21600001 212096.54772813 7594.11725044
0.21700001 208839.81672806 8877.78102885
0.21800001 205634.54276647 8781.62356404
0.21900001 202479.49202973 7350.00590820
0.22000001 199374.11872865 7270.17758319
0.22100001 196319.74768339 7191.19269767
0.22200001 193313.86050123 7112.98383348
0.22300001 190355.54111788 6395.94648400
0.22400001 187444.37510207 8224.12234649
0.22500001 184582.04100492 8760.26408034
0.22600001 181764.13241440 7426.88280166
0.22700001 178992.65494927 6733.70399762
0.22800001 176265.40232207 6660.18854170
0.22900001 173582.02682316 5988.58020860
0.23000001 170942.58083686 7107.79284734
0.23100001 168347.18038328 7030.17858528
0.23200001 165792.10743609 6373.87787182
0.23300001 163279.94625579 8596.68957694
0.23400001 160807.70726554 7369.01353396
0.23500001 158375.36729234 6167.13709405
0.23600001 155983.09902107 7208.75926221
0.23700001 153630.14215563 8226.89450155
0.23800001 151314.90324421 8136.95930683
0.23900001 149037.62627505 5901.89027965
0.24000001 146796.82868195 7960.05841179
0.24100001 144593.56143195 5248.74652825
0.24200001 142426.09446920 6229.71766676
0.24300001 140293.09367531 7188.61845996
0.24400001 138194.99221761 6602.26606551
0.24500001 136130.19048813 8037.12682661
0.24600001 134099.33496001 6458.89477389
0.24700001 132101.63158293 6879.85329830
0.24800001 130135.87124989 5832.69002535
0.24900001 128200.70183418 6730.53716470
0.25000001 126297.89189308 5230.62744020
0.25100001 124424.64112591 6584.55231989
0.25200001 122583.26321479 5117.23856500
0.25300001 120769.86599164 6441.86495676
0.25400001 118986.18167378 4551.22166435
0.25500001 117229.32815373 4951.76705549
0.25600001 115501.57395634 6233.62024135
0.25700001 113800.23294949 7046.51075763
0.25800001 112126.01179404 6969.75322288
0.25900001 110478.78300188 6463.00911141
0.26000001 108856.67058467 5966.43439705
0.26100001 107259.31077334 5058.34933541
0.26200001 105688.24572750 5003.28178948
0.26300001 104139.99632698 4948.73285962
0.26400001 102616.82046156 5302.72444827
0.26500001 101116.88635447 4438.02035210
0.26600001 99639.53597972  5187.73268627
0.26700001 98185.23852407  5131.16080808
0.26800001 96753.27404379  7417.59010557
0.26900001 95342.33960312  4633.63792398
0.27000001 93953.41008581  4964.96819094
0.27100001 92585.07697705  4155.21845137
0.27200001 91238.04700093  4483.43784180
0.27300001 89910.90690717  4064.87229364
0.27400001 88602.28138316  4385.81313602
0.27500001 87315.14649260  4337.81668304
0.27600001 86044.80376062  4647.71029509
0.27700001 84795.17187986  4243.15060168
0.27800001 83562.82009779  4546.23544258
0.27900001 82349.11511182  5187.99449758
0.28000001 81152.55997810  4446.75473446
0.28100001 79973.72040293  4736.04394641
0.28200001 78812.37452809  4014.70254848
0.28300001 77667.68510294  4632.10095878
0.28400001 76538.85603092  5562.46162532
0.28500001 75427.04580578  3882.98450187
0.28600001 74330.73950535  3839.92618460
0.28700001 73250.97330081  3480.88641601
0.28800001 72185.07744766  3755.06790657
0.28900001 71135.98535584  4641.62326417
0.29000001 70101.12543659  3977.88855119
0.29100001 69081.53890930  3630.92585694
0.29200001 68076.04346423  4188.71915263
0.29300001 67085.03883051  3845.98545821
0.29400001 66107.36685000  4387.87668238
0.29500001 65144.81071353  2892.42973260
0.29600001 64194.58787813  2859.86902535
0.29700001 63258.54339726  3110.42272608
0.29800001 62335.77087896  5311.94296691
0.29900001 61426.42531792  3040.60819718
0.30000001 60529.10950433  3279.46730819
0.30100001 59645.35146573  3512.51491410
0.30200001 58773.35792731  2938.37416868
0.30300001 57914.50438043  3169.08182973
0.30400001 57067.67486915  2871.93087375
0.30500001 56233.28545878  3097.32950970
0.30600001 55409.81890772  3827.43342225
0.30700001 54599.08423165  3531.46893529
0.30800001 53799.68590012  3491.06178334
0.30900001 53012.09633053  2958.07511529
0.31000001 52235.91325985  2680.48601584
0.31100001 51470.55422874  2890.58646234
0.31200001 50717.45287478  2381.18452521
0.31300001 49974.43563020  2353.79602963
0.31400001 49243.95699923  3490.16561757
0.31500001 48522.99134707  2529.98888862
0.31600002 47813.95969445  3410.33083668
0.31700002 47114.85176825  2472.11638933
0.31800002 46426.43171709  3110.10680799
0.31900002 45749.12077542  2854.74527156
0.32000002 45082.36588185  3256.07402999
0.32100002 44425.53721293  2145.75354899
0.32200002 43780.05922725  2969.60155800
0.32300002 43143.01714955  2935.45102585
0.32400002 42517.52501239  2487.27533100
0.32500002 41901.89451928  2458.80328682
0.32600002 41296.50309776  2633.27164472
0.32700002 40701.01158813  2402.98783795
0.32800002 40116.38757903  2177.71820285
0.32900002 39539.75897236  1957.21816181
0.33000002 38974.36065207  2322.09251761
0.33100002 38417.61289800  2295.83665550
0.33200002 37872.19770390  2080.88800138
0.33300002 37335.63880775  2057.56715213
0.33400002 36809.35119058  2404.57098039
0.33500002 36292.07545727  2194.94482760
0.33600002 35784.15013608  1989.77776255
0.33700002 35285.75817850  1967.88682681
0.33800002 34797.61295332  2831.13392396
0.33900002 34318.00695116  1750.21843740
0.34000002 33847.87790117  2077.58284396
0.34100002 33387.22461365  2740.42352607
0.34200002 32936.60749546  1694.58853590
0.34300002 32494.47490832  1676.71498468
0.34400002 32062.25126391  2488.83237223
0.34500002 31638.67648208  1970.45686463
0.34600002 31224.83075419  1787.77776950
0.34700002 30818.90376685  1608.74685282
0.34800002 30422.92835832  1751.90441249
0.34900002 30035.61874836  2207.61808256
0.35000002 29657.57564584  2029.91286122
0.35100002 29289.04014562  2010.39981081
0.35200002 28927.75250450  1684.89702443
0.35300002 28576.70052640  1820.90744379
0.35400002 28233.87426167  1653.79926321
0.35500002 27900.06538825  2383.78169968
0.35600002 27574.31937934  1771.92584724
0.35700002 27257.37812250  1902.83765686
0.35800002 26949.33321778  1886.58816127
0.35900002 26650.29955146  2014.76274152
0.36000002 26359.48104096  1570.10256257
0.36100002 26076.42356734  2123.92480016
0.36200002 25803.32033776  1826.48811662
0.36300002 25537.10645698  1394.32607860
0.36400002 25279.82307860  2352.91964449
0.36500002 25029.87786785  1374.14036003
0.36600002 24789.09676449  1364.63984153
0.36700002 24555.75628201  1491.02559207
0.36800002 24331.32037994  1616.08637619
0.36900002 24114.66898311  1338.36419196
0.37000002 23905.22280900  1596.39085481
0.37100002 23703.71336874  1587.20072236
0.37200002 23510.57825045  1710.04199005
0.37300002 23324.82916654  1439.37527605
0.37400002 23146.60718330  1562.39605888
0.37500002 22976.16746146  1555.02708745
0.37600002 22813.50041568  1806.14491347
0.37700002 22657.85408449  1284.70038745
0.37800002 22509.67130041  1279.67487405
0.37900002 22369.48296697  1657.57876638
0.38000002 22235.61455113  1524.91851816
0.38100002 22108.34516536  1900.21235698
0.38200002 21989.27935849  2021.25465439
0.38300002 21876.30243591  1386.08258800
0.38400002 21770.68887247  1382.98307614
0.38500002 21671.24864498  1631.19496278
0.38600002 21579.43251759  2129.56639889
0.38700002 21493.18546762  1501.08414417
0.38800002 21413.63996328  1999.17752168
0.38900002 21340.40509595  1498.09650871
0.39000002 21274.15935200  1497.27540613
0.39100002 21213.16427218  1621.53435379
0.39200002 21158.88224243  1372.04778401
0.39300002 21110.17283367  1372.37240094
0.39400002 21068.39704773  1373.13284264
0.39500002 21031.30191275  1873.88908921
0.39600002 21000.12726325  1250.55763778
0.39700002 20973.87314127  1752.99640020
0.39800002 20954.32714078  1379.52819267
0.39900002 20939.09600413  2261.42247559
0.40000002 20929.58423553  1384.80600655
0.40100002 20924.74415590  1640.29077210
0.40200002 20925.51802749  1391.44238716
0.40300002 20930.81937541  1395.24848567
0.40400002 20940.98304897  1526.59773660
0.40500002 20955.45270157  1659.04326899
0.40600002 20975.39462650  1920.82185393
0.40700002 20999.19713560  1413.66601815
0.40800002 21027.20810775  1548.02313424
0.40900002 21059.02515438  1424.64311920
0.41000002 21095.75562675  1430.60873561
0.41100002 21136.04329525  1959.31130631
0.41200002 21179.54950756  1312.07315416
0.41300002 21227.89940039  2372.85470741
0.41400002 21279.22183091  1457.09478391
0.41500002 21334.02186210  2263.11314636
0.41600002 21391.25958335  1605.62802041
0.41700002 21453.24406163  1614.14215968
0.41800002 21518.51289573  1487.68245954
0.41900002 21585.06473433  1631.83097124
0.42000002 21655.08047273  1777.77391565
0.42100002 21728.48207271  2063.11947056
0.42200002 21804.37148370  1383.48743620
0.42300002 21882.18868165  1948.39017254
0.42400002 21962.41132479  1540.11416713
0.42500002 22045.36981135  1549.56911747
0.42600002 22129.31136041  1842.59719774
0.42700002 22216.45802303  2139.44500900
0.42800002 22304.73307390  1578.84060545
0.42900002 22395.76603748  1588.97967566
0.43000002 22488.10380523  1890.01277387
0.43100002 22580.58077744  1755.86604446
0.43200002 22675.78853161  2061.90954889
0.43300002 22771.57498524  1482.42960179
0.43400002 22869.01122797  2536.74519067
0.43500002 22966.92953030  2403.25961994
0.43600002 23066.48518016  1965.61062778
0.43700002 23166.30186023  1978.63393565
0.43800002 23266.29673067  1685.29428355
0.43900002 23367.98851067  2159.20224071
0.44000002 23469.46533805  1863.00624682
0.44100002 23571.59844919  1875.35646149
0.44200002 23673.89709091  2045.06969711
0.44300002 23776.57262910  1741.87179336
0.44400002 23878.97295759  1912.70582455
0.44500002 23980.93240704  2085.62179028
0.44600002 24082.64530305  2745.06045496
0.44700002 24185.04599120  1787.75868439
0.44800002 24286.05942133  1962.79941545
0.44900002 24387.14189015  2963.03788008
0.45000002 24488.05553117  1822.27873871
0.45100002 24587.31658266  2167.12618630
0.45200002 24686.35747284  2012.92568373
0.45300002 24784.23247325  2700.49009827
0.45400002 24881.31157878  2037.77951488
0.45500002 24977.63410252  2391.85835502
0.45600002 25072.35998941  1890.58139460
0.45700002 25166.31597046  2939.17418149
0.45800002 25258.50543380  1912.95299969
0.45900002 25349.40202954  2098.93058752
0.46000002 25439.34504582  2462.78311061
0.46100002 25526.87728522  2122.81521565
0.46200002 25613.48437209  1956.74223135
0.46300002 25698.22056707  2146.31548349
0.46400002 25780.73997149  2157.84803789
0.46500002 25862.56085110  2169.35170701
0.46600002 25941.38776631  2725.79144874
0.46700002 26018.37718783  2922.38426425
0.46800002 26094.05453500  1835.71682354
0.46900002 26166.84753780  2951.62054216
0.47000002 26237.75890136  2409.80708051
0.47100002 26306.63181615  2235.01154503
0.47200002 26373.39679007  2432.55036823
0.47300002 26437.72663010  2819.58367874
0.47400002 26499.13585797  2076.86987131
0.47500002 26558.60115960  2465.16947648
0.47600002 26616.35928020  2094.84065644
0.47700002 26670.39095624  2103.49383442
