# SAXS profile: number of points = 501, q_min = 0, q_max = 0.5, delta_q = 0.001
#    q    intensity    error
0.00000000 1646666.22097350 321.09991309
0.00100000 1646585.74284736 642.16845496
0.00200000 1646344.24404363 1037.19690659
0.00300000 1645941.94342481 1185.07824148
0.00400000 1645378.73315817 1357.43750644
0.00500000 1644655.08423309 1924.24652472
0.00600000 1643770.91202344 3106.72715021
0.00700000 1642726.76901671 2365.52664570
0.00800000 1641522.49840628 2659.26655969
0.00900000 1640159.28352303 2952.28683654
0.01000000 1638636.54433977 3514.87553938
0.01100000 1636955.50697738 3241.17204493
0.01200000 1635116.10851186 3826.17186167
0.01300000 1633119.47495001 3772.50615352
0.01400000 1630965.65529957 4403.60746452
0.01500000 1628656.01641460 5081.40699748
0.01600000 1626190.02042844 4561.46321122
0.01700000 1623569.79761990 6137.09411031
0.01800000 1620795.36823473 6928.90051099
0.01900000 1617867.29478144 5338.96231369
0.02000000 1614786.90564946 5595.23688118
0.02100000 1611556.04300894 6381.76221965
0.02200000 1608173.27583260 7212.65746980
0.02300000 1604641.91288180 5776.71114932
0.02400000 1600961.25678328 6003.60498669
0.02500000 1597134.00284691 8720.35205381
0.02600000 1593160.08416727 6452.29863599
0.02700000 1589041.69194928 7341.37295305
0.02800000 1584778.52717791 8961.92298218
0.02900000 1580373.06695503 9956.35077895
0.03000000 1575826.79911753 10258.63293380
0.03100000 1571139.86756312 8295.61888244
0.03200000 1566313.79660088 9303.90438033
0.03300000 1561352.40814029 9555.47717833
0.03400000 1556253.81004306 10621.43274362
0.03500000 1551021.13996913 10888.16890538
0.03600000 1545655.47176462 12009.74357063
0.03700000 1540159.00081921 9656.79738174
0.03800000 1534532.73771184 10772.42031728
0.03900000 1528779.02783381 10089.94205097
0.04000000 1522897.59585960 10302.40271339
0.04100000 1516892.46204176 10512.06524936
0.04200000 1510764.38394234 16565.53223845
0.04300000 1504514.13489938 11915.75250151
0.04400000 1498145.48027514 14157.47544610
0.04500000 1491659.44280134 16467.92101371
0.04600000 1485056.17716585 11516.61118929
0.04700000 1478339.79935763 14901.66587057
0.04800000 1471510.88320375 11897.16604426
0.04900000 1464572.96969199 14279.58711918
0.05000000 1457525.53347880 18955.12044556
0.05100000 1450373.61494559 14706.78914065
0.05200000 1443114.87072596 13767.31650830
0.05300000 1435755.45837488 11629.61975498
0.05400000 1428295.55382531 20031.84607656
0.05500000 1420737.49282681 11934.19549647
0.05600000 1413082.35707834 13290.04018849
0.05700000 1405335.13333731 13449.05785382
0.05800000 1397494.89869328 21025.31173256
0.05900000 1389563.91098767 23761.54398769
0.06000000 1381546.40489913 16433.49525403
0.06100000 1373443.07991987 19159.53186023
0.06200000 1365256.61259392 14191.84315129
0.06300000 1356989.87916288 15632.52413886
0.06400000 1348641.76161948 18408.96090703
0.06500000 1340217.84478150 13268.15728399
0.06600000 1331719.99546079 21414.05852894
0.06700000 1323148.64644351 14845.72850786
0.06800000 1314507.64396099 19047.21665258
0.06900000 1305799.58179328 16453.07550091
0.07000000 1297024.77599968 15194.64596238
0.07100000 1288186.29072901 16694.89510980
0.07200000 1279286.98948173 22413.10910570
0.07300000 1270328.77386617 15510.71505567
0.07400000 1261314.72720795 17027.74961530
0.07500000 1252245.74711487 18558.28284212
0.07600000 1243123.35747362 24408.72826829
0.07700000 1233952.59650927 17324.69526732
0.07800000 1224733.76832999 21769.64375298
0.07900000 1215468.87000386 18961.31526142
0.08000000 1206162.13948151 26378.76722792
0.08100000 1196814.04863491 19137.05753555
0.08200000 1187426.74840610 19218.50282478
0.08300000 1178003.72178478 14842.84759109
0.08400000 1168545.95877571 17878.75400847
0.08500000 1159056.61348641 17942.19721907
0.08600000 1149536.91218005 18001.74888995
0.08700000 1139991.05317598 21067.03565195
0.08800000 1130418.15460823 15091.08307275
0.08900000 1120824.00763700 27236.02466485
0.09000000 1111207.75057014 18201.58380937
0.09100000 1101572.55176592 16721.87212142
0.09200000 1091920.44028346 15232.29085767
0.09300000 1082256.14627830 18311.77485554
0.09400000 1072576.29703219 16812.63424613
0.09500000 1062887.01413048 16836.13109517
0.09600000 1053188.90257803 15323.89925285
0.09700000 1043486.67110970 21474.95670103
0.09800000 1033780.08457354 19957.12547103
0.09900000 1024071.92813074 21505.51150199
0.10000000 1014362.71355492 19977.87458297
0.10100000 1004655.10093304 18445.46852065
0.10200000 994951.98147822 21520.81237163
0.10300000 985254.26848965 18443.96077374
0.10400000 975565.31329761 18438.18528875
0.10500000 965887.51294523 16893.37339623
0.10600001 956218.20157266 16882.03314312
0.10700001 946564.56427546 21468.08532801
0.10800001 936925.50204502 21446.22575111
0.10900001 927305.02729789 18360.64040465
0.11000001 917702.43818717 18335.69557803
0.11100001 908120.59443280 18307.71204557
0.11200001 898561.72570751 16753.68416453
0.11300001 889026.63602709 15202.35619180
0.11400001 879518.18000110 16688.85825131
0.11500001 870037.73034886 18166.38866510
0.11600001 860586.19915969 18123.94620779
0.11700001 851166.44231330 16572.21141231
0.11800001 841777.75542819 18030.88037050
0.11900001 832422.85266455 16481.97325909
0.12000001 823103.02315225 17927.18468871
0.12100001 813822.31469452 20850.12868468
0.12200001 804579.28103095 20782.28380811
0.12300001 795376.85973698 17752.81234574
0.12400001 786214.81861413 16215.68139796
0.12500001 777094.87718603 27905.47835467
0.12600001 768021.00510993 21946.20125520
0.12700001 758991.64212989 17487.16825878
0.12800001 750008.54514905 15963.93263587
0.12900001 741074.13439460 24566.60871306
0.13000001 732189.15417620 18703.77282503
0.13100001 723353.54605402 14322.40088699
0.13200001 714569.90163386 18532.37127250
0.13300001 705839.01464613 15606.10134954
0.13400001 697161.52053366 15529.27360202
0.13500001 688539.31947878 19664.68389147
0.13600001 679972.84042613 23754.85230035
0.13700001 671463.49497990 18069.08350193
0.13800001 663010.40844923 20735.65150205
0.13900001 654617.56542539 17871.06037888
0.14000001 646283.25690760 16402.66983387
0.14100001 638010.60853810 14948.58926307
0.14200001 629798.71554068 22965.61124537
0.14300001 621649.84688903 16113.16479138
0.14400001 613561.13175606 17348.44181873
0.14500001 605538.51983313 13261.29420991
0.14600001 597579.83278980 15811.96312154
0.14700001 589687.16942346 19636.58366819
0.14800001 581857.75516138 18206.33001795
0.14900001 574095.90524151 15500.59017285
0.15000001 566400.30348006 14111.86422704
0.15100001 558772.30121926 16562.01178962
0.15200001 551213.10956484 16445.44389988
0.15300001 543722.42975795 18839.98308015
0.15400001 536298.56134299 16209.62478154
0.15500001 528945.91849949 14852.80209241
0.15600001 521660.98573819 13513.62847332
0.15700001 514449.11054421 13411.68894488
0.15800001 507304.39543996 13309.13144254
0.15900001 500232.44567230 13206.13718909
0.16000001 493229.20869068 14293.78314256
0.16100001 486299.59802594 12998.78886883
0.16200001 479440.72554339 18755.72206864
0.16300001 472653.17237501 11627.26858932
0.16400001 465937.77274560 18451.13667180
0.16500001 459293.47531802 11436.40807535
0.16600001 452721.90149917 14742.88941838
0.16700001 446221.67919510 12369.26553130
0.16800001 439794.02925645 12263.65708486
0.16900001 433439.34828366 12157.97429343
0.17000001 427155.59444312 13147.84981780
0.17100001 420944.52163571 11946.40608815
0.17200001 414805.66960184 11840.62839793
0.17300001 408738.48897685 17068.92010574
0.17400001 402744.49002674 11629.24769873
0.17500001 396821.08367653 13618.90023497
0.17600001 390968.22807467 12456.24833476
0.17700001 385189.79746793 12341.48169377
0.17800001 379480.90266549 11207.96898960
0.17900001 373843.12162462 10093.76476063
0.18000001 368277.41340433 9998.73224622
0.18100001 362782.70597778 11884.76200923
0.18200001 357356.56815596 13733.21356296
0.18300001 352001.22859650 10686.75780502
0.18400001 346715.96776215 13469.91598389
0.18500001 341500.36336325 18102.93511711
0.18600001 336354.30428000 16039.05575733
0.18700001 331276.38821731 10276.19404800
0.18800001 326265.61461129 10174.59367236
0.18900001 321326.35056891 10073.58156629
0.19000001 316450.44010432 13599.45830604
0.19100001 311644.63245376 13463.04875813
0.19200001 306904.18496798 10661.85188957
0.19300001 302231.74554468 11433.42747421
0.19400001 297623.43609479 11317.13169228
0.19500001 293081.13341822 12924.87859451
0.19600001 288602.99292117 9381.04072822
0.19700001 284190.66803707 10128.55588749
0.19800001 279841.12472965 10023.90956153
0.19900001 275555.51998479 9093.33258925
0.20000001 271330.93221902 8180.62799303
0.20100001 267170.43409134 8904.79098913
0.20200001 263070.30760006 8010.49124503
0.20300001 259031.73417289 10304.28287243
0.20400001 255054.19708760 9411.50031737
0.20500001 251135.54237941 10088.11521421
0.20600001 247276.16062672 8445.71766542
0.20700001 243475.74313765 8356.08789947
0.20800001 239732.84355511 8267.18750079
0.20900001 236049.77617851 11896.90928178
0.21000001 232420.73238560 11034.17479162
0.21100001 228849.10720195 10916.10292957
0.21200001 225332.11090247 7199.36128368
0.21300001 221869.85186791 7834.22483982
0.21400001 218462.46145012 9159.03912930
0.21500001 215109.55488355 8363.45988928
0.21600001 211807.97229164 10341.52473607
0.21700001 208559.22492135 12957.78525700
0.21800001 205362.26648126 6746.15077287
0.21900001 202215.48973478 8007.73377212
0.22000001 199118.38856016 7260.85238216
0.22100001 196072.53269022 8487.98034150
0.22200001 193074.91530297 10333.36995562
0.22300001 190125.21896369 7665.84919110
0.22400001 187222.48915967 8214.38710031
0.22500001 184368.76818650 8750.14215190
0.22600001 181559.36970395 6182.09683076
0.22700001 178796.39182479 6114.83688957
0.22800001 176077.80385841 7862.75470313
0.22900001 173403.01864886 7178.88531156
0.23000001 170772.34475624 8284.16683590
0.23100001 168185.64352585 8194.00494010
0.23200001 165639.15584461 6946.90652467
0.23300001 163135.68523359 8016.48795151
0.23400001 160672.17674899 6230.06394809
0.23500001 158248.58900952 6162.20034748
0.23600001 155865.03761011 6649.20281893
0.23700001 153520.74917991 6576.82920594
0.23800001 151214.32847459 6505.24071867
0.23900001 148945.66949891 8043.06653337
0.24000001 146713.60244082 9546.65456238
0.24100001 144519.04774678 6295.25001762
0.24200001 142360.32341790 6226.84084084
0.24300001 140235.97861229 6672.42817800
0.24400001 138146.51484476 6599.95005891
0.24500001 136090.33491788 5021.73359602
0.24600001 134068.02353278 6954.10870961
0.24700001 132078.93844045 6878.67143938
0.24800001 130121.68162808 5346.04954259
0.24900001 128195.18079073 6249.51535920
0.25000001 126300.74596099 6657.31263455
0.25100001 124436.08634864 7525.89485841
0.25200001 122603.06826046 5118.06532667
0.25300001 120797.92994837 5522.88161853
0.25400001 119022.52932824 5463.13435463
0.25500001 117273.99755624 8556.31126652
0.25600001 115554.50208048 4454.62626596
0.25700001 113861.44092361 5728.36936389
0.25800001 112195.26636827 5230.54356557
0.25900001 110556.16941883 4311.69081134
0.26000001 108942.02429205 5118.09654341
0.26100001 107352.59160058 4640.85275448
0.26200001 105789.38399365 5425.40881483
0.26300001 104249.03847543 4128.26211897
0.26400001 102733.55247418 6125.48835612
0.26500001 101241.17922651 4847.42789074
0.26600001 99771.60007328  4395.43804922
0.26700001 98324.72063400  4743.18474783
0.26800001 96900.22546008  4300.91671057
0.26900001 95496.63396963  4254.37524467
0.27000001 94114.97002664  4973.50582642
0.27100001 92753.81423485  4541.22695984
0.27200001 91413.94624103  4117.74140329
0.27300001 90093.80269551  4073.14101262
0.27400001 88792.18581207  4761.48118951
0.27500001 87511.85629751  4347.58922661
0.27600001 86248.22326790  3941.97523102
0.27700001 85005.24235658  4962.60628364
0.27800001 83779.51135573  4908.64180264
0.27900001 82572.16350251  3814.83413436
0.28000001 81381.99183068  3773.27622981
0.28100001 80209.43408273  4410.71698896
0.28200001 79054.20455729  4698.19159920
0.28300001 77915.51880172  3651.12138386
0.28400001 76792.67097759  3939.46420761
0.28500001 75686.65200995  5195.13203986
0.28600001 74596.11038107  4817.04405586
0.28700001 73521.81085684  3176.14237935
0.28800001 72461.46314358  3455.32503355
0.28900001 71417.77868670  3106.67351992
0.29000001 70388.13593998  3686.93073505
0.29100001 69373.70380105  4861.70939251
0.29200001 68373.17586804  4507.50183246
0.29300001 67387.05311629  4754.83069296
0.29400001 66414.14765173  3820.47402451
0.29500001 65456.33876396  3196.88773656
0.29600001 64510.58645947  4023.52546794
0.29700001 63578.91654054  3694.57101506
0.29800001 62660.41820017  3091.35187825
0.29900001 61755.18199564  3334.77998563
0.30000001 60861.83482975  3847.07676171
0.30100001 59982.04478257  2717.18675728
0.30200001 59113.78460036  3224.06596473
0.30300001 58258.48488339  3453.56314738
0.30400001 57415.21127623  3414.76985231
0.30500001 56584.26540010  3636.10506675
0.30600001 55764.01378799  3081.51954781
0.30700001 54956.28936287  2792.87875765
0.30800001 54159.85541951  3012.37130105
0.30900001 53375.08042205  2730.13549284
0.31000001 52601.60572140  2699.25152539
0.31100001 51838.80545718  3396.47869436
0.31200001 51088.09096238  2638.44458267
0.31300001 50347.43743479  2608.50085700
0.31400001 49619.07661447  2344.50148104
0.31500001 48900.16853647  3476.80214756
0.31600002 48193.01730673  3208.20931401
0.31700002 47495.71718740  2492.10039882
0.31800002 46808.76669586  2239.79959245
0.31900002 46132.89112830  2435.81676691
0.32000002 45467.50561857  2627.11259903
0.32100002 44811.91812238  2813.74047213
0.32200002 44167.48371353  2781.88909342
0.32300002 43531.41735540  3173.44047547
0.32400002 42906.70914880  2928.38303807
0.32500002 42291.63712935  2481.67338426
0.32600002 41686.75075405  2249.20874344
0.32700002 41091.73873391  3436.91319045
0.32800002 40507.30153329  1999.03542533
0.32900002 39930.82290798  2569.54857581
0.33000002 39365.49591276  2345.39635755
0.33100002 38808.58352097  2705.73457121
0.33200002 38262.87341106  2102.35367913
0.33300002 37725.84327601  2646.09077269
0.33400002 37199.04696247  2990.80351741
0.33500002 36681.15910961  2033.60355734
0.33600002 36172.41942113  2377.07065483
0.33700002 35672.99684293  2170.34523070
0.33800002 35183.87144305  1968.00994237
0.33900002 34703.12142178  2123.83113159
0.34000002 34231.64986652  1926.04387095
0.34100002 33769.51579287  2078.85149066
0.34200002 33317.41381791  1714.18102211
0.34300002 32873.52554684  2035.52879826
0.34400002 32439.51018211  1846.61920457
0.34500002 32013.97206326  2326.13532028
0.34600002 31598.19011205  1644.68587323
0.34700002 31190.09386371  1953.74757215
0.34800002 30791.94184393  1934.34987825
0.34900002 30402.12390023  1915.33389643
0.35000002 30021.53540230  1738.69730517
0.35100002 29650.43867751  2191.76053085
0.35200002 29286.39364505  1550.71461695
0.35300002 28932.48181698  1843.57782870
0.35400002 28586.67022360  3044.48052301
0.35500002 28249.85161581  1659.39636251
0.35600002 27921.04651681  1495.17211179
0.35700002 27600.84099749  1778.59827812
0.35800002 27289.36939595  2351.25217852
0.35900002 26986.82020126  1748.74603187
0.36000002 26692.44378135  1445.39589922
0.36100002 26405.77701988  2294.13401615
0.36200002 26128.88352936  1707.26133068
0.36300002 25858.77191999  1976.64461919
0.36400002 25597.52146344  1962.05011311
0.36500002 25343.53908648  2087.04054263
0.36600002 25098.57267310  1658.01178932
0.36700002 24861.04497528  1921.26164670
0.36800002 24632.34168092  1636.08021195
0.36900002 24411.28630345  1354.82645402
0.37000002 24197.41074979  1481.24456921
0.37100002 23991.24075321  2141.93807591
0.37200002 23793.48401154  1464.37004286
0.37300002 23603.06072301  1588.95812314
0.37400002 23420.08349794  1449.11773508
0.37500002 23244.80929743  1442.10803713
0.37600002 23077.14076828  1566.01484672
0.37700002 22916.49816675  1819.11171065
0.37800002 22763.25422705  1552.90927693
0.37900002 22617.84811032  1547.06088403
0.38000002 22478.91727435  1927.00527463
0.38100002 22346.37676087  1792.62642868
0.38200002 22222.01136511  1787.31645877
0.38300002 22103.61791164  1527.80214243
0.38400002 21992.52340660  1524.08194428
0.38500002 21887.61970758  1394.02256522
0.38600002 21790.21990548  1517.90679053
0.38700002 21698.47154933  1515.42132480
0.38800002 21613.23834230  1891.69877553
0.38900002 21534.36370534  1637.68843738
0.39000002 21462.35777261  1636.39754590
0.39100002 21395.67899287  1383.87258282
0.39200002 21335.58931580  1509.27965970
0.39300002 21280.99209374  1886.56003849
0.39400002 21233.36926334  1509.69262615
0.39500002 21190.36461796  1384.57848974
0.39600002 21153.31198137  1763.55170344
0.39700002 21121.06015792  1639.20555652
0.39800002 21095.51639859  1262.56671627
0.39900002 21074.29291636  1770.24068885
0.40000002 21058.69978378  1520.01702241
0.40100002 21047.84971470  1523.02247752
0.40200002 21042.54337123  1780.83052988
0.40300002 21041.78161235  1657.67163396
0.40400002 21045.84554234  1662.09573046
0.40500002 21054.12727603  1282.19641186
0.40600002 21067.97829104  1929.30020341
0.40700002 21085.64557038  1290.44157005
0.40800002 21107.50844940  1553.93484567
0.40900002 21133.22731540  2209.47902051
0.41000002 21163.81886264  1435.22444417
0.41100002 21197.95397313  1572.04034113
0.41200002 21235.29784839  1315.52676404
0.41300002 21277.56880789  1453.47079414
0.41400002 21322.75079949  1725.54369021
0.41500002 21371.38951669  1733.64719974
0.41600002 21422.61071961  1741.97967321
0.41700002 21478.41639695  1885.37548066
0.41800002 21537.64705130  1624.36941758
0.41900002 21598.08166787  1904.95089337
0.42000002 21662.10736081  1641.55457359
0.42100002 21729.52718862  1650.57496346
0.42200002 21799.31658633  2074.75005442
0.42300002 21871.20189672  1669.21020785
0.42400002 21945.49529108  1538.92793021
0.42500002 22022.48994243  1688.68460881
0.42600002 22100.52418058  1981.75409718
0.42700002 22181.79224419  1566.47824251
0.42800002 22264.29394214  1862.51959799
0.42900002 22349.43792390  1441.53881440
0.43000002 22436.00406328  1885.63405085
0.43100002 22522.74016653  2043.26308473
0.43200002 22612.27322292  1468.66721543
0.43300002 22702.37480303  1773.50960366
0.43400002 22794.22493306  1933.52022157
0.43500002 22886.60021846  1646.46209774
0.43600002 22980.66182131  2259.57368066
0.43700002 23074.97380141  1970.83360577
0.43800002 23169.53919158  1525.71422807
0.43900002 23265.88944873  1689.10365402
0.44000002 23361.97070909  1854.47332277
0.44100002 23458.87853123  1710.85609236
0.44200002 23556.01363044  2034.88633390
0.44300002 23653.46772827  1732.85312789
0.44400002 23750.79325538  1743.90207742
0.44500002 23847.62730663  1595.40634242
0.44600002 23944.40644187  1766.01978081
0.44700002 24041.86192091  1938.73583718
0.44800002 24138.03203995  1950.83584192
0.44900002 24234.36420410  1962.98359356
0.45000002 24330.55040949  1810.55799453
0.45100002 24425.02575430  2152.82187201
0.45200002 24519.49940866  1832.71007016
0.45300002 24612.79539492  1843.74459041
0.45400002 24705.36447973  2023.36944678
0.45500002 24797.33775745  2035.36557959
0.45600002 24887.75251705  1876.66106749
0.45700002 24977.43292555  2059.13966797
0.45800002 25065.41386759  2761.20612252
0.45900002 25152.20941845  2256.15329176
0.46000002 25238.11007181  2617.82309127
0.46100002 25321.68803078  1754.79306370
0.46200002 25404.42514273  1764.33740978
0.46300002 25485.36028751  1951.15927609
0.46400002 25564.10430338  2139.71563161
0.46500002 25642.27595048  1971.63469128
0.46600002 25717.51648773  2882.41938456
0.46700002 25791.01870611  2172.63551878
0.46800002 25863.23835003  2183.37468499
0.46900002 25932.69577485  2011.08065266
0.47000002 26000.36335886  2388.00348588
0.47100002 26066.07507227  2214.57384310
0.47200002 26129.71863609  2410.07471263
0.47300002 26191.00861497  2607.05312110
0.47400002 26249.51377136  2057.30573934
0.47500002 26306.13879933  2629.56175902
0.47600002 26361.12577074  2451.98022978
0.47700002 26412.48235000  2083.15258168
