# SAXS profile: number of points = 501, q_min = 0, q_max = 0.5, delta_q = 0.001
#    q    intensity    error
0.00000000 1664650.74656090 324.60689558
0.00100000 1664569.82704159 749.05643996
0.00200000 1664327.01003676 898.73661388
0.00300000 1663922.51198838 1497.53031414
0.00400000 1663356.21304419 1247.51720719
0.00500000 1662628.60467117 1945.27554446
0.00600000 1661739.59720175 1919.30931291
0.00700000 1660689.73093739 2192.11053594
0.00800000 1659478.86938887 4032.53382287
0.00900000 1658108.18986835 3233.31110846
0.01000000 1656577.09065640 3826.69324465
0.01100000 1654886.82725932 3276.67606064
0.01200000 1653037.34624381 3545.76526315
0.01300000 1651029.76149533 3813.87891726
0.01400000 1648864.10455225 4451.93327965
0.01500000 1646541.73389096 5137.21043849
0.01600000 1644062.13790950 4611.59450299
0.01700000 1641427.50221476 5318.22534574
0.01800000 1638637.78777052 6071.15327688
0.01900000 1635693.53795585 5888.49700235
0.02000000 1632596.13561352 5142.67805982
0.02100000 1629347.38722586 6452.21594595
0.02200000 1625945.92120674 7853.31915622
0.02300000 1622394.89089685 7008.74624770
0.02400000 1618693.84649273 7284.12264136
0.02500000 1614845.31579299 6297.89701922
0.02600000 1610849.26883434 7828.72780461
0.02700000 1606707.89781970 7422.99082791
0.02800000 1602420.93783558 7667.58453918
0.02900000 1597990.85527464 8629.15101468
0.03000000 1593419.09163128 7409.39911666
0.03100000 1588705.85755313 7625.78846714
0.03200000 1583852.73001594 8624.07851215
0.03300000 1578863.44320371 8052.20393155
0.03400000 1573735.96246830 9914.53702101
0.03500000 1568473.69440513 9316.73417500
0.03600000 1563077.68394806 12145.11416555
0.03700000 1557550.07145345 10653.64298145
0.03800000 1551891.81409944 9986.42428590
0.03900000 1546105.34713323 10204.29576364
0.04000000 1540190.30152152 11366.60495195
0.04100000 1534150.80585263 10631.66557751
0.04200000 1527987.55348709 10841.07219494
0.04300000 1521701.46629635 11047.55315812
0.04400000 1515296.06645147 11251.07381592
0.04500000 1508772.52915093 13533.69021533
0.04600000 1502131.12058712 13767.03236017
0.04700000 1495375.68858220 11843.37600438
0.04800000 1488507.00374902 14222.68508258
0.04900000 1481528.61349453 13333.75814210
0.05000000 1474440.02144452 19175.09337180
0.05100000 1467246.05831904 14877.87572443
0.05200000 1459944.59693024 13927.87210377
0.05300000 1452541.77191606 15295.26557131
0.05400000 1445037.67975128 13113.71755529
0.05500000 1437434.77349442 19319.12425699
0.05600000 1429734.05178666 13446.64938453
0.05700000 1421940.58810510 13607.97206337
0.05800000 1414053.23872184 21274.43196992
0.05900000 1406074.69425410 16451.07469113
0.06000000 1398008.81808244 15350.13753969
0.06100000 1389856.41778667 16803.36487628
0.06200000 1381620.35166092 19584.46940024
0.06300000 1373303.10885918 18457.19464604
0.06400000 1364903.97750748 17300.15872398
0.06500000 1356428.46743071 18800.09943802
0.06600000 1347878.11263642 13546.17566580
0.06700000 1339253.99210382 20490.58703813
0.06800000 1330559.34099651 23411.19270069
0.06900000 1321796.93929959 15266.75536368
0.07000000 1312967.38209910 16779.72392900
0.07100000 1304073.33032919 15492.39188994
0.07200000 1295117.97337893 18436.00521472
0.07300000 1286103.26410234 18558.47097056
0.07400000 1277031.86890755 15803.27011834
0.07500000 1267905.05867864 14454.11834644
0.07600000 1258724.13757073 17445.91736461
0.07700000 1249494.45904594 21928.62878446
0.07800000 1240216.11265694 17635.87394904
0.07900000 1230891.10601013 16247.76336141
0.08000000 1221523.71859534 19293.96804031
0.08100000 1212114.43676164 19381.71075317
0.08200000 1202665.50256803 19465.14207247
0.08300000 1193180.19368480 16537.47826061
0.08400000 1183659.72046771 16600.82835878
0.08500000 1174107.02224760 16660.57942783
0.08600000 1164523.54134601 19756.14280652
0.08700000 1154913.51477817 15244.85911094
0.08800000 1145275.96577822 22934.15229178
0.08900000 1135616.47031086 15330.82306928
0.09000000 1125934.65353259 16905.90961696
0.09100000 1116233.27759858 18484.82394547
0.09200000 1106514.64437617 20066.64401863
0.09300000 1096783.24242693 17011.10888943
0.09400000 1087035.88465386 15490.26208432
0.09500000 1077278.74242684 18615.37754411
0.09600000 1067512.27006864 17085.53468560
0.09700000 1057741.48051236 18658.56059343
0.09800000 1047965.75911325 18674.75070544
0.09900000 1038188.17424472 17130.10568054
0.10000000 1028408.99410784 20254.51609147
0.10100000 1018631.02234379 18702.06644982
0.10200000 1008857.24165262 18704.21414002
0.10300000 999088.60034324 17144.36118837
0.10400000 989328.27415585 20256.49736631
0.10500000 979578.68410885 21805.42253419
0.10600001 969837.39265406 20235.65814989
0.10700001 960111.41980042 27996.85031885
0.10800001 950399.78931502 23308.55592989
0.10900001 940706.13587876 23282.47795880
0.11000001 931030.35384891 20152.15295761
0.11100001 921375.08902414 15479.10222426
0.11200001 911742.22078904 15454.03136991
0.11300001 902133.11223177 16969.12464000
0.11400001 892550.11706489 16936.13926873
0.11500001 882995.08787978 23046.17287886
0.11600001 873468.73311257 16862.31468681
0.11700001 863973.85780066 16821.57180359
0.11800001 854509.73826504 18303.59945571
0.11900001 845079.19426476 18253.71145590
0.12000001 835683.52709393 18201.18807747
0.12100001 826326.90428383 16633.96136683
0.12200001 817007.61297464 19595.92852039
0.12300001 807728.99839064 15023.76007790
0.12400001 798490.15577151 17966.02935137
0.12500001 789293.52719728 17901.17804035
0.12600001 780142.73524891 17834.06376819
0.12700001 771036.35992463 14803.89880821
0.12800001 761976.01070272 20641.93110278
0.12900001 752964.18476887 26429.04413104
0.13000001 744001.72239279 16081.59798752
0.13100001 735088.34042669 21832.12473979
0.13200001 726227.21180307 18834.70362599
0.13300001 717418.46594656 15862.12302987
0.13400001 708663.01233655 24395.72534984
0.13500001 699962.83068651 19990.93938694
0.13600001 691318.27387860 17047.90943767
0.13700001 682730.77833057 14132.52777784
0.13800001 674199.32943791 18274.17368615
0.13900001 665728.39553094 18174.38605507
0.14000001 657315.67928293 13902.22727247
0.14100001 648964.65732936 15205.24263835
0.14200001 640674.37830641 15116.71266912
0.14300001 632447.18795699 16393.03188507
0.14400001 624279.95026367 14935.89851458
0.14500001 616178.92163702 21590.91043265
0.14600001 608141.62255887 13409.52341001
0.14700001 600170.69558443 19985.68510582
0.14800001 592263.00411939 15884.49451989
0.14900001 584422.71682784 15779.41409884
0.15000001 576648.78594632 18285.53386512
0.15100001 568942.58883258 14269.08080121
0.15200001 561305.08767454 14170.14760699
0.15300001 553736.29823962 16628.70182083
0.15400001 546234.25624599 12699.94705704
0.15500001 538803.54117364 13868.80380432
0.15600001 531440.64244333 16270.05603627
0.15700001 524150.86856262 21118.03949109
0.15800001 516928.28016877 16027.36208310
0.15900001 509778.60446352 18352.03062691
0.16000001 502697.91134010 13354.17064510
0.16100001 495690.71548987 18067.92743249
0.16200001 488754.43353572 13145.05111047
0.16300001 481889.66862793 14225.38368945
0.16400001 475097.31646645 16462.12279273
0.16500001 468376.06924648 13995.07760981
0.16600001 461727.89124630 11566.28422180
0.16700001 455150.95030870 12616.78493826
0.16800001 448646.65896302 14785.15134423
0.16900001 442215.90143706 13531.80722292
0.17000001 435855.92802592 16769.55762265
0.17100001 429569.04940297 16624.32299692
0.17200001 423354.35600370 13183.25526851
0.17300001 417211.81486898 13067.07465878
0.17400001 411142.36581929 11871.73637369
0.17500001 405143.91665451 13904.53987626
0.17600001 399216.11138112 12719.02590931
0.17700001 393363.04214315 12603.35246553
0.17800001 387579.81286273 13528.47400695
0.17900001 381867.60293344 12372.51091944
0.18000001 376227.98804944 15321.88553704
0.18100001 370659.66536787 12142.81121104
0.18200001 365160.03057553 12028.37197535
0.18300001 359731.56795840 16878.60596594
0.18400001 354373.22864140 11800.62907123
0.18500001 349084.88783722 14609.20324616
0.18600001 343866.53858726 13503.63960828
0.18700001 338716.38592536 11462.16304124
0.18800001 333633.76442476 9458.51766832
0.18900001 328622.86071725 12175.47756483
0.19000001 323675.75728515 11127.97306125
0.19100001 318799.04564296 11017.69553801
0.19200001 313987.82525849 10907.93756489
0.19300001 309245.06230105 9898.93491201
0.19400001 304566.80817351 9799.43751604
0.19500001 299954.90424502 13228.01190230
0.19600001 295407.24836816 9602.21306197
0.19700001 290925.93009385 10368.60063854
0.19800001 286507.72300986 11117.93271682
0.19900001 282153.72894682 10157.53472213
0.20000001 277861.07491098 12566.26770675
0.20100001 273632.90185485 13265.72370889
0.20200001 269465.52205997 9846.27064144
0.20300001 265359.99739324 11368.02282563
0.20400001 261315.71248056 11249.64195401
0.20500001 257330.83294435 8746.67542521
0.20600001 253405.53040126 7868.24209088
0.20700001 249539.53808383 8564.19735186
0.20800001 245731.63556587 8474.05585306
0.20900001 241983.69748313 12195.97892967
0.21000001 238290.27276104 10558.64248517
0.21100001 234654.65427860 8208.22019470
0.21200001 231074.12081777 10335.94591280
0.21300001 227548.51496091 8034.73844312
0.21400001 224078.43969834 10117.14203068
0.21500001 220662.97466666 11439.16914754
0.21600001 217299.42608010 9195.02564931
0.21700001 213989.15432617 10496.16851595
0.21800001 210730.98429391 7614.76447749
0.21900001 207523.30526418 8217.92327702
0.22000001 204365.85001492 8807.14672282
0.22100001 201259.96474634 9382.74000012
0.22200001 198202.85834732 7292.87451773
0.22300001 195193.94634023 7214.36859787
0.22400001 192232.42424902 7785.41355023
0.22500001 189320.42865035 7701.55540168
0.22600001 186453.15385502 7618.47622678
0.22700001 183632.81243838 8164.31522709
0.22800001 180856.99273611 6212.43799427
0.22900001 178125.80598242 7374.40871641
0.23000001 175438.95239869 6686.85598691
0.23100001 172796.50246549 7215.98228422
0.23200001 170194.81896941 6543.14012473
0.23300001 167636.50817502 6472.44588675
0.23400001 165118.40843129 6984.50900698
0.23500001 162640.92407121 5757.48898443
0.23600001 160203.97397609 5695.25154422
0.23700001 157806.43236829 6197.05889221
0.23800001 155447.36582725 5572.78832849
0.23900001 153126.51501951 7166.32124188
0.24000001 150842.77364703 7088.85648285
0.24100001 148596.86845072 6472.87989589
0.24200001 146387.27966558 6936.56157507
0.24300001 144212.56129562 6861.63399102
0.24400001 142072.98411830 7309.65537866
0.24500001 139967.34372160 7747.19284147
0.24600001 137895.83338655 6641.75312925
0.24700001 135858.28267154 6064.71402535
0.24800001 133852.91358668 5999.28787076
0.24900001 131878.52497255 6923.62288860
0.25000001 129936.89116762 4892.12418390
0.25100001 128025.35735408 7259.03810539
0.25200001 126146.07888864 5265.96831234
0.25300001 124294.92504766 6629.89161571
0.25400001 122474.02497423 6090.02117997
0.25500001 120680.41667935 5560.95386368
0.25600001 118916.42692950 6417.91986503
0.25700001 117179.21346885 5895.28650854
0.25800001 115469.28995200 4934.58033957
0.25900001 113787.11256205 4437.69759989
0.26000001 112130.05506004 6145.84860863
0.26100001 110498.36637383 4776.84460436
0.26200001 108893.13512540 4725.41782236
0.26300001 107311.37715954 5524.38995757
0.26400001 105754.83262958 5044.50575513
0.26500001 104221.97425435 4574.30266647
0.26600001 102712.20067971 4936.34859825
0.26700001 101225.69875116 5696.98259530
0.26800001 99761.97559340  5233.01467738
0.26900001 98319.51035484  6371.10457248
0.27000001 96899.45297060  4332.85924462
0.27100001 95500.37981337  6234.26508924
0.27200001 94123.00865235  5781.50608007
0.27300001 92765.84197214  4956.47917113
0.27400001 91427.45943448  4525.65945618
0.27500001 90110.93768215  4103.65229625
0.27600001 88811.61662146  5166.17198336
0.27700001 87533.23714080  4015.14977767
0.27800001 86272.54372294  4332.60735082
0.27900001 85030.65414172  4285.54517157
0.28000001 83806.41104372  5651.90462828
0.28100001 82600.05151142  4891.57528202
0.28200001 81411.70650159  3455.92710456
0.28300001 80240.13036506  4785.52160147
0.28400001 79084.82178877  4057.05154979
0.28500001 77946.83310381  4681.48701780
0.28600001 76824.65034011  3968.76162442
0.28700001 75719.18308273  3925.28263680
0.28800001 74627.93523373  3558.63326006
0.28900001 73553.95559871  4159.47638599
0.29000001 72494.18684665  4113.68282733
0.29100001 71450.11837877  3442.46686644
0.29200001 70420.45596583  3404.47710482
0.29300001 69405.54086450  3672.94139641
0.29400001 68404.18264169  3934.95079273
0.29500001 67418.25488440  3891.38185613
0.29600001 66444.85772165  3552.14226195
0.29700001 65485.85227671  3219.93950887
0.29800001 64540.45280533  3184.10338988
0.29900001 63608.76283410  3721.11280195
0.30000001 62689.11006812  4811.70287106
0.30100001 61783.58959525  3078.67641528
0.30200001 60889.87345260  3320.93385532
0.30300001 60009.55884682  4378.29762074
0.30400001 59141.57843493  2976.30007564
0.30500001 58286.27643125  2942.87423634
0.30600001 57441.95483071  3174.24257422
0.30700001 56610.58808527  2876.95022270
0.30800001 55790.93237805  2585.90983815
0.30900001 54983.21613353  3068.06360551
0.31000001 54187.22815989  3033.40117601
0.31100001 53402.11388191  2749.14095280
0.31200001 52629.48838033  3459.33643502
0.31300001 51867.17641916  2687.23853751
0.31400001 51117.50672987  2898.36276881
0.31500001 50377.61446839  3581.84855829
0.31600002 49649.84488499  3069.10530688
0.31700002 48932.28354246  2567.47703904
0.31800002 48225.34696194  2769.09955367
0.31900002 47529.79737089  2509.57342001
0.32000002 46845.17206180  2255.59514158
0.32100002 46170.43081586  2676.03829680
0.32200002 45507.29053600  2866.27683013
0.32300002 44852.84800172  2615.81821932
0.32400002 44210.09734959  2801.81505220
0.32500002 43577.06632976  2983.28610220
0.32600002 42954.61588337  2528.30881062
0.32700002 42342.34719858  2708.21665506
0.32800002 41740.92772001  2265.90636858
0.32900002 41147.76832424  4073.62925700
0.33000002 40565.95874275  2416.91993634
0.33100002 39992.85952251  1991.64449853
0.33200002 39431.29705462  1969.59338115
0.33300002 38878.63709810  2142.60179194
0.33400002 38336.45881899  2889.61072032
0.33500002 37803.50978934  2095.82668197
0.33600002 37279.90262356  3015.19866698
0.33700002 36765.89378807  2050.43399366
0.33800002 36262.41737665  2212.73281311
0.33900002 35767.58939876  1824.14714572
0.34000002 35282.25630258  1985.15624488
0.34100002 34806.64353472  2142.69707747
0.34200002 34341.01602754  2296.89896578
0.34300002 33884.01405249  1923.25672870
0.34400002 33437.03336148  1730.36655841
0.34500002 32998.89001638  2226.43521485
0.34600002 32570.64171743  1864.83217985
0.34700002 32150.26119386  2517.36557070
0.34800002 31740.05103122  1827.75092520
0.34900002 31338.41001876  2138.84658508
0.35000002 30946.25752253  2118.11669645
0.35100002 30563.69829056  2097.89235003
0.35200002 30188.51088929  1598.48172730
0.35300002 29823.55308167  1900.35689237
0.35400002 29466.87141785  1882.93317278
0.35500002 29119.39472921  2176.96605307
0.35600002 28780.22963099  1695.29950671
0.35700002 28449.73088914  2291.62593166
0.35800002 28128.19546880  1969.11441706
0.35900002 27815.77090849  1952.66721026
0.36000002 27511.71608811  1638.73544641
0.36100002 27215.50942511  1625.58245496
0.36200002 26929.24732513  1612.92734494
0.36300002 26649.94402155  1600.59571375
0.36400002 26379.56126714  1877.56536212
0.36500002 26116.79717009  1433.81223255
0.36600002 25863.06589020  1993.26658257
0.36700002 25616.99129177  1696.86958354
0.36800002 25379.84932184  2528.59450771
0.36900002 25150.50777772  1535.43857256
0.37000002 24928.42342709  1664.72019532
0.37100002 24714.32728462  1379.05952781
0.37200002 24508.65056402  1919.76268962
0.37300002 24310.54111287  1636.58570524
0.37400002 24119.98943338  1763.77431087
0.37500002 23937.19770958  1620.06961773
0.37600002 23762.22819597  1478.12947495
0.37700002 23594.45692060  1471.58634785
0.37800002 23434.00191025  1332.22307171
0.37900002 23281.68658744  1592.46743802
0.38000002 23135.81206920  1322.21172239
0.38100002 22996.54141147  1449.47207383
0.38200002 22865.51347832  1707.71095503
0.38300002 22740.67016841  1702.82146288
0.38400002 22623.16241130  1437.13646026
0.38500002 22511.92505792  2215.84888843
0.38600002 22408.25013519  1560.95877837
0.38700002 22310.41029418  1688.00572283
0.38800002 22219.08402856  1426.13197594
0.38900002 22134.30964742  1424.34289329
0.39000002 22056.42294342  1422.97019361
0.39100002 21983.92403056  1680.45123251
0.39200002 21918.25980929  2067.33036316
0.39300002 21857.99993911  1420.98864336
0.39400002 21804.85465540  1550.32523945
0.39500002 21756.37355341  1809.26011042
0.39600002 21713.90488511  1810.28833604
0.39700002 21676.37567303  1294.07968899
0.39800002 21645.62086433  1684.13761114
0.39900002 21619.15888344  1686.29447280
0.40000002 21598.52374319  1818.81177059
0.40100002 21582.56764679  1561.71466891
0.40200002 21572.24792831  1434.44669396
0.40300002 21566.57939616  1699.01520533
0.40400002 21565.81944833  1572.14831227
0.40500002 21569.30335892  1444.92770048
0.40600002 21578.32763833  1449.09266121
0.40700002 21591.33926150  1585.66803050
0.40800002 21608.47920780  1723.38434087
0.40900002 21629.60802344  1596.26514776
0.41000002 21655.64528757  1735.59177381
0.41100002 21685.27595423  1876.21016446
0.41200002 21718.10197481  1345.43648109
0.41300002 21755.91562360  1486.14666667
0.41400002 21796.70032408  2170.95145514
0.41500002 21840.98410817  1908.02846210
0.41600002 21887.78711036  1505.98926349
0.41700002 21939.26550663  1513.15121369
0.41800002 21994.26579650  1520.57363789
0.41900002 22050.45795008  1389.17891668
0.42000002 22110.24955604  1954.76725588
0.42100002 22173.56523428  2386.09746793
0.42200002 22239.09594497  1552.17777503
0.42300002 22306.83493029  1986.20067631
0.42400002 22376.97552870  1854.49193482
0.42500002 22449.95001896  3156.01412322
0.42600002 22523.89806521  1442.65573944
0.42700002 22601.10711957  1596.09026042
0.42800002 22679.49871504  1605.36839262
0.42900002 22760.64087134  1614.86754635
0.43000002 22843.25908654  1476.81676993
0.43100002 22926.00212992  2376.96801347
0.43200002 23011.51612049  1644.05784714
0.43300002 23097.67411631  1804.39038747
0.43400002 23185.51927623  2420.56832715
0.43500002 23274.00906702  1978.75634465
0.43600002 23364.08114019  1684.66715045
0.43700002 23454.47307222  1540.95895387
0.43800002 23545.14758563  1705.49284619
0.43900002 23637.53715710  2496.12404208
0.44000002 23729.71317105  1569.72060065
0.44100002 23822.67598999  2369.16523948
0.44200002 23915.88961794  2224.89531659
0.44300002 24009.43758161  2238.64006620
0.44400002 24102.85822867  1930.63903561
0.44500002 24195.85449872  1780.57301694
0.44600002 24288.67541290  2279.97806906
0.44700002 24382.27811268  1802.33808350
0.44800002 24474.46950340  2307.69783884
0.44900002 24567.01545004  1824.10098361
0.45000002 24659.22084290  1835.01600599
0.45100002 24749.86984396  2349.25775693
0.45200002 24840.45376841  1687.90891356
0.45300002 24929.80111230  2207.03539707
0.45400002 25018.45672752  2561.26462887
0.45500002 25106.55522672  2404.20384245
0.45600002 25193.04048426  2590.47451057
0.45700002 25278.83040326  2431.31802342
0.45800002 25362.92787107  2270.10896669
0.45900002 25445.71057441  1931.32952413
0.46000002 25527.69577621  1941.76427125
0.46100002 25607.34574122  2661.88371596
0.46200002 25686.06427474  2497.45614780
0.46300002 25763.17948919  1793.11737743
0.46400002 25837.95979161  1802.19778088
0.46500002 25912.12628182  1992.38348424
0.46600002 25983.43729173  2548.19581597
0.46700002 26052.93931783  2560.48299751
0.46800002 26121.22644466  2940.20538797
0.46900002 26186.64530555  2030.77443970
0.47000002 26250.40150062  2040.05004931
0.47100002 26312.13013870  2235.47868254
0.47200002 26371.77785482  2058.18550023
0.47300002 26429.11600328  2442.84330797
0.47400002 26483.61441618  2641.74066323
0.47500002 26536.16807051  2652.55548605
0.47600002 26587.13501129  2282.77152027
0.47700002 26634.50800720  2100.66374610
