# SAXS profile: number of points = 501, q_min = 0, q_max = 0.5, delta_q = 0.001
#    q    intensity    error
0.00000000 1646666.22097350 296.39991978
0.00100000 1646585.72881322 790.36116860
0.00200000 1646344.18607152 889.02588863
0.00300000 1645941.81025623 1283.83465773
0.00400000 1645378.50395282 1727.64749480
0.00500000 1644654.71456897 2368.30288272
0.00600000 1643770.38727068 1725.95897690
0.00700000 1642726.05465171 2168.39848226
0.00800000 1641521.56260076 3324.08130461
0.00900000 1640158.11184442 3198.30845482
0.01000000 1638635.09005438 3785.24722147
0.01100000 1636953.73617159 3241.16853874
0.01200000 1635114.01464246 4145.01420885
0.01300000 1633117.03466998 3772.50051647
0.01400000 1630962.83012407 4036.63318350
0.01500000 1628652.76362955 3908.76680676
0.01600000 1626186.28093951 5805.48528248
0.01700000 1623565.58531274 5698.71546008
0.01800000 1620790.65625071 5081.17893599
0.01900000 1617862.09324734 5824.30379850
0.02000000 1614781.09502536 6612.52888325
0.02100000 1611549.62922909 7445.35962460
0.02200000 1608166.25545475 6657.80860006
0.02300000 1604634.22845079 8087.35687952
0.02400000 1600952.95763034 7204.28863783
0.02500000 1597124.95862327 6228.78762310
0.02600000 1593150.35348935 9033.16291745
0.02700000 1589031.19671312 7341.32446506
0.02800000 1584767.24640900 13098.10189224
0.02900000 1580360.89549125 7822.78679186
0.03000000 1575813.81093396 8060.28801342
0.03100000 1571126.09905159 9049.68674694
0.03200000 1566299.13979883 8528.49920901
0.03300000 1561336.77276181 7962.81790817
0.03400000 1556237.22734011 9804.29498462
0.03500000 1551003.57853567 8375.41971085
0.03600000 1545636.99130523 12009.59997745
0.03700000 1540139.47979063 11412.43407305
0.03800000 1534512.14934029 11669.96543581
0.03900000 1528757.38730266 10089.79922346
0.04000000 1522874.86142378 10302.24891493
0.04100000 1516868.55373178 13378.78126424
0.04200000 1510739.38137466 11693.12335432
0.04300000 1504487.96990335 9929.62106227
0.04400000 1498118.09430284 10112.29760618
0.04500000 1491630.83637495 13379.92922398
0.04600000 1485026.31683040 12563.32322441
0.04700000 1478308.66514374 11708.20517246
0.04800000 1471478.40883894 11896.90348900
0.04900000 1464539.14201644 14279.25729932
0.05000000 1457490.58410960 12264.78383641
0.05100000 1450337.15977220 14706.41948517
0.05200000 1443077.10287707 12619.70985275
0.05300000 1435716.26354719 12792.23250455
0.05400000 1428254.94903210 15318.03504271
0.05500000 1420695.43778762 13127.22645753
0.05600000 1413038.80617351 15705.92706352
0.05700000 1405290.14204145 20784.24217097
0.05800000 1397448.35285085 13604.16035021
0.05900000 1389515.93701919 18758.46602589
0.06000000 1381496.89128249 15168.83657495
0.06100000 1373392.02840708 14049.80110717
0.06200000 1365203.85285949 15481.41241508
0.06300000 1356935.58581655 18237.21512606
0.06400000 1348585.76371820 13148.71181117
0.06500000 1340160.30030902 17247.86387179
0.06600000 1331660.73935287 14721.51016234
0.06700000 1323087.76781959 17544.14462234
0.06800000 1314445.06952783 16325.40852771
0.06900000 1305735.13990775 19194.30745530
0.07000000 1296958.60223275 16575.13171272
0.07100000 1288118.48221629 18085.18433739
0.07200000 1279217.45737146 22411.89090307
0.07300000 1270257.57149180 19739.80358590
0.07400000 1261241.67602071 15607.86647221
0.07500000 1252170.81659591 22839.59676526
0.07600000 1243046.78232662 18664.34831163
0.07700000 1233874.13936091 17323.59372890
0.07800000 1224653.36061189 17414.57160458
0.07900000 1215386.82427092 17501.57109039
0.08000000 1206078.15173446 20515.39032340
0.08100000 1196728.26862395 16191.73423417
0.08200000 1187338.93441729 16260.60746988
0.08300000 1177914.16272051 17810.06297620
0.08400000 1168454.52751718 19367.13470266
0.08500000 1158963.24817634 14950.62660333
0.08600000 1149441.52771332 18000.25516913
0.08700000 1139893.71043070 16551.25745266
0.08800000 1130319.07780098 18107.71247678
0.08900000 1120722.92395633 15129.76018405
0.09000000 1111104.54618213 22749.86665177
0.09100000 1101467.43848389 22800.37704780
0.09200000 1091813.61422721 16753.88069753
0.09300000 1082147.29743137 18309.93313296
0.09400000 1072465.45768832 24452.21358449
0.09500000 1062774.20065820 16834.34412969
0.09600000 1053074.08728750 16854.45155933
0.09700000 1043370.03295849 16871.29422611
0.09800000 1033661.43233171 19954.83488939
0.09900000 1023951.23851969 21502.97702004
0.10000000 1014240.23112005 18438.88826889
0.10100000 1004530.49912322 18443.18083132
0.10200000 994825.32600773 16907.05721075
0.10300000 985125.85472396 19978.35327360
0.10400000 975434.65318950 21508.33511469
0.10500000 965754.98436457 21497.70696341
0.10600001 956083.74817074 15345.14488018
0.10700001 946428.27438725 18398.56651988
0.10800001 936787.18722437 19911.41260152
0.10900001 927164.73160068 16828.04067058
0.11000001 917560.15799281 21388.32828955
0.11100001 907976.62756989 25931.81370409
0.11200001 898415.65726611 18273.77532907
0.11300001 888878.52491728 18239.78819005
0.11400001 879368.19640174 16686.01231237
0.11500001 869885.79575101 16649.61491467
0.11600001 860432.53939908 18120.71013308
0.11700001 851010.88222997 19581.76132231
0.11800001 841620.31303723 18027.50795432
0.11900001 832263.53065125 17976.89310881
0.12000001 822941.86410066 16430.03509070
0.12100001 813659.46654299 17867.96272701
0.12200001 804414.33626032 20778.02328448
0.12300001 795210.12967832 19228.18184155
0.12400001 786046.30202777 20633.71640044
0.12500001 776924.71726670 17620.65341790
0.12600001 767848.95131928 16090.27553312
0.12700001 758818.01330242 18940.09850461
0.12800001 749833.16306644 15960.19962806
0.12900001 740897.22762707 15892.24628164
0.13000001 732010.32686427 17260.80432105
0.13100001 723173.07953376 15750.71041470
0.13200001 714387.70160363 15677.23885072
0.13300001 705655.24280251 15602.03815389
0.13400001 696975.91448977 16936.51552058
0.13500001 688352.27880617 18255.10329464
0.13600001 679784.41590517 20954.35560829
0.13700001 671273.39572450 18063.96793072
0.13800001 662818.85858937 17965.70600925
0.13900001 654424.37142849 19240.07742732
0.14000001 646088.73923715 19130.68847103
0.14100001 637814.75134818 17661.09129778
0.14200001 629601.35105204 14855.44457873
0.14300001 621450.98311495 14765.67605527
0.14400001 613360.95525126 14674.66154659
0.14500001 605337.11314377 13256.88340320
0.14600001 597377.09963389 17123.81536881
0.14700001 589483.00976653 19629.78515129
0.14800001 581652.51475285 15599.92118165
0.14900001 573889.42989130 15495.01533813
0.15000001 566192.81808701 15389.12152171
0.15100001 558563.39963407 21649.91839137
0.15200001 551003.10354210 15174.62618759
0.15300001 543511.41663574 21343.69433847
0.15400001 536086.70829798 19942.42648979
0.15500001 528732.88430491 17321.29010727
0.15600001 521447.12904625 18420.12070289
0.15700001 514234.08684263 15843.55296339
0.15800001 507088.65102354 13303.47138751
0.15900001 500015.81549427 15600.49417977
0.16000001 493011.72268675 13096.85703138
0.16100001 486081.39678832 11811.77849952
0.16200001 479221.72080020 14060.36595201
0.16300001 472433.46507975 11621.86378960
0.16400001 465717.54180846 13831.81164471
0.16500001 459072.59390720 14860.18056634
0.16600001 452500.28545860 13602.15922308
0.16700001 445999.59871078 16858.78562725
0.16800001 439571.40629918 18943.33064890
0.16900001 433216.25215249 15465.82093211
0.17000001 426932.05372158 17521.29231208
0.17100001 420720.63557108 10854.59291030
0.17200001 414581.59601084 17213.42867924
0.17300001 408514.05793705 13860.88264038
0.17400001 402519.77904609 11622.75916885
0.17500001 396596.21235561 11517.15455073
0.17600001 390743.14927212 10374.23110314
0.17700001 384964.69548450 11306.41364039
0.17800001 379255.68332225 16292.82492507
0.17900001 373617.91024842 11096.45245850
0.18000001 368052.25298465 12990.40488270
0.18100001 362557.55569427 12867.16825939
0.18200001 357131.57543690 15685.21953413
0.18300001 351776.43666363 12621.73914373
0.18400001 346491.48637959 10576.65312139
0.18500001 341276.05535104 10473.76263353
0.18600001 336130.28335786 13199.83685107
0.18700001 331052.60835181 14003.52599488
0.18800001 326042.44147383 12940.62511349
0.18900001 321103.53831682 10066.59640185
0.19000001 316228.23370270 9965.93325602
0.19100001 311423.06868386 10762.78176226
0.19200001 306683.10282919 8878.47624643
0.19300001 302011.24101922 12303.93854052
0.19400001 297403.69639105 9568.96438355
0.19500001 292862.18325938 11193.19317311
0.19600001 288384.73479176 9373.94624738
0.19700001 283973.33555696 9277.40931107
0.19800001 279624.64243562 10850.83476251
0.19900001 275340.00709764 16520.40120661
0.20000001 271116.40824350 10626.40812332
0.20100001 266957.00269716 9706.55707682
0.20200001 262857.92968398 11205.63407205
0.20300001 258820.55362945 11879.86397309
0.20400001 254844.19263140 7836.45929381
0.20500001 250926.77858131 8529.00160712
0.20600001 247068.60989148 9205.77683970
0.20700001 243269.54383883 9108.01215185
0.20800001 239528.09132641 8260.12661985
0.20900001 235846.45309384 11886.66179783
0.21000001 232218.83074079 8819.67160846
0.21100001 228648.77974390 9452.34100146
0.21200001 225133.41576803 12228.12205552
0.21300001 221672.86051824 7827.26907494
0.21400001 218267.10525054 7743.02592483
0.21500001 214915.84190709 6963.27360700
0.21600001 211615.98725846 11020.96113748
0.21700001 208369.16203429 8176.40630480
0.21800001 205174.05782422 9435.95536547
0.21900001 202029.16604800 8667.05163325
0.22000001 198934.19117026 7254.13562402
0.22100001 195890.15983984 6523.14263110
0.22200001 192894.61453003 6452.32516112
0.22300001 189947.01319931 8935.10792340
0.22400001 187046.44797168 6312.81791755
0.22500001 184194.89749145 6868.62805225
0.22600001 181387.70700169 7411.50205857
0.22700001 178626.97909014 6109.04297377
0.22800001 175910.71439239 7251.03999016
0.22900001 173238.35446354 5976.72351164
0.23000001 170610.05746408 8276.29427898
0.23100001 168025.70333515 6432.02422786
0.23200001 165481.75397497 6361.94633245
0.23300001 162980.74254077 8008.87406723
0.23400001 160519.77668215 7355.81911436
0.23500001 158098.80436691 6156.36773322
0.23600001 155717.88908159 6089.34834054
0.23700001 153376.37916903 6023.09069485
0.23800001 151072.50159539 6499.13932603
0.23900001 148806.59856571 5892.74158193
0.24000001 146577.34666721 7418.27986571
0.24100001 144385.57927361 7337.67548577
0.24200001 142229.67704066 5702.69917069
0.24300001 140108.17113922 6153.55116751
0.24400001 138021.62208481 6086.75382187
0.24500001 135968.44039526 5518.95925671
0.24600001 133949.00807729 5459.09208243
0.24700001 131962.95603164 6381.72885558
0.24800001 130008.79461111 5341.41157928
0.24900001 128085.31282089 5283.51940381
0.25000001 126194.00387303 5701.44536471
0.25100001 124332.30319059 5169.73741124
0.25200001 122502.49195562 5578.76374759
0.25300001 120700.56136606 5978.29908730
0.25400001 118928.32589843 5003.90954892
0.25500001 117182.93644232 4949.80746951
0.25600001 115466.67140243 5341.48847180
0.25700001 113776.73242085 4843.47572832
0.25800001 112113.86628722 6533.43586701
0.25900001 110478.04005175 7324.69440200
0.26000001 108867.27692285 4262.15409320
0.26100001 107281.04701561 4216.14534721
0.26200001 105721.26602976 4587.77455644
0.26300001 104184.25108067 4950.83584561
0.26400001 102672.02441105 5713.69842884
0.26500001 101183.14633927 5248.37004897
0.26600001 99716.92347528  4792.39556900
0.26700001 98273.46062262  5925.88995596
0.26800001 96852.39569918  7034.38983250
0.26900001 95452.22767795  4252.39694428
0.27000001 94073.94643127  4971.33793442
0.27100001 92716.28098983  5674.23666510
0.27200001 91379.79641997  5238.80397668
0.27300001 90063.09356956  5552.38998133
0.27400001 88764.77119837  4027.70168374
0.27500001 87488.02091284  4708.60550837
0.27600001 86227.79993720  3941.04178264
0.27700001 84988.22714108  4961.61293531
0.27800001 83765.93946477  3505.60473251
0.27900001 82562.09731999  3814.36907671
0.28000001 81375.39906437  3772.97055619
0.28100001 80206.17493157  6106.89844832
0.28200001 79054.42527330  6040.54892103
0.28300001 77919.17858831  3651.29288146
0.28400001 76799.73708141  3283.18891563
0.28500001 75697.12379398  4546.36947025
0.28600001 74609.92382978  3854.34884748
0.28700001 73539.12890350  3494.57957090
0.28800001 72482.14224304  3142.10101496
0.28900001 71441.75669505  3729.25987600
0.29000001 70415.52262721  4303.09279143
0.29100001 69404.33100397  3647.89181024
0.29200001 68407.25059998  4209.09832866
0.29300001 67424.39289080  2973.41586723
0.29400001 66454.80629732  4410.93797678
0.29500001 65500.20018801  4071.49263642
0.29600001 64557.73512187  3163.65195941
0.29700001 63629.25832235  3697.49637614
0.29800001 62713.98400866  3375.26677913
0.29900001 61812.01586125  3337.84901452
0.30000001 60921.69356820  3025.67605430
0.30100001 60045.07639399  3536.05471624
0.30200001 59179.87869857  2958.69817560
0.30300001 58327.70521432  3191.69218043
0.30400001 57487.45834014  3156.06161229
0.30500001 56659.47890761  3640.93828697
0.30600001 55842.18934456  3600.14611748
0.30700001 55037.50585423  3559.82604719
0.30800001 54243.93259063  2765.62703407
0.30900001 53462.10647510  3480.38329630
0.31000001 52691.43014785  2949.66639933
0.31100001 51931.54959686  2430.39663620
0.31200001 51183.62054867  2643.37820839
0.31300001 50445.71795781  2851.19211397
0.31400001 49720.04693944  3993.76295950
0.31500001 49003.78716026  3251.89146992
0.31600002 48299.24606725  2985.61803701
0.31700002 47604.55788410  2724.88502230
0.31800002 46920.18909782  2918.67050102
0.31900002 46246.91314095  2885.80751664
0.32000002 45583.90838493  3072.81140972
0.32100002 44930.76479313  2170.15604226
0.32200002 44288.66487676  2574.94309786
0.32300002 43654.95705016  2545.95721572
0.32400002 43032.52959784  2936.97028412
0.32500002 42419.71575230  2904.05387791
0.32600002 41817.04412080  2051.12611125
0.32700002 41224.11875881  2636.69476067
0.32800002 40641.85571746  2406.81080956
0.32900002 40067.42421557  1983.33759259
0.33000002 39504.06049293  2353.65203562
0.33100002 38949.17022652  2327.60252296
0.33200002 38405.27481851  2685.68099524
0.33300002 37870.10724793  2087.02170926
0.33400002 37345.13286575  2064.25231691
0.33500002 36829.05428649  2413.03975112
0.33600002 36321.88218217  2386.89260064
0.33700002 35824.22399569  1816.28824260
0.33800002 35336.62767586  2156.24112289
0.33900002 34857.40573237  2844.36444246
0.34000002 34387.38882023  1934.80652360
0.34100002 33926.65601672  3132.78756495
0.34200002 33475.88588081  2066.80129216
0.34300002 33033.36908291  1874.97411794
0.34400002 32600.64417054  2361.91678202
0.34500002 32176.21637640  2504.91856354
0.34600002 31761.56591767  1818.50854274
0.34700002 31354.61139740  2127.72403020
0.34800002 30957.45229292  1782.68497472
0.34900002 30568.60240105  1604.85170206
0.35000002 30188.93209619  2066.28155519
0.35100002 29818.67237152  1731.86857336
0.35200002 29455.42850944  1871.59801613
0.35300002 29102.26897323  2008.92972237
0.35400002 28757.16575400  1837.58297872
0.35500002 28420.92549420  1517.67749327
0.35600002 28092.66448275  2106.10715603
0.35700002 27772.94441744  1640.54790444
0.35800002 27461.99562776  1774.59424152
0.35900002 27159.83118290  1466.63095334
0.36000002 26865.68985237  1600.25489185
0.36100002 26579.27223663  1731.90546097
0.36200002 26302.60281492  2005.04750755
0.36300002 26032.64719670  2416.35042725
0.36400002 25771.47980722  1552.08744491
0.36500002 25517.51967951  1541.00308644
0.36600002 25272.55663516  1669.50517040
0.36700002 25034.93616105  1658.31424986
0.36800002 24806.07840705  1647.61980584
0.36900002 24584.84163485  1500.90465290
0.37000002 24370.70129633  2305.59030535
0.37100002 24164.20508151  2022.54406113
0.37200002 23966.07546484  1609.08238293
0.37300002 23775.24677473  1600.54968869
0.37400002 23591.76489493  1459.74052202
0.37500002 23415.94588868  1584.79129282
0.37600002 23247.65515060  1446.12045715
0.37700002 23086.41418809  1570.79969577
0.37800002 22932.47153382  1564.45328215
0.37900002 22786.30547511  1688.46531569
0.38000002 22646.57136886  1682.52709956
0.38100002 22513.10847380  1419.00129433
0.38200002 22387.83090526  1672.03523037
0.38300002 22268.53627215  1410.93452504
0.38400002 22156.38954438  1663.39102385
0.38500002 22050.43629317  1404.39235404
0.38600002 21951.94159109  1784.03437763
0.38700002 21858.96509409  1399.41101162
0.38800002 21772.56116120  1778.60060552
0.38900002 21692.40351506  1776.60793205
0.39000002 21619.01563041  1394.75085947
0.39100002 21551.03297901  1900.80119880
0.39200002 21489.55105197  1520.17091344
0.39300002 21433.46752838  1520.06158913
0.39400002 21384.36042157  1520.42809801
0.39500002 21339.89249934  1521.10760942
0.39600002 21301.19507442  1649.03209481
0.39700002 21267.30940352  1650.55596101
0.39800002 21240.14170143  1525.46704927
0.39900002 21217.18922621  1654.94083805
0.40000002 21199.82727574  1912.75450658
0.40100002 21187.24198351  1405.34982735
0.40200002 21180.13237542  1920.50859413
0.40300002 21177.47111359  1283.35481029
0.40400002 21179.60764313  1929.99183792
0.40500002 21185.97332227  1419.24842010
0.40600002 21197.87921238  1423.54364596
0.40700002 21213.49486531  1298.26594727
0.40800002 21233.34329928  1953.99850970
0.40900002 21256.99617753  1568.76639223
0.41000002 21285.53051024  1705.92892357
0.41100002 21317.51694630  2371.36069747
0.41200002 21352.65900948  1984.19593247
0.41300002 21392.76058888  1594.18859462
0.41400002 21435.76426456  1467.81402756
0.41500002 21482.18581535  1742.63499591
0.41600002 21531.12988163  1616.12668549
0.41700002 21584.67344295  1353.35908900
0.41800002 21641.62906462  1496.19409628
0.41900002 21699.73623752  1503.79179252
0.42000002 21761.39405965  1511.65530998
0.42100002 21826.38107863  1657.93198529
0.42200002 21893.83472330  1944.82943063
0.42300002 21963.26012526  1955.60877422
0.42400002 22035.14738253  1826.16292586
0.42500002 22109.75013849  1695.37572096
0.42600002 22185.31001556  2415.64759551
0.42700002 22264.17505841  2286.97617037
0.42800002 22344.13877538  2012.98355766
0.42900002 22426.77903782  2169.79097473
0.43000002 22510.86945840  1455.32777945
0.43100002 22595.12604806  1610.58066103
0.43200002 22682.14609759  1473.20545885
0.43300002 22769.74969481  1482.31077538
0.43400002 22859.08890269  1789.86674590
0.43500002 22948.86976302  1650.94176899
0.43600002 23040.42149950  1661.32967095
0.43700002 23132.22126800  1671.76571026
0.43800002 23224.22210409  1835.17811763
0.43900002 23318.02690573  1846.78781845
0.44000002 23411.59831299  2168.14822251
0.44100002 23505.98863721  1714.29183255
0.44200002 23600.55309753  2038.73387595
0.44300002 23695.51512586  1893.74565860
0.44400002 23790.26312819  1746.80015297
0.44500002 23884.59302487  1917.45521891
0.44600002 23978.88062850  2250.89763127
0.44700002 24073.77252132  1941.30910812
0.44800002 24167.50215030  1627.68134696
0.44900002 24261.35780345  1801.40590228
0.45000002 24355.04516252  1812.38077166
0.45100002 24447.07982028  1989.01450844
0.45200002 24539.07889901  2167.65963728
0.45300002 24629.93316458  1677.29852800
0.45400002 24720.09080187  2024.57553262
0.45500002 24809.67481226  1696.98183758
0.45600002 24897.68402030  2218.75721662
0.45700002 24985.02416090  1716.47124120
0.45800002 25070.62911437  1898.72418597
0.45900002 25155.10297360  1735.70218744
0.46000002 25238.70512153  2443.35915862
0.46100002 25320.01532767  2105.61257444
0.46200002 25400.46375914  1940.46852085
0.46300002 25479.11947665  2128.01615955
0.46400002 25555.67800084  1960.75948755
0.46500002 25631.66083799  2687.47976624
0.46600002 25704.67721467  1800.61272423
0.46700002 25776.05566555  2352.32295153
0.46800002 25846.15444245  2363.76016657
0.46900002 25913.53437840  2557.66596437
0.47000002 25979.15908129  2202.51321130
0.47100002 26042.79858383  2212.59627255
0.47200002 26104.44852754  2222.53285298
0.47300002 26163.77584104  2604.34237066
0.47400002 26220.30129915  2241.83586733
0.47500002 26275.02948314  2438.84835222
0.47600002 26328.15773379  2637.29168520
0.47700002 26377.60912561  2458.65706313
