# SAXS profile: number of points = 501, q_min = 0, q_max = 0.5, delta_q = 0.001
#    q    intensity    error
0.00000000 1664650.74656090 274.66737318
0.00100000 1664569.80280195 599.24514324
0.00200000 1664326.91314022 973.63127502
0.00300000 1663922.28653438 1797.03613347
0.00400000 1663355.82666878 1247.51691740
0.00500000 1662627.99309016 1496.36525301
0.00600000 1661738.72210427 2093.79087509
0.00700000 1660688.54083428 2590.67423137
0.00800000 1659477.30763980 3584.47113584
0.00900000 1658106.21614757 2487.15943054
0.01000000 1656574.64965906 3280.01794795
0.01100000 1654883.88409767 3872.42845739
0.01200000 1653033.83914838 3545.75774043
0.01300000 1651025.65309361 4507.30023174
0.01400000 1648859.35490668 4822.91382691
0.01500000 1646536.27653755 6322.69958345
0.01600000 1644055.90535982 4192.34274608
0.01700000 1641420.50093310 5318.20266159
0.01800000 1638629.91451133 4670.09546650
0.01900000 1635684.80339452 6869.87648424
0.02000000 1632586.45782426 6171.17708973
0.02100000 1629336.72024507 5914.49256264
0.02200000 1625934.16303016 6731.36774077
0.02300000 1622382.12059110 8760.86384997
0.02400000 1618679.97391512 6677.05519686
0.02500000 1614830.26846708 8187.18983504
0.02600000 1610833.02037705 7828.64883710
0.02700000 1606690.40930577 6748.10002815
0.02800000 1602402.10537693 11152.71916488
0.02900000 1597970.60228877 10067.21525665
0.03000000 1593397.47031936 11113.94786633
0.03100000 1588682.91434821 8388.24617373
0.03200000 1583828.27994648 9407.94041619
0.03300000 1578837.40372761 8052.07113022
0.03400000 1573708.36217755 9088.16621091
0.03500000 1568444.48918891 11010.48082255
0.03600000 1563046.95104258 9542.40207710
0.03700000 1557517.54127602 11541.20551461
0.03800000 1551857.52899128 9078.36696474
0.03900000 1546069.33661151 15769.90796374
0.04000000 1540152.44860138 13260.71319695
0.04100000 1534111.06177545 13530.86019224
0.04200000 1527945.98264910 14782.87806795
0.04300000 1521657.93107169 16068.70849799
0.04400000 1515250.64304813 11250.73654714
0.04500000 1508725.08314563 11451.22391316
0.04600000 1502081.51343251 10589.67516198
0.04700000 1495324.07848008 10766.33386578
0.04800000 1488453.15145485 12034.14428944
0.04900000 1481472.64706216 13333.25444419
0.05000000 1474382.00022438 12406.92510963
0.05100000 1467185.78952262 14877.26459880
0.05200000 1459882.01879992 12766.66884935
0.05300000 1452476.89419581 18824.10142632
0.05400000 1444970.54519196 11921.00755376
0.05500000 1437365.19451664 13281.25501689
0.05600000 1429662.16947873 15890.69575528
0.05700000 1421866.36429764 14844.28553618
0.05800000 1413976.46126037 12513.69226645
0.05900000 1405995.49833152 15184.75209120
0.06000000 1397927.17502113 16628.34452373
0.06100000 1389772.24909877 15509.85902474
0.06200000 1381533.48654386 18277.68888134
0.06300000 1373213.73746603 15819.42299525
0.06400000 1364811.83175780 13306.91598196
0.06500000 1356333.77434616 14770.47549356
0.06600000 1347780.70353467 16254.23604514
0.06700000 1339154.00797536 15025.30867265
0.06800000 1330456.51403172 19278.31579072
0.06900000 1321691.36886289 20816.64003420
0.07000000 1312858.93792451 15380.14317801
0.07100000 1303962.28535533 16899.35200973
0.07200000 1295004.10958318 17016.35479708
0.07300000 1285986.53842895 17129.34149448
0.07400000 1276912.22383336 17238.31582961
0.07500000 1267782.54729802 14452.72171663
0.07600000 1258598.89220877 18897.86325246
0.07700000 1249366.28029101 20464.62063072
0.07800000 1240084.92922600 23512.01136075
0.07900000 1230757.15643117 16245.99522689
0.08000000 1221386.63284647 19291.80277081
0.08100000 1211974.62963902 29814.57728797
0.08200000 1202522.54282665 20959.96890502
0.08300000 1193034.31629586 16535.45639990
0.08400000 1183510.90017545 18107.71762264
0.08500000 1173955.22094173 16658.42536720
0.08600000 1164368.60624271 16714.51212739
0.08700000 1154755.64584744 16767.05276505
0.08800000 1145115.00570388 19873.47185732
0.08900000 1135452.50795593 15328.60957739
0.09000000 1125767.51914207 24586.76377304
0.09100000 1116063.14117524 18482.00648617
0.09200000 1106341.73399423 21606.85508014
0.09300000 1096607.06590500 18554.59242703
0.09400000 1086856.61571309 20134.01975233
0.09500000 1077096.37455521 18612.22622714
0.09600000 1067327.09789919 17082.57100489
0.09700000 1057553.11110055 21764.44404966
0.09800000 1047774.37344033 18671.34021259
0.09900000 1037993.58582544 17126.89497147
0.10000000 1028211.56698047 17135.14656955
0.10100000 1018430.46006523 18698.38412622
0.10200000 1008653.55610377 20258.80762724
0.10300000 998881.95677424 18699.07111043
0.10400000 989118.41442655 20252.20048815
0.10500000 979366.11941692 18686.30643765
0.10600001 969621.55423658 18674.91201332
0.10700001 959892.82279731 17105.29090718
0.10800001 950178.06047501 17088.95322188
0.10900001 940481.56420199 17069.74119366
0.11000001 930802.72576910 17047.65272489
0.11100001 921144.71740938 15475.23198095
0.11200001 911508.79411846 16995.08226642
0.11300001 901896.65986319 18506.92033171
0.11400001 892310.90162679 24627.78204448
0.11500001 882753.05173190 23039.85573510
0.11600001 873223.79087360 18390.09390182
0.11700001 863726.17358705 15287.95399248
0.11800001 854259.15619933 16773.37932197
0.11900001 844825.82741256 16727.55217066
0.12000001 835427.29207080 19711.90788494
0.12100001 826068.10488394 18140.45643781
0.12200001 816745.79402754 18082.75273167
0.12300001 807464.54980452 16520.72546736
0.12400001 798223.06161785 17960.01973263
0.12500001 789024.02096961 20877.57657862
0.12600001 779870.29615896 17827.83581030
0.12700001 770761.51202200 22197.93259234
0.12800001 761698.72959023 20634.41955708
0.12900001 752684.48430177 20548.28738992
0.13000001 743719.32423955 17536.90249217
0.13100001 734803.52465355 16004.02152135
0.13200001 725939.93072326 15930.75253070
0.13300001 717128.87568178 20180.00751303
0.13400001 708370.74612201 22951.21325640
0.13500001 699668.49867007 15700.56185041
0.13600001 691021.80931613 17040.59862121
0.13700001 682432.00043751 15538.97738268
0.13800001 673898.34464556 15455.85926328
0.13900001 665425.13914107 13973.92858095
0.14000001 657010.52214448 15285.35051856
0.14100001 648657.53979407 13816.40624924
0.14200001 640365.08982744 19230.16455451
0.14300001 632135.94325766 16384.96442208
0.14400001 623966.70510121 20356.91471416
0.14500001 615863.97937239 17533.64831983
0.14600001 607824.92192633 16083.04819288
0.14700001 599851.99824750 13316.71498933
0.14800001 591942.70813063 18521.88821125
0.14900001 584100.60129176 17084.94339387
0.15000001 576325.22398982 15664.52032714
0.15100001 568617.16937687 16853.81369558
0.15200001 560978.32971547 12874.45327448
0.15300001 553407.98350569 17897.21503113
0.15400001 545904.69110217 13961.51313380
0.15500001 538472.50652018 13860.28297194
0.15600001 531108.41374836 13758.36410748
0.15700001 523817.22675829 13655.91574610
0.15800001 516593.61492867 16016.98578684
0.15900001 509442.78075479 13449.29004674
0.16000001 502360.90411867 12132.01640713
0.16100001 495352.73084452 12037.07192772
0.16200001 488415.50689805 16718.46359033
0.16300001 481549.77508168 13030.73752886
0.16400001 474756.67258825 11750.22820128
0.16500001 468034.66085266 16315.68904761
0.16600001 461385.65510798 12713.48232674
0.16700001 454808.04072503 14899.51211763
0.16800001 448303.10049790 18183.17461474
0.16900001 441871.78047030 12394.50402744
0.17000001 435511.40996632 17873.38910899
0.17100001 429224.26084438 12181.38509798
0.17200001 423009.23351035 16465.63519195
0.17300001 416866.40136979 13056.25630748
0.17400001 410796.59463280 14018.43445388
0.17500001 404798.10384090 17098.67271377
0.17600001 398870.26435804 11649.00662075
0.17700001 393017.26646420 11542.91766123
0.17800001 387233.98978183 12476.67974007
0.17900001 381522.02976738 11331.20481930
0.18000001 375882.70854366 15307.82402851
0.18100001 370314.49248632 16175.33779587
0.18200001 364815.10547226 16022.68018922
0.18300001 359387.12676593 16862.44478443
0.18400001 354029.17901327 10806.74119990
0.18500001 348741.62831550 10702.88107863
0.18600001 343523.68005736 10599.42364892
0.18700001 338374.14557058 15267.44216945
0.18800001 333292.41478201 12283.49252714
0.18900001 328282.31908255 9356.04653590
0.19000001 323336.27630067 9263.58475371
0.19100001 318460.45299060 9171.66147949
0.19200001 313650.18126553 9988.19049436
0.19300001 308908.54279696 10787.08682419
0.19400001 304231.44584503 10678.52425376
0.19500001 299620.73364646 8808.84998547
0.19600001 295074.37466432 11335.28263839
0.19700001 290594.62551014 11219.85902117
0.19800001 286177.82822761 9396.64943393
0.19900001 281825.25812693 9300.23395772
0.20000001 277534.25558463 10877.95566174
0.20100001 273307.85730629 9109.35131455
0.20200001 269142.05382698 14751.67666747
0.20300001 265038.39247332 8921.19271231
0.20400001 260995.87310230 9630.74817268
0.20500001 257013.01987343 9530.04322736
0.20600001 253089.67820432 9430.12185564
0.20700001 249225.83684978 10108.60042045
0.20800001 245420.00701698 8463.30934204
0.20900001 241674.38960608 9135.29235895
0.21000001 237983.15562407 10545.03412419
0.21100001 234349.95745389 8197.56189926
0.21200001 230771.68876166 11797.04928720
0.21300001 227248.84915472 8024.15724300
0.21400001 223781.12203279 10103.71813745
0.21500001 220368.30182654 9281.91331176
0.21600001 217007.42648604 9889.02889251
0.21700001 213699.85100760 9084.38109584
0.21800001 210444.46937289 8295.72137491
0.21900001 207239.59727270 8206.68844002
0.22000001 204085.19875106 8118.50959018
0.22100001 200982.18445729 8700.51917655
0.22200001 197928.09503114 10593.11214696
0.22300001 194922.36503587 7204.33095239
0.22400001 191964.03302253 8422.42234713
0.22500001 189055.33881362 8331.66917550
0.22600001 186191.31701118 7607.77757283
0.22700001 183374.29607308 7525.68146672
0.22800001 180601.93304112 6824.04436267
0.22900001 177874.19087426 6750.32586291
0.23000001 175190.76199497 6677.39620922
0.23100001 172551.91875716 8406.72987943
0.23200001 169953.89469216 6533.87779045
0.23300001 167399.21797881 5875.71282894
0.23400001 164884.80309972 8718.28437623
0.23500001 162411.16083468 6324.29090202
0.23600001 159977.99588891 8530.82703426
0.23700001 157584.42665799 5625.76429778
0.23800001 155229.22350871 8347.45188900
0.23900001 152912.25482616 7156.29386435
0.24000001 150632.55793934 5989.90394978
0.24100001 148390.70506418 5925.24113348
0.24200001 146185.15299696 6926.98380242
0.24300001 144014.57967506 5798.02725198
0.24400001 141879.21521064 5735.46754620
0.24500001 139777.85438570 7220.92429915
0.24600001 137710.56878263 5102.17681476
0.24700001 135677.27977071 5551.91455086
0.24800001 133676.25185948 4992.80824314
0.24900001 131706.30280222 5926.78390648
0.25000001 129768.94931619 5374.38129018
0.25100001 127861.77386309 5316.49280874
0.25200001 125987.00117095 5259.32761270
0.25300001 124140.41908222 4729.75019080
0.25400001 122324.08586629 5146.78615632
0.25500001 120534.93298912 6017.10413950
0.25600001 118775.45093531 5952.43200525
0.25700001 117042.83389429 4529.55788602
0.25800001 115337.56131817 6721.29670383
0.25900001 113659.88748388 6649.10373241
0.26000001 112007.56495768 6577.64456336
0.26100001 110380.63048769 4771.75488176
0.26200001 108780.12842681 6866.20203119
0.26300001 107203.08710946 4245.24245041
0.26400001 105651.15189638 4619.59683526
0.26500001 104123.02712942 4569.95987696
0.26600001 102618.02710324 5753.79305195
0.26700001 101136.29514258 4472.24718283
0.26800001 99677.41852857  4826.38083354
0.26900001 98239.73469242  3978.70944332
0.27000001 96824.35470168  4723.09224586
0.27100001 95430.17780343  3893.55143863
0.27200001 94057.49794274  4621.98566763
0.27300001 92705.12402852  4572.21693346
0.27400001 91371.43441866  4522.88621777
0.27500001 90059.84743378  4474.17343225
0.27600001 88765.28045062  4794.65685045
0.27700001 87491.69701650  4742.92511973
0.27800001 86235.74404224  3608.96605897
0.27900001 84998.71620500  6425.90324922
0.28000001 83779.17574626  4590.68015229
0.28100001 82577.62422720  3842.33703715
0.28200001 81393.88237944  3800.68751759
0.28300001 80227.12849064  4784.74616964
0.28400001 79076.46421955  3380.51900539
0.28500001 77943.21180526  4012.51673365
0.28600001 76825.71812869  4961.02098298
0.28700001 75724.89837287  5234.10522328
0.28800001 74638.33539751  3235.57199263
0.28900001 73568.86750853  4480.34424334
0.29000001 72513.73801079  5380.88218379
0.29100001 71474.19376572  3443.62681864
0.29200001 70449.11414360  3715.48645581
0.29300001 69438.61650645  3368.46744618
0.29400001 68441.86126704  3028.55250443
0.29500001 67460.24064401  4193.32875693
0.29600001 66491.33389074  3554.62687807
0.29700001 65536.69123312  3515.38828416
0.29800001 64595.69474048  3476.54045551
0.29900001 63668.25515091  3438.08594091
0.30000001 62752.84799943  3683.27858769
0.30100001 61851.60431818  5323.56783568
0.30200001 60962.00428921  3047.79554872
0.30300001 60085.89736803  4383.86727951
0.30400001 59221.96740535  4064.10770559
0.30500001 58370.70757907  2679.21560472
0.30600001 57530.43257490  3179.13185460
0.30700001 56703.06841768  5763.30014683
0.30800001 55887.16297993  2849.40713943
0.30900001 55083.38172623  3329.79058300
0.31000001 54291.19311237  2532.68427860
0.31100001 53509.94751394  3505.97192710
0.31200001 52740.97487581  2723.80777642
0.31300001 51982.31141956  3672.55047567
0.31400001 51236.24888641  3631.36931176
0.31500001 50499.82008919  2633.06074412
0.31600002 49775.56784041  2603.51119916
0.31700002 49061.45240527  3510.34708581
0.31800002 48357.87129202  3008.10152615
0.31900002 47665.65825994  2516.74687529
0.32000002 46984.12461142  2488.51427787
0.32100002 46312.65994359  3131.66221367
0.32200002 45652.53840348  3096.61182653
0.32300002 45001.17445326  2624.46861838
0.32400002 44361.32491366  2595.13763033
0.32500002 43731.24267536  2779.99522851
0.32600002 43111.56034413  2326.08434851
0.32700002 42502.08109898  2091.10248909
0.32800002 41903.38246148  3101.89803360
0.32900002 41312.82516499  3680.97289651
0.33000002 40733.50014941  2426.90205383
0.33100002 40162.95627837  2000.11531738
0.33200002 39603.76420614  2176.02892735
0.33300002 39053.47008645  1956.57894399
0.33400002 38513.45388598  3290.01195401
0.33500002 37982.71332226  2680.06037894
0.33600002 37461.13864526  2461.75884265
0.33700002 36949.24537361  2247.99219499
0.33800002 36447.66156768  2409.37278203
0.33900002 35954.66279618  2567.16304522
0.34000002 35471.12181949  2177.21756039
0.34100002 34997.08128912  2693.02553274
0.34200002 34533.13237993  1954.40271960
0.34300002 34077.66501200  2461.77063705
0.34400002 33632.20056416  1914.51310779
0.34500002 33195.34725385  2239.69018529
0.34600002 32768.40643887  2046.71476311
0.34700002 32349.23963063  2364.08254417
0.34800002 31940.14870806  1672.06686406
0.34900002 31539.58550632  2649.32530801
0.35000002 31148.37595363  2459.94310745
0.35100002 30766.65731752  1949.37549997
0.35200002 30392.23093966  2092.04931582
0.35300002 30028.00681145  3029.52575070
0.35400002 29671.97896555  1896.03954570
0.35500002 29324.96426453  2505.52506543
0.35600002 28986.22599325  2017.87621810
0.35700002 28656.13057803  2616.01828438
0.35800002 28334.98171074  2136.17437235
0.35900002 28022.73412259  1664.55048572
0.36000002 27718.69124786  1500.96720217
0.36100002 27422.48958934  1786.84950628
0.36200002 27136.22027439  1773.08071671
0.36300002 26856.73711086  2492.84245671
0.36400002 26586.21010859  2037.83310135
0.36500002 26323.07972624  2167.70571814
0.36600002 26069.01285807  1578.60914840
0.36700002 25822.42103264  1710.47725022
0.36800002 25584.74605028  1840.95048925
0.36900002 25354.75525078  1829.34567800
0.37000002 25131.99171525  1818.17402677
0.37100002 24917.03053351  1390.37036963
0.37200002 24710.60204848  2626.86067520
0.37300002 24511.47461115  1925.13130715
0.37400002 24319.81086592  1641.58731121
0.37500002 24135.97737193  1361.26918826
0.37600002 23959.71122339  1490.41390725
0.37700002 23790.69915229  1753.61251759
0.37800002 23628.88928500  1477.63266144
0.37900002 23475.13723499  1873.31604010
0.38000002 23327.78304913  1733.13772374
0.38100002 23186.91042741  1594.33203652
0.38200002 23054.17849240  1324.46261713
0.38300002 22927.62985145  1584.75785041
0.38400002 22808.28725235  1712.33224659
0.38500002 22695.13225015  1576.85786344
0.38600002 22589.62478134  1966.99167102
0.38700002 22489.69568345  1439.79038586
0.38800002 22396.25523910  1437.50371062
0.38900002 22309.25896182  1566.11005332
0.39000002 22229.14730654  1564.48746155
0.39100002 22154.38290427  1563.21333178
0.39200002 22086.36140852  1822.78749340
0.39300002 22023.67453369  2212.71868523
0.39400002 21968.02462483  1692.08717689
0.39500002 21916.96450661  1952.80163006
0.39600002 21871.91446477  1562.96708170
0.39700002 21831.64331313  1694.35391781
0.39800002 21798.18405139  1565.54565274
0.39900002 21768.96867775  1436.75200080
0.40000002 21745.40254160  1961.97903727
0.40100002 21726.56071858  2096.17867744
0.40200002 21713.30850658  1443.82651755
0.40300002 21704.60228374  1841.41854500
0.40400002 21700.65089750  1450.14606493
0.40500002 21701.10426236  1321.59731220
0.40600002 21706.95007467  1722.77217430
0.40700002 21716.67125883  1594.87241281
0.40800002 21730.53216375  1333.16821141
0.40900002 21748.33960132  1337.52294886
0.41000002 21771.08461704  2415.93737442
0.41100002 21797.26731216  1481.77830209
0.41200002 21826.63597083  1622.59219495
0.41300002 21860.98809240  1493.32416735
0.41400002 21898.25839527  1908.43330958
0.41500002 21938.91511034  2053.48255163
0.41600002 21982.11928773  1649.97795192
0.41700002 22030.05501607  1657.54141795
0.41800002 22081.36897845  1387.81410606
0.41900002 22133.82530313  1673.31727221
0.42000002 22189.88544530  1961.80786518
0.42100002 22249.37493130  2394.25534981
0.42200002 22311.16873250  2265.02995705
0.42300002 22375.11083215  1992.27996290
0.42400002 22441.43535219  1716.76988579
0.42500002 22510.51027036  1438.42167444
0.42600002 22580.61263252  2314.06129224
0.42700002 22653.88627805  2181.56935195
0.42800002 22728.36447671  1608.82735572
0.42900002 22805.58198776  2059.34415108
0.43000002 22884.23142428  2071.25188436
0.43100002 22963.02712984  1934.40549708
0.43200002 23044.57856859  1945.76908364
0.43300002 23126.79553430  1957.22079882
0.43400002 23210.62659364  1665.94280270
0.43500002 23295.08364666  1980.54810549
0.43600002 23381.18125695  1685.90015443
0.43700002 23467.55718991  1850.18229653
0.43800002 23554.22689322  2016.35968875
0.43900002 23642.59258115  1560.41118430
0.44000002 23730.78722040  1883.74997883
0.44100002 23819.77382035  3474.35237409
0.44200002 23908.93926933  2065.37381666
0.44300002 23998.48522557  2557.27870683
0.44400002 24087.89563851  1929.44053208
0.44500002 24176.88489406  1940.92041128
0.44600002 24265.72713246  2277.82391387
0.44700002 24355.38960819  2127.68693701
0.44800002 24443.67452690  1810.90971315
0.44900002 24532.25744234  2318.29843817
0.45000002 24620.59049526  1832.14132853
0.45100002 24707.32491313  1842.67237935
0.45200002 24793.99487700  2358.65284443
0.45300002 24879.49835447  2541.44087736
0.45400002 24964.37821895  2044.58267303
0.45500002 25048.65050616  1713.32777582
0.45600002 25131.32058243  1722.75210757
0.45700002 25213.35162070  2078.58880612
0.45800002 25293.65947323  2263.90909845
0.45900002 25372.82474643  1750.72499048
0.46000002 25451.11750613  2815.91177434
0.46100002 25527.15399778  2299.74141266
0.46200002 25602.29074765  2311.50292970
0.46300002 25675.69967691  2144.43453865
0.46400002 25747.02852698  1795.85532487
0.46500002 25817.73200109  2346.05741813
0.46600002 25885.52610461  2357.26554644
0.46700002 25951.62916250  2003.98489891
0.46800002 26016.54102134  2196.31649712
0.46900002 26078.66314391  2757.81875818
0.47000002 26139.08440596  2031.39904089
0.47100002 26197.53841833  2225.74296951
0.47200002 26253.99920909  2794.08199826
0.47300002 26308.18268507  1870.51187757
0.47400002 26359.55745679  2441.55412516
0.47500002 26409.08188207  1885.60853575
0.47600002 26457.03172409  3218.10120629
0.47700002 26501.43637453  2850.22961718
