# SAXS profile: number of points = 501, q_min = 0, q_max = 0.5, delta_q = 0.001
#    q    intensity    error
0.00000000 1664650.74656090 374.54641798
0.00100000 1664569.80844162 549.30804983
0.00200000 1664326.93884319 973.63129005
0.00300000 1663922.34323132 1397.69481810
0.00400000 1663355.92383926 1996.02718445
0.00500000 1662628.14817790 1646.00193185
0.00600000 1661738.94538825 2093.79115643
0.00700000 1660688.84096697 2192.10936118
0.00800000 1659477.69766911 3136.41298101
0.00900000 1658106.71035563 3233.30822341
0.01000000 1656575.26436339 3553.35409549
0.01100000 1654884.62128325 5361.82640641
0.01200000 1653034.72256701 3868.10142040
0.01300000 1651026.69371155 4507.30307263
0.01400000 1648860.55463522 3709.93641239
0.01500000 1646537.65615362 4346.85960581
0.01600000 1644057.48598277 6707.75484267
0.01700000 1641422.25369149 5761.39236891
0.01800000 1638631.91094909 4670.10115635
0.01900000 1635687.00942072 6379.17962459
0.02000000 1632588.90316589 6685.45186089
0.02100000 1629339.40948296 5914.50232458
0.02200000 1625937.14301167 6170.43173807
0.02300000 1622385.33033950 10513.05741914
0.02400000 1618683.48274138 6070.06333706
0.02500000 1614834.06454613 9446.77970904
0.02600000 1610837.11878645 9133.44688127
0.02700000 1606694.80516988 9447.36588710
0.02800000 1602406.86347808 8364.56421095
0.02900000 1597975.72187112 7190.89107858
0.03000000 1593402.92705758 10373.05353195
0.03100000 1588688.69674218 7625.70609525
0.03200000 1583834.44044221 10191.97509367
0.03300000 1578843.98872520 10467.73612782
0.03400000 1573715.33808278 9914.40708738
0.03500000 1568451.90257149 8469.64066500
0.03600000 1563054.69053486 9542.44932671
0.03700000 1557525.77993654 10653.47682746
0.03800000 1551866.24023708 11801.94330319
0.03900000 1546078.47268359 10204.11839226
0.04000000 1540162.03222155 10419.19663079
0.04100000 1534121.15600771 12564.45285027
0.04200000 1527956.52308433 15768.51204978
0.04300000 1521668.93917820 10043.01546475
0.04400000 1515262.12344279 12273.62376990
0.04500000 1508737.09396601 11451.31507529
0.04600000 1502094.08722134 12707.71656863
0.04700000 1495337.17939035 10766.42819233
0.04800000 1488466.83286946 12034.25490368
0.04900000 1481486.84500677 11111.15185475
0.05000000 1474396.72315238 14662.87609454
0.05100000 1467201.08408901 12588.58588791
0.05200000 1459897.93792302 13927.42697682
0.05300000 1452493.37979688 15294.75600227
0.05400000 1444987.62102092 17881.72264403
0.05500000 1437382.90525257 16903.62375431
0.05600000 1429680.41097923 14668.52170114
0.05700000 1421885.21197584 14844.48230595
0.05800000 1413995.98601520 17519.41108475
0.05900000 1406015.64557351 17715.79796166
0.06000000 1397947.96687214 17907.71429226
0.06100000 1389793.60855780 16802.60551267
0.06200000 1381555.63518002 15666.84163526
0.06300000 1373236.46263295 15819.68478919
0.06400000 1364835.32706333 14637.85956732
0.06500000 1356357.94972316 14770.73876343
0.06600000 1347805.55327112 20318.16966622
0.06700000 1339179.50980097 19123.48429492
0.06800000 1330482.72636249 17901.64592117
0.06900000 1321718.31210285 13878.04292683
0.07000000 1312886.66220449 16778.69232869
0.07100000 1303990.62424252 21124.64910216
0.07200000 1295033.20809539 14180.61429296
0.07300000 1286016.42328063 14274.78296727
0.07400000 1276942.83711922 17238.72910899
0.07500000 1267813.91134482 17343.69512014
0.07600000 1258630.93872345 15990.90682614
0.07700000 1249399.12030996 20465.15855026
0.07800000 1240118.52824984 22043.10787338
0.07900000 1230791.47160432 20677.29769279
0.08000000 1221421.76770915 20776.38524337
0.08100000 1212010.46094742 23852.36699056
0.08200000 1202559.24954616 16469.04969535
0.08300000 1193071.78225244 16535.97567809
0.08400000 1183549.09747194 24144.40272173
0.08500000 1173994.20738359 18173.43118345
0.08600000 1164408.47085060 16715.08438386
0.08700000 1154796.16443022 18291.97210352
0.08800000 1145156.42688249 19874.19072191
0.08900000 1135494.71461575 16862.09730405
0.09000000 1125810.47779969 16904.04511824
0.09100000 1116106.97693805 16942.50470590
0.09200000 1106386.23903971 16977.49763578
0.09300000 1096652.50003070 27833.04175871
0.09400000 1086902.80011587 26330.22157026
0.09500000 1077143.43653573 18613.03945820
0.09600000 1067374.83634327 21742.42643838
0.09700000 1057601.70074828 15546.74573190
0.09800000 1047823.81836714 21784.25820810
0.09900000 1038043.82517204 21798.92135365
0.10000000 1028262.58092270 20251.63248365
0.10100000 1018482.31793896 17141.05821709
0.10200000 1008706.29295216 18701.41555098
0.10300000 998935.51313928 18700.07368563
0.10400000 989172.76415768 15579.47176842
0.10500000 979421.16387184 24916.47558120
0.10600001 969677.55873962 17119.65810509
0.10700001 959949.55501772 15551.18352309
0.10800001 950235.63922615 18643.62411902
0.10900001 940539.87529955 27934.03561113
0.11000001 930861.92229638 26348.04795079
0.11100001 921204.53618106 17023.86063000
0.11200001 911569.51892802 23176.65610983
0.11300001 901958.18734465 15423.48572974
0.11400001 892373.15254890 16932.78136689
0.11500001 882816.04236854 16897.09984658
0.11600001 873287.56207098 22989.29615412
0.11700001 863790.70835770 21404.73476116
0.11800001 854324.48704791 21349.56993686
0.11900001 844891.99962022 19770.47372233
0.12000001 835494.18950842 19713.48633005
0.12100001 826135.70953496 19653.76945569
0.12200001 816814.21545149 16577.24528356
0.12300001 807533.73006985 22530.19213045
0.12400001 798292.95964201 19458.39180810
0.12500001 789094.53298239 17896.66485134
0.12600001 779941.68227759 16343.67872230
0.12700001 770833.50360171 16280.00436329
0.12800001 761771.42935701 16214.30563803
0.12900001 752757.81604193 16146.65591512
0.13000001 743793.45297654 16077.09624388
0.13100001 734878.29406504 14550.59090837
0.13200001 726015.41826230 15932.40910483
0.13300001 717204.97886397 15857.40283025
0.13400001 708447.67030123 17215.27919994
0.13500001 699745.89604664 18557.26203810
0.13600001 691099.93458716 17042.52519049
0.13700001 682510.71789208 19779.16153716
0.13800001 673977.72943188 16862.92358557
0.13900001 665505.15600058 18168.29161560
0.14000001 657091.01943470 15287.22328810
0.14100001 648738.57805176 17963.57207347
0.14200001 640446.81325261 16485.10175065
0.14300001 632218.23960290 16387.09754345
0.14400001 624049.54879627 17645.00182453
0.14500001 615947.20960284 16187.09343194
0.14600001 607908.73123594 20106.58223414
0.14700001 599936.42722472 19977.88396907
0.14800001 592027.55760536 23817.26976613
0.14900001 584186.04598027 17087.44265112
0.15000001 576411.05828642 19583.56662929
0.15100001 568703.57982575 16856.37490140
0.15200001 561065.07900811 20602.31067334
0.15300001 553495.25483766 14064.31508911
0.15400001 545992.33938145 17772.05148555
0.15500001 538560.58867124 18903.47755447
0.15600001 531196.86700660 13760.65548924
0.15700001 523906.04219663 16141.54592191
0.15800001 516682.75697698 12322.88433553
0.15900001 509532.35712884 12228.77714830
0.16000001 502450.80811850 16987.86262435
0.16100001 495442.96418515 15651.04397740
0.16200001 488506.04143301 14332.76793224
0.16300001 481640.59904302 13033.19522537
0.16400001 474847.71790842 17628.72235959
0.16500001 468126.04654513 12821.97302021
0.16600001 461477.29703203 17340.01025465
0.16700001 454899.91217456 14902.52182646
0.16800001 448395.19713265 17050.22817602
0.16900001 441964.08811595 14651.11021284
0.17000001 435603.79028800 13407.88529818
0.17100001 429316.77519928 12184.01065550
0.17200001 423101.93190461 14273.34434683
0.17300001 416959.26921332 13059.16492847
0.17400001 410889.56036880 11864.43661596
0.17500001 404891.12528404 12826.95145478
0.17600001 398963.33860235 11651.72485418
0.17700001 393110.33665507 12595.25578131
0.17800001 387327.16253476 12479.68176631
0.17900001 381615.10532072 12364.32999640
0.18000001 375975.77546845 10207.74278613
0.18100001 370407.61292940 15168.19246595
0.18200001 364908.21335970 10016.73092989
0.18300001 359480.06969412 15874.64062760
0.18400001 354122.22862191 10809.58153934
0.18500001 348834.34589045 10705.72658114
0.18600001 343616.36825869 15421.50333601
0.18700001 338466.77611913 11453.71624500
0.18800001 333384.79081303 11341.75111931
0.18900001 328374.47637546 10294.54032076
0.19000001 323428.17540429 12046.08296210
0.19100001 318552.24290547 10091.73553208
0.19200001 313741.75188834 14532.51863415
0.19300001 308999.81329830 9891.08449106
0.19400001 304322.38657300 12462.00231904
0.19500001 299711.42923767 11454.97136677
0.19600001 295164.75611418 11338.75464195
0.19700001 290684.62559876 10360.00054593
0.19800001 286267.49162012 14526.64454877
0.19900001 281914.53808953 9303.18019662
0.20000001 277623.08947943 11718.47116076
0.20100001 273396.23437210 11597.46881019
0.20200001 269230.08305895 8198.05641661
0.20300001 265125.88824234 12169.27884550
0.20400001 261082.92291433 10436.79033680
0.20500001 257099.51952044 7944.37552869
0.20600001 253175.63716812 9433.32468678
0.20700001 249311.23879805 14779.17093455
0.20800001 245504.94772813 13084.18680766
0.20900001 241758.65374186 9900.01733872
0.21000001 238066.88399722 8288.29895817
0.21100001 234433.08350123 8200.46964854
0.21200001 230854.08648988 7375.78841204
0.21300001 227330.48604300 8027.03984166
0.21400001 223862.15922951 7941.51047411
0.21500001 220448.63845273 9285.29709061
0.21600001 217086.95216053 7772.79868959
0.21700001 213778.77641477 7689.62295120
0.21800001 210522.56642980 8990.36662445
0.21900001 207316.92184238 7525.60461870
0.22000001 204161.61247788 6767.95777365
0.22100001 201057.86445967 7364.74992339
0.22200001 198002.98882915 11259.44049217
0.22300001 194996.29155310 7862.25084719
0.22400001 192037.10967624 7129.37803385
0.22500001 189127.40269909 9617.12888202
0.22600001 186262.47076043 7610.68491517
0.22700001 183444.60299721 6901.18629111
0.22800001 180671.23148881 8688.47993318
0.22900001 177942.49324745 7980.72119956
0.23000001 175258.06380612 7287.23063768
0.23100001 172618.15295572 7208.53440834
0.23200001 170019.17969559 7130.60473367
0.23300001 167463.43329931 6465.76346548
0.23400001 164948.00712970 7558.74278421
0.23500001 162473.23586963 8627.32923272
0.23600001 160038.98622138 6258.32485219
0.23700001 157644.25034226 6190.69000375
0.23800001 155287.86436268 7237.19126093
0.23900001 152969.91464893 6608.30062540
0.24000001 150688.98906907 9805.33298252
0.24100001 148445.92399036 5927.44602531
0.24200001 146239.26256427 5863.46350987
0.24300001 144067.37024246 5800.15260032
0.24400001 141930.85673791 5737.55515504
0.24500001 139828.19208145 7223.52474463
0.24600001 137759.70488855 7145.59623059
0.24700001 135725.12544025 6563.66737679
0.24800001 133722.84325368 5494.00327498
0.24900001 131751.47064814 5928.81645964
0.25000001 129812.90086565 5376.20154369
0.25100001 127904.43838897 6285.22439978
0.25200001 126028.28339708 6695.88301367
0.25300001 124180.38278527 7570.03649273
0.25400001 122362.67583948 5616.44708675
0.25500001 120572.19090799 5555.96681990
0.25600001 118811.36871081 6412.24987270
0.25700001 117077.29591189 5890.15903601
0.25800001 115370.63180202 7171.43881212
0.25900001 113691.59959067 6650.95889074
0.26000001 112037.84289329 6140.79445954
0.26100001 110409.45652184 5206.91021594
0.26200001 108807.50652329 6867.93013672
0.26300001 107228.97824885 5520.14806145
0.26400001 105675.67590400 5880.85164233
0.26500001 104146.13038937 4570.97387908
0.26600001 102639.54113360 6577.14210707
0.26700001 101156.42709549 5286.43513017
0.26800001 99696.01105803  4827.28108386
0.26900001 98256.86964849  4775.28409089
0.27000001 96840.04727043  3936.54810783
0.27100001 95444.34019940  3894.12926442
0.27200001 94070.23971944  5007.82944845
0.27300001 92716.28284739  4191.70334590
0.27400001 91381.17176305  4523.36821634
0.27500001 90067.94429228  4847.45699122
0.27600001 88771.95606165  3688.47494892
0.27700001 87496.85621661  4743.20479998
0.27800001 86239.37271879  4330.94150291
0.27900001 85000.83293586  4284.04218272
0.28000001 83779.80224877  3531.31883192
0.28100001 82576.70102627  4890.19246622
0.28200001 81391.43818615  3800.57338598
0.28300001 80223.23188314  5809.76672795
0.28400001 79071.01841767  4056.34343682
0.28500001 77936.20915376  5349.54164952
0.28600001 76817.18968060  3968.37620673
0.28700001 75714.89727991  3597.97208904
0.28800001 74626.81434628  4529.10157705
0.28900001 73555.85104506  3199.67967191
0.29000001 72499.19904113  4430.42626311
0.29100001 71458.21489427  3442.85695657
0.29200001 70431.60229066  4024.10978736
0.29300001 69419.67985299  3673.68963172
0.29400001 68421.34271812  5146.99574961
0.29500001 67438.33911469  2994.26239843
0.29600001 66467.93294142  4145.60517380
0.29700001 65511.82623914  3806.89240297
0.29800001 64569.37755020  3475.12406426
0.29900001 63640.53826322  3150.20679316
0.30000001 62723.71805393  3398.37120504
0.30100001 61820.93223700  3640.63487178
0.30200001 60929.98674333  3046.19483144
0.30300001 60052.41720563  2738.39035422
0.30400001 59187.13235560  2978.59257681
0.30500001 58334.48350670  2945.30821169
0.30600001 57492.80451908  3177.05252813
0.30700001 56664.12362478  2617.88263540
0.30800001 55846.93937225  2588.50576245
0.30900001 55041.76867877  4095.10778358
0.31000001 54248.26663255  2530.68175822
0.31100001 53465.65499380  3002.63132661
0.31200001 52695.39737337  2721.45392620
0.31300001 51935.42671512  4403.08568538
0.31400001 51188.16838008  2660.50517752
0.31500001 50450.46213259  3826.16322929
0.31600002 49724.95030189  3310.19009833
0.31700002 49009.60560976  3506.63744741
0.31800002 48304.86017507  2542.52643570
0.31900002 47611.46161541  3199.49037205
0.32000002 46928.74823655  2485.58126804
0.32100002 46256.11694806  2457.58760982
0.32200002 45594.94757246  2209.07531449
0.32300002 44942.41990640  2402.62188196
0.32400002 44301.52878707  2375.66959370
0.32500002 43670.36221763  2562.57697627
0.32600002 43049.66776205  2322.74493409
0.32700002 42439.11604207  2714.40599059
0.32800002 41839.46966565  2477.73351093
0.32900002 41247.85754059  2858.47666292
0.33000002 40667.59062789  2019.14597029
0.33100002 40096.02228837  2595.81660587
0.33200002 39535.97558059  2172.30428114
0.33300002 38984.75737695  2929.70465561
0.33400002 38443.94054286  2511.35053489
0.33500002 37912.26958771  2484.01202102
0.33600002 37389.92404708  2457.07897511
0.33700002 36877.23855115  2056.64369139
0.33800002 36374.77767162  3144.41780473
0.33900002 35881.09565379  2378.91675451
0.34000002 35396.78899653  2896.87334867
0.34100002 34922.14347864  3045.56027701
0.34200002 34457.45958136  1950.12001736
0.34300002 34001.37802388  2456.25966477
0.34400002 33555.22206541  1910.13110654
0.34500002 33117.82313028  3093.86718336
0.34600002 32690.26828271  1871.68139917
0.34700002 32270.54906272  2021.42728903
0.34800002 31860.93871990  2335.08830937
0.34900002 31459.88942856  1981.97312787
0.35000002 31068.24445926  2453.61472238
0.35100002 30686.13249605  1782.25065978
0.35200002 30311.25394969  2086.47526445
0.35300002 29946.69474591  2067.22043622
0.35400002 29590.28585422  2205.95591491
0.35500002 29242.97792110  1717.73260444
0.35600002 28903.90600604  2321.70635990
0.35700002 28573.51109729  2148.15666604
0.35800002 28252.14278982  2129.92914581
0.35900002 27939.71717289  2263.11719820
0.36000002 27635.52014664  2992.92697364
0.36100002 27339.15978996  1632.96809160
0.36200002 27052.78028825  1620.32635211
0.36300002 26773.18109764  2046.54206004
0.36400002 26502.62947756  2466.73235547
0.36500002 26239.46233727  1440.54655055
0.36600002 25985.39807994  1716.59547847
0.36700002 25738.87177966  1420.78578954
0.36800002 25501.21212156  1834.93980513
0.36900002 25271.30142761  1542.81302524
0.37000002 25048.63459379  2369.72618800
0.37100002 24833.88807196  1524.30412206
0.37200002 24627.58973123  1929.07919503
0.37300002 24428.71835190  1644.54139735
0.37400002 24237.23449795  1499.67895560
0.37500002 24053.65583238  1627.95150385
0.37600002 23877.76764069  2160.46051847
0.37700002 23709.07648558  1344.30470041
0.37800002 23547.65507771  2008.02638188
0.37900002 23394.29770741  1600.17003899
0.38000002 23247.34395048  1461.44434668
0.38100002 23106.89832035  1456.42787013
0.38200002 22974.67026841  1451.88435639
0.38300002 22848.60236515  1710.90342615
0.38400002 22729.85384040  1575.17894576
0.38500002 22617.22428355  1440.49108286
0.38600002 22512.30895806  1437.52355662
0.38700002 22413.00899026  2217.54321455
0.38800002 22320.28737732  1562.86659620
0.38900002 22233.93974362  1560.82264395
0.39000002 22154.53486583  1949.04529716
0.39100002 22080.45172978  1687.82981019
0.39200002 22013.21470398  1686.98278876
0.39300002 21951.31698395  1945.98434282
0.39400002 21896.50007641  1686.57799829
0.39500002 21846.34827252  1816.74240842
0.39600002 21802.08443714  1557.97702769
0.39700002 21762.77275947  1429.16135483
0.39800002 21730.23187900  1820.77621541
0.39900002 21701.96547441  1562.54158819
0.40000002 21679.40526912  1564.81954646
0.40100002 21661.51139205  1567.42703859
0.40200002 21649.29667527  1570.44005523
0.40300002 21641.61726930  1836.07489612
0.40400002 21638.84963983  1446.01619569
0.40500002 21640.36216935  1845.05736598
0.40600002 21647.34756303  1585.88475761
0.40700002 21658.20728347  2120.77175768
0.40800002 21673.27683097  1329.65559658
0.40900002 21692.30975310  1334.07711303
0.41000002 21716.15740690  1338.80116757
0.41100002 21743.66255724  1478.13425068
0.41200002 21774.25695801  1753.58986720
0.41300002 21809.90216404  1354.39498856
0.41400002 21848.43664869  1632.07829499
0.41500002 21890.51668102  1639.16196674
0.41600002 21934.99298582  1372.03387627
0.41700002 21984.33929677  2481.15265060
0.41800002 22036.98121380  1800.53163539
0.41900002 22090.86401924  1948.41429882
0.42000002 22148.28782205  2377.72955180
0.42100002 22209.26331857  1546.43107815
0.42200002 22272.52069029  1695.82980572
0.42300002 22337.90506147  2131.03624384
0.42400002 22405.70560315  1428.36379988
0.42500002 22476.31737297  2297.97879710
0.42600002 22547.90990542  1877.45180724
0.42700002 22622.71395575  2178.56745717
0.42800002 22698.68930569  1752.79287124
0.42900002 22777.51486685  1909.89471209
0.43000002 22857.70992477  2068.85142333
0.43100002 22938.11501066  1486.38992313
0.43200002 23021.22237727  2093.31984996
0.43300002 23105.02672562  1654.55104223
0.43400002 23190.52242351  1815.81799181
0.43500002 23276.56706400  1978.97382556
0.43600002 23364.32171348  1837.83763308
0.43700002 23452.31599207  1848.98068044
0.43800002 23540.63090416  1860.18074220
0.43900002 23630.64833415  1559.62286396
0.44000002 23720.53029234  2039.84709916
0.44100002 23811.14405406  1894.41471072
0.44200002 23902.01243070  1905.94656155
0.44300002 23993.27193886  2237.13278160
0.44400002 24084.32898315  2089.91774656
0.44500002 24175.05472961  2102.50460947
0.44600002 24265.59626151  2440.51245966
0.44700002 24356.92649510  1800.46409184
0.44800002 24446.91385157  1975.79967112
0.44900002 24537.13578361  1821.88241828
0.45000002 24627.17920918  2332.44025344
0.45100002 24715.65570564  2178.43799714
0.45200002 24804.03502493  2191.06453777
0.45300002 24891.25499763  1864.60400024
0.45400002 24977.80180345  1704.73505388
0.45500002 25063.76687540  2057.23408263
0.45600002 25148.13326236  2585.85692525
0.45700002 25231.86211276  1906.77191023
0.45800002 25313.84485764  1742.85830105
0.45900002 25394.71057998  2277.90564698
0.46000002 25474.67143639  2466.20305864
0.46100002 25552.37310700  1770.77954024
0.46200002 25629.15838955  3025.90672867
0.46300002 25704.24767399  4114.73616267
0.46400002 25777.21933648  2157.55336072
0.46500002 25849.53693804  2891.01234817
0.46600002 25918.97006177  1815.62393888
0.46700002 25986.72870870  2006.69528600
0.46800002 26053.25944798  2016.13157794
0.46900002 26117.00012808  2945.99775408
0.47000002 26178.93884695  2219.45054064
0.47100002 26238.98992121  2043.49263192
0.47200002 26297.03746942  2052.35238658
0.47300002 26352.78883305  2435.78838729
0.47400002 26405.65259028  2445.82368710
0.47500002 26456.70009146  3022.41356170
0.47600002 26506.19232226  2086.16996560
0.47700002 26552.08601006  2855.67698574
