# SAXS profile: number of points = 501, q_min = 0, q_max = 0.5, delta_q = 0.001
#    q    intensity    error
0.00000000 1628779.37420969 342.04366858
0.00100000 1628699.39943709 732.91474715
0.00200000 1628459.40391095 806.08743046
0.00300000 1628059.61569746 1172.20296506
0.00400000 1627499.92408285 1830.93748417
0.00500000 1626780.79520864 1756.92332837
0.00600000 1625902.13076663 2219.35649885
0.00700000 1624864.51197638 2534.78874403
0.00800000 1623667.76371623 3945.51283241
0.00900000 1622313.08701460 2676.81670800
0.01000000 1620799.84919915 2941.75185332
0.01100000 1619129.32123968 3788.76277666
0.01200000 1617301.43691814 3784.48552831
0.01300000 1615317.30215051 4409.81642936
0.01400000 1613176.98034916 5807.43738671
0.01500000 1610881.83441463 4639.33988970
0.01600000 1608431.28928286 5331.94996233
0.01700000 1605827.51197212 5202.88137218
0.01800000 1603070.47903787 5025.62617792
0.01900000 1600160.81005527 5280.53091145
0.02000000 1597099.82180977 6037.03759953
0.02100000 1593889.27459251 7363.76878248
0.02200000 1590527.81326555 6584.78544608
0.02300000 1587018.73854079 6284.59449069
0.02400000 1583361.35091387 7718.88693767
0.02500000 1579558.25849891 6160.27748949
0.02600000 1575609.50188941 6381.21877452
0.02700000 1571517.23833196 8580.48451429
0.02800000 1567281.11279425 8862.97509930
0.02900000 1562903.58797466 9846.29305633
0.03000000 1558386.18302321 8695.79530097
0.03100000 1553729.14646165 8949.48029541
0.03200000 1548933.79562434 9200.66716977
0.03300000 1544004.05641043 11024.18947099
0.03400000 1538938.16113848 9695.31086252
0.03500000 1533739.00581891 12423.28652082
0.03600000 1528407.73510447 11027.46231840
0.03700000 1522946.52718145 10416.95472768
0.03800000 1517356.48276395 15090.11091945
0.03900000 1511639.78140353 10883.80693013
0.04000000 1505796.35601160 15743.10163162
0.04100000 1499830.04833560 13228.50163968
0.04200000 1493741.69383540 10598.09780944
0.04300000 1487531.92464043 16690.10896919
0.04400000 1481204.69432606 10997.94536614
0.04500000 1474760.98730403 11193.43641374
0.04600000 1468200.77246359 13456.06070516
0.04700000 1461528.29144374 15784.50628170
0.04800000 1454744.17889618 12830.84425486
0.04900000 1447851.63605322 18460.10921895
0.05000000 1440850.71768755 12124.75935394
0.05100000 1433745.87269619 11183.21832799
0.05200000 1426535.25901538 14743.24258898
0.05300000 1419224.51919787 11495.71914141
0.05400000 1411814.16731370 13976.96090821
0.05500000 1404306.46863840 12975.79237553
0.05600000 1396702.37155467 15524.34758426
0.05700000 1389006.85544990 15709.66826844
0.05800000 1381219.34499124 12223.79177393
0.05900000 1373341.57664783 14832.08972054
0.06000000 1365378.16658044 19989.13729261
0.06100000 1357329.63128263 13885.48277691
0.06200000 1349198.44089223 14024.91844865
0.06300000 1340988.05793639 23172.27472457
0.06400000 1332696.83927791 16891.93322783
0.06500000 1324330.34600182 13110.87103872
0.06600000 1315890.82352967 14547.17373476
0.06700000 1307378.23513056 18669.36207137
0.06800000 1298796.73114154 17475.31083551
0.06900000 1290148.92219566 17610.53361248
0.07000000 1281434.86749748 16376.73837352
0.07100000 1272657.94105588 13744.70640717
0.07200000 1263820.68428192 15222.72085531
0.07300000 1254925.20628302 13929.67044242
0.07400000 1245974.35083765 15418.93331421
0.07500000 1236969.23575577 21152.17492288
0.07600000 1227911.41790844 15600.61529589
0.07700000 1218805.61258035 14260.02633582
0.07800000 1209652.33138554 17201.25695898
0.07900000 1200453.65215644 18727.07785201
0.08000000 1191213.62371739 23157.19393139
0.08100000 1181932.65578540 18899.10405272
0.08200000 1172612.87299436 26278.25571692
0.08300000 1163258.33226897 16122.76124192
0.08400000 1153869.16981142 23538.93216904
0.08500000 1144449.15897459 14763.39484384
0.08600000 1134998.93617892 19255.25785634
0.08700000 1125523.24856648 14856.90757872
0.08800000 1116021.04004399 17878.65790115
0.08900000 1106497.96644140 31369.21882202
0.09000000 1096952.95934807 14973.40859848
0.09100000 1087389.71910169 15005.97882860
0.09200000 1077809.92959865 16538.99414680
0.09300000 1068218.55502059 24099.01173373
0.09400000 1058611.70632651 25644.86979100
0.09500000 1048996.00202373 19637.20608089
0.09600000 1039371.55681433 15122.85686254
0.09700000 1029743.69159470 16650.95627589
0.09800000 1020111.57880979 19693.25495485
0.09900000 1010478.27679965 16672.89235119
0.10000000 1000844.47405518 15162.79449500
0.10100000 991212.33123442 21231.76913361
0.10200000 981585.05605515 15165.48982938
0.10300000 971963.48385537 22743.94659211
0.10400000 962350.88040830 21219.83791129
0.10500000 952749.76516404 19693.33857250
0.10600001 943157.69097513 18165.21798292
0.10700001 933581.11802445 18148.81778844
0.10800001 924019.61464786 21150.80997468
0.10900001 914476.74087367 16597.75362804
0.11000001 904951.89367974 25614.66455628
0.11100001 895448.34175101 18052.23941948
0.11200001 885967.63560831 22525.72819579
0.11300001 876511.00251000 16487.17273344
0.11400001 867081.33136478 17948.58440435
0.11500001 857679.44734295 19400.71001244
0.11600001 848307.14986260 16376.57029929
0.11700001 838966.55507650 23759.53395872
0.11800001 829657.11988583 14809.38028746
0.11900001 820381.71539934 17720.24588728
0.12000001 811141.40198322 17666.66056738
0.12100001 801940.33373751 14675.50879873
0.12200001 792776.87501447 17552.08083972
0.12300001 783654.17382783 18948.75881592
0.12400001 774572.09506967 21784.84120028
0.12500001 765532.12654920 15915.41366090
0.12600001 756538.24282751 15853.25962551
0.12700001 747588.91638328 21530.56180650
0.12800001 738685.87793653 17152.28689406
0.12900001 729831.52348302 15654.88691656
0.13000001 721026.50682848 15584.98867969
0.13100001 712271.39666394 14102.97431873
0.13200001 703567.46410720 15439.78872767
0.13300001 694916.63003622 19554.95489110
0.13400001 686319.23100370 15287.76159136
0.13500001 677777.12129019 15209.31931884
0.13600001 669290.50838785 19255.48883423
0.13700001 660861.09166791 15047.80776683
0.13800001 652487.97532699 20406.56239064
0.13900001 644174.73709758 20291.50517548
0.14000001 635920.09866113 17484.62393727
0.14100001 627727.17828240 16044.70743361
0.14200001 619594.78032851 21264.49386382
0.14300001 611525.13192987 19813.41520908
0.14400001 603515.91084764 17064.41318414
0.14500001 595572.33290589 14347.33817650
0.14600001 587692.75990085 14254.48856384
0.14700001 579878.83033759 16735.30383306
0.14800001 572128.03914902 12787.06227826
0.14900001 564444.76939657 13970.00870168
0.15000001 556827.65571589 15134.57639645
0.15100001 549277.71154594 12523.53241417
0.15200001 541796.48552949 18651.34489445
0.15300001 534383.49568010 16047.53713254
0.15400001 527037.38979821 12253.61989107
0.15500001 519761.97727988 12162.43084233
0.15600001 512554.43319195 13277.72321848
0.15700001 505419.26725185 13176.28091913
0.15800001 498351.44669959 15451.38733421
0.15900001 491356.04905422 14151.05488070
0.16000001 484428.97133793 16378.54429404
0.16100001 477575.43080908 16247.11692306
0.16200001 470792.38163641 11510.87427439
0.16300001 464080.27362822 14841.28785126
0.16400001 457439.97562505 20378.95187618
0.16500001 450870.64068190 14594.68332791
0.16600001 444373.38614416 11131.55384847
0.16700001 437947.70945186 14347.16763904
0.16800001 431594.15402292 16411.36848161
0.16900001 425313.04527818 14099.12811671
0.17000001 419102.64684849 13974.97841906
0.17100001 412964.52190405 12785.38220189
0.17200001 406898.76093853 15838.53501747
0.17300001 400903.76797410 12556.30660591
0.17400001 394982.00014868 14515.58919098
0.17500001 389130.24628826 18491.47017693
0.17600001 383348.68199615 11195.69878646
0.17700001 377641.29031782 12099.62751326
0.17800001 372003.11605871 16980.08303450
0.17900001 366435.77182215 11872.51956782
0.18000001 360939.87050151 15679.22871519
0.18100001 355514.73556274 12617.21856111
0.18200001 350157.83548772 14417.74955727
0.18300001 344871.21346436 11422.13512951
0.18400001 339654.57671480 9425.41494910
0.18500001 334506.94451798 11199.29303154
0.18600001 329428.45592585 13860.70293791
0.18700001 324417.87619113 10978.30144898
0.18800001 319474.11198384 12679.92810372
0.18900001 314601.15796956 9862.74676834
0.19000001 309791.24579926 10650.62353381
0.19100001 305051.13965307 9664.02056083
0.19200001 300375.95655520 9565.47278848
0.19300001 295768.05898427 9467.53601545
0.19400001 291224.15795761 10221.96842734
0.19500001 286745.78604667 9273.35915896
0.19600001 282331.14771038 10845.75155182
0.19700001 277982.03401804 8256.06680050
0.19800001 273694.92465549 10620.73205318
0.19900001 269471.55218053 9700.97633697
0.20000001 265308.59622849 11198.67637607
0.20100001 261209.55133279 10289.04471328
0.20200001 257170.12768586 9396.99690978
0.20300001 253191.94212080 7747.67379509
0.20400001 249274.62137601 8431.71446657
0.20500001 245415.41578934 7583.33670633
0.20600001 241614.92400376 9002.57249391
0.20700001 237873.27027610 7421.64638343
0.20800001 234188.42187726 10278.53032206
0.20900001 230563.14265138 7262.73933684
0.21000001 226991.33008508 7184.27593681
0.21100001 223476.43391226 7106.55093436
0.21200001 220015.73715341 10544.25470155
0.21300001 216609.44313861 11125.06152554
0.21400001 213257.49478283 7565.30998508
0.21500001 209959.33322211 7482.95098981
0.21600001 206712.19493684 9419.87516863
0.21700001 203517.52223079 7986.02794991
0.21800001 200374.01820659 11848.11625674
0.21900001 197280.43119134 7812.30544455
0.22000001 194236.07011337 7726.71123445
0.22100001 191242.26064495 6368.36758060
0.22200001 188296.30599156 7558.21407989
0.22300001 185397.73512601 7475.23703375
0.22400001 182545.88488353 8625.29346861
0.22500001 179742.34032435 9139.89843769
0.22600001 176982.77039203 8436.76906355
0.22700001 174269.07792489 9536.00439500
0.22800001 171599.48766847 7073.33121619
0.22900001 168973.08233932 8744.35742459
0.23000001 166390.27114730 5765.42316791
0.23100001 163851.18859043 7982.83028566
0.23200001 161351.73208334 7331.01629392
0.23300001 158894.77884595 8923.53120202
0.23400001 156477.49872582 6067.41530005
0.23500001 154099.55052466 7091.66165055
0.23600001 151761.10651263 7553.15062837
0.23700001 149461.76839106 5335.78538393
0.23800001 147199.54942928 7387.94573530
0.23900001 144974.76871228 5741.00111255
0.24000001 142786.18641261 6194.06505956
0.24100001 140634.50363849 6126.03926826
0.24200001 138518.25889464 6563.68800820
0.24300001 136435.97001576 5492.91241266
0.24400001 134388.19714467 7408.14971803
0.24500001 132373.24153624 5861.48741250
0.24600001 130391.79359746 5314.11779945
0.24700001 128442.99405560 6689.31144686
0.24800001 126525.63910020 5670.87941274
0.24900001 124638.66090509 6076.13500657
0.25000001 122783.32129581 5547.35071858
0.25100001 120957.04831133 6401.04729946
0.25200001 119162.24242474 6331.09023955
0.25300001 117395.07343428 6709.12876418
0.25400001 115657.10030946 6635.82644420
0.25500001 113945.50298324 4375.50752157
0.25600001 112262.47226792 4760.49036175
0.25700001 110605.45665582 4708.47451261
0.25800001 108975.12521365 5080.42057784
0.25900001 107371.17835786 5024.97138490
0.26000001 105792.12546000 4970.11428927
0.26100001 104237.07973878 6554.42788411
0.26200001 102708.12550709 4457.01931727
0.26300001 101201.35722795 4007.57393586
0.26400001 99719.40880955  4756.61602529
0.26500001 98260.02289711  4704.69011893
0.26600001 96823.02451522  5816.64347299
0.26700001 95408.31361970  4602.49726681
0.26800001 94015.61577149  3793.53027589
0.26900001 92643.60367237  5252.89257680
0.27000001 91293.11953849  5566.59822728
0.27100001 89962.66386168  5505.71528888
0.27200001 88653.19094284  3993.38317500
0.27300001 87363.09392576  3590.62333027
0.27400001 86091.04865573  4261.50711013
0.27500001 84840.23519547  4214.86308398
0.27600001 83605.52224387  5558.09538181
0.27700001 82391.14471414  4122.85307662
0.27800001 81193.73003441  3737.75353903
0.27900001 80014.38970160  6049.08814773
0.28000001 78851.94143593  3323.60948883
0.28100001 77706.61630988  3615.68902803
0.28200001 76578.44909084  3575.83084954
0.28300001 75466.43823845  4822.30563168
0.28400001 74369.96824982  3179.31629316
0.28500001 73289.97892825  4401.79634277
0.28600001 72225.18717621  4042.08279164
0.28700001 71176.42432283  5227.19684969
0.28800001 70141.23296124  3648.74711135
0.28900001 69122.22046456  3307.49840579
0.29000001 68117.30427470  3270.65251956
0.29100001 67127.12053345  3234.18482039
0.29200001 66150.67548472  4070.25125524
0.29300001 65188.16088222  3162.27783409
0.29400001 64238.75640848  4548.10416901
0.29500001 63304.10333036  3372.84278510
0.29600001 62381.18429829  3056.99008125
0.29700001 61472.31094285  3297.37491507
0.29800001 60576.15014938  2988.52450909
0.29900001 59693.01066890  3492.04128944
0.30000001 58821.59259751  3452.53354095
0.30100001 57963.40388500  2888.31655232
0.30200001 57116.45560158  2855.53733298
0.30300001 56282.38497666  3079.77225172
0.30400001 55459.97514302  3552.21157608
0.30500001 54649.66215951  3010.10353425
0.30600001 53849.84865584  3223.72134240
0.30700001 53062.42602547  3677.22629766
0.30800001 52285.92498868  3150.48855935
0.30900001 51520.95922800  3114.44213278
0.31000001 50766.98225706  2841.93580130
0.31100001 50023.56109018  2341.10276986
0.31200001 49292.02158231  2777.11262743
0.31300001 48570.30626668  2516.42768682
0.31400001 47860.71023747  2487.56053237
0.31500001 47160.48938463  2906.02949347
0.31600002 46471.62197330  3093.61602124
0.31700002 45792.48229746  3494.88241442
0.31800002 45123.54586771  2590.99412640
0.31900002 44465.49277948  2561.21250537
0.32000002 43817.72525464  3164.73535636
0.32100002 43179.63691577  2502.69187414
0.32200002 42552.41185030  2680.16378730
0.32300002 41933.44426868  2241.76203675
0.32400002 41325.54868932  2417.54471280
0.32500002 40727.42830952  2389.88560637
0.32600002 40139.24159694  1968.82989356
0.32700002 39560.57709402  2335.65658223
0.32800002 38992.53331253  2501.56609312
0.32900002 38432.15630608  2282.87019268
0.33000002 37882.88252383  2068.97372701
0.33100002 37341.88485305  2045.58854912
0.33200002 36811.94794523  1838.75688694
0.33300002 36290.54742266  2181.78781437
0.33400002 35779.31787931  1797.91080858
0.33500002 35276.66498794  1777.94399959
0.33600002 34783.12409936  2461.60180908
0.33700002 34298.90997721  2086.74578184
0.33800002 33824.70703053  2407.98100754
0.33900002 33358.82854630  2211.69043736
0.34000002 32902.13450825  2187.82753774
0.34100002 32454.57819120  1831.41193406
0.34200002 32016.98039025  1812.00109100
0.34300002 31587.67595677  2444.88623484
0.34400002 31167.98551856  1774.23765967
0.34500002 30756.66418719  1755.89804161
0.34600002 30354.85158113  1737.96710959
0.34700002 29960.81269448  2033.14084574
0.34800002 29576.54246820  2322.49810731
0.34900002 29200.62106976  1839.63921452
0.35000002 28833.75656084  1669.90709031
0.35100002 28476.30971910  1653.90414682
0.35200002 28125.77554802  1936.03785154
0.35300002 27785.32382062  1622.94084123
0.35400002 27453.07623663  2192.81456826
0.35500002 27129.56467539  1593.59070451
0.35600002 26813.90599398  1579.47320739
0.35700002 26506.85327398  1565.75989706
0.35800002 26208.50501643  1552.46086818
0.35900002 25919.00265361  1539.58883055
0.36000002 25637.51183599  1804.75273118
0.36100002 25363.69713354  1652.69858350
0.36200002 25099.56750392  1503.33866686
0.36300002 24842.27603736  1627.66600307
0.36400002 24593.70324710  1615.80637987
0.36500002 24352.35486442  1470.63877992
0.36600002 24119.91478651  1327.80137189
0.36700002 23894.89664824  1450.89819321
0.36800002 23678.54380118  1572.72895377
0.36900002 23469.91899497  1302.58056592
0.37000002 23268.38141465  2071.81677930
0.37100002 23074.48996729  1545.06792140
0.37200002 22888.96093872  1280.63742519
0.37300002 22710.70307107  1274.07050264
0.37400002 22539.78590560  1901.79452587
0.37500002 22376.62880630  1262.04192446
0.37600002 22220.95986641  1256.59533997
0.37700002 22072.23080893  1251.49554615
0.37800002 21930.96623984  1496.13058776
0.37900002 21797.49319269  1366.70288793
0.38000002 21670.32679871  1733.84292930
0.38100002 21549.55727825  1975.66350486
0.38200002 21436.96087396  1601.01949872
0.38300002 21330.20271199  1597.20565474
0.38400002 21230.82955710  1226.08046501
0.38500002 21137.60978713  1223.86766465
0.38600002 21051.74797521  1710.87563900
0.38700002 20971.52236267  1708.75972306
0.38800002 20897.79169933  1585.20206445
0.38900002 20830.35782623  1218.57599057
0.39000002 20769.81350004  1827.22442923
0.39100002 20714.53967820  1461.61798894
0.39200002 20665.67570099  1340.06580432
0.39300002 20622.46926448  1340.66679040
0.39400002 20586.03598618  1585.63949696
0.39500002 20554.30729154  1465.11109315
0.39600002 20528.50357024  1711.46142374
0.39700002 20507.35970930  1224.28943265
0.39800002 20492.91377659  1594.45123193
0.39900002 20482.80388279  1843.45243679
0.40000002 20478.28700564  1354.94592392
0.40100002 20478.47131908  1481.82225486
0.40200002 20484.15848799  1362.09418319
0.40300002 20494.27146881  1241.95290985
0.40400002 20509.16435417  2242.67722839
0.40500002 20528.41704684  1500.21678886
0.40600002 20553.06933778  1882.14741379
0.40700002 20581.58327750  1385.55225189
0.40800002 20614.20342414  1517.61772799
0.40900002 20650.53690296  1651.01050362
0.41000002 20691.83193521  1785.91209895
0.41100002 20736.59104096  1281.52138705
0.41200002 20784.55699061  1802.64471321
0.41300002 20837.35002284  1423.39944750
0.41400002 20893.03937159  1690.76929126
0.41500002 20952.17670402  1438.15747711
0.41600002 21013.86814494  1445.85926622
0.41700002 21080.18507287  1850.41873338
0.41800002 21149.67202386  1728.03403459
0.41900002 21220.47802806  1470.57919703
0.42000002 21294.71489686  1748.18970229
0.42100002 21372.34721954  1488.15660741
0.42200002 21452.37690189  1497.26871682
0.42300002 21534.37234201  1780.46198961
0.42400002 21618.83395254  2205.12116765
0.42500002 21705.78632416  1941.79973657
0.42600002 21793.84929024  2093.84416978
0.42700002 21885.12241162  1405.02492540
0.42800002 21977.53539994  1838.53081100
0.42900002 22072.65001961  1993.16039122
0.43000002 22168.93375756  1719.86596241
0.43100002 22265.49387414  1875.64529284
0.43200002 22364.75512365  1743.10909694
0.43300002 22464.56015463  2193.66440305
0.43400002 22565.96018771  1619.67186923
0.43500002 22667.89909443  1630.72873813
0.43600002 22771.44151328  1791.20167432
0.43700002 22875.23822930  1653.19354517
0.43800002 22979.23205598  1815.81900311
0.43900002 23084.93600472  1828.32701822
0.44000002 23190.33740646  2147.65724899
0.44100002 23296.46320035  1544.55558338
0.44200002 23402.77312694  1555.11434798
0.44300002 23509.39367005  2192.01596968
0.44400002 23615.75256700  1576.35155855
0.44500002 23721.64631071  2380.46732009
0.44600002 23827.36656572  2076.91250513
0.44700002 23933.67827495  1930.01190756
0.44800002 24038.70365916  1619.00676817
0.44900002 24143.75157913  1955.64397059
0.45000002 24248.62823880  1968.50373372
0.45100002 24351.74766487  2311.46799790
0.45200002 24454.77232712  1994.04223006
0.45300002 24556.62045643  1839.53652557
0.45400002 24657.58509585  2019.45631506
0.45500002 24757.89534994  2032.12814663
0.45600002 24856.60211635  2215.09620258
0.45700002 24954.50650656  2228.68708173
0.45800002 25050.59168441  2414.62664690
0.45900002 25145.53818278  1735.04221684
0.46000002 25239.43564107  1745.30705730
0.46100002 25330.99197969  2457.61295835
0.46200002 25421.54734958  2471.73716595
0.46300002 25510.25103194  2130.61626717
0.46400002 25596.70057479  2678.05492456
0.46500002 25682.53819478  1795.20950490
0.46600002 25765.26750379  2526.79990386
0.46700002 25846.28955921  1814.40961305
0.46800002 25925.90628556  3282.99766854
0.46900002 26002.72769313  2383.15010603
0.47000002 26077.63627754  1842.38509033
0.47100002 26150.50615661  2221.74710837
0.47200002 26221.18499194  1860.39316336
0.47300002 26289.45917792  2990.68901783
0.47400002 26354.91749449  2065.56675653
0.47500002 26418.34573471  2452.15096732
0.47600002 26480.04514028  2841.97097938
0.47700002 26538.09307690  2093.05950018
