# SAXS profile: number of points = 501, q_min = 0, q_max = 0.5, delta_q = 0.001
#    q    intensity    error
0.00000000 1646666.22097350 271.69992646
0.00100000 1646585.80079180 543.37332717
0.00200000 1646344.48019006 889.02604745
0.00300000 1645942.47099686 1283.83517311
0.00400000 1645379.67164123 2221.26264112
0.00500000 1644656.56032457 1776.22915546
0.00600000 1643773.02803202 1898.55792467
0.00700000 1642729.64000016 2956.91347489
0.00800000 1641526.25109630 2437.66658580
0.00900000 1640164.04444944 2706.27078903
0.01000000 1638642.39698520 2974.13607895
0.01100000 1636962.58247830 4125.14588745
0.01200000 1635124.53155681 4463.89016686
0.01300000 1633129.34852145 6173.22920968
0.01400000 1630977.12027277 4770.60828828
0.01500000 1628669.14837574 4299.68674317
0.01600000 1626204.93298018 4561.50504092
0.01700000 1623586.63331227 5698.78933857
0.01800000 1620814.19921143 6467.04894586
0.01900000 1617888.23018455 5339.03140052
0.02000000 1614810.12228122 6612.64774987
0.02100000 1611581.56768139 5850.04135592
0.02200000 1608201.23907020 8322.44179030
0.02300000 1604672.42158939 6354.50307874
0.02400000 1600994.46455291 6604.10246741
0.02500000 1597169.97219691 8097.65212886
0.02600000 1593198.90895748 7097.70146404
0.02700000 1589083.48445396 7341.56603443
0.02800000 1584823.40445861 10340.97318833
0.02900000 1580421.08580042 10667.84281896
0.03000000 1575878.04226635 11724.53317338
0.03100000 1571194.52597500 9050.08088604
0.03200000 1566371.89864933 10854.95775760
0.03300000 1561414.10814401 13537.46094169
0.03400000 1556319.09976033 9804.81078089
0.03500000 1551090.20075631 10051.06496504
0.03600000 1545728.34782154 9436.67199955
0.03700000 1540235.77248860 10535.21317105
0.03800000 1534613.51723565 9875.23844043
0.03900000 1528863.87368217 9173.18366690
0.04000000 1522986.60358457 10303.00485068
0.04100000 1516985.70206189 10512.71140273
0.04200000 1510861.95368695 9745.06005338
0.04300000 1504616.07932664 10923.51324296
0.04400000 1498251.94631450 14158.48155022
0.04500000 1491770.48196404 14410.50352536
0.04600000 1485171.83688429 12564.55432413
0.04700000 1478460.12044982 11709.40469854
0.04800000 1471635.98291752 15143.13496880
0.04900000 1464702.76083513 15379.37970464
0.05000000 1457660.32572246 13381.32241325
0.05100000 1450513.33134889 12445.40496273
0.05200000 1443259.64991300 18358.26360241
0.05300000 1435905.22083029 12793.91611402
0.05400000 1428450.48496593 12963.18875559
0.05500000 1420897.64286532 11935.54075685
0.05600000 1413247.69686018 14499.92204641
0.05700000 1405505.75034727 19564.64095808
0.05800000 1397670.81281577 13606.32599807
0.05900000 1389745.21789134 13758.47829973
0.06000000 1381733.18321024 13907.14513874
0.06100000 1373635.25752290 12774.80849195
0.06200000 1365454.29562304 16774.60680583
0.06300000 1357193.06404548 20846.48643842
0.06400000 1348850.52487066 15781.55187904
0.06500000 1340432.22764279 17251.36357674
0.06600000 1331939.92657789 21417.59502147
0.06700000 1323374.32452296 13498.41874185
0.06800000 1314738.86526941 17689.81226024
0.06900000 1306036.60121017 16456.06194570
0.07000000 1297267.48027031 15197.48924304
0.07100000 1288434.68785722 16698.11433673
0.07200000 1279541.12748157 15412.07360252
0.07300000 1270588.79523201 19744.95080307
0.07400000 1261580.29113304 14192.77894038
0.07500000 1252517.21240720 15706.56657979
0.07600000 1243400.54142445 15797.40461939
0.07700000 1234235.56293024 14440.55676338
0.07800000 1225022.56765775 23226.42897202
0.07900000 1215763.48204679 21883.74370327
0.08000000 1206462.43524717 14658.51927590
0.08100000 1197120.14237364 26504.24119568
0.08200000 1187738.55423870 16266.08026359
0.08300000 1178321.35949259 19300.90477432
0.08400000 1168869.24000739 20864.31691347
0.08500000 1159385.68595076 16451.68365597
0.08600000 1149871.55017113 25509.90153827
0.08700000 1140331.41031835 21073.32545224
0.08800000 1130764.16646113 19624.41303057
0.08900000 1121175.58399609 18163.04531385
0.09000000 1111564.92771627 24276.57916173
0.09100000 1101935.29945530 18248.04941629
0.09200000 1092288.70982911 18284.91386169
0.09300000 1082629.99331870 16791.59198545
0.09400000 1072955.43691807 16818.57726412
0.09500000 1063271.58100432 19904.44493196
0.09600000 1053578.79002937 16862.52932709
0.09700000 1043881.93448853 23017.59773759
0.09800000 1034180.62658815 16893.34132960
0.09900000 1024477.61910931 18440.59801109
0.10000000 1014773.62058913 16911.20318240
0.10100000 1005071.03370837 16915.34629287
0.10200000 995373.00642338 16916.36503985
0.10300000 985680.26902849 16914.27421219
0.10400000 975996.17804723 27669.49294935
0.10500000 966323.24444341 21510.35643336
0.10600001 956658.84529570 16889.81270842
0.10700001 947009.83969231 24546.49619993
0.10800001 937375.57645887 16858.70053601
0.10900001 927759.50828220 19900.44238928
0.11000001 918161.38278937 21402.34284022
0.11100001 908584.12574080 16790.63543408
0.11200001 899029.46713847 15238.55018538
0.11300001 889498.70382290 21294.59997209
0.11400001 879994.39132265 19733.87515457
0.11500001 870518.01175692 19691.11835316
0.11600001 861070.61112650 21156.50591167
0.11700001 851654.79336980 19596.57771834
0.11800001 842269.87610171 21048.32519512
0.11900001 832918.80222729 17991.04697552
0.12000001 823602.55117738 23917.41921282
0.12100001 814325.42710403 17882.58722162
0.12200001 805085.72458516 17824.59878206
0.12300001 795886.80016301 14803.49518049
0.12400001 786727.89984551 16226.26369885
0.12500001 777611.17695275 16166.53713062
0.12600001 768540.30900239 14640.69357642
0.12700001 759513.93675048 17499.20192741
0.12800001 750533.71730972 15975.11092583
0.12900001 741601.89827108 21691.85654681
0.13000001 732719.45988757 14397.93806544
0.13100001 723886.54125278 14332.95419243
0.13200001 715105.27801625 15692.98606584
0.13300001 706376.59793205 19877.43840289
0.13400001 697701.29052016 18366.98733887
0.13500001 689081.09203471 14057.25494028
0.13600001 680516.57100039 15383.07781279
0.13700001 672009.05100846 19474.82321653
0.13800001 663557.61869443 16602.21240262
0.13900001 655166.38919224 15134.34430405
0.14000001 646833.44649713 13680.52803860
0.14100001 638562.17658225 23122.33750456
0.14200001 630351.49259340 14873.14416924
0.14300001 622203.69083076 13439.60035586
0.14400001 614115.99879603 17364.13068502
0.14500001 606094.09692672 14600.80748372
0.14600001 598136.07343580 18464.46145801
0.14700001 590244.01845287 13103.41782783
0.14800001 582415.06582137 16922.07053580
0.14900001 574653.45217257 14222.67361231
0.15000001 566958.08187066 16694.08150836
0.15100001 559330.19840953 14028.00203802
0.15200001 551770.94451469 16462.08690639
0.15300001 544279.96859673 13830.15465467
0.15400001 536855.77735380 18722.84611876
0.15500001 529502.67882271 18585.54490378
0.15600001 522217.22240458 12298.21616804
0.15700001 515004.39879266 17087.84675843
0.15800001 507858.79742351 14534.91946829
0.15900001 500785.93693138 15624.52196975
0.16000001 493781.58661843 13117.30846769
0.16100001 486850.65669992 13013.51866788
0.16200001 479990.49673159 15256.49865881
0.16300001 473201.39381294 12804.83032107
0.16400001 466484.34378943 16163.68327538
0.16500001 459838.28048404 14884.96584201
0.16600001 453264.72590417 13625.13830396
0.16700001 446762.46684411 11258.41469603
0.16800001 440332.61127469 13394.91866744
0.16900001 433975.65774828 16599.56969267
0.17000001 427689.29729948 18649.39268936
0.17100001 421475.69308527 14136.29541361
0.17200001 415334.23611620 14011.30111703
0.17300001 409264.22787697 14954.51559284
0.17400001 403267.17680077 11644.34028004
0.17500001 397340.74787941 10489.79623942
0.17600001 391484.64420940 12472.70135359
0.17700001 385702.90285812 16477.22878833
0.17800001 379990.65285875 12243.29941339
0.17900001 374349.20914924 13139.65786177
0.18000001 368779.70317722 12014.84329704
0.18100001 363281.19242726 15868.12323478
0.18200001 357851.11440561 10805.31490990
0.18300001 352491.64210937 12647.40071634
0.18400001 347202.17912506 12525.31920364
0.18500001 341982.27815541 11449.56721354
0.18600001 336831.79851168 12282.57211300
0.18700001 331749.31104719 10290.86411487
0.18800001 326733.94820186 10189.19865608
0.18900001 321789.78645980 10088.11028215
0.19000001 316909.01610425 11803.27686249
0.19100001 312098.26658840 10786.11660294
0.19200001 307352.61944983 11567.21637956
0.19300001 302674.91883523 8807.84055430
0.19400001 298061.32317575 9590.12352635
0.19500001 293513.64226006 13806.88238436
0.19600001 289029.89725972 12811.25080145
0.19700001 284612.08382532 10143.57514689
0.19800001 280256.75981451 10038.79761098
0.19900001 275965.30340354 10762.64734138
0.20000001 271734.64918174 9012.08006603
0.20100001 267568.22237413 8918.04927322
0.20200001 263461.98921659 8022.41795081
0.20300001 259417.16793111 8731.98228528
0.20400001 255433.29709374 9425.48910826
0.20500001 251508.33121017 8548.76858191
0.20600001 247642.34520277 11533.94277301
0.20700001 243835.42389689 9889.96526075
0.20800001 240085.87888772 8279.36192481
0.20900001 236396.08969943 8935.77261304
0.21000001 232760.22030159 8103.54745287
0.21100001 229181.73044132 9474.37318433
0.21200001 225657.84318420 8651.72211669
0.21300001 222188.46998821 7845.47524618
0.21400001 218774.08839084 9172.10408941
0.21500001 215413.83470782 11864.99457665
0.21600001 212105.11122286 10356.03254507
0.21700001 208849.12942620 7512.30354064
0.21800001 205644.78094450 7430.97451077
0.21900001 202490.62413464 8018.62909486
0.22000001 199386.06976733 6609.64852531
0.22100001 196332.71547505 8499.24365479
0.22200001 193327.46432790 7113.48438630
0.22300001 190370.06915915 8315.36501407
0.22400001 187459.80247134 6326.76863258
0.22500001 184598.27020974 7509.45798723
0.22600001 181781.13165130 9903.43652068
0.22700001 179010.43886512 6122.15729870
0.22800001 176283.90594357 6660.88770107
0.22900001 173601.29900861 7786.01862874
0.23000001 170962.65158252 7108.62738898
0.23100001 168368.03367481 6445.12863388
0.23200001 165813.71344390 7533.74642662
0.23300001 163302.20416594 6305.09840104
0.23400001 160830.62175171 5669.27968488
0.23500001 158399.00243825 6168.05744667
0.23600001 156007.43960269 7764.49063626
0.23700001 153655.10904305 6582.58518275
0.23800001 151340.53996427 7053.22619864
0.23900001 149063.79925216 5366.29702690
0.24000001 146823.68430419 5838.44408252
0.24100001 144620.94821170 6299.68880208
0.24200001 142454.15839441 5711.69975100
0.24300001 140321.66896243 5649.35065966
0.24400001 138224.04392625 7111.62739641
0.24500001 136159.84839964 5526.72850798
0.24600001 134129.37506852 5466.44293951
0.24700001 132132.24195206 5406.85159645
0.24800001 130166.96780702 6320.25742086
0.24900001 128232.37212221 5289.58560028
0.25000001 126329.85351013 9037.00649837
0.25100001 124457.11208503 5174.92696532
0.25200001 122616.11302665 5118.60988046
0.25300001 120803.03038892 5062.85524313
0.25400001 119019.67977287 5463.00356004
0.25500001 117263.24536836 5403.49060222
0.25600001 115535.89294877 4899.29977229
0.25700001 113834.87984953 7048.65609378
0.25800001 112160.91397786 6100.43239989
0.25900001 110514.04393807 6034.06708452
0.26000001 108892.11130943 5542.06426732
0.26100001 107295.02326832 5481.70299815
0.26200001 105724.11272967 5839.14302235
0.26300001 104176.10611286 4950.44879673
0.26400001 102653.10589756 6528.73784401
0.26500001 101153.23012313 5246.81829476
0.26600001 99676.15781681  5588.84243325
0.26700001 98221.97687661  6317.63785166
0.26800001 96790.11775103  3905.48143606
0.26900001 95379.24785638  4635.43166518
0.27000001 93990.38394070  4584.85114559
0.27100001 92622.06313231  4156.87839009
0.27200001 91275.15572093  5980.34848585
0.27300001 89947.99296349  3696.86268575
0.27400001 88639.39037680  5484.56253912
0.27500001 87352.23547150  3978.02099163
0.27600001 86081.80953007  5007.37909734
0.27700001 84832.11831781  4598.74935165
0.27800001 83599.70374880  4898.10687446
0.27900001 82385.84102015  3806.22603527
0.28000001 81189.24608486  3764.33957288
0.28100001 80010.26045296  4738.20784828
0.28200001 78848.76949051  4351.26955028
0.28300001 77703.88723621  3641.20432823
0.28400001 76574.92546339  4910.36732775
0.28500001 75462.92973701  3561.09582284
0.28600001 74366.44037466  4482.06557353
0.28700001 73286.33846100  4748.95495705
0.28800001 72220.25220988  4383.04731408
0.28900001 71170.86832090  3095.93291850
0.29000001 70135.68763709  3673.70749232
0.29100001 69115.88795419  4238.18644996
0.29200001 68110.08504747  3891.46989339
0.29300001 67118.70223224  3255.92839941
0.29400001 66140.72547494  4682.76358529
0.29500001 65177.87645343  3762.06720698
0.29600001 64227.21557377  4005.85162496
0.29700001 63290.82696096  3394.92011890
0.29800001 62367.65186642  5034.94077352
0.29900001 61457.88505273  3042.16545412
0.30000001 60560.04464266  3007.71475956
0.30100001 59675.95767042  3784.64941462
0.30200001 58803.42740258  3474.40067256
0.30300001 57944.11628084  3434.92737574
0.30400001 57096.86431418  2873.39983264
0.30500001 56262.10135929  3615.40280451
0.30600001 55438.07475090  3063.50815577
0.30700001 54626.75904858  2776.13202628
0.30800001 53826.85579097  3243.33734924
0.30900001 53038.70230639  2712.92975141
0.31000001 52262.04387598  2438.02446224
0.31100001 51496.13028098  2651.02091238
0.31200001 50742.43924830  3335.30068970
0.31300001 49998.92248733  4945.39365737
0.31400001 49267.80281969  2793.48455214
0.31500001 48546.32897805  2761.31532301
0.31600002 47836.67028170  2957.02391347
0.31700002 47137.04626587  2473.28093468
0.31800002 46447.85732444  2667.03609385
0.31900002 45769.89758857  2636.34622593
0.32000002 45102.63942504  2606.03062937
0.32100002 44445.16271774  2576.04175310
0.32200002 43799.06466784  2334.27126200
0.32300002 43161.50244454  2097.64911813
0.32400002 42535.26984623  2695.67285415
0.32500002 41918.90185830  3074.75159690
0.32600002 41312.89239790  2431.67696169
0.32700002 40716.84783628  2604.24971093
0.32800002 40131.49744951  2376.58739150
0.32900002 39554.18495015  2349.51869730
0.33000002 38988.25846805  2710.07397445
0.33100002 38430.74825702  2296.62162459
0.33200002 37884.74095965  1892.34290055
0.33300002 37347.42189982  2245.32711094
0.33400002 36820.56553580  2035.25685637
0.33500002 36302.60234146  2195.58149359
0.33600002 35793.97438529  1809.38549086
0.33700002 35294.84767922  2147.33863449
0.33800002 34806.10478578  2300.85766583
0.33900002 34325.87852743  1925.68187658
0.34000002 33855.01452677  1904.85248256
0.34100002 33393.68795381  1884.40590048
0.34200002 32942.38732079  2203.35168030
0.34300002 32499.60109363  2180.07334461
0.34400002 32066.77655653  1825.40134193
0.34500002 31642.55194301  1806.47337598
0.34600002 31228.05886167  1625.42054073
0.34700002 30821.49085131  1608.88189864
0.34800002 30424.93640609  2389.11824444
0.34900002 30036.87341102  2050.01670739
0.35000002 29658.19895375  1873.80509865
0.35100002 29289.09030259  1546.46404122
0.35200002 28927.17195888  1684.86321054
0.35300002 28575.43770037  1669.09139513
0.35400002 28231.99351938  3157.04282483
0.35500002 27897.66917908  1936.65628614
0.35600002 27571.40186066  1919.38323144
0.35700002 27253.90708923  1463.53488001
0.35800002 26945.20140091  1741.19899700
0.35900002 26645.54986485  1582.74573694
0.36000002 26354.18865962  1997.91113692
0.36100002 26070.64265334  1698.76315576
0.36200002 25796.96767025  1545.10945180
0.36300002 25530.17081743  1672.73687119
0.36400002 25272.37126801  2075.49358870
0.36500002 25021.92900131  1648.44476069
0.36600002 24780.57002196  2182.67271092
0.36700002 24546.80013576  1761.47846118
0.36800002 24321.86531688  1884.70143268
0.36900002 24104.77586149  1739.15966079
0.37000002 23894.86470290  1462.72421208
0.37100002 23692.84708973  2115.29748837
0.37200002 23499.18561145  1709.21334641
0.37300002 23313.14483668  1569.44098475
0.37400002 23134.46848237  1691.70808791
0.37500002 22963.68037998  1683.69712522
0.37600002 22800.51162967  1418.30589311
0.37700002 22644.52736212  1540.73371471
0.37800002 22495.93823020  1790.45180856
0.37900002 22355.38693229  1529.10853861
0.38000002 22221.23871910  1396.93823825
0.38100002 22093.65983434  1392.56344533
0.38200002 21974.24288078  1514.90437597
0.38300002 21860.92058640  1888.78362814
0.38400002 21754.98313243  1381.98536896
0.38500002 21655.30988881  1504.61100235
0.38600002 21563.13628272  1376.91413256
0.38700002 21476.75132572  1874.92047956
0.38800002 21396.87646620  1498.20936114
0.38900002 21323.45917243  1496.90690482
0.39000002 21256.94636708  1371.39195984
0.39100002 21195.81296805  1495.57663388
0.39200002 21141.36246498  1246.28337636
0.39300002 21092.42768476  1495.87504227
0.39400002 21050.48233379  1496.68936484
0.39500002 21013.26773615  1497.82579520
0.39600002 20982.01529827  1249.47907021
0.39700002 20955.58018183  1501.25783535
0.39800002 20935.88943720  1503.61565062
0.39900002 20920.59205326  1506.28269920
0.40000002 20910.99007171  1886.69416861
0.40100002 20906.12913975  1638.83154091
0.40200002 20906.86975778  1516.58440408
0.40300002 20912.10494316  1774.18306744
0.40400002 20922.27698743  1652.33690337
0.40500002 20936.67836685  1402.54815025
0.40600002 20956.62361517  1407.34212556
0.40700002 20980.48836885  1284.00594901
0.40800002 21008.49492751  1675.53259233
0.40900002 21040.39408183  1423.38272708
0.41000002 21077.15343593  1689.22854216
0.41100002 21117.52446286  1696.58199573
0.41200002 21161.11178401  1442.02403085
0.41300002 21209.57528047  2107.38349972
0.41400002 21261.00948845  1323.49790337
0.41500002 21315.91918829  1729.14744649
0.41600002 21373.34109094  1470.59280344
0.41700002 21435.45715115  1344.00322706
0.41800002 21500.85157845  1486.46144431
0.41900002 21567.58726049  1494.63386797
0.42000002 21637.82014958  1912.99977007
0.42100002 21711.46323671  1511.76925681
0.42200002 21787.44823946  1520.65502193
0.42300002 21865.53764586  2364.10204229
0.42400002 21946.03030483  1678.87139787
0.42500002 22029.20896474  1689.19982346
0.42600002 22113.36576229  1557.99725861
0.42700002 22200.84012904  1710.35280459
0.42800002 22289.37354637  1577.75338124
0.42900002 22380.66938374  1876.61921675
0.43000002 22473.27272651  2034.05601087
0.43100002 22566.10205446  1754.74017891
0.43200002 22661.63846761  2207.81023233
0.43300002 22757.73971314  2074.14049574
0.43400002 22855.45566679  1640.45040822
0.43500002 22953.77929596  2852.23675048
0.43600002 23053.71546927  1964.52245681
0.43700002 23153.83788665  2129.69010974
0.43800002 23254.24442832  1531.29206817
0.43900002 23356.28938943  1695.66669003
0.44000002 23458.11069741  2482.80655387
0.44100002 23560.65023519  1874.48542154
0.44200002 23663.38394625  2358.64790662
0.44300002 23766.43362251  2532.55128683
0.44400002 23869.26929736  1752.60118122
0.44500002 23971.59170389  2405.54934149
0.44600002 24073.76777887  2744.04855032
0.44700002 24176.58175734  2112.06628242
0.44800002 24278.07841772  2289.18012250
0.44900002 24379.69807779  1645.62969824
0.45000002 24480.97113804  1987.36533117
0.45100002 24580.60854311  1999.87840585
0.45200002 24680.17492888  1844.71976249
0.45300002 24778.47170369  2362.37960419
0.45400002 24875.93264478  1867.56073182
0.45500002 24972.80777938  2049.76815968
0.45600002 25068.00151381  1890.25274373
0.45700002 25162.44820738  1901.52630115
0.45800002 25255.05320026  2260.45364382
0.45900002 25346.46233002  1748.90598366
0.46000002 25436.90064056  1934.85793893
0.46100002 25524.94807679  1945.76688411
0.46200002 25611.98012845  2312.37773549
0.46300002 25697.26674766  1967.38283545
0.46400002 25780.22739613  2157.80513533
0.46500002 25862.50705975  2530.90506082
0.46600002 25941.78417020  3634.44413450
0.46700002 26019.30657863  2009.21094923
0.46800002 26095.43117997  1835.81367052
0.46900002 26168.69920711  1844.89338154
0.47000002 26240.12788775  1853.86512314
0.47100002 26309.54280594  2048.98729084
0.47200002 26376.73016761  3181.42945996
0.47300002 26441.53389333  1879.99314892
0.47400002 26503.44760541  1888.37073139
0.47500002 26563.35325267  1896.62351214
0.47600002 26621.54157416  2285.72566790
0.47700002 26676.07376345  2869.01186924
