# SAXS profile: number of points = 501, q_min = 0, q_max = 0.5, delta_q = 0.001
#    q    intensity    error
0.00000000 1628779.37420968 268.74859674
0.00100000 1628699.39576151 586.33179640
0.00200000 1628459.39308895 879.36810011
0.00300000 1628059.58438401 1367.57009960
0.00400000 1627499.87338836 1830.93742713
0.00500000 1626780.72210739 1756.92324942
0.00600000 1625902.02359611 1877.91691371
0.00700000 1624864.36308728 2534.78851176
0.00800000 1623667.56352973 3287.92695496
0.00900000 1622312.82430271 3163.51014262
0.01000000 1620799.53280925 4813.77482030
0.01100000 1619128.95729899 3497.31870004
0.01200000 1617300.99150826 3469.11077888
0.01300000 1615316.77174687 4749.03151839
0.01400000 1613176.36383349 3992.61167748
0.01500000 1610881.13549607 5412.56085628
0.01600000 1608430.52468571 4921.79762556
0.01700000 1605826.64616980 5202.87856698
0.01800000 1603069.49503188 4568.74826642
0.01900000 1600159.69295833 6720.67101368
0.02000000 1597098.63540102 7043.20530072
0.02100000 1593887.96106624 7889.74576499
0.02200000 1590526.32479751 7682.24249779
0.02300000 1587017.15583584 7427.24062739
0.02400000 1583359.61566715 8312.63836129
0.02500000 1579556.40177810 6776.29727311
0.02600000 1575607.46820268 8933.69475332
0.02700000 1571515.04314446 12540.69061867
0.02800000 1567278.76726998 9544.72813039
0.02900000 1562901.08591809 9142.97177241
0.03000000 1558383.53605700 9420.42890848
0.03100000 1553726.29515162 8949.46387187
0.03200000 1548930.74195215 8433.92827838
0.03300000 1544000.86493280 10236.72620642
0.03400000 1538934.76156550 10503.23023231
0.03500000 1533735.46096343 9110.38905882
0.03600000 1528403.96672652 9330.90664808
0.03700000 1522942.52471367 9548.85007157
0.03800000 1517352.30783213 10651.81369394
0.03900000 1511635.41360524 10883.77548199
0.04000000 1505791.72458355 12038.80539591
0.04100000 1499825.23978013 9448.89944873
0.04200000 1493736.65551732 10598.06206257
0.04300000 1487526.61957441 10799.44375940
0.04400000 1481199.24146492 9998.09534422
0.04500000 1474755.30475500 13228.55569832
0.04600000 1468194.79950115 10350.77381766
0.04700000 1461522.16575700 15784.44012428
0.04800000 1454737.78089837 11761.55550581
0.04900000 1447845.04588592 13030.60601952
0.05000000 1440843.77075426 13226.94643145
0.05100000 1433738.83514235 13419.79612208
0.05200000 1426527.90731295 12474.98713080
0.05300000 1419216.91589127 13794.78906555
0.05400000 1411806.37093101 16306.36434468
0.05500000 1404298.38908204 15334.93912414
0.05600000 1396694.04698550 13135.90812487
0.05700000 1388998.30442202 16918.00013757
0.05800000 1381210.52964576 20780.31338880
0.05900000 1373332.49300833 17303.99022010
0.06000000 1365368.86547359 13742.43827302
0.06100000 1357320.01068799 18934.61503394
0.06200000 1349188.64302140 14024.81659978
0.06300000 1340977.95432313 16735.40565242
0.06400000 1332686.52965448 16891.80255334
0.06500000 1324319.75208044 15732.91939067
0.06600000 1315879.96023930 14547.05364108
0.06700000 1307367.12369911 20002.71792870
0.06800000 1298785.32847648 17475.15741265
0.06900000 1290137.42452249 14901.08795089
0.07000000 1281423.06464686 17741.30316083
0.07100000 1272645.86487167 15119.03358282
0.07200000 1263808.39335006 23525.79434432
0.07300000 1254912.55887438 15322.48306180
0.07400000 1245961.44880900 15418.77365160
0.07500000 1236956.18565728 16921.56141295
0.07600000 1227898.05497463 15600.44551981
0.07700000 1218792.10969413 17111.84202245
0.07800000 1209638.59771264 15767.63986063
0.07900000 1200439.57443794 17286.33068270
0.08000000 1191199.26298327 23156.91475871
0.08100000 1181918.13913348 20352.63131079
0.08200000 1172598.20830371 21898.27256765
0.08300000 1163243.36990006 14656.86714862
0.08400000 1153853.92279115 14711.63820613
0.08500000 1144433.77018396 16239.51596128
0.08600000 1134983.36034843 22217.30032196
0.08700000 1125507.47320569 17828.03921274
0.08800000 1116004.90040685 14898.66612013
0.08900000 1106481.67530139 17925.00398181
0.09000000 1096936.59216209 14973.18518639
0.09100000 1087373.17694936 19507.47571096
0.09200000 1077793.07308639 18042.25689121
0.09300000 1068201.44379651 15061.64106531
0.09400000 1058594.47674217 18101.96640304
0.09500000 1048978.56551766 19636.87966948
0.09600000 1039354.08688175 19659.38347751
0.09700000 1029725.81642588 18164.36425571
0.09800000 1020093.67391523 18178.07012386
0.09900000 1010460.12154100 15156.90253583
0.10000000 1000826.14043370 22743.77511093
0.10100000 991193.93590998 16681.79472594
0.10200000 981566.52565077 21231.28494847
0.10300000 971944.71653033 19711.03977846
0.10400000 962332.08086104 16672.40408527
0.10500000 952730.95178144 22722.63426907
0.10600001 943138.56568962 16651.11216074
0.10700001 933561.87739363 21173.18437565
0.10800001 924000.26615668 21150.36708770
0.10900001 914457.37620372 21123.96638452
0.11000001 904932.40702065 15067.12528610
0.11100001 895428.60889586 22564.80200638
0.11200001 885947.97567831 15016.81889470
0.11300001 876491.25776579 16486.80133479
0.11400001 867061.55542809 19443.85629598
0.11500001 857659.62176853 23877.24499437
0.11600001 848287.12931993 17864.92778476
0.11700001 838946.52806937 19304.16052000
0.11800001 829637.02394612 14809.02157492
0.11900001 820361.63825683 17719.81222098
0.12000001 811121.17243719 19138.40496517
0.12100001 801920.05795469 22012.70662783
0.12200001 792756.62643559 19014.26858084
0.12300001 783634.00107224 14575.59310666
0.12400001 774551.87868425 15975.13325057
0.12500001 765511.86320939 14468.17489640
0.12600001 756517.95137002 20176.33471382
0.12700001 747568.58674990 15788.64929622
0.12800001 738665.64902233 17151.81717865
0.12900001 729811.19634632 15654.45089946
0.13000001 721006.35662642 14167.77557551
0.13100001 712251.21866008 19743.60471192
0.13200001 703547.48304522 26667.96860197
0.13300001 694896.59067818 20951.13319665
0.13400001 686299.37829843 15287.31937233
0.13500001 677757.21081282 15208.87252771
0.13600001 669270.76519856 16504.21784798
0.13700001 660841.42286655 15047.35990820
0.13800001 652468.35443941 17685.15558104
0.13900001 644155.23133421 17585.43864472
0.14000001 635900.66017236 20173.94939538
0.14100001 627707.83597791 22729.30181274
0.14200001 619575.62191066 26579.79543361
0.14300001 611506.15826247 15850.24036978
0.14400001 603496.98932658 17063.87817811
0.14500001 595553.55773533 15651.14823558
0.14600001 587674.17202255 19437.32415659
0.14700001 579860.42426247 15447.48243111
0.14800001 572109.79485772 16622.65087383
0.14900001 564426.60245658 13969.55906990
0.15000001 556809.62208717 13872.91238887
0.15100001 549259.95241923 20037.00400970
0.15200001 541778.93150717 14920.59247777
0.15300001 534366.13622452 13578.24416221
0.15400001 527020.07944591 15929.18265297
0.15500001 519745.06084317 12162.03499769
0.15600001 512537.68279530 16898.36819928
0.15700001 505402.78279023 16769.26512444
0.15800001 498335.11305744 22582.05671404
0.15900001 491339.98955111 20046.67251990
0.16000001 484413.08026694 18717.72230504
0.16100001 477559.82828546 16246.58612518
0.16200001 470777.04816851 12661.54930819
0.16300001 464065.20976396 14840.80610885
0.16400001 457425.08982068 11321.27150753
0.16500001 450856.05543846 14594.21120355
0.16600001 444359.09560528 14470.55463158
0.16700001 437933.65568107 14346.70723749
0.16800001 431580.40505036 10940.56378460
0.16900001 425299.61044641 17352.22492555
0.17000001 419089.49795149 12899.57535606
0.17100001 412951.73800591 15981.23301548
0.17200001 406886.19874711 14782.17629854
0.17300001 400891.49378521 12555.92217830
0.17400001 394970.02699353 14515.14917751
0.17500001 389118.57473373 12327.27702975
0.17600001 383337.42093744 13230.89170854
0.17700001 377630.28882243 10082.72918777
0.17800001 371992.46407667 10986.79794543
0.17900001 366425.47931564 9893.48840883
0.18000001 360929.86871667 10779.17103838
0.18100001 355505.12208940 11646.34834978
0.18200001 350148.48643024 11533.89168785
0.18300001 344862.19618118 12373.65618350
0.18400001 339645.86609589 14137.75984412
0.18500001 334498.69763306 10265.76551533
0.18600001 329420.52575149 11088.29542064
0.18700001 324410.35613587 10063.20972277
0.18800001 319466.81104978 12679.63832963
0.18900001 314594.30656116 20621.65776940
0.19000001 309784.72031760 9762.86592209
0.19100001 305044.89789833 12299.41086441
0.19200001 300370.16927956 12174.00353614
0.19300001 295762.70973635 13770.71241603
0.19400001 291219.07180703 10221.78990345
0.19500001 286741.05700546 8430.18747433
0.19600001 282326.88706596 9177.03589775
0.19700001 277978.11636451 8255.95044618
0.19800001 273691.40000272 13071.50188187
0.19900001 269468.32167804 12934.48005183
0.20000001 265305.82357773 7998.97095891
0.20100001 261207.06876213 7914.57455755
0.20200001 257168.04516489 12529.22775261
0.20300001 253190.22579653 8522.38340312
0.20400001 249273.23268751 7665.15226744
0.20500001 245414.46922137 7583.30745738
0.20600001 241614.32377207 10502.97515083
0.20700001 237873.04088582 8905.96707174
0.20800001 234188.56291986 8810.17415350
0.20900001 230563.72931754 8715.30938019
0.21000001 226992.25645418 9339.59683331
0.21100001 223477.71774670 7106.59176030
0.21200001 220017.36279429 10544.33261039
0.21300001 216611.40863862 10429.83981903
0.21400001 213259.85429705 10316.44593935
0.21500001 209962.02027875 7483.04675651
0.21600001 206715.30513921 6728.58350040
0.21700001 203520.91166531 9317.18777655
0.21800001 200377.76151608 7240.65075473
0.21900001 197284.52463765 7161.42858295
0.22000001 194240.43079712 9658.60587807
0.22100001 191247.13673100 7005.38294970
0.22200001 188301.37964704 8188.28588113
0.22300001 185403.23076388 6852.50373306
0.22400001 182551.70691135 8009.45651947
0.22500001 179748.51223231 6702.82233810
0.22600001 176989.20440063 7231.77923379
0.22700001 174275.90336962 8940.35426564
0.22800001 171606.59460876 6484.15548393
0.22900001 168980.48598452 8744.74056325
0.23000001 166397.93030046 8648.53283637
0.23100001 163859.24550670 6842.76241597
0.23200001 161360.08203314 7331.39567390
0.23300001 158903.39932724 7250.76245422
0.23400001 156486.40546889 7722.60447513
0.23500001 154108.74559596 6000.99483733
0.23600001 151770.60123376 6474.53415486
0.23700001 149471.45810255 6403.35756798
0.23800001 147209.58799200 6860.70317287
0.23900001 144985.01155862 6263.35279559
0.24000001 142796.71689104 6194.52187174
0.24100001 140645.25715328 5105.42307616
0.24200001 138529.33350189 6059.27333399
0.24300001 136447.22253612 4993.96858105
0.24400001 134399.72000971 5927.02793280
0.24500001 132384.98352383 6839.00857236
0.24600001 130403.74361202 6280.89660819
0.24700001 128455.15922357 7645.65143867
0.24800001 126537.97492213 5198.81294561
0.24900001 124651.22051418 7011.63148563
0.25000001 122795.98316497 4623.26898488
0.25100001 120970.03636235 5944.46786807
0.25200001 119175.36519481 5427.24638773
0.25300001 117408.30005620 5367.90773253
0.25400001 115670.55034208 6194.15826387
0.25500001 113959.17107569 4813.63561398
0.25600001 112276.23962021 4328.24924214
0.25700001 110619.47408253 5993.36338936
0.25800001 108989.21983597 7621.61650374
0.25900001 107385.43720986 6282.04837401
0.26000001 105806.42609242 4142.32177751
0.26100001 104251.60716646 4506.79719105
0.26200001 102722.71069174 4862.89335424
0.26300001 101216.00578742 5210.60022449
0.26400001 99734.17004968  4757.32013648
0.26500001 98274.80750296  4313.28150540
0.26600001 96837.90897964  4654.03012579
0.26700001 95423.33761229  4603.22202424
0.26800001 94030.63553018  5691.20448478
0.26900001 92658.68381757  5629.01530829
0.27000001 91308.29172412  4082.85045765
0.27100001 89977.87713306  5506.64634113
0.27200001 88668.44558148  3994.07032023
0.27300001 87378.32813606  5386.87418452
0.27400001 86106.42256513  4262.26811868
0.27500001 84855.52781290  3864.32091948
0.27600001 83620.80285981  4169.33342791
0.27700001 82406.49381495  3779.98605019
0.27800001 81209.09466633  3738.46084990
0.27900001 80029.65343930  4033.49472424
0.28000001 78867.16335944  3656.67620223
0.28100001 77721.88265322  3945.16295020
0.28200001 76593.64058219  3576.54021626
0.28300001 75481.57123719  3858.61810427
0.28400001 74385.02375211  4133.94789069
0.28500001 73304.96536938  4402.69642847
0.28600001 72240.14036347  4042.91964680
0.28700001 71191.26524680  3383.00908465
0.28800001 70156.00655897  3649.51563394
0.28900001 69136.93169565  4210.43933956
0.29000001 68131.85782371  2973.95573477
0.29100001 67141.63076345  2940.80356664
0.29200001 66164.99923847  3198.74703960
0.29300001 65202.42101079  4313.14035403
0.29400001 64252.86803442  3127.50849962
0.29500001 63318.07012103  4216.98366968
0.29600001 62395.02862353  3613.60825379
0.29700001 61485.99672189  3572.95143865
0.29800001 60589.73591308  3532.68471964
0.29900001 59706.34441948  3761.49987649
0.30000001 58834.78486676  4250.22505998
0.30100001 57976.46042572  3414.23391610
0.30200001 57129.31065215  3635.13820889
0.30300001 56295.04483929  3337.17041606
0.30400001 55472.47408963  3553.01213365
0.30500001 54662.03011601  3261.68349144
0.30600001 53862.00194882  2976.41436860
0.30700001 53074.31048241  2942.43991245
0.30800001 52297.63538723  3151.19416945
0.30900001 51532.39893432  2875.50799667
0.31000001 50778.23481301  2605.68524280
0.31100001 50034.57332655  4214.91265658
0.31200001 49302.78108848  3009.19538621
0.31300001 48580.83524073  2974.60468263
0.31400001 47871.00962540  2714.28637427
0.31500001 47170.54482003  3353.82589550
0.31600002 46481.40686038  2431.21010094
0.31700002 45802.05597364  3277.13726008
0.31800002 45132.79645758  3023.44617785
0.31900002 44474.47183144  2348.25222389
0.32000002 43826.45595248  2743.31714024
0.32100002 43188.08264540  2711.77983771
0.32200002 42560.59161400  3093.09114201
0.32300002 41941.37501983  2242.18601473
0.32400002 41333.18787029  2014.99300409
0.32500002 40734.72683639  2390.31388395
0.32600002 40146.23041667  2166.08996470
0.32700002 39567.37152586  1946.71477125
0.32800002 38999.00074136  1924.60077772
0.32900002 38438.29380972  3424.85214062
0.33000002 37888.77253238  2257.41317438
0.33100002 37347.40570720  2045.89098152
0.33200002 36817.20900983  1839.01967713
0.33300002 36295.47925683  2909.44575500
0.33400002 35783.98769037  2697.21819989
0.33500002 35280.93717478  2133.79118138
0.33600002 34787.12173958  2110.18690465
0.33700002 34302.56677618  1913.05423970
0.33800002 33828.09062424  2236.20603662
0.33900002 33361.90599893  1871.60301517
0.34000002 32904.90798542  2019.70334779
0.34100002 32456.98530521  1831.54776751
0.34200002 32019.06842868  1812.11926354
0.34300002 31589.43389299  1956.01783929
0.34400002 31169.44512207  1613.01886146
0.34500002 30757.82541706  2554.12994360
0.34600002 30355.68914200  1738.01506414
0.34700002 29961.34968893  2189.57553897
0.34800002 29576.74734593  1548.34279689
0.34900002 29200.49810151  1992.93408982
0.35000002 28833.28299069  1518.07242136
0.35100002 28475.57106624  1653.86124586
0.35200002 28124.71568469  1787.04451924
0.35300002 27783.89902137  1770.39012949
0.35400002 27451.33189787  1900.31854064
0.35500002 27127.52243208  1738.33171978
0.35600002 26811.55925442  2010.06269251
0.35700002 26504.23861111  1565.60544891
0.35800002 26205.55479716  1693.40303120
0.35900002 25915.72976799  1819.28431588
0.36000002 25633.94779316  1388.07833875
0.36100002 25359.83408354  1652.44686715
0.36200002 25095.41677285  1639.73460961
0.36300002 24837.82147884  1491.75962868
0.36400002 24588.98116120  1615.49613881
0.36500002 24347.29767303  1604.00004668
0.36600002 24114.57501056  1725.75964238
0.36700002 23889.29199427  1846.16457277
0.36800002 23672.67197132  1834.39543795
0.36900002 23463.75296413  1562.68602143
0.37000002 23261.98623238  1682.88847370
0.37100002 23067.78309007  1930.77353610
0.37200002 22881.98040471  1792.34561000
0.37300002 22703.47838295  1783.13127666
0.37400002 22532.28706070  1394.18532792
0.37500002 22368.91516647  2018.57100024
0.37600002 22212.95537672  1632.98549188
0.37700002 22063.98056959  1376.13053331
0.37800002 21922.47412249  1495.55125548
0.37900002 21788.76680420  1738.74367334
0.38000002 21661.40197131  1485.53901757
0.38100002 21540.43440362  1851.40042470
0.38200002 21427.61998767  1477.22019193
0.38300002 21320.58780071  1596.48569015
0.38400002 21221.02445574  1348.06564241
0.38500002 21127.57368031  1590.27254626
0.38600002 21041.53245480  1221.46101687
0.38700002 20961.11915519  1341.93091189
0.38800002 20887.19071067  1340.64439928
0.38900002 20819.56297092  1461.53338980
0.39000002 20758.84034349  1461.00725259
0.39100002 20703.39627881  1582.56768653
0.39200002 20654.39169320  1461.09173760
0.39300002 20611.00738199  1827.16589098
0.39400002 20574.44098186  1828.55352889
0.39500002 20542.51577595  1464.27059388
0.39600002 20516.59941561  1343.93990839
0.39700002 20495.30509661  1345.92674946
0.39800002 20480.70912931  1593.50164930
0.39900002 20470.53058156  1228.23189309
0.40000002 20465.84752596  1354.12286571
0.40100002 20465.92507599  1480.91440866
0.40200002 20471.52460028  1732.50520901
0.40300002 20481.52068797  1489.41625500
0.40400002 20496.36690070  1743.21608750
0.40500002 20515.49852300  1374.33331117
0.40600002 20540.05849290  1630.16181953
0.40700002 20568.52050288  1510.55221730
0.40800002 20601.06982043  1390.26326270
0.40900002 20637.35711115  1396.11727472
0.41000002 20678.56639380  1274.83367858
0.41100002 20723.28486014  1280.69906504
0.41200002 20771.24833751  1415.45678503
0.41300002 20823.99426073  1293.17010487
0.41400002 20879.63544158  1429.73310461
0.41500002 20938.74540471  1829.20888523
0.41600002 21000.43113403  1839.00784155
0.41700002 21066.76384966  1585.06338716
0.41800002 21136.18565221  1328.40933119
0.41900002 21207.02897045  1469.64717729
0.42000002 21281.26654460  1881.47686436
0.42100002 21358.93749403  1352.02080744
0.42200002 21438.95657246  1360.30185898
0.42300002 21521.04577466  1916.23400658
0.42400002 21605.53469231  2066.02935285
0.42500002 21692.50943845  1386.15141880
0.42600002 21780.60261838  1813.56196296
0.42700002 21871.92512700  1685.01319163
0.42800002 21964.37732697  1696.08929756
0.42900002 22059.58647946  1707.41207442
0.43000002 22155.98571512  1432.38454436
0.43100002 22252.60006468  1586.16540778
0.43200002 22351.95359584  2177.63918227
0.43300002 22451.85766862  1900.10080454
0.43400002 22553.29789087  1618.76303283
0.43500002 22655.42894133  1926.16465987
0.43600002 22759.07371353  1939.41455841
0.43700002 22862.96767495  1502.09704743
0.43800002 22967.06953391  2268.57240072
0.43900002 23072.87346778  1675.09069314
0.44000002 23178.39801985  2146.55154234
0.44100002 23284.68175409  1698.15192080
0.44200002 23391.15254470  2020.64480833
0.44300002 23497.90256003  1877.95246159
0.44400002 23604.44173540  1890.71587261
0.44500002 23710.45095790  2537.96679081
0.44600002 23816.34096326  1596.88573727
0.44700002 23922.80952553  2089.89673919
0.44800002 24028.04566626  2265.60453324
0.44900002 24133.28666302  2769.29477582
0.45000002 24238.28828031  3115.46853176
0.45100002 24341.56365353  1650.35809392
0.45200002 24444.82149811  1993.23083942
0.45300002 24546.87859325  2340.29951599
0.45400002 24648.01649910  1682.22720579
0.45500002 24748.54040132  2200.64031678
0.45600002 24847.47609838  2214.28293745
0.45700002 24945.55223359  2399.26332754
0.45800002 25041.85276790  1896.54480926
0.45900002 25137.02490249  2081.34576057
0.46000002 25231.17151613  2093.68271164
0.46100002 25322.92927154  2807.80653070
0.46200002 25413.73307367  2117.98061474
0.46300002 25502.63781927  2129.98041162
0.46400002 25589.32640433  2141.82672156
0.46500002 25675.36829284  1974.17916160
0.46600002 25758.34557959  2526.12107072
0.46700002 25839.63459186  2358.12516462
0.46800002 25919.46774360  2188.12157062
0.46900002 25996.53795627  2016.03161406
0.47000002 26071.66828679  2210.35614212
0.47100002 26144.84070927  2036.16029095
0.47200002 26215.73474765  2046.00711535
0.47300002 26284.25631751  2242.57285530
0.47400002 26350.00387066  2816.15679716
0.47500002 26413.67706040  2074.53029465
0.47600002 26475.59215380  2273.19445007
0.47700002 26533.94462502  2092.73231177
