# SAXS profile: number of points = 501, q_min = 0, q_max = 0.5, delta_q = 0.001
#    q    intensity    error
0.00000000 1664650.74656090 299.63713438
0.00100000 1664569.44368967 599.24501396
0.00200000 1664325.46176398 1123.41972226
0.00300000 1663919.04533903 998.35146277
0.00400000 1663350.05322991 1871.26888099
0.00500000 1662618.97542434 1945.26427824
0.00600000 1661725.73158079 2442.73692487
0.00700000 1660670.88615124 2989.20771930
0.00800000 1659454.26118137 2464.28968190
0.00900000 1658077.04279135 2487.11567051
0.01000000 1656538.68089161 3006.61783564
0.01100000 1654840.38311207 2978.71281929
0.01200000 1652982.10694816 3545.64677486
0.01300000 1650965.02487601 4507.13471670
0.01400000 1648789.09350879 4822.70831231
0.01500000 1646455.76001576 3951.49399999
0.01600000 1643964.35760905 4192.10929930
0.01700000 1641317.27520081 4431.55684184
0.01800000 1638514.39326162 7471.62596948
0.01900000 1635556.32188547 5888.00302447
0.02000000 1632444.23131442 6170.63947350
0.02100000 1629180.22468104 5376.29498520
0.02200000 1625762.79135260 7852.43463899
0.02300000 1622195.06945497 8175.86352221
0.02400000 1618476.67381840 7890.07414463
0.02500000 1614610.11466464 10075.16757565
0.02600000 1610595.41338271 9132.07641157
0.02700000 1606434.77418182 10120.53954088
0.02800000 1602127.73834292 8363.10717768
0.02900000 1597677.20146698 12941.18592607
0.03000000 1593084.17746353 9630.19429542
0.03100000 1588349.13347917 7624.07619151
0.03200000 1583473.54288598 7838.19439830
0.03300000 1578461.12723250 9660.18254400
0.03400000 1573310.11934263 9085.86635843
0.03500000 1568023.68458160 11854.25960284
0.03600000 1562603.00856776 8672.44709834
0.03700000 1557050.02651552 9762.70411775
0.03800000 1551365.98615251 10890.58972680
0.03900000 1545553.17668650 10200.65143852
0.04000000 1539611.27327890 11362.33172332
0.04100000 1533544.53248158 11593.59720312
0.04200000 1527353.38316842 10836.57275632
0.04300000 1521039.04755924 14054.40145182
0.04400000 1514604.78272212 11245.94103400
0.04500000 1508052.09571131 10405.55994390
0.04600000 1501381.09349120 12701.68464140
0.04700000 1494595.53701439 12913.30604038
0.04800000 1487696.54782918 15308.39818943
0.04900000 1480687.33387889 12215.67107311
0.05000000 1473567.50229730 15781.90868451
0.05100000 1466341.73487963 17156.19909730
0.05200000 1459008.50312666 22038.32446674
0.05300000 1451573.59200369 15285.07063636
0.05400000 1444036.81997520 13104.63475239
0.05500000 1436401.17550132 14478.92452448
0.05600000 1428667.19132865 13436.61556145
0.05700000 1420840.39277479 14833.57439298
0.05800000 1412919.41720438 13754.77116873
0.05900000 1404907.02579061 17701.82935174
0.06000000 1396806.84482181 17893.09651811
0.06100000 1388620.32074239 19371.25437960
0.06200000 1380349.69928121 15653.16632153
0.06300000 1371997.96139645 17122.53535880
0.06400000 1363563.93338134 14624.22386944
0.06500000 1355053.46980131 16098.03597427
0.06600000 1346468.03508563 17591.60570148
0.06700000 1337808.75018900 17739.34485769
0.06800000 1329078.88360094 19258.35392484
0.06900000 1320280.96630761 18021.83603386
0.07000000 1311415.98299989 15363.23896028
0.07100000 1302486.67392621 15473.54241099
0.07200000 1293495.72641004 19829.29041480
0.07300000 1284445.51836452 15683.08051407
0.07400000 1275338.75222077 15782.31779836
0.07500000 1266176.35579198 20208.17558565
0.07600000 1256960.03723030 20325.04475486
0.07700000 1247695.04185315 18977.44247641
0.07800000 1238381.36923852 16142.30190504
0.07900000 1229021.29798413 14748.25626756
0.08000000 1219618.70455084 16300.20475098
0.08100000 1210174.41556821 17862.17521185
0.08200000 1200690.73279911 16443.46035730
0.08300000 1191170.71420549 18010.50204406
0.08400000 1181615.89441060 16572.16369698
0.08500000 1172028.84769362 18143.00741402
0.08600000 1162411.31942945 22754.20264618
0.08700000 1152767.38278664 15216.53016732
0.08800000 1143096.15485347 19838.43469917
0.08900000 1133403.43482875 18361.13650664
0.09000000 1123688.27692349 19939.84941069
0.09100000 1113954.03537471 19984.33633351
0.09200000 1104202.98535752 16943.99560645
0.09300000 1094439.24615384 20061.07232471
0.09400000 1084660.02911721 20093.32798373
0.09500000 1074871.10281244 17025.95906881
0.09600000 1065073.48148334 18596.18386086
0.09700000 1055272.07480150 15512.50022887
0.09800000 1045465.66241316 17077.68239847
0.09900000 1035657.88863025 18641.84287193
0.10000000 1025849.11121440 18649.93771893
0.10100000 1016041.68583359 20209.07008170
0.10200000 1006239.18416997 17101.03573934
0.10300000 996442.20665397 18653.39898603
0.10400000 986653.89028884 17093.77945343
0.10500000 976876.78081879 21745.27816413
0.10600001 967108.49600857 21730.92892783
0.10700001 957356.20713910 17060.08841403
0.10800001 947618.53717022 20141.63295545
0.10900001 937899.47498985 23213.01309853
0.11000001 928198.74443838 24727.21571574
0.11100001 918519.10365027 16974.23383449
0.11200001 908862.32165898 20026.78220056
0.11300001 899229.82828550 18452.19694516
0.11400001 889624.32227790 16880.62231004
0.11500001 880047.08818430 15312.82005546
0.11600001 870498.99991336 22915.88725186
0.11700001 860983.32967635 22859.10847946
0.11800001 851498.91000246 15199.25625940
0.11900001 842048.72975185 22735.31677417
0.12000001 832633.87619486 16623.53612128
0.12100001 823258.93379439 16572.20311797
0.12200001 813921.91440100 22525.29004224
0.12300001 804625.87668515 14966.04201146
0.12400001 795370.73666308 17895.84241813
0.12500001 786158.47036055 17830.07494794
0.12600001 776992.39223474 17762.04692350
0.12700001 767871.62006476 20640.39012005
0.12800001 758797.27016941 24960.63737860
0.12900001 749772.52924393 20468.79101310
0.13000001 740797.49434129 17468.00573992
0.13100001 731872.74844143 14491.08110222
0.13200001 723000.34293533 23078.17203441
0.13300001 714181.43464866 18661.56176713
0.13400001 705416.35825684 17141.61831379
0.13500001 696707.35994138 21319.24621937
0.13600001 688054.51734456 18381.37729756
0.13700001 679459.90144661 18284.26681009
0.13800001 670921.83324561 18185.33714767
0.13900001 662444.58970513 18084.73815179
0.14000001 654026.65333986 16599.19724459
0.14100001 645671.27465304 22004.47807797
0.14200001 637377.20454525 15038.91585056
0.14300001 629147.03986348 19025.40738285
0.14400001 620977.38509876 14856.88463929
0.14500001 612874.92559433 18790.74610512
0.14600001 604836.91624071 14670.32009548
0.14700001 596865.81231779 13250.42165856
0.14800001 588958.54010658 18428.51358937
0.14900001 581119.90343004 15690.23813289
0.15000001 573348.02592163 15583.60007983
0.15100001 565644.60078461 15476.03700770
0.15200001 558010.65105166 12806.34504593
0.15300001 550446.00113436 16529.89419409
0.15400001 542949.14603713 16410.63871341
0.15500001 535524.08877469 18796.89640307
0.15600001 528167.74289939 19901.36149169
0.15700001 520885.04228865 20986.45934430
0.15800001 513670.43837699 15926.35269358
0.15900001 506529.50911108 13372.37967172
0.16000001 499457.95784625 14474.29230161
0.16100001 492460.81457913 20343.55721057
0.16200001 485535.47605034 15432.74583478
0.16300001 478681.92232888 17663.36376778
0.16400001 471901.45833473 11679.56164517
0.16500001 465192.96427857 13899.96642888
0.16600001 458558.22011761 14932.94914316
0.16700001 451995.25912263 15946.39349475
0.16800001 445505.76359419 12422.92880439
0.16900001 439090.40385637 11196.80582703
0.17000001 432746.35407371 13319.93340735
0.17100001 426476.24384718 13203.70513300
0.17200001 420278.81572782 11996.85936148
0.17300001 414154.14216861 12971.30834528
0.17400001 408103.20088180 12855.25143488
0.17500001 402123.85420595 12739.28430289
0.17600001 396215.63744105 13675.38337215
0.17700001 390383.10339759 14592.52109422
0.17800001 384620.62906360 17556.00944282
0.17900001 378930.02430522 13300.44448134
0.18000001 373312.40607520 11148.97553406
0.18100001 367766.59245397 15060.04267237
0.18200001 362290.01837513 16906.26450609
0.18300001 356885.17522342 13790.04382207
0.18400001 351551.02785836 18535.52881946
0.18500001 346287.49463314 14492.13233504
0.18600001 341094.13857275 9567.69103898
0.18700001 335969.64714425 11369.21339650
0.18800001 330913.08036476 10319.52489873
0.18900001 325928.87804430 10217.87080946
0.19000001 321008.79007252 10116.59249713
0.19100001 316159.56668190 10926.47514080
0.19200001 311376.33784146 9915.77994710
0.19300001 306661.82539745 10708.63144889
0.19400001 302012.14999280 11484.01254614
0.19500001 297429.45135585 9618.86891139
0.19600001 292911.30926195 10386.63551726
0.19700001 288460.11878350 10280.71911929
0.19800001 284072.01858251 9327.50517096
0.19900001 279748.62240593 10070.95088257
0.20000001 275486.93237551 8305.93140367
0.20100001 271290.14552850 9864.11015762
0.20200001 267154.11912878 12202.26496793
0.20300001 263080.48411119 11270.36847201
0.20400001 259068.45808425 7966.35546263
0.20500001 255115.86698931 11824.62099387
0.20600001 251223.34142021 12480.77619170
0.20700001 247390.34098444 8490.43690392
0.20800001 243615.55825316 8401.08292348
0.20900001 239900.94154758 11335.32002396
0.21000001 236241.07843927 8224.73353467
0.21100001 232639.36341679 8877.51852766
0.21200001 229092.58007415 9515.36076321
0.21300001 225601.38419928 7241.80477516
0.21400001 222165.34399476 7164.83268256
0.21500001 218784.50563300 7797.48014941
0.21600001 215455.25714634 7714.37584685
0.21700001 212179.87068697 9713.59493930
0.21800001 208956.32163410 8923.48013729
0.21900001 205783.51837864 7469.94207034
0.22000001 202661.04026627 14108.24898521
0.22100001 199590.12061620 7310.98646386
0.22200001 196568.13671713 9205.28627773
0.22300001 193594.31381236 7805.72310201
0.22400001 190667.90478874 7078.54630000
0.22500001 187790.98664133 6366.11474818
0.22600001 184958.88250465 9446.77537065
0.22700001 182173.77906381 8099.44660019
0.22800001 179433.08051557 8628.93725006
0.22900001 176736.90712567 6707.16594261
0.23000001 174085.02962144 8444.86518631
0.23100001 171477.45605118 6564.15732808
0.23200001 168910.77385532 8264.80455561
0.23300001 166387.22441452 7008.23022379
0.23400001 163903.90998823 7510.89703044
0.23500001 161461.11854366 7430.44102681
0.23600001 159058.46700850 6785.43452351
0.23700001 156695.38652174 8391.03834512
0.23800001 154370.50935675 7194.43792886
0.23900001 152084.01236257 6570.02964482
0.24000001 149833.90814146 7583.09444972
0.24100001 147621.76881027 6966.27159967
0.24200001 145445.72094068 6361.79613487
0.24300001 143304.40218879 5244.94136821
0.24400001 141197.98435358 7264.63663864
0.24500001 139125.38849898 5647.09978631
0.24600001 137086.68791422 8126.49924398
0.24700001 135081.47489277 7035.04354521
0.24800001 133108.33601709 4971.59658543
0.24900001 131165.81571745 5410.59015431
0.25000001 129255.92262214 7299.72857542
0.25100001 127375.90908833 5296.29055045
0.25200001 125527.63278716 4763.77388965
0.25300001 123707.60166721 8012.54173906
0.25400001 121917.34792366 8394.00980167
0.25500001 120153.90464314 7382.25625054
0.25600001 118419.88636793 6391.12156966
0.25700001 116712.30014012 4968.44285204
0.25800001 115031.73691458 4915.88150964
0.25900001 113378.38407364 5306.10862570
0.26000001 111750.09368359 4812.51801219
0.26100001 110146.68331934 6060.27080298
0.26200001 108569.51049782 6852.90782688
0.26300001 107015.28048355 5932.92743074
0.26400001 105485.88372196 5450.98329926
0.26500001 103980.02119156 4978.56365023
0.26600001 102496.52659231 4515.48469270
0.26700001 101036.15058179 4873.98413470
0.26800001 99598.06213379  4420.66019700
0.26900001 98180.95827851  6362.12639751
0.27000001 96785.76049689  4327.77548542
0.27100001 95411.20358348  5449.88820659
0.27200001 94057.84242028  5392.33636114
0.27300001 92724.12521424  3810.96172666
0.27400001 91409.15842879  4524.75355636
0.27500001 90115.29174994  4476.92790601
0.27600001 88838.30570163  4429.47813191
0.27700001 87581.98172832  5113.03633528
0.27800001 86342.78503432  3613.44572470
0.27900001 85122.01070212  4647.66200430
0.28000001 83918.25611876  4244.58559538
0.28100001 82732.28312499  3499.57574182
0.28200001 81563.51722515  3808.60861709
0.28300001 80411.38961428  4795.73550358
0.28400001 79274.92202290  3727.90338457
0.28500001 78155.19242025  4358.71528758
0.28600001 77050.99138716  3648.74986984
0.28700001 75963.09581672  3281.60589461
0.28800001 74888.86282425  3895.71882851
0.28900001 73831.45962109  3532.83551009
0.29000001 72787.98454252  3494.91524324
0.29100001 71759.51247414  3771.68015417
0.29200001 70744.99681673  3420.16703300
0.29300001 69744.95562892  6151.50537766
0.29400001 68757.91159812  3346.79150546
0.29500001 67785.87114085  3912.60066746
0.29600001 66825.98497882  4167.93688043
0.29700001 65879.73725394  4711.71903145
0.29800001 64946.93966065  3204.15741984
0.29900001 64027.33568307  2881.23024213
0.30000001 63119.47440229  3419.81328501
0.30100001 62224.99816801  3664.43031559
0.30200001 61342.13382726  2788.00011443
0.30300001 60472.06086384  3033.27871653
0.30400001 59613.89181912  2727.33567984
0.30500001 58768.06059510  3236.94493082
0.30600001 57932.71233355  2667.80152926
0.30700001 57110.14516940  2902.33771491
0.30800001 56298.56578646  3392.27024207
0.30900001 55498.52462608  3096.81782075
0.31000001 54709.74518607  2552.20973376
0.31100001 53931.66586541  3028.80249840
0.31200001 53165.46342324  2745.73048849
0.31300001 52409.32578140  3702.71904177
0.31400001 51665.37716570  2441.18918666
0.31500001 50930.53411953  2414.10743157
0.31600002 50207.85941860  2626.12221123
0.31700002 49494.73818612  2833.07894791
0.31800002 48792.04070817  2334.69925843
0.31900002 48100.23118728  4155.86017136
0.32000002 47418.77725345  2968.17850272
0.32100002 46747.08707198  3612.61505998
0.32200002 46086.57326344  4465.78916068
0.32300002 45434.35551187  3091.35369541
0.32400002 44793.50770553  2838.78868526
0.32500002 44162.22046236  2375.48595115
0.32600002 43540.92950250  2989.95577052
0.32700002 42929.43776707  2534.55412579
0.32800002 42328.76918968  2297.81734427
0.32900002 41735.76148319  3098.88043687
0.33000002 41153.77783108  2247.61368268
0.33100002 40580.36467249  2425.08270767
0.33200002 40018.00898601  2398.67957221
0.33300002 39464.39009703  2174.88264124
0.33400002 38920.83654762  1955.77212913
0.33500002 38386.48251262  2708.55033436
0.33600002 37860.89146084  2870.80223097
0.33700002 37344.86134996  2272.06147213
0.33800002 36838.92193232  2247.91112277
0.33900002 36341.23369083  2409.42390781
0.34000002 35853.14532761  2017.27731739
0.34100002 35374.19879593  2177.63578101
0.34200002 34905.19660092  2873.39592027
0.34300002 34444.44216645  2843.73327994
0.34400002 33993.64400403  1935.08827657
0.34500002 33551.30105589  1741.31260727
0.34600002 33118.75019815  1723.83102946
0.34700002 32693.98354605  1877.28862412
0.34800002 32278.82511568  2196.73554729
0.34900002 31872.39256377  1840.63075773
0.35000002 31475.06507869  1988.59470586
0.35100002 31087.22622041  2297.96787105
0.35200002 30706.60288858  2764.05498993
0.35300002 30336.12433122  1610.84827828
0.35400002 29973.55567895  2394.13787325
0.35500002 29620.10687410  2056.22791659
0.35600002 29274.75563467  2194.72853388
0.35700002 28937.98752985  1864.76400475
0.35800002 28610.26017012  2619.12639133
0.35900002 28291.33171815  1680.50518366
0.36000002 27980.50696857  2272.71678617
0.36100002 27677.60762370  1953.76241470
0.36200002 27384.50220330  1640.19483716
0.36300002 27098.16386492  1775.47178053
0.36400002 26820.93022134  2055.82439884
0.36500002 26550.87984151  2186.46505852
0.36600002 26290.08498152  1881.45002082
0.36700002 26036.62924105  1580.94420240
0.36800002 25792.24190784  1570.36072295
0.36900002 25555.31965740  1985.64843144
0.37000002 25325.91045256  2114.08047517
0.37100002 25104.31347572  1961.14906162
0.37200002 24891.10460483  1671.18884233
0.37300002 24685.37930021  1800.30479765
0.37400002 24487.16712847  1790.62418109
0.37500002 24296.76050048  2055.50603571
0.37600002 24114.14765473  1500.02062592
0.37700002 23938.62557138  1628.78416104
0.37800002 23770.50160794  1351.35308043
0.37900002 23610.57404455  1480.38306272
0.38000002 23457.03842066  1876.79773295
0.38100002 23309.91991871  1602.79016954
0.38200002 23171.27021792  1331.18953708
0.38300002 23038.84922726  1327.03777836
0.38400002 22913.65225629  1455.58982854
0.38500002 22794.71097830  1583.77659380
0.38600002 22683.63480264  1711.82058148
0.38700002 22578.09449169  1314.04516167
0.38800002 22479.36167929  2098.67330580
0.38900002 22387.08423411  1309.64448974
0.39000002 22301.71370859  1569.59468517
0.39100002 22221.87753227  1567.97575296
0.39200002 22148.96627256  1436.24978599
0.39300002 22081.48399990  1696.52049609
0.39400002 22021.21019123  1304.75676565
0.39500002 21965.68550792  1696.19031528
0.39600002 21916.00064332  1305.09790014
0.39700002 21871.63512387  1697.45768239
0.39800002 21834.01751144  1698.79581296
0.39900002 21800.71973477  1308.04324606
0.40000002 21773.38461930  1833.53680566
0.40100002 21750.86667634  1705.05051954
0.40200002 21734.01375178  1445.20331290
0.40300002 21721.93201421  1447.98405667
0.40400002 21714.83030609  1583.01120432
0.40500002 21712.06764005  2247.85046928
0.40600002 21715.12684800  1458.27941257
0.40700002 21721.87148817  1462.31645787
0.40800002 21733.23539735  1333.33405480
0.40900002 21748.55274035  1471.28966260
0.41000002 21768.88826210  1476.25722744
0.41100002 21792.94877851  1616.16515799
0.41200002 21820.23798876  1351.76380745
0.41300002 21852.83852661  1899.88587153
0.41400002 21888.35591781  1498.80524249
0.41500002 21927.53941096  2189.24563852
0.41600002 21969.36544855  1649.02064870
0.41700002 22015.99017382  1380.40264931
0.41800002 22066.29381171  1664.23995814
0.41900002 22117.89544181  1672.11297463
0.42000002 22173.21580794  1540.26250908
0.42100002 22232.02510246  2110.93088350
0.42200002 22293.44522598  2263.23066658
0.42300002 22356.99298761  1848.47626781
0.42400002 22423.12335157  2573.05352652
0.42500002 22492.36123847  1724.71434149
0.42600002 22562.53214453  1445.13025234
0.42700002 22636.18876071  1743.89206476
0.42800002 22711.06558606  1607.60285369
0.42900002 22788.76646926  1616.86305761
0.43000002 22868.27439382  2365.49441539
0.43100002 22947.89956796  2379.23833995
0.43200002 23030.39041021  1944.57110643
0.43300002 23113.76119997  2106.58829559
0.43400002 23199.02212719  1665.10989209
0.43500002 23284.72106969  1827.38499615
0.43600002 23372.50671283  1838.48146515
0.43700002 23460.54499227  2003.76524275
0.43800002 23548.94117328  2326.04677462
0.43900002 23639.29732704  1872.23243703
0.44000002 23729.53326022  1726.67956951
0.44100002 23820.66789757  2211.03449903
0.44200002 23912.10330414  1747.85527385
0.44300002 24004.08780967  2398.00848583
0.44400002 24096.07232927  1769.25419462
0.44500002 24187.60388331  1779.96585413
0.44600002 24279.23400061  1790.71498858
0.44700002 24371.61945224  1965.32748577
0.44800002 24462.84483897  1647.57267799
0.44900002 24554.26441161  2320.37809686
0.45000002 24645.74418981  2000.74160815
0.45100002 24735.69321079  1844.78808709
0.45200002 24825.55884601  2024.27616424
0.45300002 24914.44404403  2205.67583575
0.45400002 25002.80946149  2218.37437461
0.45500002 25090.53436182  1887.81189485
0.45600002 25176.77340240  2243.62826809
0.45700002 25262.44533299  2256.18909962
0.45800002 25346.46956485  2268.63586592
0.45900002 25429.35865797  2105.55099667
0.46000002 25511.50806127  2116.94503926
0.46100002 25591.28626894  1950.82384474
0.46200002 25670.42379423  2139.37322041
0.46300002 25747.76765558  1971.24918514
0.46400002 25823.08618497  2521.62448548
0.46500002 25897.84104393  2353.33692720
0.46600002 25969.78787511  2364.93884493
0.46700002 26039.93576752  1828.00357752
0.46800002 26108.98651569  3306.18111918
0.46900002 26175.27321947  2398.96390427
0.47000002 26239.82606742  2595.38131934
0.47100002 26302.41066747  2607.09506893
0.47200002 26363.19257946  1870.46860217
0.47300002 26421.57133124  2066.43119176
0.47400002 26477.08398000  2075.14155529
0.47500002 26530.88947888  2841.45839787
0.47600002 26583.19612457  2092.23055015
0.47700002 26631.67707422  2100.44047040
