# SAXS profile: number of points = 501, q_min = 0, q_max = 0.5, delta_q = 0.001
#    q    intensity    error
0.00000000 1682732.95097188 328.13292544
0.00100000 1682651.17829538 555.27490202
0.00200000 1682405.78878423 832.79089182
0.00300000 1681997.02208679 1211.03789904
0.00400000 1681424.73889121 1765.49604292
0.00500000 1680689.43636510 1966.40671838
0.00600000 1679791.03032133 1763.78065364
0.00700000 1678730.09339609 2215.92381538
0.00800000 1677506.41190872 2944.02387720
0.00900000 1676121.23375714 2765.60015392
0.01000000 1674573.95477237 3039.35185915
0.01100000 1672865.84782724 3312.27452291
0.01200000 1670996.80524937 4887.66586965
0.01300000 1668968.00278797 3855.31625648
0.01400000 1666779.47490582 5250.35557871
0.01500000 1664432.54440139 5991.95742666
0.01600000 1661926.69488453 4661.70458755
0.01700000 1659264.21917527 5824.01767056
0.01800000 1656444.99345092 5665.04213252
0.01900000 1653469.69692448 7440.61397190
0.02000000 1650339.48910435 6758.14051359
0.02100000 1647056.41347829 5978.81505200
0.02200000 1643618.94936594 6237.53419623
0.02300000 1640030.36075211 7675.34243769
0.02400000 1636290.17213393 7976.91495288
0.02500000 1632400.98737801 7639.63696984
0.02600000 1628362.73690400 7254.35632471
0.02700000 1624177.51121594 7503.70044550
0.02800000 1619845.12385523 9864.85725668
0.02900000 1615368.30765566 7269.15771821
0.03000000 1610748.17445537 8238.97729105
0.03100000 1605985.12639295 9250.47475367
0.03200000 1601080.69904966 7925.34982532
0.03300000 1596038.52457640 8139.79685059
0.03400000 1590856.78318806 9187.19834681
0.03500000 1585538.81140099 11986.67396771
0.03600000 1580085.87395229 8769.47700571
0.03700000 1574499.61715437 12564.50752597
0.03800000 1568781.49865360 11930.58384940
0.03900000 1562933.88639616 10315.36412792
0.04000000 1556956.15694672 15320.44929429
0.04100000 1550852.78432815 11724.44759314
0.04200000 1544624.25439378 14944.24035457
0.04300000 1538271.72917053 12183.11266055
0.04400000 1531798.45030909 12407.56802374
0.04500000 1525205.85021644 12628.70502658
0.04600000 1518494.14282956 10705.38420461
0.04700000 1511667.19652622 14149.20561754
0.04800000 1504725.78994757 13271.68208484
0.04900000 1497673.51283810 12355.80705605
0.05000000 1490509.95503048 13682.88202434
0.05100000 1483239.69298851 12726.19715868
0.05200000 1475860.88753386 16426.33244374
0.05300000 1468379.83769478 20219.59130765
0.05400000 1460796.25223914 14461.88357158
0.05500000 1453112.80238776 17088.60735325
0.05600000 1445330.52263705 13593.33419972
0.05700000 1437454.67335203 15007.02749030
0.05800000 1429483.56842394 13916.02318838
0.05900000 1421420.70777354 12792.78696746
0.06000000 1413269.29103207 14224.55607879
0.06100000 1405030.60528024 14373.46376371
0.06200000 1396707.28331146 14518.77288868
0.06300000 1388301.94415659 13327.69928704
0.06400000 1379813.77314717 13453.18491735
0.06500000 1371248.66294817 14932.89863803
0.06600000 1362607.56859320 15063.62737560
0.06700000 1353892.28336630 16571.64232394
0.06800000 1345105.56596380 18098.39623721
0.06900000 1336250.19287149 16836.75321846
0.07000000 1327327.03807808 16963.24034100
0.07100000 1318338.92095561 17085.67321584
0.07200000 1309288.64274417 15770.38244065
0.07300000 1300178.48406495 21647.97277401
0.07400000 1291011.09841622 17428.65064540
0.07500000 1281787.52532608 20457.32986309
0.07600000 1272509.44386127 19106.73019531
0.07700000 1263182.16035801 23646.77115066
0.07800000 1253805.44520683 16343.35474471
0.07900000 1244381.84284184 20905.61594029
0.08000000 1234915.00070874 18005.06155497
0.08100000 1225406.33077498 19594.24814842
0.08200000 1215857.43670590 18164.91095678
0.08300000 1206271.63964998 24318.43739666
0.08400000 1196650.67618646 18308.75620504
0.08500000 1186996.71617310 19905.93586471
0.08600000 1177311.92994562 18436.70568858
0.08700000 1167600.41468369 15412.32619755
0.08800000 1157860.86528816 17003.18760529
0.08900000 1148099.19223177 23249.00973469
0.09000000 1138315.07156116 21753.20203940
0.09100000 1128511.11397356 18688.14492539
0.09200000 1118689.98136303 17166.29857060
0.09300000 1108855.53621233 15634.86379531
0.09400000 1099005.32478882 15660.82661426
0.09500000 1089144.98360298 31367.37700212
0.09600000 1079275.70202760 18844.15464322
0.09700000 1069401.85672270 20436.27044274
0.09800000 1059523.02379235 18880.70117171
0.09900000 1049642.04744562 17319.09459724
0.10000000 1039760.05015323 15752.36550061
0.10100000 1029878.76998021 23635.71888268
0.10200000 1020002.00995033 23638.54769247
0.10300000 1010130.51260942 22061.25143317
0.10400000 1000267.32060972 22055.89545707
0.10500000 990415.29098612 20471.88502787
0.10600001 980571.24124196 15738.16916247
0.10700001 970743.43393410 17298.64880674
0.10800001 960929.53807881 23566.79803048
0.10900001 951134.06943387 17263.08417272
0.11000001 941356.73582000 18808.30846698
0.11100001 931600.27602467 17215.97391135
0.11200001 921866.25152639 17188.19706888
0.11300001 912156.44543972 17157.66354652
0.11400001 902473.12946082 15567.66221619
0.11500001 892818.12058045 23302.55404442
0.11600001 883191.85901011 15500.01785555
0.11700001 873597.86241039 17008.95118217
0.11800001 864034.73708742 16965.32286175
0.11900001 854505.77586482 18457.32562805
0.12000001 845011.96577147 23005.45185180
0.12100001 835558.11182601 21406.99983343
0.12200001 826141.46744601 25911.92834719
0.12300001 816766.34713570 15191.85477248
0.12400001 807431.42764310 22709.00997245
0.12500001 798139.45455649 21118.77096269
0.12600001 788893.44078164 19536.94698161
0.12700001 779692.78115337 19461.13273472
0.12800001 770538.36616513 26837.85255838
0.12900001 761433.48103972 17817.54429611
0.13000001 752378.16657341 20697.92433803
0.13100001 743372.80535361 16190.66046379
0.13200001 734420.26391666 17582.02194699
0.13300001 725520.79916501 14582.96875070
0.13400001 716675.00748732 15963.93654441
0.13500001 707885.52828919 14440.86545796
0.13600001 699152.26007384 14367.57962196
0.13700001 690476.76678875 18580.73067043
0.13800001 681857.95799935 18481.76082309
0.13900001 673300.22310973 15553.23588730
0.14000001 664801.69672151 15466.61220364
0.14100001 656365.69997422 16776.70808258
0.14200001 647990.94015017 18069.22821833
0.14300001 639680.19232997 15198.80208665
0.14400001 631429.86586244 16480.32027638
0.14500001 623247.00297193 17743.84301163
0.14600001 615128.39648286 17632.65631699
0.14700001 607076.92875813 14824.81929966
0.14800001 599089.69989631 16067.58650927
0.14900001 591170.59745840 14631.47297742
0.15000001 583318.57462266 14533.38297245
0.15100001 575535.05724342 17058.85990162
0.15200001 567821.45683927 16940.95396419
0.15300001 560176.90629754 14234.09586071
0.15400001 552600.33859619 12847.95847867
0.15500001 545095.85788069 12755.24367637
0.15600001 537659.95857571 17726.64967085
0.15700001 530298.03703365 17595.28969922
0.15800001 523004.33172896 13721.01929052
0.15900001 515784.25544050 16092.46952932
0.16000001 508634.11981776 12283.51457341
0.16100001 501558.33007813 14625.44159546
0.16200001 494554.37881456 12091.85513282
0.16300001 487622.64176263 16793.72457510
0.16400001 480764.36547628 13088.81046801
0.16500001 473978.11098535 14162.46662487
0.16600001 467265.89076504 15216.51445118
0.16700001 460625.52589964 11607.76380073
0.16800001 454058.69973621 13812.46629815
0.16900001 447566.57298300 13695.53777996
0.17000001 441146.04805029 11315.39666680
0.17100001 434799.70617393 13461.39953881
0.17200001 428525.97714677 15568.34948492
0.17300001 422325.64302873 14329.50974467
0.17400001 416198.98219429 15295.31331798
0.17500001 410144.38707696 12993.37479624
0.17600001 404161.29913746 12876.57959867
0.17700001 398254.13677541 14886.74033577
0.17800001 392417.22234038 16858.24466799
0.17900001 386652.37418625 15659.42189419
0.18000001 380961.17511335 11377.40603217
0.18100001 375341.93618025 11271.51887592
0.18200001 369792.11035547 12180.95269051
0.18300001 364314.62311856 13071.60929499
0.18400001 358907.86497586 11951.63246830
0.18500001 353572.26470766 12824.06664678
0.18600001 348307.21420615 9770.01782005
0.18700001 343111.08989272 14513.59978815
0.18800001 337983.51893172 12456.38317874
0.18900001 332928.65061603 10437.31368995
0.19000001 327938.36335588 14093.15183110
0.19100001 323019.14877814 9302.95192438
0.19200001 318166.19039555 11974.18514133
0.19300001 313382.53558720 10031.37543816
0.19400001 308664.20106927 9931.27113869
0.19500001 304013.14095065 12513.18147284
0.19600001 299426.90954355 8848.06559514
0.19700001 294908.08320003 14014.03277593
0.19800001 290452.90184083 9537.02148265
0.19900001 286062.66056325 9440.06824472
0.20000001 281734.64136227 10193.15980623
0.20100001 277471.85769008 10088.87722244
0.20200001 273270.33154305 9153.19018765
0.20300001 269131.61996540 8235.42796019
0.20400001 265054.69557708 13855.73486619
0.20500001 261038.06715796 9679.29198773
0.20600001 257081.64376818 9578.86249958
0.20700001 253185.26417973 11059.13286213
0.20800001 249347.55942992 10162.16026493
0.20900001 245570.50325354 7735.47121815
0.21000001 241848.52474675 7654.50617008
0.21100001 238185.25055365 10604.00785594
0.21200001 234577.30807942 8993.69441694
0.21300001 231025.48350742 7415.91837118
0.21400001 227529.31465647 8805.38489349
0.21500001 224088.60375755 7986.51821550
0.21600001 220700.27925709 12212.45053008
0.21700001 217365.93357485 7818.65300035
0.21800001 214084.11090407 7735.92971328
0.21900001 210853.28355303 7653.97455487
0.22000001 207673.50153813 6884.37690150
0.22100001 204545.55081584 8854.77731350
0.22200001 201467.13255774 12130.33662488
0.22300001 198437.38509248 8000.99574526
0.22400001 195455.29921796 7915.93999264
0.22500001 192523.55098451 9137.16816180
0.22600001 189636.82088913 9039.98767927
0.22700001 186797.67440255 9582.72115001
0.22800001 184003.31328481 6320.51411023
0.22900001 181254.18858778 8129.25074260
0.23000001 178549.63806861 9280.11787749
0.23100001 175889.99733786 9181.45829525
0.23200001 173271.65089777 7267.01338234
0.23300001 170697.00502694 6590.61167579
0.23400001 168162.85361972 8298.83721863
0.23500001 165669.97930629 7037.66105379
0.23600001 163217.70541718 8703.58455302
0.23700001 160805.26687077 5740.74829881
0.23800001 158431.79235967 10223.60404453
0.23900001 156096.86443069 5619.48738530
0.24000001 153799.12556949 9451.72570894
0.24100001 151539.77313269 5500.89402492
0.24200001 149316.80251985 7075.37702208
0.24300001 147129.29785345 7000.41232301
0.24400001 144977.01617940 5860.69615628
0.24500001 142859.08021755 8961.55052597
0.24600001 140775.34117677 8866.73528346
0.24700001 138725.92717980 5676.66520874
0.24800001 136708.91793794 5616.68615919
0.24900001 134723.02821106 5557.32517661
0.25000001 132770.10424760 5998.55359369
0.25100001 130847.66113480 5440.64600738
0.25200001 128957.58825184 5383.33477626
0.25300001 127095.79967307 5326.58521630
0.25400001 125264.50002135 6707.91429350
0.25500001 123460.46613491 6637.23497343
0.25600001 121686.36087336 7036.51415042
0.25700001 119939.24622840 5569.97885838
0.25800001 118219.40692869 5511.38901178
0.25900001 116527.43599930 6362.39830660
0.26000001 114860.79131070 4946.48021184
0.26100001 113219.77423748 4894.49107187
0.26200001 111605.17699180 4843.10688472
0.26300001 110014.11378588 4356.55911206
0.26400001 108448.23723687 6035.14468780
0.26500001 106906.30416332 5118.67408555
0.26600001 105387.39324856 4220.76529933
0.26700001 103891.91791767 4176.45529792
0.26800001 102419.20459214 5785.66114119
0.26900001 100967.88245365 4498.11937617
0.27000001 99538.82570512  4855.50414767
0.27100001 98131.00243727  4804.49410669
0.27200001 96744.64922349  5942.54035977
0.27300001 95378.63307105  4312.06820521
0.27400001 94031.41415804  5818.19402637
0.27500001 92706.03489010  4221.83302870
0.27600001 91397.84783007  6076.12921130
0.27700001 90110.76998448  5636.42892928
0.27800001 88841.09724407  5948.80015300
0.27900001 87590.36410609  4782.43410653
0.28000001 86356.98399699  5095.92586684
0.28100001 85141.76287497  4321.79608808
0.28200001 83944.28810375  5345.15279799
0.28300001 82763.77863321  5288.60570497
0.28400001 81599.24555881  4186.04149530
0.28500001 80452.01154860  4486.80889643
0.28600001 79320.58899984  4439.17697349
0.28700001 78205.80654975  5405.58560458
0.28800001 77105.03557970  3342.50345059
0.28900001 76021.65848215  5621.80191086
0.29000001 74952.38788066  5234.67501736
0.29100001 73898.51602158  4207.78170144
0.29200001 72859.04983177  3842.58647002
0.29300001 71834.34470269  3484.68422648
0.29400001 70823.02159095  3447.31073912
0.29500001 69826.95603917  3720.38039388
0.29600001 68843.56155257  6133.96162470
0.29700001 67874.03785717  4247.55749017
0.29800001 66918.38234221  3601.54750815
0.29900001 65976.14107375  3859.60443552
0.30000001 65045.86563724  3230.50306980
0.30100001 64129.57546363  3776.59087784
0.30200001 63225.02235789  3160.93514242
0.30300001 62333.75020078  4547.87062995
0.30400001 61454.53721498  3092.69973176
0.30500001 60588.04438018  3337.18964245
0.30600001 59732.30618202  3575.87467888
0.30700001 58889.51657798  4081.04369206
0.30800001 58058.19813369  3229.19713308
0.30900001 57238.75242082  3726.24295901
0.31000001 56430.87188117  2895.75032768
0.31100001 55633.77300575  5467.68746987
0.31200001 54848.94630089  3862.73722612
0.31300001 54074.39429748  3056.28491040
0.31400001 53312.26020181  4282.30750346
0.31500001 52559.61144604  2989.59084060
0.31600002 51819.31519718  2710.40940972
0.31700002 51088.92444224  2680.63599241
0.31800002 50369.09016083  2892.19329398
0.31900002 49660.44912906  3098.81217238
0.32000002 48962.51482627  3772.07232082
0.32100002 48274.43865770  3031.15214684
0.32200002 47597.78729154  2767.33548416
0.32300002 46929.77846278  2736.94480955
0.32400002 46273.40860564  3383.74316451
0.32500002 45626.51282665  2677.36389945
0.32600002 44989.95669405  2648.10897641
0.32700002 44363.59417935  2619.22672438
0.32800002 43748.05396587  3022.55319163
0.32900002 43140.53448038  3630.27614843
0.33000002 42544.12604474  2112.31595815
0.33100002 41956.59938388  2298.38262309
0.33200002 41380.25352511  2687.02688990
0.33300002 40812.84979985  2453.66864616
0.33400002 40255.54826584  2427.40967538
0.33500002 39707.85177763  2201.40340680
0.33600002 39169.01248246  2771.99114466
0.33700002 38639.87817507  2742.65868275
0.33800002 38121.02646474  2326.14514504
0.33900002 37610.66815016  1918.14416650
0.34000002 37109.95639827  1898.17435967
0.34100002 36618.67863093  2442.09979355
0.34200002 36137.37275644  2231.12149965
0.34300002 35664.49551069  2208.34566661
0.34400002 35201.68322992  2186.02463211
0.34500002 34747.52449504  2344.41558871
0.34600002 34303.41989443  1964.04239907
0.34700002 33866.98412549  1767.85665508
0.34800002 33440.51466825  2100.73323095
0.34900002 33022.75426079  2427.17255312
0.35000002 32614.28554499  2232.28487985
0.35100002 32215.38413940  2041.16683575
0.35200002 31823.83154248  2190.59354798
0.35300002 31442.51506136  1669.59762884
0.35400002 31069.22118312  2481.65415954
0.35500002 30705.11400487  1803.61848207
0.35600002 30349.44474868  1787.73412760
0.35700002 30002.29837356  1611.12349897
0.35800002 29664.27858574  1916.90577301
0.35900002 29335.14517398  1742.50770587
0.36000002 29014.25550090  1885.34641175
0.36100002 28701.35439288  2181.87706429
0.36200002 28398.40589998  1855.55192940
0.36300002 28102.29275326  1841.26230841
0.36400002 27815.17606523  1675.16905788
0.36500002 27535.59093170  1814.04481651
0.36600002 27265.17448600  1951.23230452
0.36700002 27002.23541348  1788.62815851
0.36800002 26748.39791303  2812.99539977
0.36900002 26502.14910035  1765.04321369
0.37000002 26263.36917032  2484.64615805
0.37100002 26032.51626508  2324.18316224
0.37200002 25810.19472086  1877.30460195
0.37300002 25595.29687922  2153.84433442
0.37400002 25388.04877723  2427.73227933
0.37500002 25188.61662466  1562.70184942
0.37600002 24996.98158020  2120.36906299
0.37700002 24812.62332969  1547.56339038
0.37800002 24635.59642239  1960.74721214
0.37900002 24466.77727390  1952.44891895
0.38000002 24304.47168177  1805.70080914
0.38100002 24148.72486816  1522.09420055
0.38200002 24001.32692106  1792.53918602
0.38300002 23860.27481185  1511.78708370
0.38400002 23726.41412616  1370.20048070
0.38500002 23598.91454768  1366.37721704
0.38600002 23479.27191027  1499.26897886
0.38700002 23365.24341333  1903.80012351
0.38800002 23257.92949405  1628.52030033
0.38900002 23157.15941536  1625.63266797
0.39000002 23063.42094549  1893.73758355
0.39100002 22975.14237671  1756.21996648
0.39200002 22893.89946800  1349.59543758
0.39300002 22817.99605786  1618.25235709
0.39400002 22749.39402772  1617.48199200
0.39500002 22685.41585788  1751.76789554
0.39600002 22627.52030380  1347.46889793
0.39700002 22574.77699086  1886.79995029
0.39800002 22528.93288689  1752.86370631
0.39900002 22487.39304071  2023.86546955
0.40000002 22451.74250816  1485.51961343
0.40100002 22420.91173702  1892.77345852
0.40200002 22395.87086289  1489.21350359
0.40300002 22375.57155976  1491.55567084
0.40400002 22360.23365648  1901.73796259
0.40500002 22349.31316413  2177.71717789
0.40600002 22344.03563748  1909.74481642
0.40700002 22342.75575530  1914.32740382
0.40800002 22345.83094715  2056.37519035
0.40900002 22353.00480591  2199.53577712
0.41000002 22365.25549064  1654.58167959
0.41100002 22381.16270152  1936.41828869
0.41200002 22400.25134277  1942.77389101
0.41300002 22424.72247515  1671.09039803
0.41400002 22452.14103163  1537.41042999
0.41500002 22483.10336204  1683.53485952
0.41600002 22516.80704168  1549.26898191
0.41700002 22555.29563781  1555.63881385
0.41800002 22597.55603471  1420.25646408
0.41900002 22640.98355770  1854.29664124
0.42000002 22688.18783186  1432.75912947
0.42100002 22739.00698032  2303.00673609
0.42200002 22792.18761331  1880.01368437
0.42300002 22847.73574899  1743.73927499
0.42400002 22905.75500274  1606.26614568
0.42500002 22966.89696503  1614.34326417
0.42600002 23029.01475588  2065.01185101
0.42700002 23094.53672978  1779.20319397
0.42800002 23161.37097978  1639.47772249
0.42900002 23231.04645560  2397.44410783
0.43000002 23302.49090209  1807.80732985
0.43100002 23374.07512963  1817.56816821
0.43200002 23448.56197097  1675.28258940
0.43300002 23523.89997904  2297.10894181
0.43400002 23601.08329209  2155.95906090
0.43500002 23678.89706341  1703.45993547
0.43600002 23758.58745661  1713.11302974
0.43700002 23838.66458780  1722.82037140
0.43800002 23919.09486623  2047.59421306
0.43900002 24001.47772148  1742.50736516
0.44000002 24083.71136346  2230.39261507
0.44100002 24166.91900116  2243.17352799
0.44200002 24250.45350781  1772.58698316
0.44300002 24334.44565417  1782.74157311
0.44400002 24418.52045151  2118.91721260
0.44500002 24502.17636086  2130.95437909
0.44600002 24585.88500291  1648.48366757
0.44700002 24670.53144612  3481.50556267
0.44800002 24753.83043691  2000.60467072
0.44900002 24837.56028533  2011.84247846
0.45000002 24921.26202950  2191.70049305
0.45100002 25003.41971830  2203.80151841
0.45200002 25085.54534647  2045.47546449
0.45300002 25166.61256889  1713.84639717
0.45400002 25247.32843696  2067.75629698
0.45500002 25327.42003525  1732.39561252
0.45600002 25405.98641374  2089.89654144
0.45700002 25483.99602608  2100.90073196
0.45800002 25560.47684722  2287.79058864
0.45900002 25635.73636576  2653.29883961
0.46000002 25710.33391827  2311.23057712
0.46100002 25782.64420645  3037.45345792
0.46200002 25854.25158810  1795.57785789
0.46300002 25924.20962282  2706.48761290
0.46400002 25992.10856114  2356.83455548
0.46500002 26059.51360266  2550.18412202
0.46600002 26124.11220786  2561.99180565
0.46700002 26186.95316334  2205.98903903
0.46800002 26248.76137762  2400.58058557
0.46900002 26307.76973608  2596.57699602
0.47000002 26365.20898598  2980.32336503
0.47100002 26420.67350864  2618.81728230
0.47200002 26474.32984014  2441.85992854
0.47300002 26525.69915720  1885.97729947
0.47400002 26574.22399766  2461.43761445
0.47500002 26621.07448400  2280.89376990
0.47600002 26666.35981864  2671.16938964
0.47700002 26708.05914436  3063.94869027
