# SAXS profile: number of points = 501, q_min = 0, q_max = 0.5, delta_q = 0.001
#    q    intensity    error
0.00000000 1682732.95097188 277.65093691
0.00100000 1682651.18399119 656.23397734
0.00200000 1682405.81631189 908.49916958
0.00300000 1681997.07949857 1211.03794038
0.00400000 1681424.83871260 1387.17554465
0.00500000 1680689.58619755 1966.40689368
0.00600000 1679791.25299196 2998.42750866
0.00700000 1678730.39613753 2014.47655909
0.00800000 1677506.80395091 2491.09770904
0.00900000 1676121.73648716 3017.01925465
0.01000000 1674574.57331110 3868.26743138
0.01100000 1672866.59972355 3312.27601167
0.01200000 1670997.69161567 3910.13476982
0.01300000 1668969.05399429 4906.76923516
0.01400000 1666780.69055076 4125.28239199
0.01500000 1664433.94501518 5193.03413969
0.01600000 1661928.26867913 4661.70900204
0.01700000 1659265.99258286 5824.02389522
0.01800000 1656446.99214501 5665.04896805
0.01900000 1653471.90298488 6448.54071262
0.02000000 1650341.96380931 7797.86613174
0.02100000 1647059.12144779 7609.41348609
0.02200000 1643621.93155112 10206.89265866
0.02300000 1640033.59685400 9446.59394787
0.02400000 1636293.73487134 6749.71196411
0.02500000 1632404.79881315 10186.20640980
0.02600000 1628366.88041049 11870.79510114
0.02700000 1624181.94516862 10232.34672322
0.02800000 1619849.87744982 10569.52093507
0.02900000 1615373.46975095 10176.85332669
0.03000000 1610753.64602725 10486.00671763
0.03100000 1605990.97112917 10021.38412096
0.03200000 1601086.92734862 11095.53291757
0.03300000 1596045.14778889 9767.79675477
0.03400000 1590863.83646428 11692.84973752
0.03500000 1585546.28868800 8561.95035429
0.03600000 1580093.66583045 11400.37632582
0.03700000 1574507.93054387 9872.16518107
0.03800000 1568790.25044404 10095.16572881
0.03900000 1562943.04061051 9377.65867794
0.04000000 1556965.80090634 10532.87413121
0.04100000 1550862.90556918 10747.48043392
0.04200000 1544634.84380906 12951.76376621
0.04300000 1538282.82998707 12183.20057902
0.04400000 1531810.01409678 14475.60530549
0.04500000 1525217.95387112 12628.80524485
0.04600000 1518506.76482551 13917.11514659
0.04700000 1511680.38441827 13060.91912881
0.04800000 1504739.45482366 13271.80260906
0.04900000 1497687.79442183 12355.92487912
0.05000000 1490524.75531776 12542.76640007
0.05100000 1483255.09019840 15040.20731525
0.05200000 1475876.86926300 11733.22165742
0.05300000 1468396.41818327 14272.81385011
0.05400000 1460813.45609437 15667.22504724
0.05500000 1453130.55772353 14647.55670515
0.05600000 1445348.93075410 22243.92108230
0.05700000 1437473.58341740 16257.82698734
0.05800000 1429503.16064422 13916.21391865
0.05900000 1421440.92042935 14072.26576951
0.06000000 1413290.18713322 15517.92697970
0.06100000 1405052.14961899 20907.17696335
0.06200000 1396729.55806554 21118.55190511
0.06300000 1388324.68868794 17326.29292492
0.06400000 1379837.27647672 13453.41407482
0.06500000 1371272.89760265 17648.28301769
0.06600000 1362632.49629441 19172.24011990
0.06700000 1353917.87587649 13809.96298023
0.06800000 1345131.89649709 19490.96209260
0.06900000 1336277.21929306 15434.00260544
0.07000000 1327354.82640546 15549.96251952
0.07100000 1318367.31152833 18509.87792082
0.07200000 1309317.79759395 14337.03055530
0.07300000 1300208.40736926 14432.31399803
0.07400000 1291041.82594378 14524.22122253
0.07500000 1281818.91802240 18996.55725551
0.07600000 1272541.57769273 16167.64150253
0.07700000 1263215.06855896 16257.57869465
0.07800000 1253839.15716560 29715.98941839
0.07900000 1244416.29662871 19412.89513795
0.08000000 1234950.19496737 22506.96835911
0.08100000 1225442.20662471 21102.11578815
0.08200000 1215894.10700928 18165.45881114
0.08300000 1206309.15300061 18239.39524938
0.08400000 1196688.87917306 15257.78392564
0.08500000 1187035.75317844 16844.03812835
0.08600000 1177351.75160906 15364.44107988
0.08700000 1167640.96800701 20036.71995188
0.08800000 1157902.32311672 15457.99673957
0.08900000 1148141.33930660 15499.90880867
0.09000000 1138358.09737510 21754.02426274
0.09100000 1128554.92709404 15574.05872559
0.09200000 1118734.45122166 18727.61559340
0.09300000 1108900.93410248 20326.15507727
0.09400000 1099051.46479666 15661.48410940
0.09500000 1089191.91630229 21958.11006474
0.09600000 1079323.51010739 17274.57359131
0.09700000 1069450.40807478 23581.38260668
0.09800000 1059572.29427646 22028.50903374
0.09900000 1049692.21881550 25192.61443619
0.10000000 1039810.93884394 20479.07740360
0.10100000 1029930.56981063 17333.73230515
0.10200000 1020054.63212673 18911.81376917
0.10300000 1010183.86281240 26790.07730201
0.10400000 1000321.49595478 22057.09002348
0.10500000 990470.21303839 18898.17255392
0.10600001 980627.03630697 18886.87760797
0.10700001 970799.84138517 22017.74143872
0.10800001 960986.82405962 17283.34884410
0.10900001 951192.13345086 21972.53931687
0.11000001 941415.67140949 20376.94316679
0.11100001 931659.84259657 21912.64052937
0.11200001 921926.65526701 15626.65754243
0.11300001 912217.66470907 17158.81508103
0.11400001 902535.03506360 15568.73008789
0.11500001 892880.71872146 20196.96280851
0.11600001 883255.26825892 17051.24375671
0.11700001 873662.06344070 21649.34695163
0.11800001 864099.70034874 18509.01645321
0.11900001 854571.60006149 19996.97638333
0.12000001 845078.40306104 21473.44323329
0.12100001 835625.28906831 18350.33221239
0.12200001 826209.40288515 21340.98988193
0.12300001 816834.95099199 24309.00928683
0.12400001 807500.69352540 21196.89420379
0.12500001 798209.35200301 15086.15746372
0.12600001 788964.18874808 16532.74535430
0.12700001 779763.98338217 17965.76302379
0.12800001 770610.59677372 17893.57890040
0.12900001 761506.18728397 17819.24562230
0.13000001 752451.53451607 23657.07736026
0.13100001 743446.74710407 22080.36942981
0.13200001 734494.95519388 19049.12756094
0.13300001 725596.15201287 16042.93167732
0.13400001 716750.92565121 20319.88970021
0.13500001 707962.10569377 17330.91316450
0.13600001 699229.34826455 17242.99654122
0.13700001 690554.48921987 18582.82218115
0.13800001 681936.31020402 15640.21001205
0.13900001 673379.18444605 15555.05989425
0.14000001 664881.17488694 19687.13251686
0.14100001 656445.75677086 16778.75433440
0.14200001 648071.47274414 20851.70061902
0.14300001 639761.18407631 17964.49489621
0.14400001 631511.40815515 17855.98590785
0.14500001 623329.03301238 15015.99711360
0.14600001 615210.90091931 13565.40100521
0.14700001 607159.93595272 21566.32194246
0.14800001 599173.06457464 14730.67048754
0.14900001 591254.60489920 19954.84385683
0.15000001 583403.03106071 15856.89513240
0.15100001 575619.88152305 15748.96070158
0.15200001 567906.60066149 15640.14852023
0.15300001 560262.50693614 18118.89032933
0.15400001 552686.30274457 16704.94428878
0.15500001 545182.19203420 15308.71667478
0.15600001 537746.67664228 18995.90224890
0.15700001 530384.99449498 13827.13745908
0.15800001 523091.55964189 14970.88114356
0.15900001 515871.96494939 17333.29884044
0.16000001 508722.03026325 13514.20137185
0.16100001 501646.53050443 17066.01577335
0.16200001 494642.79286224 13303.41854203
0.16300001 487711.32261772 14397.23892334
0.16400001 480853.23066398 15471.45342701
0.16500001 474067.24069464 12984.70233565
0.16600001 467355.16716881 11707.24749031
0.16700001 460714.99374515 15093.02390770
0.16800001 454148.31013071 12663.92622594
0.16900001 447656.33481213 14839.80819973
0.17000001 441235.93668825 11317.70231047
0.17100001 434889.53322789 12342.16553582
0.17200001 428615.93343078 13347.10079732
0.17300001 422415.74699033 11025.05151710
0.17400001 416289.09323012 19669.66058404
0.17500001 410234.54441652 15162.26947771
0.17600001 404251.44942073 13952.73943573
0.17700001 398344.18349766 11699.36922189
0.17800001 392507.25732972 13700.46646420
0.17900001 386742.30395754 12530.45124008
0.18000001 381051.06462985 15518.30534006
0.18100001 375431.65154358 11274.21302841
0.18200001 369881.82001900 11168.58208305
0.18300001 364404.16246702 12069.06643104
0.18400001 358997.32922035 11954.61162778
0.18500001 353661.49062579 10853.87166006
0.18600001 348396.22935055 13681.52057296
0.18700001 343199.93019997 9678.23848889
0.18800001 338072.12415653 14376.51775899
0.18900001 333016.87783267 13287.37405332
0.19000001 328026.33572251 9397.95496249
0.19100001 323106.88017088 13958.21788291
0.19200001 318253.58630944 11056.13011081
0.19300001 313469.69148886 11858.55898937
0.19400001 308750.91875374 11740.25424038
0.19500001 304099.51614745 11622.68405639
0.19600001 299512.85103054 9735.66568282
0.19700001 294993.64167727 11389.70504341
0.19800001 290537.93598811 13008.83669865
0.19900001 286147.26261709 10301.30194105
0.20000001 281818.72686846 13594.93602665
0.20100001 277555.42854946 10932.90884728
0.20200001 273353.37096143 8323.61053918
0.20300001 269214.06091395 9885.54078400
0.20400001 265136.71184416 8968.24970202
0.20500001 261119.40310069 8875.44893091
0.20600001 257162.35936173 8783.38079917
0.20700001 253265.37202863 9482.25597697
0.20800001 249426.94111246 9383.44196821
0.20900001 245649.24509012 11606.92737918
0.21000001 241926.58685630 9188.37220316
0.21100001 238262.59060693 8334.42581343
0.21200001 234653.95783893 8246.91373812
0.21300001 231101.29678653 9643.85757082
0.21400001 227604.37347885 8074.26553089
0.21500001 224162.85376152 10168.02752734
0.21600001 220773.63951354 7186.18230592
0.21700001 217438.46304054 8532.28569311
0.21800001 214155.86535278 7035.02050946
0.21900001 210924.12847326 9048.64553934
0.22000001 207743.39524937 8952.70204158
0.22100001 204614.48788827 8176.39532262
0.22200001 201535.23704669 9437.89559716
0.22300001 198504.51805916 6669.75212217
0.22400001 195521.46420307 7258.73470178
0.22500001 192588.63088768 7181.63038540
0.22600001 189700.89002043 7105.24717171
0.22700001 186860.67754661 6390.63547430
0.22800001 184065.33852649 8851.70254834
0.22900001 181315.11557783 7506.44613991
0.23000001 178609.48433008 6807.70081719
0.23100001 175948.60150452 7347.61394632
0.23200001 173329.25817721 6663.64364577
0.23300001 170753.41843320 8990.16790569
0.23400001 168218.11069523 6522.65755070
0.23500001 165724.09784924 8213.28667787
0.23600001 163270.57987160 8125.97714454
0.23700001 160856.96177577 9762.40947191
0.23800001 158482.09999650 6817.90026433
0.23900001 156146.02674957 5621.25722887
0.24000001 153847.03045393 6117.72745537
0.24100001 151586.39633847 6603.10373684
0.24200001 149362.15617809 7077.52610528
0.24300001 147173.22036633 7541.15616829
0.24400001 145019.73116350 6395.37044683
0.24500001 142900.37788891 7382.23387095
0.24600001 140815.36022679 6782.37214616
0.24700001 138764.55595510 6710.65424344
0.24800001 136746.14816202 6128.96265056
0.24900001 134758.87324128 6064.14958274
0.25000001 132804.58424342 8000.14853330
0.25100001 130880.62876705 5442.01680159
0.25200001 128989.14915007 4895.13844183
0.25300001 127125.97821358 5812.19999890
0.25400001 125293.21380079 5271.71222008
0.25500001 123487.63407895 4741.92537298
0.25600001 121712.14783687 6099.60457743
0.25700001 119963.50403920 6963.88173896
0.25800001 118242.17303150 5512.45036754
0.25900001 116548.69706767 5909.01922091
0.26000001 114880.64527785 4947.33522298
0.26100001 113237.93487742 5340.30126150
0.26200001 111621.83002606 6164.87396404
0.26300001 110029.28182129 5228.59171955
0.26400001 108461.86869393 4311.35948459
0.26500001 106918.36996478 4266.04316346
0.26600001 105397.88594013 5065.42263798
0.26700001 103900.77146162 5012.17345249
0.26800001 102426.57223228 5786.07733920
0.26900001 100973.67268197 5316.26411828
0.27000001 99542.99495856  4855.70752386
0.27100001 98133.58867557  4404.23566818
0.27200001 96745.68099472  4357.90940664
0.27300001 95378.11974944  5488.05727010
0.27400001 94029.19227233  4654.44523775
0.27500001 92702.29883322  4605.45042399
0.27600001 91392.54669242  4936.56864322
0.27700001 90103.79531260  5260.25981930
0.27800001 88832.51995633  4089.40524973
0.27900001 87580.21987100  4414.04329041
0.28000001 86345.27926808  4003.39906274
0.28100001 85128.36146791  3961.02284657
0.28200001 83929.23034720  4987.91439561
0.28300001 82747.14660524  3877.53147345
0.28400001 81581.03386474  5231.38404418
0.28500001 80432.20954952  4830.75873419
0.28600001 79299.15757167  5462.12623207
0.28700001 78182.80546076  3377.49735577
0.28800001 77080.50959564  3341.44024913
0.28900001 75995.51493114  3636.38556158
0.29000001 74924.60400569  4251.59685555
0.29100001 73869.23649868  4206.11452533
0.29200001 72828.15226323  4161.03667652
0.29300001 71801.84040939  4116.39970552
0.29400001 70789.00083381  3445.65477869
0.29500001 69791.48247180  3718.49036212
0.29600001 68806.43545741  4291.45758263
0.29700001 67835.49273206  3941.92066926
0.29800001 66878.24213481  3299.43823191
0.29900001 65934.52627022  3560.46458714
0.30000001 65002.70279744  2934.87217024
0.30100001 64084.90688412  3483.65570314
0.30200001 63178.86619956  5168.66328847
0.30300001 62286.11324328  5112.44441704
0.30400001 61405.48153453  3652.09118716
0.30500001 60537.53708273  3334.40770038
0.30600001 59680.28983471  3297.93297240
0.30700001 58836.15539425  3261.87660949
0.30800001 58003.44926554  3494.99800096
0.30900001 57182.58250684  2924.88923370
0.31000001 56373.27637130  3681.73885412
0.31100001 55574.88592521  4161.44765510
0.31200001 54788.61818794  2572.32574571
0.31300001 54012.74192022  3052.80031787
0.31400001 53249.39921541  3774.05134808
0.31500001 52495.37148674  2488.28072628
0.31600002 51753.79312872  2953.07157575
0.31700002 51022.10785850  3163.88105811
0.31800002 50301.02911086  2647.59479261
0.31900002 49591.19768475  2380.37760158
0.32000002 48892.10531931  2824.98597911
0.32100002 48202.82058743  2793.83561354
0.32200002 47524.99862509  2532.84492166
0.32300002 46855.81381532  2277.19265925
0.32400002 46198.36300403  2252.17030309
0.32500002 45550.35594589  2672.89501347
0.32600002 44912.72165285  3304.45365208
0.32700002 44285.27373468  2396.71912801
0.32800002 43668.68398826  2586.05958824
0.32900002 43060.14467330  2344.62498849
0.33000002 42462.80815292  2740.76208202
0.33100002 41874.25993254  2293.87206773
0.33200002 41297.02810999  2475.34398213
0.33300002 40728.64928184  2652.65705334
0.33400002 40170.45204163  2624.13490389
0.33500002 39621.86453885  2596.02468752
0.33600002 39082.23345814  3160.97119179
0.33700002 38552.28989480  3127.36190437
0.33800002 38032.60187988  2127.35368690
0.33900002 37521.53640701  2296.31813686
0.34000002 37020.01825724  2272.28882824
0.34100002 36528.08744580  2248.66916966
0.34200002 36046.10149535  2410.94361270
0.34300002 35572.59834713  2386.21001014
0.34400002 35109.11105164  1998.58624127
0.34500002 34654.39958379  1978.41976594
0.34600002 34209.66190907  2492.85818138
0.34700002 33772.69343231  2291.81508486
0.34800002 33345.77655830  2443.91207970
0.34900002 32927.49149465  2420.17073948
0.35000002 32518.59076216  1883.31427319
0.35100002 32119.30416557  2035.07920832
0.35200002 31727.28351122  2015.95168978
0.35300002 31345.61373856  2330.23303569
0.35400002 30972.01299881  2144.03770139
0.35500002 30607.64033777  2778.56172147
0.35600002 30251.69485988  1943.97400377
0.35700002 29904.24319932  2248.20111021
0.35800002 29566.05442929  2069.77173836
0.35900002 29236.76488798  2052.42099235
0.36000002 28915.74288431  1722.36630649
0.36100002 28602.77859215  2174.38333157
0.36200002 28299.67350762  1849.10075457
0.36300002 28003.51573832  2140.58884443
0.36400002 27716.37605287  1820.96599293
0.36500002 27436.87434513  2108.79826206
0.36600002 27166.44234839  1794.61526654
0.36700002 26903.65614174  1930.60645618
0.36800002 26649.86632338  2212.60525631
0.36900002 26403.70321172  1758.48671720
0.37000002 26165.14074744  1456.09015157
0.37100002 25934.56031303  2315.43765443
0.37200002 25712.43681066  1870.19418001
0.37300002 25497.80242107  1859.55481866
0.37400002 25290.87046806  1707.13383746
0.37500002 25091.76777190  1556.69334631
0.37600002 24900.51227941  1408.12403611
0.37700002 24716.54291939  1541.57085491
0.37800002 24539.97249923  1395.09750267
0.37900002 24371.63142390  1667.01966837
0.38000002 24209.81571756  1937.02744732
0.38100002 24054.57289013  1378.32709190
0.38200002 23907.72379695  2060.24819580
0.38300002 23767.31524898  1368.99742320
0.38400002 23634.08201501  1637.84196123
0.38500002 23507.19572140  1905.49337545
0.38600002 23388.23035896  1764.99288765
0.38700002 23274.93397333  1760.98158785
0.38800002 23168.38518128  1622.25040725
0.38900002 23068.38772905  1349.50074608
0.39000002 22975.44170788  1482.26069201
0.39100002 22887.95600943  1614.97425254
0.39200002 22807.61091511  1747.86134529
0.39300002 22732.58621570  1746.54468170
0.39400002 22664.91951428  1611.47585381
0.39500002 22601.97414991  1342.55732811
0.39600002 22544.97853899  1745.31959629
0.39700002 22493.30553318  1611.42048474
0.39800002 22448.48774079  1612.25046593
0.39900002 22408.01688726  2285.61783079
0.40000002 22373.46386737  1345.76391538
0.40100002 22343.74759404  1482.06084813
0.40200002 22319.82368090  1484.15674598
0.40300002 22300.74379383  1891.99519311
0.40400002 22286.64310482  1760.08772260
0.40500002 22276.92187996  1356.66460677
0.40600002 22272.95565915  1495.74040816
0.40700002 22272.92284730  1363.10294284
0.40800002 22277.29635853  2050.06829453
0.40900002 22285.85618413  1644.69626432
0.41000002 22299.39627093  1649.70941429
0.41100002 22316.75872841  1930.84605667
0.41200002 22337.22315829  1660.54924827
0.41300002 22363.13061637  1805.37562020
0.41400002 22391.93043670  1533.28750930
0.41500002 22424.46437124  1819.07263599
0.41600002 22459.60360844  1404.84827227
0.41700002 22499.61664568  1692.87123664
0.41800002 22543.41846624  1558.53930951
0.41900002 22588.39131960  1849.98933674
0.42000002 22637.13086874  1858.39534673
0.42100002 22689.57559573  2154.37530490
0.42200002 22744.43034170  1731.76100828
0.42300002 22801.55051109  1450.17868122
0.42400002 22861.19072319  2186.10146649
0.42500002 22924.02150070  1611.32954764
0.42600002 22987.83270882  1472.37075477
0.42700002 23055.05212352  2072.18818306
0.42800002 23123.60174689  1934.40499580
0.42900002 23195.03831101  1645.68804615
0.43000002 23268.16897669  1955.57335432
0.43100002 23341.57323248  1815.04082057
0.43200002 23417.78366368  1520.98512103
0.43300002 23494.89484981  2906.08368169
0.43400002 23573.92593885  2153.47823656
0.43500002 23653.48225476  1701.63159405
0.43600002 23734.99130949  1711.41162947
0.43700002 23816.90303088  1564.77060328
0.43800002 23899.18690882  1731.13768578
0.43900002 23983.42868591  1741.19700511
0.44000002 24067.52428895  1751.27348788
0.44100002 24152.55825548  2401.97203234
0.44200002 24237.97355121  1771.67476069
0.44300002 24323.86204356  1943.96314665
0.44400002 24409.77506845  1792.28781934
0.44500002 24495.35662102  1638.73943561
0.44600002 24580.96796766  1812.96937837
0.44700002 24667.47558884  1823.41988194
0.44800002 24752.67100511  2000.51096544
0.44900002 24838.27408783  1676.58358038
0.45000002 24923.92514933  1686.10361626
0.45100002 25007.97469248  2034.64891741
0.45200002 25092.05443012  1875.50569726
0.45300002 25174.99146157  2057.30039974
0.45400002 25257.58819560  2240.97961886
0.45500002 25339.61369626  2079.87559076
0.45600002 25420.05514756  2265.30832184
0.45700002 25499.98374936  1927.03386327
0.45800002 25578.35243264  2113.28357814
0.45900002 25655.52233813  2301.30046280
0.46000002 25731.98146181  2491.11324338
0.46100002 25806.19171671  2146.04300487
0.46200002 25879.64821664  1977.07581921
0.46300002 25951.50664113  2528.71492696
0.46400002 26021.27997764  2540.97811025
0.46500002 26090.52668656  1823.72790183
0.46600002 26156.96858399  1832.29573615
0.46700002 26221.68338743  2208.91471325
0.46800002 26285.29919535  2219.00506324
0.46900002 26346.18140114  2414.62763986
0.47000002 26405.32829356  2984.85845178
0.47100002 26462.64354112  2622.97735212
0.47200002 26518.06858762  2257.74846656
0.47300002 26571.23128996  2078.13609769
0.47400002 26621.47363655  2276.13610381
0.47500002 26670.09336318  2665.94265894
0.47600002 26717.12606618  2676.25464490
0.47700002 26760.54773060  3069.97018117
