# SAXS profile: number of points = 501, q_min = 0, q_max = 0.5, delta_q = 0.001
#    q    intensity    error
0.00000000 1664650.74656090 324.60689558
0.00100000 1664569.50003826 649.18212043
0.00200000 1664325.68904049 748.94658378
0.00300000 1663919.54733354 1697.19799874
0.00400000 1663350.94880833 1621.76723671
0.00500000 1662620.37410976 1645.99423552
0.00600000 1661727.75292917 2093.77705393
0.00700000 1660673.64504754 2192.08930257
0.00800000 1659457.84373488 2240.26818363
0.00900000 1658081.58610318 3481.97147966
0.01000000 1656544.28636868 3006.62800958
0.01100000 1654847.16422504 3872.34253289
0.01200000 1652990.18569232 3545.66410377
0.01300000 1650974.46627296 4507.16049171
0.01400000 1648800.06324643 4822.74039879
0.01500000 1646468.31752226 5136.98137941
0.01600000 1643978.65430385 5449.78948264
0.01700000 1641333.39912704 8863.20075288
0.01800000 1638532.41962411 6537.74464848
0.01900000 1635576.35975889 6378.74809089
0.02000000 1632466.49596521 6170.72363389
0.02100000 1629204.69124095 8064.56358728
0.02200000 1625789.55444663 7291.66648297
0.02300000 1622224.32792810 8176.01098492
0.02400000 1618508.47384701 6069.40705368
0.02500000 1614644.55017914 7556.53683995
0.02600000 1610632.65459040 9784.59382417
0.02700000 1606474.75140327 7421.91369141
0.02800000 1602170.67934657 11151.10843964
0.02900000 1597723.17914394 10065.65649076
0.03000000 1593133.31954191 8889.68433166
0.03100000 1588401.48994495 9911.62575332
0.03200000 1583529.22279754 10190.01101804
0.03300000 1578520.23541985 13685.77107201
0.03400000 1573372.74170576 10738.26945761
0.03500000 1568089.89614875 10161.22299627
0.03600000 1562672.85516384 11274.68517105
0.03700000 1557123.57549933 10650.72574899
0.03800000 1551443.37071294 10891.13296644
0.03900000 1545634.48585311 9273.80734459
0.04000000 1539696.56961028 13256.78807865
0.04100000 1533633.84117748 12560.46174163
0.04200000 1527446.88882842 9852.03289001
0.04300000 1521136.77314314 13051.35411939
0.04400000 1514706.83478181 10224.27160961
0.04500000 1508158.48566683 12487.55284155
0.04600000 1501491.88389569 12702.62192826
0.04700000 1494710.89447280 15066.68651701
0.04800000 1487816.45721917 13122.54176324
0.04900000 1480811.86030152 17769.74315076
0.05000000 1473696.72308065 14655.91459351
0.05100000 1466475.86260103 14870.06593948
0.05200000 1459147.32851969 16240.31052324
0.05300000 1451717.28668954 16462.47479850
0.05400000 1444185.53547484 17871.79683493
0.05500000 1436554.73182007 15687.17840327
0.05600000 1428825.86246525 13438.10786356
0.05700000 1421004.15371063 12362.73671436
0.05800000 1413088.21630384 13756.41442804
0.05900000 1405080.98961771 12645.72949719
0.06000000 1396986.19375894 14060.66669708
0.06100000 1388804.87720780 14207.47455777
0.06200000 1380539.50447527 14350.70881982
0.06300000 1372192.90815839 18442.27354792
0.06400000 1363764.35093702 14626.37334783
0.06500000 1355259.27046882 16100.48088631
0.06600000 1346679.30106974 17594.36589169
0.06700000 1338025.41893087 21836.57585888
0.06800000 1329301.03439336 13758.26634998
0.06900000 1320508.68761845 15251.87605607
0.07000000 1311649.18197454 18159.78377483
0.07100000 1302725.27337948 15476.37697263
0.07200000 1293739.91528110 18416.38855678
0.07300000 1284695.22980103 19964.16480654
0.07400000 1275594.05480318 18655.56392577
0.07500000 1266437.22204439 14437.38500802
0.07600000 1257226.62274768 18877.25862553
0.07700000 1247967.14174728 18981.58111599
0.07800000 1238659.14564043 16145.92272061
0.07900000 1229304.64057830 14751.65637885
0.08000000 1219907.51839267 20750.62786129
0.08100000 1210468.84934203 16377.64430001
0.08200000 1200990.69043141 29904.66959502
0.08300000 1191476.28992283 19516.38254488
0.08400000 1181926.96162413 15069.56946805
0.08500000 1172345.49574832 16635.58336563
0.08600000 1162733.39582334 18208.40583351
0.08700000 1153095.01088104 24353.36777339
0.08800000 1143429.34761130 18317.73900900
0.08900000 1133741.83880239 18366.61865127
0.09000000 1124032.42163106 21480.26058642
0.09100000 1114303.48396869 16915.12768134
0.09200000 1104557.59612277 24653.72670386
0.09300000 1094799.30640318 16980.33804026
0.09400000 1085025.42275879 18553.93560116
0.09500000 1075241.62782552 18580.17620214
0.09600000 1065449.37908077 24803.66271097
0.09700000 1055652.95477145 20173.52891410
0.09800000 1045851.68348679 17083.98805301
0.09900000 1036049.03448228 18648.88349760
0.10000000 1026245.24353142 17102.37778773
0.10100000 1016443.01545746 21772.21041508
0.10200000 1006645.42480838 17107.93979931
0.10300000 996853.10828239 23326.36383110
0.10400000 987069.61296659 15546.34713560
0.10500000 977297.45571859 17092.93330473
0.10600001 967533.71371869 20187.59188664
0.10700001 957785.95279270 18619.35979847
0.10800001 948052.91372318 18600.79904263
0.10900001 938338.27054393 18579.09863121
0.11000001 928641.98092763 15461.88971023
0.11100001 918966.70454093 18526.36963564
0.11200001 909314.22415737 18495.45219007
0.11300001 899685.97592732 15384.63091268
0.11400001 890084.52259417 18424.75048522
0.11500001 880511.30732719 16852.98721582
0.11600001 870967.25992160 15285.47613144
0.11700001 861455.48684363 19822.09168579
0.11800001 851974.80537560 15207.75099221
0.11900001 842528.42029276 16682.06350755
0.12000001 833117.12312664 19657.39944613
0.12100001 823745.67733361 21104.36524747
0.12200001 814412.00198471 21036.26300231
0.12300001 805119.36873027 20965.30934950
0.12400001 795867.42296884 19399.26934891
0.12500001 786658.14785984 22301.75954270
0.12600001 777495.29882267 20735.80059674
0.12700001 768377.25513771 14752.84399389
0.12800001 759305.97996408 16161.82854523
0.12900001 750283.91086313 16093.59064654
0.13000001 741311.50908460 14566.77184012
0.13100001 732389.15322379 15951.43650913
0.13200001 723519.33631380 17321.05372787
0.13300001 714702.67284033 15802.07684146
0.13400001 705939.67965311 15724.80710563
0.13500001 697232.79267205 15645.90460524
0.13600001 688582.01098778 18395.46929090
0.13700001 679989.07889259 18298.50697583
0.13800001 671452.68883637 16799.74706689
0.13900001 662977.30670638 15314.77650713
0.14000001 654560.89080946 19381.54889091
0.14100001 646206.86559516 19269.88964087
0.14200001 637913.97590871 19156.55760006
0.14300001 629684.91478182 13601.19480082
0.14400001 621516.32347538 16221.57680788
0.14500001 613414.83267398 22837.43529774
0.14600001 605377.55313927 18688.00594700
0.14700001 597407.00530320 14588.67975775
0.14800001 589500.37464484 19763.00099236
0.14900001 581662.13994436 17013.61839609
0.15000001 573890.57011196 15598.34643162
0.15100001 566187.21938753 19363.60381672
0.15200001 558553.42137999 16664.44211322
0.15300001 550988.70281103 20364.54341688
0.15400001 543491.56785675 20217.88727837
0.15500001 536066.29863770 15052.74237613
0.15600001 528709.32971766 16186.43689322
0.15700001 521425.95325733 14829.35481054
0.15800001 514210.60697889 15943.10062187
0.15900001 507068.81904451 19471.44357037
0.16000001 499996.34165704 14489.89466518
0.16100001 492998.01186231 17969.77838063
0.16200001 486071.30819675 15449.77726036
0.16300001 479216.44031321 12967.59748705
0.16400001 472434.54341205 12862.03105160
0.16500001 465724.41289040 11596.53842846
0.16600001 459087.87759206 14950.19743963
0.16700001 452523.02820896 13684.29701914
0.16800001 446031.46218695 21483.10639059
0.16900001 439613.92873287 14573.20242561
0.17000001 433267.70487893 16669.97573237
0.17100001 426995.05678595 12118.12028382
0.17200001 420795.10916205 10919.63359841
0.17300001 414667.78514001 10822.82970326
0.17400001 408613.97375852 16089.17597657
0.17500001 402631.71464255 11692.42554542
0.17600001 396720.61143671 10532.93273111
0.17700001 390884.83075101 11480.28802138
0.17800001 385119.02486298 13442.58019776
0.17900001 379424.98538234 11268.92259813
0.18000001 373803.82882885 14208.28420491
0.18100001 368254.22855052 12064.00909718
0.18200001 362774.00461474 10953.96158678
0.18300001 357365.23612274 14794.92147438
0.18400001 352027.02909757 12699.37567462
0.18500001 346759.32571379 10642.04420891
0.18600001 341561.73225149 12455.04915497
0.18700001 336432.80842881 14231.10846888
0.18800001 331371.81027606 14091.58689776
0.18900001 326382.98903462 11162.29875237
0.19000001 321458.15950389 11051.73204592
0.19100001 316604.12130755 9118.19912449
0.19200001 311815.93009371 15346.02172468
0.19300001 307096.45291390 9830.15792227
0.19400001 302441.62450650 11500.34331530
0.19500001 297853.66879635 10508.27793171
0.19600001 293330.09255824 13001.85696706
0.19700001 288873.39358882 8579.54019504
0.19800001 284479.74482110 12737.58117633
0.19900001 280150.63389268 10085.42329677
0.20000001 275883.19638528 15803.96965184
0.20100001 271680.41261160 11524.68364767
0.20200001 267538.51993610 11405.16764392
0.20300001 263458.79718103 9674.20748974
0.20400001 259440.57891329 10371.13763226
0.20500001 255481.85558975 9473.26765304
0.20600001 251582.96388019 7811.65139772
0.20700001 247743.49683783 10048.47670672
0.20800001 243962.03810619 8413.03128178
0.20900001 240240.93686704 7567.58986904
0.21000001 236574.36378877 11231.36845180
0.21100001 232965.88361047 11112.47317354
0.21200001 229412.38491178 7329.72604444
0.21300001 225914.17836533 10152.58365571
0.21400001 222471.22751605 8609.63691190
0.21500001 219083.23901873 9937.61619172
0.21600001 215747.00004763 9831.59125699
0.21700001 212464.13265238 11116.12394594
0.21800001 209233.51425564 10309.98190241
0.21900001 206053.34912536 10879.61734822
0.22000001 202923.45288623 7399.60405937
0.22100001 199845.06731134 10647.74568981
0.22200001 196815.53030925 9875.21970021
0.22300001 193834.23828943 7815.39685738
0.22400001 190900.25786123 9664.32601122
0.22500001 188015.63010141 8285.84921038
0.22600001 185175.80209135 8827.33090312
0.22700001 182382.85316586 8108.74203521
0.22800001 179634.53064377 6787.49106136
0.22900001 176930.42041396 7324.91975154
0.23000001 174270.69851532 10265.41598152
0.23100001 171655.09073267 8363.03641601
0.23200001 169080.49134485 7682.17248757
0.23300001 166548.99720586 6430.45708624
0.23400001 164057.65278162 8096.24554769
0.23500001 161606.78663794 6865.05662107
0.23600001 159196.11276922 6225.36428428
0.23700001 156824.96035078 6158.51648426
0.23800001 154491.86094453 7753.94686756
0.23900001 152197.11783491 6574.91580146
0.24000001 149938.91222320 10298.55467318
0.24100001 147718.76667670 8579.50637440
0.24200001 145534.46662543 5835.20471536
0.24300001 143384.93348899 6822.25545812
0.24400001 141270.35370806 7268.36004210
0.24500001 139189.56592113 6163.31427054
0.24600001 137142.60348304 5589.24706935
0.24700001 135129.27694044 6534.85214198
0.24800001 133147.92325453 6464.99771946
0.24900001 131197.36087073 5903.88151848
0.25000001 129279.28608948 5354.10188669
0.25100001 127391.01402920 5778.45666974
0.25200001 125534.72336830 6193.25587038
0.25300001 123706.42319591 5655.85793610
0.25400001 121908.12059579 5129.28441674
0.25500001 120136.51524194 4613.24240355
0.25600001 118394.47714683 4564.10730995
0.25700001 116678.86653188 5418.56681811
0.25800001 114990.24207839 4467.37111611
0.25900001 113328.99532876 4861.81412964
0.26000001 111692.75160999 6559.15714865
0.26100001 110081.41834065 4326.19994549
0.26200001 108496.33946920 5564.23503296
0.26300001 106934.32390348 6775.35908312
0.26400001 105397.14208258 5446.39757483
0.26500001 103883.44652071 6217.42456847
0.26600001 102392.38650078 4510.89680075
0.26700001 100924.27089314 5274.30264646
0.26800001 99478.64238314  5619.54877415
0.26900001 98053.98488854  4765.42389109
0.27000001 96651.27005377  5500.42403905
0.27100001 95269.26528512  5441.78069061
0.27200001 93908.47989154  5383.77340696
0.27300001 92567.66095191  4184.98414969
0.27400001 91245.31164926  5269.41699712
0.27500001 89944.39410187  4840.80751966
0.27600001 88660.27903344  3683.83476818
0.27700001 87396.88231238  4008.89518140
0.27800001 86150.75095576  5047.57273739
0.27900001 84923.06838004  3923.44594485
0.28000001 83712.55174565  6351.27160154
0.28100001 82519.78671843  4188.70457207
0.28200001 81344.37917404  3453.06905937
0.28300001 80185.60956763  3757.49784218
0.28400001 79042.70103531  4392.79831795
0.28500001 77916.69333199  5013.93945323
0.28600001 76806.11939153  3967.80431557
0.28700001 75712.03980360  4251.98835663
0.28800001 74631.73513518  4205.87163262
0.28900001 73568.25418125  3520.24112920
0.29000001 72518.82431528  3798.53619744
0.29100001 71484.54649643  3444.12561323
0.29200001 70464.27501435  3096.90503347
0.29300001 69458.52003798  3982.05714227
0.29400001 68466.08757533  3332.58697048
0.29500001 67488.53816537  3296.14036003
0.29600001 66523.29282393  2963.61283560
0.29700001 65572.04584051  4396.60588173
0.29800001 64634.07231797  4348.25742103
0.29900001 63709.40235874  4013.69253861
0.30000001 62796.61930896  2835.26749602
0.30100001 61897.44813556  3364.74543994
0.30200001 61009.82500602  3327.47601335
0.30300001 60135.25083910  3016.38432489
0.30400001 59272.68404600  3254.07050818
0.30500001 58422.53371661  3217.91330945
0.30600001 57582.99761308  3182.03659875
0.30700001 56756.26211739  4195.42309434
0.30800001 55940.73852658  4148.56536554
0.30900001 55136.89491536  3076.63888194
0.31000001 54344.39647022  3295.71607997
0.31100001 53562.74716777  3008.08402336
0.31200001 52793.02040701  4461.53836583
0.31300001 52033.56852539  2695.85931294
0.31400001 51286.39185408  2423.28212984
0.31500001 50548.51173173  3114.79944039
0.31600002 49822.80714650  2369.07459199
0.31700002 49106.86595133  2576.63737847
0.31800002 48401.36933993  3010.80732235
0.31900002 47707.05822613  2518.93279361
0.32000002 47023.22727974  3622.66960116
0.32100002 46349.16724599  3581.86381437
0.32200002 45686.46035835  2877.56184192
0.32300002 45032.20940084  2407.42202856
0.32400002 44389.38841209  3462.37246009
0.32500002 43756.26804219  3423.49057373
0.32600002 43133.32048238  3173.53420477
0.32700002 42520.32526086  2510.40012228
0.32800002 41918.11579860  2482.39093514
0.32900002 41323.88859097  2250.08584033
0.33000002 40740.82232560  3438.72927123
0.33100002 40166.40826532  2000.28722634
0.33200002 39603.19377089  1978.17962253
0.33300002 39048.79950568  1956.34494788
0.33400002 38504.58771672  2321.82674927
0.33500002 37969.70475802  2870.50981564
0.33600002 37443.80647929  2460.61985931
0.33700002 36927.53496961  2246.67133395
0.33800002 36421.52617110  1852.03469351
0.33900002 35923.96511665  2564.97123080
0.34000002 35435.91137902  2175.05634345
0.34100002 34957.29623461  2331.30219629
0.34200002 34488.77520064  2306.78183854
0.34300002 34028.58122476  2107.04984923
0.34400002 33578.47551246  2085.22342808
0.34500002 33136.96838009  2063.77048845
0.34600002 32705.31788216  2553.46781458
0.34700002 32281.57438898  1853.60808920
0.34800002 31867.76750421  2168.76102021
0.34900002 31462.52993570  2147.31776981
0.35000002 31066.68067207  2453.49122228
0.35100002 30680.44501938  2267.89860325
0.35200002 30301.44248660  1925.35374679
0.35300002 29932.71782409  2066.25560926
0.35400002 29572.13451412  3149.43247492
0.35500002 29220.82405512  1560.39207845
0.35600002 28877.63997511  2010.31700208
0.35700002 28543.19273908  1839.32342723
0.35800002 28217.77761759  1519.52739668
0.35900002 27901.39033067  2260.01272383
0.36000002 27593.29056151  1793.01210561
0.36100002 27293.14281390  2074.82481499
0.36200002 27002.90599370  1617.33913110
0.36300002 26719.56535190  1750.66600478
0.36400002 26445.38757180  1737.46204577
0.36500002 26178.60017239  1724.64626105
0.36600002 25921.05422973  1712.34492353
0.36700002 25671.05039674  1417.04204902
0.36800002 25430.13150062  2111.33676785
0.36900002 25196.90972296  1538.27141145
0.37000002 24971.17818966  1667.57535850
0.37100002 24753.41328241  1657.48863190
0.37200002 24544.13381008  1647.89322207
0.37300002 24342.44401474  1911.85564348
0.37400002 24148.37429853  1630.01534237
0.37500002 23962.18978478  1621.76108146
0.37600002 23783.83358768  1882.96619434
0.37700002 23612.72674917  1472.72583711
0.37800002 23449.06751794  2266.23523763
0.37900002 23293.70899980  1858.83806624
0.38000002 23144.83952248  1587.27316965
0.38100002 23002.55130716  1318.04625234
0.38200002 22868.65218770  1576.56495651
0.38300002 22741.16465537  1964.83671931
0.38400002 22620.91299082  1306.35778711
0.38500002 22507.08820959  1433.47651598
0.38600002 22401.09952190  1560.46066662
0.38700002 22300.83303036  1946.86281578
0.38800002 22207.34699426  1684.53838606
0.38900002 22120.44428887  1682.25986787
0.39000002 22040.49430959  1551.21006300
0.39100002 21966.15087388  1937.41459886
0.39200002 21898.77616602  2194.58595745
0.39300002 21836.90084712  1419.61699133
0.39400002 21782.29017600  1677.78098030
0.39500002 21732.49504162  1936.36539995
0.39600002 21688.64864537  1808.18272323
0.39700002 21650.05538220  1938.76255133
0.39800002 21618.32718251  1811.39972044
0.39900002 21591.00945824  1813.64488042
0.40000002 21569.60623120  2075.85900204
0.40100002 21553.15618614  2209.41414532
0.40200002 21542.39387203  1953.35665690
0.40300002 21536.42074084  1435.61787460
0.40400002 21535.46411802  1962.41926073
0.40500002 21538.87514480  1705.23282601
0.40600002 21548.15825170  1578.61814832
0.40700002 21561.24896982  1319.54849947
0.40800002 21578.80955167  1323.86002872
0.40900002 21600.48646925  1992.64497120
0.41000002 21627.17194672  1733.30977780
0.41100002 21657.60847055  1873.81637366
0.41200002 21691.34002328  1478.15643592
0.41300002 21730.26915557  2024.17466775
0.41400002 21772.25696832  1490.85536655
0.41500002 21817.87661414  1361.43556523
0.41600002 21866.14709150  1504.50032192
0.41700002 21919.24090268  2473.80564550
0.41800002 21976.02935683  1657.43221263
0.41900002 22034.07860082  1943.40582468
0.42000002 22095.88766971  1674.42644695
0.42100002 22161.22807588  2244.48928588
0.42200002 22229.14533173  1551.48327195
0.42300002 22299.20818639  1560.05267864
0.42400002 22371.84918636  1426.20545321
0.42500002 22447.54762026  1721.27803309
0.42600002 22524.20637274  1731.21058384
0.42700002 22604.32584073  1596.31756652
0.42800002 22685.70561049  1605.80774773
0.42900002 22769.88560863  1762.38922962
0.43000002 22855.74738358  1773.14896604
0.43100002 22941.84228367  1635.29459547
0.43200002 23030.75794378  1645.43257927
0.43300002 23120.49948727  2257.71688192
0.43400002 23212.06087079  2120.42186103
0.43500002 23304.13930095  1981.31801726
0.43600002 23398.19296011  2300.62743183
0.43700002 23492.48448066  2469.53008564
0.43800002 23587.19795859  1553.21705918
0.43900002 23683.74372410  2032.06530783
0.44000002 23780.15777290  2044.97476459
0.44100002 23877.42183439  1899.68777117
0.44200002 23974.97693685  2071.07848084
0.44300002 24073.04126919  1763.59108696
0.44400002 24170.98826725  1774.75489763
0.44500002 24268.51919224  2435.34601636
0.44600002 24366.07395259  2613.99253751
0.44700002 24464.36065869  2301.60715985
0.44800002 24561.40896728  1819.63206958
0.44900002 24658.71439630  1830.90963070
0.45000002 24755.91366466  2177.15893042
0.45100002 24851.52915039  1853.42713187
0.45200002 24947.09990882  2034.18662297
0.45300002 25041.49219153  1705.32569906
0.45400002 25135.33679953  2058.58418144
0.45500002 25228.53945760  2761.01148909
0.45600002 25320.20658846  1909.27026829
0.45700002 25411.21995732  2444.05125133
0.45800002 25500.51849790  1931.28185997
0.45900002 25588.60128580  1942.17492964
0.46000002 25675.86662283  2130.58351334
0.46100002 25760.75426921  2142.26442656
0.46200002 25844.89180768  1974.42060323
0.46300002 25927.22752122  2706.80268150
0.46400002 26007.40591398  1814.01664848
0.46500002 26086.93504310  2005.82453053
0.46600002 26163.56812835  2565.86124796
0.46700002 26238.39399103  2394.51594911
0.46800002 26311.96645642  2036.15162074
0.46900002 26382.79866054  2417.98361184
0.47000002 26451.73496931  2242.57819699
0.47100002 26518.76326029  2253.03423338
0.47200002 26583.72047116  2263.33806819
0.47300002 26646.30077574  2273.46248994
0.47400002 26705.92635695  2283.35681174
0.47500002 26763.78172092  4395.14844253
0.47600002 26819.93865093  2302.76004172
0.47700002 26872.31222546  2312.09385347
