# SAXS profile: number of points = 501, q_min = 0, q_max = 0.5, delta_q = 0.001
#    q    intensity    error
0.00000000 1682732.95097188 277.65093691
0.00100000 1682650.99813557 656.23390486
0.00200000 1682405.07701025 832.79053949
0.00300000 1681995.42127245 1211.03674646
0.00400000 1681421.89160851 1261.06646662
0.00500000 1680684.99574718 1512.61655604
0.00600000 1679784.63718852 3174.79309354
0.00700000 1678721.38629880 2417.35889674
0.00800000 1677495.07326368 3623.38951123
0.00900000 1676106.87447947 3268.40854495
0.01000000 1674556.25514133 4144.52691043
0.01100000 1672844.42701838 3312.23210971
0.01200000 1670971.31939160 4235.91248038
0.01300000 1668938.12534769 5607.63234849
0.01400000 1666744.84639280 4875.22889182
0.01500000 1664392.89697718 4793.45175674
0.01600000 1661881.63792329 5085.35803938
0.01700000 1659213.38443118 5375.85160671
0.01800000 1656388.09286161 5192.77690478
0.01900000 1653406.37649356 7936.35096528
0.02000000 1650269.41618033 7277.68845457
0.02100000 1646979.32323357 8696.05122094
0.02200000 1643534.48400653 7938.27191841
0.02300000 1639938.24909563 6494.15576202
0.02400000 1636190.05096455 6135.71297089
0.02500000 1632292.57053878 8912.31784217
0.02600000 1628245.65387494 9232.15327973
0.02700000 1624051.56690224 7503.11858274
0.02800000 1619709.90684983 7750.31225970
0.02900000 1615223.69275627 8722.20834136
0.03000000 1610593.68460272 8238.18707541
0.03100000 1605820.49708601 10791.11423695
0.03200000 1600905.77029358 11094.27749912
0.03300000 1595853.09349185 9766.62138242
0.03400000 1590660.47976304 9186.06469448
0.03500000 1585331.41059452 12841.18501880
0.03600000 1579866.93889732 8768.26191609
0.03700000 1574269.02093639 14357.33413493
0.03800000 1568539.08278378 11011.14487073
0.03900000 1562679.22402142 11251.29093400
0.04000000 1556689.19436499 10531.00288788
0.04100000 1550573.22885255 9768.61179471
0.04200000 1544331.86768410 10957.03510955
0.04300000 1537966.26398520 13195.75115751
0.04400000 1531479.73613127 14472.48417857
0.04500000 1524873.71532383 11573.79203708
0.04600000 1518148.29097356 17124.71351826
0.04700000 1511307.55758514 13057.69790482
0.04800000 1504352.20660394 11056.98923300
0.04900000 1497285.75192184 14598.53676076
0.05000000 1490107.59559309 14819.12072824
0.05100000 1482822.83735510 13879.22240419
0.05200000 1475429.34893171 14075.59664475
0.05300000 1467933.56818419 17835.39368489
0.05400000 1460334.83446614 18071.64441927
0.05500000 1452636.27342822 13422.35979262
0.05600000 1444838.75587194 17294.72071483
0.05700000 1436947.43809903 13751.58762451
0.05800000 1428960.94121861 17704.82688838
0.05900000 1420882.41039137 16624.32497803
0.06000000 1412715.25588613 14218.97971479
0.06100000 1404460.90243488 26122.97400605
0.06200000 1396121.70769967 15832.02090536
0.06300000 1387700.38821453 15986.30921968
0.06400000 1379196.23719708 14791.88033571
0.06500000 1370614.94265547 18996.72399383
0.06600000 1361957.72358392 13687.67576244
0.06700000 1353226.25993714 15183.19934705
0.06800000 1344423.25280422 16697.73758143
0.06900000 1335551.89105020 16827.95461510
0.07000000 1326612.33610508 16954.10644936
0.07100000 1317608.00827024 15653.18387141
0.07200000 1308541.32150940 18627.08658431
0.07300000 1299414.77093390 15865.85509651
0.07400000 1290231.18921967 21772.65233844
0.07500000 1280991.48847962 14603.30365316
0.07600000 1271696.90209438 20563.33987089
0.07700000 1262353.36953410 14769.53511607
0.07800000 1252960.68674955 17817.10180113
0.07900000 1243520.80455357 19398.92546092
0.08000000 1234038.11104664 22490.34562887
0.08100000 1224513.27307983 18073.81675865
0.08200000 1214948.38035906 15126.10804527
0.08300000 1205346.69616804 16706.10599294
0.08400000 1195709.84153128 16769.83131463
0.08500000 1186040.27666222 22949.88043080
0.08600000 1176340.01494109 18421.48549889
0.08700000 1166612.76185398 18479.14701551
0.08800000 1156857.95329335 20077.27072231
0.08900000 1147081.06170903 18582.71407251
0.09000000 1137281.91386136 20181.06850949
0.09100000 1127463.09601724 15558.99145602
0.09200000 1117626.74425481 18709.07257790
0.09300000 1107777.83487331 20305.56866743
0.09400000 1097913.20051333 20338.84299538
0.09500000 1088038.33438941 18801.30330196
0.09600000 1078154.80953945 18824.58385946
0.09700000 1068266.96540279 15703.52512969
0.09800000 1058374.13056832 23575.28486686
0.09900000 1048479.78888242 26736.23587371
0.10000000 1038583.96212160 17308.00254270
0.10100000 1028689.83462730 20460.64177304
0.10200000 1018799.98868892 20462.59873530
0.10300000 1008915.59709950 22034.71767718
0.10400000 999040.11793914 17308.37085757
0.10500000 989175.57884176 20446.26017664
0.10600001 979319.38669021 17289.88458557
0.10700001 969479.59874588 17276.12726263
0.10800001 959654.12923511 21966.48405197
0.10900001 949847.16926223 21941.47064265
0.11000001 940058.79536813 23477.96951942
0.11100001 930291.33220020 20317.56365167
0.11200001 920547.04358757 17163.60043570
0.11300001 910826.80365027 21805.19470599
0.11400001 901133.41259583 21762.37293886
0.11500001 891468.61564526 20165.02103543
0.11600001 881832.98736690 24761.87145134
0.11700001 872229.79698509 20070.00857382
0.11800001 862657.76942915 16938.28610051
0.11900001 853120.29926838 19963.01594317
0.12000001 843618.26358415 19905.17386690
0.12100001 834156.18630548 18318.07071420
0.12200001 824732.33492273 16737.94352580
0.12300001 815349.75777155 16682.05682997
0.12400001 806007.83362351 15112.64759251
0.12500001 796709.08801935 15057.80247310
0.12600001 787456.82320152 21001.47446445
0.12700001 778250.04088697 14942.40148921
0.12800001 769090.14863654 22322.84261623
0.12900001 759979.86832083 16301.56894381
0.13000001 750919.67826681 17706.68684813
0.13100001 741909.53622563 20565.73331359
0.13200001 732952.75302986 19009.13054593
0.13300001 724049.43338005 17464.07315644
0.13400001 715200.18399633 17379.36529047
0.13500001 706407.35599751 18733.92396432
0.13600001 697671.04437116 18638.28282918
0.13700001 688993.11899653 17114.58988288
0.13800001 680371.88217864 19860.05617731
0.13900001 671812.58474849 15518.87143953
0.14000001 663312.51180378 21043.59042940
0.14100001 654875.43416571 19528.38636784
0.14200001 646499.94753838 16640.90943451
0.14300001 638188.99482092 15163.37123216
0.14400001 629938.71498843 15071.28446701
0.14500001 621756.24449921 14978.10863654
0.14600001 613638.20148629 14883.79527918
0.14700001 605587.87639082 21510.48238419
0.14800001 597602.02874605 20034.60895892
0.14900001 589684.70460762 14594.69712763
0.15000001 581834.90675329 15814.27351172
0.15100001 574054.05524937 14397.27638499
0.15200001 566343.41935816 12997.58208759
0.15300001 558702.11674008 18068.42730801
0.15400001 551129.25756471 16657.88259600
0.15500001 543628.66606806 15265.09366360
0.15600001 536197.18137575 13890.18863909
0.15700001 528840.08257112 15040.21265817
0.15800001 521551.30735397 16170.69904775
0.15900001 514336.92183938 16047.31271883
0.16000001 507192.34551353 13473.56529455
0.16100001 500122.77086388 18229.47585850
0.16200001 493125.39067187 15673.99128241
0.16300001 486200.47529718 21528.95806249
0.16400001 479349.33798734 13050.28634280
0.16500001 472570.78738712 16473.81842607
0.16600001 465866.32262277 16337.93270574
0.16700001 459234.29437198 15044.51619395
0.16800001 452675.93201210 14917.93604383
0.16900001 446192.64599646 13653.49561218
0.17000001 439781.31397074 12408.43035961
0.17100001 433444.34047814 15656.01031737
0.17200001 427180.43448639 17736.53247745
0.17300001 420990.33988295 12086.63322882
0.17400001 414874.14730156 10890.44688098
0.17500001 408830.33490633 14031.05775664
0.17600001 402858.42073421 13904.65904835
0.17700001 396962.49660662 10598.89915999
0.17800001 391137.16988975 12602.44020909
0.17900001 385384.45062389 16648.60905333
0.18000001 379705.24423333 11339.89765467
0.18100001 374098.73345143 12255.47508677
0.18200001 368561.73196270 12140.42402434
0.18300001 363097.29293557 11023.63433427
0.18400001 357703.87867132 11911.53972246
0.18500001 352381.93989167 11797.74790492
0.18600001 347130.74640400 9737.01789664
0.18700001 341948.87919168 9642.95884878
0.18800001 336835.62446836 12414.07752630
0.18900001 331795.32474071 10401.78392208
0.19000001 326819.84452470 11236.06678565
0.19100001 321915.75981599 10198.29175284
0.19200001 317078.06846023 11015.29261880
0.19300001 312310.09630406 11814.69150146
0.19400001 307607.36328451 9897.26738136
0.19500001 302972.34797492 11579.60368680
0.19600001 298402.24494336 9699.56543025
0.19700001 293899.70704085 9601.70388278
0.19800001 289461.00944278 10368.49384824
0.19900001 285087.39531945 8552.62226378
0.20000001 280776.38658383 9311.94930115
0.20100001 276530.60521679 11730.42882770
0.20200001 272346.38260722 8292.94774234
0.20300001 268225.07819407 8207.68778067
0.20400001 264165.67222417 11372.33272677
0.20500001 260166.69271759 15274.38725142
0.20600001 256228.02643695 10342.64477600
0.20700001 252349.72165314 11022.63636284
0.20800001 248529.94916414 10128.83855698
0.20900001 244771.12119446 11565.43602315
0.21000001 241067.51713497 10681.70218920
0.21100001 237422.64474221 11325.06068958
0.21200001 233833.19531600 8965.16513224
0.21300001 230300.03260505 8131.89453572
0.21400001 226822.35822725 8778.02567839
0.21500001 223400.58567775 10857.26897724
0.21600001 220031.08916388 7878.21351998
0.21700001 216715.53083766 7795.25801279
0.21800001 213452.67839775 7713.11289858
0.21900001 210241.02839556 9019.34054462
0.22000001 207080.13455073 7551.17746343
0.22100001 203971.29970920 10188.36690222
0.22200001 200911.94690029 8736.65642407
0.22300001 197901.36645412 7314.43485001
0.22400001 194938.45618010 6579.17320718
0.22500001 192025.84239708 9113.54691112
0.22600001 189158.35986026 7084.92670360
0.22700001 186338.27020308 10833.70754192
0.22800001 183563.18863471 8827.55415890
0.22900001 180832.96270966 7486.48501022
0.23000001 178147.63582579 10493.78698459
0.23100001 175507.20097336 6718.41597099
0.23200001 172907.78697006 7856.06567253
0.23300001 170352.15704563 7773.16929362
0.23400001 167836.94893564 8282.75382171
0.23500001 165362.99793983 5853.85040393
0.23600001 162929.54419203 8688.21835497
0.23700001 160535.99223948 9169.81631043
0.23800001 158181.13027152 6237.87316730
0.23900001 155864.74376860 6733.35724929
0.24000001 153585.59978444 7217.75560327
0.24100001 151344.72312906 7141.95782228
0.24200001 149140.12818130 6523.38951522
0.24300001 146970.79515543 5917.04449285
0.24400001 144836.64148924 5855.02150917
0.24500001 142736.70282834 5266.98458352
0.24600001 140670.91785554 7296.60085433
0.24700001 138639.26297289 6188.85699188
0.24800001 136639.74805021 5103.49483110
0.24900001 134671.41257591 7575.26731576
0.25000001 132735.96007561 4997.50913327
0.25100001 130830.61864561 5934.47714252
0.25200001 128957.58497922 5872.72869779
0.25300001 127112.62439509 5327.29034043
0.25400001 125298.11608705 5271.91848378
0.25500001 123510.61956815 6639.93122213
0.25600001 121753.02016493 5632.29497931
0.25700001 120022.07373855 5573.82536813
0.25800001 118318.22773769 5515.99603812
0.25900001 116642.12675463 5458.85179040
0.26000001 114991.10988704 6752.85324763
0.26100001 113365.47644373 4900.78977855
0.26200001 111766.05572133 5291.00532820
0.26300001 110190.07832988 4363.52730833
0.26400001 108639.08973752 6477.60603211
0.26500001 107111.79556458 6838.01735241
0.26600001 105607.24445025 5498.44144249
0.26700001 104125.94519764 4604.44951452
0.26800001 102667.24856579 5799.67314593
0.26900001 101229.60775040 4509.77923869
0.27000001 99814.14734198  4868.93433775
0.27100001 98419.49547527  5621.72184758
0.27200001 97046.08726624  5563.65244626
0.27300001 95693.11398291  5899.48075623
0.27400001 94358.29310626  4281.50775232
0.27500001 93045.31171781  4622.49130490
0.27600001 91749.25497594  3812.18172467
0.27700001 90473.88186322  4150.03715747
0.27800001 89215.80975661  4107.04999652
0.27900001 87976.34723331  4434.00811041
0.28000001 86754.06106119  4022.35223147
0.28100001 85549.61419000  3980.62373666
0.28200001 84362.75065869  4297.43872195
0.28300001 83192.43710804  3543.99798854
0.28400001 82037.99942219  4208.54956955
0.28500001 80900.45536773  4511.81860941
0.28600001 79778.47615648  5151.69534164
0.28700001 78672.97719404  4078.40733078
0.28800001 77581.13380108  4708.39923325
0.28900001 76506.42592244  3660.83265367
0.29000001 75445.50957996  3622.51631395
0.29100001 74399.90674683  4236.33089069
0.29200001 73368.16267882  4514.34326332
0.29300001 72351.06654567  4466.95505998
0.29400001 71347.13681726  3157.11095361
0.29500001 70358.10491078  4685.85000887
0.29600001 69381.37884547  3400.03463127
0.29700001 68418.55386790  3364.14045294
0.29800001 67469.01024688  3933.78082866
0.29900001 66532.74523671  3293.37104512
0.30000001 65608.11943204  4443.31009888
0.30100001 64697.34555010  2930.78989216
0.30200001 63797.86541891  3189.57443262
0.30300001 62911.58769942  4876.90650934
0.30400001 62036.94169599  3405.82826035
0.30500001 61174.75225284  4211.88189201
0.30600001 60323.13355684  3333.45651817
0.30700001 59484.10666724  3297.79902976
0.30800001 58656.29202188  2990.59119032
0.30900001 57840.19475054  3227.48301988
0.31000001 57035.33359119  2926.76828180
0.31100001 56240.87678675  3158.48778988
0.31200001 55458.66282362  3124.54121142
0.31300001 54686.23883406  2575.72197103
0.31400001 53926.15258972  4331.61841186
0.31500001 53175.29218382  2772.55986574
0.31600002 52436.43808774  3490.69384878
0.31700002 51707.22420680  2959.72165373
0.31800002 50988.35172349  3415.70984369
0.31900002 50280.49966625  2896.15691791
0.32000002 49583.09615858  2864.91143169
0.32100002 48895.24335289  2833.96843892
0.32200002 48218.67727309  3037.05353185
0.32300002 47550.48480578  2773.14440518
0.32400002 46893.59309973  3657.70043498
0.32500002 46245.99698762  3392.14403967
0.32600002 45608.63979081  3131.94544274
0.32700002 44981.11571053  2434.37809753
0.32800002 44364.23106016  2408.31239714
0.32900002 43755.14360526  2815.64362433
0.33000002 43157.02208743  3214.11937216
0.33100002 42567.48130905  2967.80493741
0.33200002 41989.04941959  2307.08842961
0.33300002 41419.18737732  2905.14194022
0.33400002 40859.45068723  2463.82499312
0.33500002 40308.73703738  3047.34066434
0.33600002 39767.04854869  2211.24683927
0.33700002 39234.68061261  2784.87776177
0.33800002 38712.56603095  2165.38748349
0.33900002 38198.68932819  2532.57322240
0.34000002 37694.31205646  2313.67698360
0.34100002 37199.19407887  2862.47811993
0.34200002 36713.86929299  2266.71439750
0.34300002 36236.74738638  2056.79787906
0.34400002 35769.58090363  1851.07589943
0.34500002 35310.99837112  2015.90499248
0.34600002 34862.16101647  2540.40579359
0.34700002 34420.87864759  2156.12394060
0.34800002 33989.54701963  2135.22344490
0.34900002 33566.67979866  1938.47585018
0.35000002 33153.02030681  2443.70924255
0.35100002 32748.71318218  1902.04535171
0.35200002 32351.70730073  1884.32528098
0.35300002 31964.67580794  2036.78923895
0.35400002 31585.73332042  1850.13441687
0.35500002 31215.80007673  1833.61618335
0.35600002 30854.20770984  2313.14006157
0.35700002 30501.06677671  1801.69809984
0.35800002 30156.77333167  2273.51924916
0.35900002 29821.40638883  1771.39162340
0.36000002 29494.27465092  2076.24956240
0.36100002 29174.94679486  1901.03962320
0.36200002 28865.38577153  1571.72032971
0.36300002 28562.85275788  1559.53183445
0.36400002 28268.98921825  1702.49995631
0.36500002 27982.72597802  1997.12724765
0.36600002 27705.48304724  1677.70560540
0.36700002 27435.74133129  1968.78889119
0.36800002 27174.94243944  1654.54644880
0.36900002 26921.75600228  1494.15752890
0.37000002 26675.91928972  1781.41797455
0.37100002 26438.06703124  2065.34189432
0.37200002 26208.72984643  1613.01635481
0.37300002 25986.64856421  1749.42126421
0.37400002 25772.28149774  1449.69090292
0.37500002 25565.63853508  1586.09228985
0.37600002 25366.87632500  1577.94661655
0.37700002 25175.19619106  1855.66379915
0.37800002 24990.98185835  1420.73738595
0.37900002 24814.92400298  1555.89580869
0.38000002 24645.35041983  1549.33002754
0.38100002 24482.38978828  1543.12510146
0.38200002 24327.76221474  1956.68200763
0.38300002 24179.37206684  1532.00508673
0.38400002 24038.35496434  1527.03657145
0.38500002 23903.65714359  2076.03272127
0.38600002 23776.72636391  1518.26293389
0.38700002 23655.61192584  2065.13501896
0.38800002 23541.11182171  1373.62393987
0.38900002 23433.24789850  1370.84506701
0.39000002 23332.43956830  1915.82670372
0.39100002 23237.07840584  1366.34027500
0.39200002 23148.76867408  1774.00597138
0.39300002 23065.89916292  1908.47258716
0.39400002 22990.38035784  1498.39811081
0.39500002 22919.42053470  1905.97910197
0.39600002 22854.79065110  1905.40398686
0.39700002 22795.26859287  1769.14087931
0.39800002 22742.68414085  1633.37965238
0.39900002 22694.48309094  1906.33666996
0.40000002 22652.26706199  2180.05428533
0.40100002 22614.95384087  1500.04995934
0.40200002 22583.41885438  2184.26837509
0.40300002 22556.72331980  1913.71249712
0.40400002 22535.04687713  1779.70541144
0.40500002 22517.93466127  1508.47651443
0.40600002 22506.52525965  1648.82811864
0.40700002 22499.24193598  2203.12587476
0.40800002 22496.30260331  1518.16305312
0.40900002 22497.57058674  1383.60065664
0.41000002 22504.02917200  2081.06019629
0.41100002 22514.20809691  1391.37812632
0.41200002 22527.79966813  1814.27643224
0.41300002 22546.70277320  2380.25552455
0.41400002 22568.68768623  1826.37113755
0.41500002 22594.30990790  1691.86200607
0.41600002 22622.80431034  1981.07906733
0.41700002 22656.12251135  2130.80842316
0.41800002 22693.36409040  1568.90580073
0.41900002 22731.88502263  2148.16323643
0.42000002 22774.29536758  1582.01650267
0.42100002 22820.48982798  1588.99078202
0.42200002 22869.01465435  1741.24685829
0.42300002 22920.18272596  2186.58553567
0.42400002 22973.82478947  1464.58139973
0.42500002 23030.66830137  1618.82575161
0.42600002 23088.70531480  2218.24746823
0.42700002 23150.15319154  1783.48788639
0.42800002 23213.18501318  2091.27593694
0.42900002 23279.09805510  1951.95246442
0.43000002 23346.84805477  1811.24855792
0.43100002 23414.84545384  1972.46667450
0.43200002 23485.97459883  1677.95553473
0.43300002 23557.93633245  1686.98390071
0.43400002 23631.91227930  1541.98234930
0.43500002 23706.71126122  2015.54468694
0.43600002 23783.48001087  2026.70934517
0.43700002 23860.68980155  1881.17687310
0.43800002 23938.49189528  2049.25469581
0.43900002 24018.28293986  1743.72742407
0.44000002 24098.04008670  1753.49397001
0.44100002 24178.90555573  2083.97996861
0.44200002 24260.17909649  2579.34236377
0.44300002 24342.07912778  2107.53731076
0.44400002 24424.17708997  1956.37667762
0.44500002 24506.02234503  2131.28886435
0.44600002 24587.90755717  1813.48120782
0.44700002 24670.98002507  1823.67892988
0.44800002 24752.68318028  2000.51194944
0.44900002 24835.08118108  2514.55208875
0.45000002 24917.44356081  1854.23165045
0.45100002 24998.46338959  2203.36466758
0.45200002 25079.58473756  2726.65258189
0.45300002 25159.70197730  1713.37578586
0.45400002 25239.51452110  2239.37603202
0.45500002 25318.85200970  2424.53338336
0.45600002 25396.88414597  2263.24343793
0.45700002 25474.35247192  1750.08809776
0.45800002 25550.49776700  2462.81259648
0.45900002 25625.41073686  2121.78410957
0.46000002 25699.77179067  1954.85323391
0.46100002 25771.99552522  2143.19924945
0.46200002 25843.62116222  2333.29144722
0.46300002 25913.77604852  2885.75823753
0.46400002 25981.82756091  2174.67906992
0.46500002 26049.52150111  2549.20629492
0.46600002 26114.52895286  2012.25512384
0.46700002 26177.77862152  2021.44816096
0.46800002 26240.23051958  3138.20051773
0.46900002 26299.94473218  2039.56081065
0.47000002 26358.08810261  2048.41891398
0.47100002 26414.43183639  1870.14186266
0.47200002 26468.95860359  2253.56724232
0.47300002 26521.31373781  2262.79859536
0.47400002 26571.01132840  2461.14004094
0.47500002 26618.96491548  2850.89127757
0.47600002 26665.46901543  2098.70583833
0.47700002 26708.59162544  2298.00733237
