# SAXS profile: number of points = 501, q_min = 0, q_max = 0.5, delta_q = 0.001
#    q    intensity    error
0.00000000 1700912.83420644 331.67800267
0.00100000 1700830.43816526 612.29897228
0.00200000 1700583.18880318 994.84119695
0.00300000 1700171.32659790 1122.11311553
0.00400000 1699594.68625229 1657.10488206
0.00500000 1698853.80925413 1987.65903550
0.00600000 1697948.58174488 2495.98451678
0.00700000 1696879.58543581 3054.38338073
0.00800000 1695646.62586373 2518.03534572
0.00900000 1694250.92315027 3303.78944137
0.01000000 1692691.88793034 3910.11842996
0.01100000 1690970.78595039 3348.12230196
0.01200000 1689087.53596919 4281.83709141
0.01300000 1687043.31390151 3542.79111545
0.01400000 1684838.11831731 5686.32890140
0.01500000 1682473.36858984 5249.31714375
0.01600000 1679948.40930171 5569.02922579
0.01700000 1677265.67385156 5434.34102706
0.01800000 1674424.99091655 5249.32258273
0.01900000 1671427.01347444 6017.13752002
0.02000000 1668272.92614153 6831.57794158
0.02100000 1664964.83983872 8241.57633086
0.02200000 1661501.19272059 6878.61525037
0.02300000 1657885.15031881 7758.90285666
0.02400000 1654116.44683275 8063.81804600
0.02500000 1650197.56503216 7079.34787731
0.02600000 1646128.40247066 10000.23050240
0.02700000 1641911.16263310 10344.04079836
0.02800000 1637545.54486687 7835.65579153
0.02900000 1633034.60358791 10288.11847497
0.03000000 1628378.96158163 12872.33628298
0.03100000 1623579.24711665 7793.18074475
0.03200000 1618637.34692470 8813.48075994
0.03300000 1613556.51702079 9874.96633941
0.03400000 1608334.90320322 12665.63794712
0.03500000 1602976.05476874 10387.28531457
0.03600000 1597481.03009058 8866.02012673
0.03700000 1591851.80552815 10888.26685337
0.03800000 1586089.67421767 12990.07503302
0.03900000 1580196.76708525 13273.65345822
0.04000000 1574172.93510728 14521.74599929
0.04100000 1568022.45607596 12842.10451071
0.04200000 1561745.70114886 12087.91228768
0.04300000 1555344.00693467 15397.90638339
0.04400000 1548820.48991697 12545.44655096
0.04500000 1542176.73732433 13833.32597656
0.04600000 1535412.87146703 12989.59349646
0.04700000 1528532.89501438 15407.61229832
0.04800000 1521537.47398132 17893.28152656
0.04900000 1514430.37329123 17037.34249257
0.05000000 1507210.73673981 14989.21147487
0.05100000 1499883.68568982 14038.91195205
0.05200000 1492447.23869743 13051.45171062
0.05300000 1484907.76510488 14433.30414967
0.05400000 1477264.58882355 17062.40679660
0.05500000 1469520.83906932 17281.56587363
0.05600000 1461677.53627775 14996.81222202
0.05700000 1453739.56880111 20236.05574230
0.05800000 1445705.72147488 14073.94585570
0.05900000 1437579.24673877 16819.67797242
0.06000000 1429363.44891869 15694.41140235
0.06100000 1421059.80731589 19823.78523845
0.06200000 1412670.59115951 17354.65902361
0.06300000 1404198.40917000 20220.45803746
0.06400000 1395643.03582108 24493.53642414
0.06500000 1387009.76729681 17850.81654013
0.06600000 1378299.75511202 16622.29582438
0.06700000 1369515.05854613 15365.95967600
0.06800000 1360658.17674400 15491.09406735
0.06900000 1351732.02018339 15612.50556408
0.07000000 1342737.35928608 17160.18425526
0.07100000 1333677.13032715 21605.57052326
0.07200000 1324554.02863928 14503.86729306
0.07300000 1315370.51038589 18980.79735422
0.07400000 1306129.32356631 17632.74669449
0.07500000 1296831.36520941 14783.87825634
0.07600000 1287477.86417046 20818.51803962
0.07700000 1278075.08693902 20934.87090567
0.07800000 1268622.41958096 33072.98802947
0.07900000 1259121.99556115 22664.19698314
0.08000000 1249578.30243112 19737.09021279
0.08100000 1239991.77686151 18302.27948519
0.08200000 1230364.89304453 18381.65236465
0.08300000 1220700.46603062 29223.57052829
0.08400000 1211000.57996591 20072.33555510
0.08500000 1201267.14103660 15496.34684685
0.08600000 1191502.70374563 20213.84431811
0.08700000 1181710.86447921 23397.87621540
0.08800000 1171890.99166592 18773.69456817
0.08900000 1162048.33599818 18825.18392738
0.09000000 1152183.03007389 22018.21873903
0.09100000 1142297.56161063 23645.56063624
0.09200000 1132394.26110068 22115.66095844
0.09300000 1122477.75841742 20575.01827866
0.09400000 1112545.17775485 19024.52343371
0.09500000 1102602.01881430 17465.21679893
0.09600000 1092649.70831783 15898.05400336
0.09700000 1082692.87079867 17507.14454387
0.09800000 1072730.32854249 17523.05074063
0.09900000 1062766.00454387 23912.23622665
0.10000000 1052799.91132502 20734.89522865
0.10100000 1042834.87351374 23933.06147276
0.10200000 1032873.86190377 20745.27249212
0.10300000 1022917.93496077 19149.02464325
0.10400000 1012970.69287122 20740.57591228
0.10500000 1003033.77852231 20732.70917752
0.10600001 993105.13665151 15939.33819326
0.10700001 983192.44487845 23891.57753483
0.10800001 973293.80482655 15913.35445782
0.10900001 963413.23976335 17485.95112469
0.11000001 953551.11530486 25402.60290741
0.11100001 943709.70088019 23781.48558166
0.11200001 933890.81109733 17412.39499264
0.11300001 924096.02916620 17382.24712699
0.11400001 914327.66494216 18926.58355545
0.11500001 904587.61377846 18887.79026508
0.11600001 894876.50812694 18846.10014864
0.11700001 885197.71981141 25068.80060567
0.11800001 875549.78599166 18754.27729924
0.11900001 865936.02676039 20262.90398061
0.12000001 856357.59590744 17097.18020765
0.12100001 846819.13088788 17046.46990780
0.12200001 837318.31965587 21627.93321563
0.12300001 827859.02631550 16937.99647644
0.12400001 818439.73324661 21484.04401000
0.12500001 809063.72074456 21407.82705965
0.12600001 799734.01163926 24375.89382344
0.12700001 790449.54650491 19729.62161055
0.12800001 781211.76982508 21163.02784196
0.12900001 772023.44706285 22581.68689091
0.13000001 762885.23021432 14990.69548030
0.13100001 753796.72936920 20895.24632307
0.13200001 744761.85090918 17829.59955126
0.13300001 735780.07514509 16268.09822838
0.13400001 726852.23841005 14718.75852173
0.13500001 717980.83498119 16111.49069661
0.13600001 709165.71626731 17488.02738773
0.13700001 700409.04699964 17398.16154785
0.13800001 691708.85161487 21633.19535438
0.13900001 683070.83200563 15778.93696344
0.14000001 674491.66366958 15692.04929532
0.14100001 665975.61423934 18440.86562801
0.14200001 657521.01288035 14103.82639149
0.14300001 649131.09043006 23836.09476488
0.14400001 640801.70104987 13937.43765526
0.14500001 632540.26435183 22164.21190842
0.14600001 624343.03735187 17896.79400996
0.14700001 616213.71729748 16415.93420325
0.14800001 608148.88043140 20388.19217835
0.14900001 600152.53377025 16204.11917632
0.15000001 592223.66773603 14755.25337784
0.15100001 584364.05866474 15988.20139947
0.15200001 576574.28181393 21171.80862724
0.15300001 568854.34890250 19710.80411961
0.15400001 561202.45648501 15657.54927483
0.15500001 553623.11438690 15545.73778563
0.15600001 546113.01171520 20577.53925258
0.15700001 538677.47311240 16596.65372990
0.15800001 531310.12174787 20274.79520284
0.15900001 524017.29505410 16349.34037739
0.16000001 516794.59766110 12480.59012263
0.16100001 509646.78704467 13622.85926076
0.16200001 502571.30000172 18431.80329766
0.16300001 495568.51995293 14629.18339962
0.16400001 488639.49994584 15721.97665299
0.16500001 481783.27010848 14395.68479048
0.16600001 475001.64724200 11898.79182519
0.16700001 468292.03091710 15341.24765718
0.16800001 461656.44653685 14043.58976674
0.16900001 455096.49199949 15086.44942214
0.17000001 448608.41596370 14958.84833666
0.17100001 442194.69682486 14831.21083185
0.17200001 435854.29436943 11310.41947300
0.17300001 429588.07087711 13454.69901526
0.17400001 423395.78547470 13336.96787231
0.17500001 417276.07423913 14320.91554423
0.17600001 411228.49673767 14193.55223525
0.17700001 405257.15631119 11902.40324302
0.17800001 399356.84189905 12867.27805374
0.17900001 393528.96467972 15937.92382233
0.18000001 387775.30420588 11580.91000713
0.18100001 382094.26569677 11474.29134088
0.18200001 376483.05733974 11367.90645337
0.18300001 370944.81713344 14333.30841113
0.18400001 365477.55960721 14198.80386150
0.18500001 360082.24141725 13060.18351319
0.18600001 354757.89757797 15921.53519549
0.18700001 349503.05029182 10841.58513226
0.18800001 344317.20296454 10737.53248176
0.18900001 339204.53078746 13534.26141788
0.19000001 334157.09500901 9573.60122435
0.19100001 329181.37632820 17064.76335517
0.19200001 324272.24756767 13142.75481493
0.19300001 319433.26118173 13943.26250944
0.19400001 314659.74714246 11044.55764660
0.19500001 309954.35201102 12757.72173164
0.19600001 305314.01797749 9924.23262334
0.19700001 300741.81278707 15184.45484520
0.19800001 296233.55485954 11495.34363958
0.19900001 291790.85928094 12255.21666898
0.20000001 287411.05402770 8665.44368847
0.20100001 283096.85175741 8577.83501366
0.20200001 278844.49458864 11038.05983999
0.20300001 274655.53337832 10085.35166233
0.20400001 270528.74080045 13310.01467649
0.20500001 266462.63794848 13173.91344286
0.20600001 262457.46074383 10594.09590369
0.20700001 258512.76144419 9678.71824597
0.20800001 254627.16581552 8780.81822822
0.20900001 250802.76861537 10270.37386029
0.21000001 247034.06778836 9382.35433813
0.21100001 243324.39774409 7737.71621405
0.21200001 239670.66170514 7657.47800348
0.21300001 236073.39086272 8335.75182544
0.21400001 232532.30138373 7499.16707416
0.21500001 229047.16210482 11131.69260457
0.21600001 225614.96872124 7343.76757908
0.21700001 222237.09660871 7993.86874296
0.21800001 218912.28399574 11506.03019083
0.21900001 215638.85053171 8539.29888481
0.22000001 212416.92511425 9154.10782063
0.22100001 209247.22576735 7664.72624227
0.22200001 206127.75873795 13100.45032604
0.22300001 203057.24944590 9551.81346560
0.22400001 200034.72916151 8101.40691413
0.22500001 197063.05856713 7348.48180146
0.22600001 194136.90297146 7271.39804465
0.22700001 191258.66377887 7195.15127161
0.22800001 188425.64176297 8414.14743083
0.22900001 185638.25388859 7044.97206824
0.23000001 182895.97117902 6337.34570106
0.23100001 180199.07545144 7525.11374674
0.23200001 177543.58632204 6825.66349896
0.23300001 174932.45416801 7982.16826120
0.23400001 172361.87425344 6075.75635479
0.23500001 169833.30808712 7815.72920782
0.23600001 167345.64118651 7733.87917322
0.23700001 164898.00921376 7064.23104884
0.23800001 162489.82547745 6407.78657078
0.23900001 160120.52861134 5764.33930266
0.24000001 157788.89249356 6274.47560679
0.24100001 155495.96540467 5644.50381118
0.24200001 153239.71937314 7261.26444597
0.24300001 151019.27481573 8843.68915154
0.24400001 148834.28481723 9298.42238380
0.24500001 146684.06164132 8660.22740897
0.24600001 144568.40605622 6427.51163731
0.24700001 142487.52365065 5830.58974361
0.24800001 140439.11612644 6819.02160610
0.24900001 138422.14016307 8305.32880269
0.25000001 136438.72792888 7705.37752431
0.25100001 134485.74821688 5083.56152310
0.25200001 132565.73585133 5533.95690492
0.25300001 130673.99792921 6970.15137930
0.25400001 128813.32553930 6897.95390898
0.25500001 126979.95887165 5363.63371650
0.25600001 125177.13027135 6273.25218035
0.25700001 123401.33253820 5730.75815422
0.25800001 121652.94870870 5198.83900904
0.25900001 119933.00705668 5612.86499582
0.26000001 118238.35956341 4629.03199593
0.26100001 116569.78896605 5955.55080007
0.26200001 114927.56522173 7254.22826004
0.26300001 113309.45349939 7179.28731343
0.26400001 111716.73717475 5328.88861539
0.26500001 110148.14958437 5273.89365165
0.26600001 108602.74109884 4784.49398551
0.26700001 107081.01773916 6456.98567522
0.26800001 105582.35876088 5538.32289088
0.26900001 104105.13779557 7167.63907641
0.27000001 102650.55370253 4590.01972602
0.27100001 101217.27822233 5368.56469097
0.27200001 99805.66579426  4904.45064923
0.27300001 98414.92988076  4449.33919047
0.27400001 97042.64169113  5203.91190696
0.27500001 95692.76056998  4357.84852259
0.27600001 94360.30545062  5096.87214013
0.27700001 93048.89761254  4268.15313548
0.27800001 91755.17970310  3839.95445231
0.27900001 90480.40090486  4560.21242143
0.28000001 89223.32440953  3760.76330185
0.28100001 87984.41825378  4093.91517511
0.28200001 86763.67937045  5156.36570903
0.28300001 85559.85380285  4738.30492787
0.28400001 84372.27207421  4688.98924246
0.28500001 83202.01194614  5710.98637029
0.28600001 82047.73280566  3885.37057091
0.28700001 80910.38745159  4543.92757436
0.28800001 79786.94603260  4150.51712907
0.28900001 78681.29170991  4791.69089194
0.29000001 77589.63037118  4402.82378382
0.29100001 76513.69736998  4691.82014481
0.29200001 75452.09463676  4642.56760276
0.29300001 74405.52282956  3281.28371211
0.29400001 73372.50085910  3896.07998004
0.29500001 72354.66686956  3533.80209719
0.29600001 71349.65589913  3496.49005285
0.29700001 70358.81834804  3774.04719485
0.29800001 69381.73697790  4356.47947107
0.29900001 68418.29752270  3386.70588770
0.30000001 67466.78594792  3046.12552975
0.30100001 66529.64360339  3616.55159749
0.30200001 65603.99747659  3876.21237441
0.30300001 64692.06191838  2949.95816313
0.30400001 63792.09976622  3210.33757272
0.30500001 62904.93245122  3176.07018982
0.30600001 62028.58169669  3998.98285131
0.30700001 61165.28589877  4238.75451346
0.30800001 60313.65002501  4193.30671652
0.30900001 59473.95847714  3595.20096016
0.31000001 58645.96806090  3009.41799353
0.31100001 57828.55925405  2706.37670122
0.31200001 57023.74720644  2944.99156391
0.31300001 56229.12477635  3442.90947306
0.31400001 55447.14750697  3667.82898125
0.31500001 54674.64020158  3887.36710239
0.31600002 53914.59751173  3845.45884960
0.31700002 53164.57612299  3550.33056159
0.31800002 52425.06654780  2759.39350840
0.31900002 51696.92914631  2481.45271652
0.32000002 50979.75284553  2454.67521574
0.32100002 50272.15069091  3885.03198935
0.32200002 49576.24582617  2882.36306881
0.32300002 48889.10237107  2613.61153651
0.32400002 48213.59628034  3055.53680895
0.32500002 47547.48866553  2557.57953642
0.32600002 46891.97338234  2530.05654365
0.32700002 46246.62900880  2730.40110597
0.32800002 45612.19444414  2701.15428289
0.32900002 44985.92355216  2449.48365341
0.33000002 44370.74851450  3084.21087529
0.33100002 43764.45659876  3269.20506274
0.33200002 43169.58345304  3450.11327295
0.33300002 42583.59299163  2560.12573189
0.33400002 42007.86282279  2533.07424817
0.33500002 41441.54596900  2297.51941732
0.33600002 40884.51695873  2066.71243014
0.33700002 40337.00579795  3067.62943621
0.33800002 39800.01916495  3238.12971261
0.33900002 39271.54999413  3204.55863128
0.34000002 38752.78420694  2180.42550666
0.34100002 38243.68672100  2746.66171038
0.34200002 37744.34305457  2136.14119634
0.34300002 37253.56115605  2114.51223136
0.34400002 36772.91052823  2664.19749395
0.34500002 36301.24621552  2449.24519816
0.34600002 35839.43813255  2425.07569609
0.34700002 35385.37674172  2031.82842874
0.34800002 34941.52356296  2377.94549870
0.34900002 34506.34878451  2173.90007638
0.35000002 34080.60223647  1794.34379273
0.35100002 33664.40914934  1955.22897600
0.35200002 33255.73226246  2817.42577072
0.35300002 32857.23389323  2093.66304284
0.35400002 32466.89093862  2247.52063168
0.35500002 32085.90086425  2398.74206223
0.35600002 31713.48822985  2037.90885017
0.35700002 31349.54690687  2188.51197323
0.35800002 30994.82020344  2002.88537641
0.35900002 30649.11114326  3144.59895224
0.36000002 30311.82270031  2462.07791545
0.36100002 29982.54573282  2604.88369665
0.36200002 29663.19382078  2099.70927406
0.36300002 29351.01179304  2403.84797971
0.36400002 29047.62618684  2385.53641359
0.36500002 28752.14423697  1578.49279338
0.36600002 28465.70934441  1723.74111100
0.36700002 28187.00902188  1867.10756605
0.36800002 27917.37449821  1699.74942684
0.36900002 27655.45371393  1841.85330459
0.37000002 27401.05549236  1677.35569142
0.37100002 27154.85589348  1969.81333982
0.37200002 26917.21471681  2409.62917559
0.37300002 26687.04387120  1946.28620172
0.37400002 26464.74783248  1637.50634970
0.37500002 26250.19013854  1924.66403213
0.37600002 26043.73485164  1620.05060319
0.37700002 25844.56210791  1905.00276322
0.37800002 25652.73428140  1895.86541688
0.37900002 25469.44670117  1887.28608996
0.38000002 25292.59157178  1734.56601216
0.38100002 25122.48743836  1583.47045825
0.38200002 24960.88862610  2151.00467925
0.38300002 24805.71925459  1571.69044643
0.38400002 24657.93244635  1566.39523286
0.38500002 24516.54838234  1703.40986230
0.38600002 24383.01854876  1840.06458195
0.38700002 24255.47589784  1694.00251696
0.38800002 24134.54978817  1689.90125623
0.38900002 24020.45562420  1405.19672059
0.39000002 23913.44338767  1402.52352113
0.39100002 23811.94386744  1960.19931203
0.39200002 23717.76602183  1677.79484787
0.39300002 23628.94589809  1815.41199936
0.39400002 23547.60347808  1953.27380105
0.39500002 23470.84697361  1673.00205154
0.39600002 23400.52892815  1950.90218917
0.39700002 23335.42287301  1671.74977383
0.39800002 23277.36347748  1393.15027013
0.39900002 23223.61874045  1672.10062853
0.40000002 23176.08829348  1672.85013228
0.40100002 23133.40568775  1673.93331488
0.40200002 23096.55224956  2233.89863942
0.40300002 23064.73998866  2236.35729526
0.40400002 23037.94930938  2099.33323028
0.40500002 23015.79502067  1541.82818149
0.40600002 22999.30541653  1825.33996087
0.40700002 22987.11116659  1969.53577807
0.40800002 22979.19861377  2819.54780350
0.40900002 22975.68799417  1978.20683003
0.41000002 22977.32218836  1983.17277204
0.41100002 22982.80195409  1988.47211929
0.41200002 22991.60881407  1424.33023352
0.41300002 23005.87386168  1714.39780140
0.41400002 23023.19577859  1433.19400513
0.41500002 23044.21116302  1869.34649812
0.41600002 23068.11652153  1731.49290815
0.41700002 23096.91758358  1737.81216133
0.41800002 23129.74397086  1599.07492520
0.41900002 23163.80849852  1605.25200501
0.42000002 23201.74237155  1758.22812023
0.42100002 23243.67697141  2059.85475081
0.42200002 23287.76554356  1477.60879376
0.42300002 23334.62145706  1632.49019449
0.42400002 23383.90828952  2385.15875855
0.42500002 23436.56191873  2096.63492860
0.42600002 23490.35586242  1504.55736428
0.42700002 23547.51735047  1511.75068554
0.42800002 23606.29402594  2430.50414808
0.42900002 23668.06945777  1679.24960760
0.43000002 23731.74168219  1687.68288970
0.43100002 23795.56343496  1850.34310039
0.43200002 23862.50163404  1859.84346549
0.43300002 23930.40511715  1869.44333634
0.43400002 24000.22197570  2035.81892556
0.43500002 24070.99907120  2518.78946217
0.43600002 24143.61345695  2215.65951194
0.43700002 24216.78901394  2227.46035906
0.43800002 24290.55981570  1919.44012760
0.43900002 24366.30218018  1929.81122412
0.44000002 24441.98677632  1940.20500225
0.44100002 24518.82738104  2438.39749860
0.44200002 24596.10169621  2288.17544924
0.44300002 24673.96279236  2136.27179980
0.44400002 24752.07613508  1982.64139238
0.44500002 24829.95392355  1993.34879545
0.44600002 24907.82834920  2004.08396395
0.44700002 24986.90900110  2014.94443734
0.44800002 25064.53885965  1688.09677220
0.44900002 25143.02519356  2036.58513720
0.45000002 25221.38405500  2218.09472584
0.45100002 25298.46165844  1715.23578173
0.45200002 25375.65336191  1896.70330043
0.45300002 25451.71863267  1733.26212103
0.45400002 25527.57502065  1916.48278550
0.45500002 25602.97209776  1751.24337448
0.45600002 25677.01493049  2288.20729398
0.45700002 25750.52381645  1945.96717704
0.45800002 25822.70918724  2489.05105652
0.45900002 25893.56865009  1965.32195369
0.46000002 25963.98817987  2334.03282805
0.46100002 26032.18440677  2345.23960436
0.46200002 26099.76551841  2537.68032163
0.46300002 26166.04714694  2549.61975484
0.46400002 26230.09388853  2744.32370316
0.46500002 26293.79916122  2205.52397817
0.46600002 26354.84212623  2584.61948982
0.46700002 26414.03589966  2410.54503045
0.46800002 26472.54179161  2234.81208397
0.46900002 26528.17344743  2057.25994835
0.47000002 26582.37473550  2253.65383689
0.47100002 26634.74365553  2640.03591627
0.47200002 26685.23237299  2271.98079192
0.47300002 26733.62713398  2470.98927311
0.47400002 26779.31641522  2289.63166202
0.47500002 26823.19106557  1915.17593286
0.47600002 26865.69030272  3075.58437163
0.47700002 26904.80830504  1929.07484691
