# SAXS profile: number of points = 501, q_min = 0, q_max = 0.5, delta_q = 0.001
#    q    intensity    error
0.00000000 1682732.95097189 277.65093691
0.00100000 1682650.98400389 706.71343007
0.00200000 1682405.01818936 757.08228216
0.00300000 1681995.28128374 1110.11692519
0.00400000 1681421.65184002 1513.27954416
0.00500000 1680684.61122989 1663.87783098
0.00600000 1679784.09467552 1940.15070834
0.00700000 1678720.65032275 3223.14378257
0.00800000 1677494.10897591 2717.54057128
0.00900000 1676105.65578699 2514.15859115
0.01000000 1674554.75645767 3868.22165445
0.01100000 1672842.60527837 5420.01027709
0.01200000 1670969.17881447 4887.58506232
0.01300000 1668935.60121166 3855.24140883
0.01400000 1666741.94765914 4500.20345818
0.01500000 1664389.52196277 6391.25604893
0.01600000 1661877.77343746 5509.12506522
0.01700000 1659209.07379559 5375.83764025
0.01800000 1656383.26376698 4720.69251416
0.01900000 1653401.01079488 5952.24390744
0.02000000 1650263.42214729 7797.49502237
0.02100000 1646972.72032391 5435.01022348
0.02200000 1643527.25920419 7938.23702261
0.02300000 1639930.33154909 5903.74946231
0.02400000 1636181.48300092 9203.52126154
0.02500000 1632283.25570398 7002.49548678
0.02600000 1628235.64726742 7913.22560766
0.02700000 1624040.70512281 8867.26265610
0.02800000 1619698.29189779 7750.25668215
0.02900000 1615211.14351240 7268.45047953
0.03000000 1610580.37312322 8987.03889512
0.03100000 1605806.33357635 9249.44490700
0.03200000 1600890.68667618 8716.85019043
0.03300000 1595837.01150033 11394.27678739
0.03400000 1590643.36948321 12526.31711265
0.03500000 1585313.31851263 9416.76154681
0.03600000 1579847.87850272 10521.78735708
0.03700000 1574248.94961079 9870.54137055
0.03800000 1568517.88267290 12846.16205361
0.03900000 1562656.89544178 14063.91271028
0.04000000 1556665.79622717 13402.89312659
0.04100000 1550548.63046995 10745.30250738
0.04200000 1544306.13502465 10956.85253632
0.04300000 1537939.28235349 10150.39973469
0.04400000 1531451.52923182 12404.75796288
0.04500000 1524844.26709622 12625.71111821
0.04600000 1518117.60738834 12843.27555555
0.04700000 1511275.55755366 13057.42142454
0.04800000 1504318.78047325 14373.76661621
0.04900000 1497251.01262876 12352.32142916
0.05000000 1490071.61781681 12538.95324782
0.05100000 1482785.42554018 13878.87222959
0.05200000 1475390.52686812 19939.90389985
0.05300000 1467893.21917030 13078.92919252
0.05400000 1460293.15769550 12047.41911281
0.05500000 1452593.15360778 14642.13967141
0.05600000 1444793.96926215 13588.28791500
0.05700000 1436901.20159062 13751.14514111
0.05800000 1428913.17686456 16439.64686743
0.05900000 1420833.14674840 16623.74859338
0.06000000 1412664.41746672 15511.05602844
0.06100000 1404408.41598540 15673.19865483
0.06200000 1396067.58546948 14512.12322930
0.06300000 1387644.65483932 18649.94503302
0.06400000 1379138.78030637 14791.26411052
0.06500000 1370555.89856795 18995.90564274
0.06600000 1361896.96301657 21899.30418994
0.06700000 1353163.81256838 13802.27153413
0.06800000 1344359.20530913 13914.11842626
0.06900000 1335485.80223918 16827.12189604
0.07000000 1326544.61471411 15540.47088911
0.07100000 1317538.47689695 17075.29946035
0.07200000 1308470.10335803 20058.84762417
0.07300000 1299341.76387907 15864.96368033
0.07400000 1290156.31814440 17417.11111119
0.07500000 1280914.74857070 16062.67169997
0.07600000 1271618.42344911 17624.63217526
0.07700000 1262273.03195236 23629.75226611
0.07800000 1252878.47388154 14846.61061175
0.07900000 1243436.80856080 19397.61512337
0.08000000 1233952.11912121 17991.02274077
0.08100000 1224425.44015162 16566.47698252
0.08200000 1214858.64260966 16637.48989126
0.08300000 1205255.15782207 16704.83727141
0.08400000 1195616.33446200 16768.51987792
0.08500000 1185944.89105853 19888.29675671
0.08600000 1176242.60783919 23024.95012951
0.08700000 1166513.38452729 18477.57287858
0.08800000 1156756.72594952 18531.24362001
0.08900000 1146977.78766568 18581.04103293
0.09000000 1137176.71477373 18626.95546300
0.09100000 1127355.79243068 15557.51066645
0.09200000 1117517.78215034 20266.18593154
0.09300000 1107666.68715015 20303.53132957
0.09400000 1097800.05351626 17208.01664760
0.09500000 1087923.27527748 15666.09590034
0.09600000 1078037.86766051 23528.17756770
0.09700000 1068147.98651229 17271.95375391
0.09800000 1058253.20967281 18858.07308303
0.09900000 1048356.86365164 18870.42443306
0.10000000 1038459.12562833 18879.18779176
0.10100000 1028562.81981959 20458.11544839
0.10200000 1018671.10831351 17312.31630010
0.10300000 1008784.86619427 22031.86251408
0.10400000 998907.21637309 15732.78939803
0.10500000 989040.74060410 17298.32336704
0.10600001 979182.63092037 18859.05835891
0.10700001 969340.97229292 20414.32183714
0.10800001 959513.58221301 18825.65736899
0.10900001 949704.71619223 21938.17997658
0.11000001 939914.34946373 21909.40451727
0.11100001 930145.07849998 20314.36947071
0.11200001 920398.70595553 17160.83468042
0.11300001 910676.55776620 18687.08384517
0.11400001 900981.24472032 15541.92720321
0.11500001 891314.51343118 15508.87326398
0.11600001 881677.14228437 17020.77803333
0.11700001 872071.93729546 16979.24141878
0.11800001 862498.17371672 16935.15243854
0.11900001 852958.97314810 15353.26223983
0.12000001 843455.03703342 16839.58060760
0.12100001 833991.27788538 18314.44932512
0.12200001 824565.43835647 19777.20297071
0.12300001 815181.04331319 21227.31536799
0.12400001 805837.38384977 16620.39682501
0.12500001 796537.05868684 19570.91645413
0.12600001 787283.00041145 16497.51605104
0.12700001 778074.58552981 16432.93602081
0.12800001 768912.91234158 16366.31211052
0.12900001 759801.06523081 14816.12147032
0.13000001 750739.12618916 17702.42942994
0.13100001 741727.32812086 20560.68250469
0.13200001 732769.02624567 21928.11414410
0.13300001 723864.00706673 14549.66722796
0.13400001 715013.20161742 14479.01801538
0.13500001 706218.90691069 21610.29957035
0.13600001 697481.17473343 18633.21046157
0.13700001 688801.82683248 15684.01833653
0.13800001 680179.24406546 17018.08548902
0.13900001 671618.30565707 21155.97762588
0.14000001 663116.89787426 19634.89227205
0.14100001 654678.68366763 16733.58794375
0.14200001 646301.70604091 16635.80669813
0.14300001 637989.29062431 17914.74012573
0.14400001 629737.73781030 21914.87430952
0.14500001 621554.12002480 16334.44304478
0.14600001 613434.90961078 16231.48847401
0.14700001 605383.28880386 17471.36253912
0.14800001 597396.46441627 17357.35509251
0.14900001 589478.03220370 13263.25635035
0.15000001 581627.28430573 21078.17377777
0.15100001 573845.13910503 17008.77072563
0.15200001 566133.45213987 15591.31600764
0.15300001 558491.31073121 16771.49485269
0.15400001 550917.43804257 16651.48035064
0.15500001 543416.02195928 16530.71616814
0.15600001 535983.83088993 20195.87170107
0.15700001 528625.76165945 15034.11737116
0.15800001 521336.27538735 12433.87075485
0.15900001 514121.09638733 18508.36034355
0.16000001 506975.85858255 18365.20134404
0.16100001 499905.55110342 15792.01710481
0.16200001 492907.51418113 13256.74821970
0.16300001 485982.13691591 15541.70947226
0.16400001 479130.54636670 14230.17789889
0.16500001 472351.46433417 12937.70721892
0.16600001 465646.35765594 12830.88599099
0.16700001 459013.98152266 16194.01403272
0.16800001 452455.36409727 17204.61603214
0.16900001 445971.78277877 12509.50909762
0.17000001 439560.15641602 15784.60596224
0.17100001 433222.97952304 12294.86873944
0.17200001 426959.04588211 13295.50531662
0.17300001 420768.69438333 14276.68247464
0.17400001 414652.42944050 14150.01482291
0.17500001 408608.52408915 10787.26554541
0.17600001 402636.64536100 19242.00619058
0.17700001 396740.90136867 11652.28082354
0.17800001 390915.66024089 15744.12895983
0.17900001 385163.08712328 14559.16538094
0.18000001 379484.20439191 12363.59596308
0.18100001 373877.73917724 12248.23531401
0.18200001 368341.26665281 13144.25872141
0.18300001 362877.04950408 10015.40703943
0.18400001 357484.04109720 9920.18260908
0.18500001 352162.62288935 14738.00646417
0.18600001 346911.85865318 14596.31714241
0.18700001 341730.40383751 10600.47762786
0.18800001 336617.93785257 10497.43088790
0.18900001 331578.34393516 12284.97822323
0.19000001 326603.58406636 13100.07037586
0.19100001 321700.18177974 11117.95880763
0.19200001 316863.21979387 9173.19064648
0.19300001 312096.16512718 9081.99883435
0.19400001 307394.42724324 11688.67364826
0.19500001 302760.19000640 14241.84001090
0.19600001 298191.19618218 10573.86031630
0.19700001 293689.72804215 16572.91213661
0.19800001 289252.19910408 10361.01426156
0.19900001 284879.76486215 11110.31135470
0.20000001 280569.95976247 9305.10315529
0.20100001 276325.47848525 11721.72735134
0.20200001 272142.48079092 9115.41282492
0.20300001 268022.61591591 8201.49243467
0.20400001 263964.75231648 9740.29982086
0.20500001 259967.20610098 9639.58445786
0.20600001 256030.06469889 10334.65405007
0.20700001 252153.21635731 11800.77108333
0.20800001 248335.13910987 10120.89907284
0.20900001 244578.08616290 10015.47310181
0.21000001 240876.11837598 9910.84835909
0.21100001 237233.07839758 9807.21592458
0.21200001 233645.64453407 8211.47656534
0.21300001 230114.18349277 10341.33189506
0.21400001 226638.58652358 8040.00423703
0.21500001 223218.63140887 10125.19759940
0.21600001 219851.08973331 7156.15330915
0.21700001 216537.59217679 9913.09143854
0.21800001 213277.04208511 11910.45697838
0.21900001 210067.44006067 7625.44843475
0.22000001 206908.87452455 8916.73836924
0.22100001 203802.27633290 10858.58579645
0.22200001 200745.25599146 9400.90078260
0.22300001 197736.99395652 9965.94496665
0.22400001 194776.61615550 8545.82443792
0.22500001 191866.49285794 7805.12929854
0.22600001 189001.35162894 12870.99265458
0.22700001 186183.83182366 7004.23608443
0.22800001 183411.36667066 9450.27111461
0.22900001 180683.87292677 6233.59391077
0.23000001 178001.24159282 8018.06630674
0.23100001 175363.43331219 8543.70687503
0.23200001 172766.78789131 7849.65937908
0.23300001 170213.98913446 8961.76695177
0.23400001 167701.55758792 7684.92423993
0.23500001 165230.46770767 7018.99060019
0.23600001 162800.02043860 5787.54100033
0.23700001 160409.35691200 6299.27574388
0.23800001 158057.45343259 8499.53996035
0.23900001 155744.10361545 5606.78799535
0.24000001 153468.07333844 5547.87111360
0.24100001 151230.25496431 7136.55606933
0.24200001 149028.82816422 5975.31114789
0.24300001 146862.62866961 5912.68970993
0.24400001 144731.63140724 9042.10909989
0.24500001 142634.95921625 6842.19931727
0.24600001 140572.39073380 5729.02805537
0.24700001 138544.01294193 5669.22127777
0.24800001 136547.87805500 5610.06983528
0.24900001 134583.01066288 7065.60839406
0.25000001 132650.81755987 5993.16422088
0.25100001 130748.87782037 5436.53859697
0.25200001 128879.25688761 4890.96803028
0.25300001 127037.77944563 5324.15358845
0.25400001 125226.71845906 4789.92220768
0.25500001 123442.77607443 6162.26367318
0.25600001 121688.65952301 5629.31765587
0.25700001 119961.17397037 6963.74647846
0.25800001 118260.93196017 5053.88116644
0.25900001 116588.50505646 5001.64710357
0.26000001 114941.08448535 4949.93803757
0.26100001 113318.95319097 4898.77857824
0.26200001 111723.24358933 4848.23038496
0.26300001 110150.88129013 5234.37012658
0.26400001 108603.54170175 4316.99098692
0.26500001 107079.83840647 4699.73433005
0.26600001 105579.13407708 5496.97787584
0.26700001 104101.37005095 4603.36280149
0.26800001 102646.42972359 5798.49708948
0.26900001 101212.52106003 4509.01802660
0.27000001 99800.66428496  5679.65607323
0.27100001 98409.85470713  5219.65894068
0.27200001 97040.23166492  5563.31674463
0.27300001 95690.86929661  3932.89491421
0.27400001 94359.80171015  4281.57620522
0.27500001 93050.62982421  3852.29625703
0.27600001 91758.27172716  3812.55637070
0.27700001 90486.59768351  4150.62043218
0.27800001 89232.24710032  4854.68063325
0.27900001 87996.52950394  4435.02529690
0.28000001 86778.04182488  4755.00302684
0.28100001 85577.18935420  5067.88139341
0.28200001 84394.09466039  4299.03538547
0.28300001 83227.40086424  3900.03618909
0.28400001 82076.71269999  3508.77963400
0.28500001 80942.90001936  4514.18574774
0.28600001 79824.60249136  4811.02901987
0.28700001 78722.75675464  5101.23487916
0.28800001 77634.61732899  3702.00690256
0.28900001 76563.47955813  4662.71612579
0.29000001 75506.24010194  3955.01704375
0.29100001 74464.14882550  4239.98883482
0.29200001 73436.06622777  4518.52136888
0.29300001 72422.49806185  3513.21554728
0.29400001 71422.13071642  3476.47237719
0.29500001 70436.69729024  3752.86740927
0.29600001 69463.44230769  4641.89475195
0.29700001 68504.13360885  3368.34840900
0.29800001 67558.03460536  3938.97139413
0.29900001 66625.20314953  5096.82828222
0.30000001 65703.96029157  4449.80092140
0.30100001 64796.63024655  3815.87373586
0.30200001 63900.42487908  3194.70189307
0.30300001 63017.38275622  2873.59278972
0.30400001 62146.13830054  3980.46034659
0.30500001 61287.22193626  3938.31706807
0.30600001 60438.75961644  3618.16651573
0.30700001 59602.95579586  3304.38802576
0.30800001 58778.39877363  2996.81680335
0.30900001 57965.30362939  3234.46409565
0.31000001 57163.49286566  3733.34789581
0.31100001 56372.28241015  3165.86753004
0.31200001 55592.91736926  3132.10511288
0.31300001 54823.55677111  3615.06550465
0.31400001 54066.36543620  2554.63588781
0.31500001 53318.32182928  2527.28857437
0.31600002 52582.34330585  3250.37770535
0.31700002 51855.94558061  2473.52872131
0.31800002 51139.81537612  2936.44833793
0.31900002 50434.76064887  2420.86862577
0.32000002 49740.04424862  2634.48156837
0.32100002 49054.76099564  2843.21408193
0.32200002 48380.74601792  2344.04725556
0.32300002 47715.12415889  2782.74617271
0.32400002 47060.71350218  2523.63088105
0.32500002 46415.58350675  2496.69435505
0.32600002 45780.53668015  3592.85668879
0.32700002 45155.34592678  3998.95762464
0.32800002 44540.67880792  3077.31564456
0.32900002 43933.88417908  2174.72736985
0.33000002 43337.97515300  2582.07668189
0.33100002 42750.54094076  2980.56785553
0.33200002 42174.14948853  3581.21807341
0.33300002 41606.28968754  2918.26529688
0.33400002 41048.45378258  2062.68490025
0.33500002 40499.73568182  2653.54280753
0.33600002 39959.87559731  2019.97180710
0.33700002 39429.27883182  2398.87743773
0.33800002 38908.90969892  2176.36996708
0.33900002 38396.75442358  2545.70493884
0.34000002 37893.83474817  1938.26973916
0.34100002 37400.31671728  3069.81814154
0.34200002 36916.51044552  2089.29000761
0.34300002 36440.90083667  2820.52585834
0.34400002 35975.09134568  3351.07991756
0.34500002 35517.76180232  2765.05788726
0.34600002 35070.19997901  2555.56559350
0.34700002 34630.17395078  2169.23419901
0.34800002 34199.98890334  2148.44340466
0.34900002 33778.03946580  2128.01658713
0.35000002 33365.44979940  2459.36742119
0.35100002 32962.11134369  2262.51942979
0.35200002 32565.98456764  2069.24275743
0.35300002 32179.79454872  1879.62188862
0.35400002 31801.60420196  1862.77905436
0.35500002 31432.38808565  2685.58336524
0.35600002 31071.41596600  2163.03672492
0.35700002 30718.80401856  1814.55983932
0.35800002 30375.12764762  1962.84084156
0.35900002 30040.16025601  1784.38560373
0.36000002 29713.38300113  1769.87774229
0.36100002 29394.38270598  1755.72656219
0.36200002 29085.11992037  2217.15879655
0.36300002 28782.74995736  1885.84586653
0.36400002 28489.01786793  1559.77380215
0.36500002 28202.88226071  2012.83980229
0.36600002 27925.59639185  2152.22581587
0.36700002 27655.86721714  2289.90591405
0.36800002 27394.89974884  1971.20010480
0.36900002 27141.58712690  1807.62978828
0.37000002 26895.54781189  1646.41103729
0.37100002 26657.37165715  1487.48140893
0.37200002 26427.57849149  1626.48539531
0.37300002 26205.12533743  1764.12912128
0.37400002 25990.30227620  1608.15002952
0.37500002 25783.12950539  2035.83600219
0.37600002 25583.75089723  1736.11341813
0.37700002 25391.51088766  1583.66860908
0.37800002 25206.54974923  2149.48863169
0.37900002 25029.76665996  1426.69676720
0.38000002 24859.34614976  1562.78286974
0.38100002 24695.46263246  1556.55508346
0.38200002 24539.87769122  1550.79764416
0.38300002 24390.65963826  1685.88247406
0.38400002 24248.50748958  1820.45678602
0.38500002 24112.75549160  2094.19291366
0.38600002 23984.64788344  2088.46331339
0.38700002 23862.31487582  2638.69490398
0.38800002 23746.57118158  1662.73499291
0.38900002 23637.38568980  1659.34455404
0.39000002 23535.17224285  2208.54066790
0.39100002 23438.46276204  1791.63617841
0.39200002 23348.69586924  1651.68682404
0.39300002 23264.28517430  1649.90318273
0.39400002 23187.21923861  1511.22708547
0.39500002 23114.74386612  1373.01585070
0.39600002 23048.40611846  1921.54570913
0.39700002 22987.19679675  1372.33571378
0.39800002 22932.86573882  1372.53207950
0.39900002 22882.84691791  2059.45632019
0.40000002 22838.78645683  1373.75307047
0.40100002 22799.62087380  1924.74408536
0.40200002 22766.21251592  1376.21761179
0.40300002 22737.56840238  1515.68638152
0.40400002 22713.97414803  2069.81099231
0.40500002 22694.74080653  2211.37564896
0.40600002 22681.28467806  1661.63099424
0.40700002 22671.88733451  2081.27935592
0.40800002 22666.81012177  1529.66975355
0.40900002 22665.95047317  1672.74722418
0.41000002 22670.17902141  1397.61660289
0.41100002 22678.13771577  1541.65987496
0.41200002 22689.38903542  1546.16848908
0.41300002 22706.01726140  1551.04811262
0.41400002 22725.65638014  1839.07382970
0.41500002 22749.01131922  2129.30756037
0.41600002 22775.04654221  1851.95299733
0.41700002 22805.93844590  1429.93240831
0.41800002 22840.73542620  1435.54028956
0.41900002 22876.84666334  2305.98625293
0.42000002 22916.77740429  2460.23075482
0.42100002 22960.38828218  1889.41044127
0.42200002 23006.45846253  1605.73584448
0.42300002 23054.95605153  1612.92480179
0.42400002 23106.09756117  1767.61654719
0.42500002 23160.39490455  1923.93409589
0.42600002 23215.77251303  1784.36435991
0.42700002 23274.71930504  1643.66075521
0.42800002 23335.00294193  1651.76826152
0.42900002 23398.29490012  1961.94712035
0.43000002 23463.36200481  1971.97835314
0.43100002 23528.75421495  2286.99501807
0.43200002 23597.16919186  1839.16345397
0.43300002 23666.50539287  2002.89644631
0.43400002 23737.76099276  1703.77787599
0.43500002 23809.83176584  1712.87937841
0.43600002 23883.85804978  2191.82175710
0.43700002 23958.40956390  2361.10137441
0.43800002 24033.45202931  1740.86318024
0.43900002 24110.47912976  1750.42086777
0.44000002 24187.60689454  1760.01129909
0.44100002 24265.73406897  1769.70006952
0.44200002 24344.25015299  1617.67549933
0.44300002 24423.41142761  1951.91913380
0.44400002 24502.80141141  2289.78690041
0.44500002 24581.93854125  2137.89129625
0.44600002 24661.16044841  1984.23706371
0.44700002 24741.47366744  1828.88982017
0.44800002 24820.51908859  2005.99444781
0.44900002 24900.21452777  2016.91747233
0.45000002 24979.94238864  2365.85045575
0.45100002 25058.30931337  2548.43017795
0.45200002 25136.73219296  2391.25744684
0.45300002 25214.20962132  2747.34041054
0.45400002 25291.36321262  2243.97630739
0.45500002 25368.15315327  2429.25446109
0.45600002 25443.52889951  2441.81558421
0.45700002 25518.51831473  1928.43452044
0.45800002 25592.08740074  1938.21683115
0.45900002 25664.43171650  2302.09963408
0.46000002 25736.22849857  3025.42248454
0.46100002 25805.98245579  1967.19013584
0.46200002 25875.11460340  2336.13483269
0.46300002 25942.79684258  2166.74249499
0.46400002 26008.42431590  2176.90521842
0.46500002 26073.68425545  2004.80567742
0.46600002 26136.31509942  2197.01875139
0.46700002 26197.20596789  2574.66152455
0.46800002 26257.25513490  1847.19798629
0.46900002 26314.66076945  2226.22040661
0.47000002 26370.56020782  2235.69620038
0.47100002 26424.68153250  2245.04104941
0.47200002 26476.93649181  2066.39260644
0.47300002 26527.12740312  2074.68673253
0.47400002 26574.60196113  2461.47262332
0.47500002 26620.47885993  3041.12364910
0.47600002 26664.89230202  2289.44776157
0.47700002 26705.85673737  2106.29102071
