# SAXS profile: number of points = 501, q_min = 0, q_max = 0.5, delta_q = 0.001
#    q    intensity    error
0.00000000 1664650.74656091 299.63713438
0.00100000 1664569.27929796 599.24495478
0.00200000 1664324.80944956 973.63004436
0.00300000 1663917.56483319 998.35057446
0.00400000 1663347.42497346 1372.26167775
0.00500000 1662614.86887464 1795.62412946
0.00600000 1661719.82950192 2617.20883802
0.00700000 1660662.85257441 2391.35460709
0.00800000 1659443.77013463 3136.34885797
0.00900000 1658063.79016487 2735.80537072
0.01000000 1656522.32852240 2733.26196008
0.01100000 1654820.62652851 3872.28043467
0.01200000 1652958.61488778 3867.92332842
0.01300000 1650937.42604106 4160.36249712
0.01400000 1648757.15747047 4080.67414564
0.01500000 1646419.12799200 6717.39034133
0.01600000 1643922.79136184 5030.40396644
0.01700000 1641270.36958918 4431.43019668
0.01800000 1638461.84638504 7938.34800294
0.01900000 1635497.87928768 6378.44201703
0.02000000 1632379.60350147 7712.99397545
0.02100000 1629109.05559023 6451.27215263
0.02200000 1625684.72971995 9534.64137299
0.02300000 1622110.00396657 6423.55590810
0.02400000 1618384.16660391 9103.41135224
0.02500000 1614509.96442117 8185.56589346
0.02600000 1610487.32806656 7174.72137470
0.02700000 1606318.32657343 10119.80592091
0.02800000 1602002.79131754 8362.45495418
0.02900000 1597543.44134925 7907.84039776
0.03000000 1592941.27666819 8888.61273238
0.03100000 1588196.98418010 8385.68046232
0.03200000 1583311.81546500 9404.87261703
0.03300000 1578289.53112197 11268.98777172
0.03400000 1573128.52581215 10736.60268406
0.03500000 1567831.65860386 8466.29134742
0.03600000 1562400.42760891 11272.71960615
0.03700000 1556836.47042950 9761.36512103
0.03800000 1551141.47722030 10889.01367403
0.03900000 1545317.31791649 13907.85650532
0.04000000 1539363.95903302 13253.92430145
0.04100000 1533285.35962084 12557.60767755
0.04200000 1527082.30209635 10834.64943602
0.04300000 1520755.77224168 12044.38627523
0.04400000 1514309.13350805 11243.74583848
0.04500000 1507743.97940052 13524.46412364
0.04600000 1501060.15004149 11640.72200471
0.04700000 1494261.81283713 13986.29121863
0.04800000 1487349.55951136 15304.82767948
0.04900000 1480327.00024552 12212.69832050
0.05000000 1473193.77161677 14650.91274097
0.05100000 1465954.56023744 16008.22454352
0.05200000 1458607.37434873 17393.89374969
0.05300000 1451158.54170533 15280.70015651
0.05400000 1443607.78191678 15482.69418308
0.05500000 1435957.81076910 15680.66002509
0.05600000 1428209.54648001 14653.43063067
0.05700000 1420368.29598968 17300.08665270
0.05800000 1412432.65868309 17500.04145820
0.05900000 1404405.56163305 15167.58077405
0.06000000 1396290.77911933 15331.27347099
0.06100000 1388089.27025517 15491.07697997
0.06200000 1379803.60286152 16950.88805350
0.06300000 1371436.61693160 15798.95056574
0.06400000 1362987.29758791 14618.03945027
0.06500000 1354461.73067093 13409.17176089
0.06600000 1345861.06433664 14878.49476238
0.06700000 1337186.25639888 16367.16054429
0.06800000 1328441.11731316 21998.98593246
0.06900000 1319627.79116388 19398.52943833
0.07000000 1310747.22565241 15355.40446759
0.07100000 1301802.32026272 15465.41228909
0.07200000 1292795.60449494 15571.72378563
0.07300000 1283730.00146736 17099.28442074
0.07400000 1274607.63534061 22942.93851133
0.07500000 1265429.74853153 17311.07977132
0.07600000 1256197.84493559 24665.44584164
0.07700000 1246917.18920618 18965.61133710
0.07800000 1237588.04087343 19065.04466373
0.07900000 1228212.35950561 25055.53330911
0.08000000 1218794.12574528 19250.85411922
0.08100000 1209334.54971825 25287.18662104
0.08200000 1199835.31510180 17925.54044878
0.08300000 1190299.81620300 20996.88974325
0.08400000 1180729.76553716 21076.02730412
0.08500000 1171127.36256132 18129.05242352
0.08600000 1161494.69092946 19704.75835679
0.08700000 1151835.60237267 19765.49986486
0.08800000 1142149.36281510 16772.46418064
0.08900000 1132441.41423466 22931.93971536
0.09000000 1122711.62902338 18390.01734728
0.09100000 1112962.79240980 16894.77598252
0.09200000 1103196.80350055 18467.51535833
0.09300000 1093418.64169519 16958.92392963
0.09400000 1083625.12902092 16985.82469569
0.09500000 1073821.84443034 20101.94587258
0.09600000 1064010.25928012 20125.75500035
0.09700000 1054194.41982711 18595.99044000
0.09800000 1044374.38769168 18610.75246370
0.09900000 1034552.84524724 15518.29340842
0.10000000 1024730.47127763 17077.13410693
0.10100000 1014909.98437863 24844.99758609
0.10200000 1005094.18061176 18634.44698504
0.10300000 995283.97653262 21737.00307000
0.10400000 985482.92029486 15521.35672485
0.10500000 975693.34780086 21718.93494391
0.10600001 965912.41530517 20153.76349365
0.10700001 956147.87831676 26332.31380798
0.10800001 946398.13169854 20115.69323593
0.10900001 936667.31514466 15455.01142729
0.11000001 926954.85919849 16977.17904533
0.11100001 917263.74494854 23115.04746081
0.11200001 907596.02298553 16922.12864521
0.11300001 897952.61108066 18425.98844689
0.11400001 888336.30342594 22985.70293341
0.11500001 878748.61692907 21406.31731637
0.11600001 869190.43213576 22881.43920349
0.11700001 859664.70636219 16737.67262113
0.11800001 850170.50088305 16693.09857106
0.11900001 840711.06851492 16646.07994065
0.12000001 831287.05983383 28666.93560872
0.12100001 821903.19183756 19553.07785492
0.12200001 812557.37281224 14991.68423466
0.12300001 803253.08604251 14940.50810430
0.12400001 793989.75152250 16376.03939675
0.12500001 784769.60125437 20765.00462765
0.12600001 775596.00006127 16252.61494716
0.12700001 766467.84816775 14716.18337834
0.12800001 757387.06204462 17586.52840952
0.12900001 748355.55636283 16052.22744056
0.13000001 739374.26146949 15981.57541495
0.13100001 730443.27113537 15909.05519524
0.13200001 721565.18802865 17274.27141572
0.13300001 712740.87468818 24354.35683623
0.13400001 703970.56117987 15680.94498957
0.13500001 695256.82598966 18438.21189457
0.13600001 686599.61966198 16931.54741920
0.13700001 678000.65611654 19648.45994075
0.13800001 669458.70901374 15354.03621526
0.13900001 660978.02153476 16656.64692817
0.14000001 652557.09119952 20702.37469464
0.14100001 644198.76394498 17837.86461492
0.14200001 635902.21533680 24552.18569217
0.14300001 627669.61645945 17624.96366151
0.14400001 619498.32300498 16168.90699312
0.14500001 611394.10806040 13389.53159814
0.14600001 603354.89052664 21286.36154195
0.14700001 595382.87161310 15861.00044804
0.14800001 587475.12001075 15756.08346204
0.14900001 579636.18354040 14345.99621948
0.15000001 571864.51669774 18133.82468009
0.15100001 564161.28529011 16721.74128501
0.15200001 556528.43727366 15326.79388574
0.15300001 548964.79241168 13949.19603343
0.15400001 541469.54456469 17624.83450731
0.15500001 534046.19778967 19994.69058885
0.15600001 526691.89505597 19845.75154233
0.15700001 519411.66937294 13541.06285965
0.15800001 512199.80951010 12215.96603339
0.15900001 505062.00359830 15757.93525605
0.16000001 497993.89649444 14431.86380163
0.16100001 491000.45679315 14317.57399594
0.16200001 484078.97366860 14202.87775790
0.16300001 477230.03203968 12913.84527663
0.16400001 470454.50993051 12808.12463752
0.16500001 463751.12220657 11547.40348811
0.16600001 457121.54076188 14886.16367773
0.16700001 450564.50815546 14760.49398409
0.16800001 444080.88294530 12383.19600562
0.16900001 437671.80904223 11160.63165756
0.17000001 431334.63730595 15489.22755705
0.17100001 425071.30321259 12063.52415483
0.17200001 418881.26092389 13043.96308114
0.17300001 412764.18762002 14005.08954733
0.17400001 406721.13958672 16014.64562754
0.17500001 400749.91178053 12695.75780480
0.17600001 394850.47716395 14676.59292935
0.17700001 389026.51259972 14541.81172780
0.17800001 383273.09840644 12349.05981393
0.17900001 377591.89719914 10194.98170592
0.18000001 371983.82958633 14139.10603044
0.18100001 366447.94500152 13005.23818243
0.18200001 360981.68962237 11890.73741785
0.18300001 355587.29431316 13739.89370132
0.18400001 350263.91335530 13607.75367669
0.18500001 345011.34888203 11550.98050626
0.18600001 339829.30470085 10485.43369191
0.18700001 334716.39379019 10382.90302591
0.18800001 329671.76980200 11215.43413855
0.18900001 324699.53687936 11104.72468594
0.19000001 319791.76815274 13743.05188571
0.19100001 314955.17183434 13606.06406613
0.19200001 310184.54271097 9877.82722937
0.19300001 305483.12866629 16890.16298206
0.19400001 300846.87665835 12319.68018131
0.19500001 296277.51260822 13065.83892345
0.19600001 291773.00537888 10346.27125966
0.19700001 287335.63080446 9387.25550200
0.19800001 282961.76265270 11824.97262009
0.19900001 278652.62791363 8359.57923248
0.20000001 274405.48766001 9100.65842835
0.20100001 270223.26518291 10644.09491862
0.20200001 266102.26418581 8102.81432742
0.20300001 262043.70367506 12027.80656717
0.20400001 258046.80899743 9521.92770207
0.20500001 254109.75487372 9422.39015608
0.20600001 250232.68374818 10100.64275693
0.20700001 246415.52182829 7688.16464446
0.20800001 242656.52234375 9128.73880209
0.20900001 238958.10044428 9785.33467576
0.21000001 235314.38249092 10426.78078107
0.21100001 231729.03285636 7368.98359319
0.21200001 228198.65480710 9478.23157549
0.21300001 224724.14444576 12263.19714215
0.21400001 221304.78378185 9991.91146013
0.21500001 217940.78997909 7767.41012208
0.21600001 214628.55274231 9082.00763868
0.21700001 211369.98515826 7602.97872561
0.21800001 208163.74686641 7521.99734866
0.21900001 205008.21345973 9471.37990966
0.22000001 201903.05418266 10039.62984393
0.22100001 198849.37691408 6621.68456434
0.22200001 195844.88910248 7206.11303526
0.22300001 192888.64911176 11665.90604991
0.22400001 189979.86507570 8976.54904930
0.22500001 187120.62878267 6343.38961569
0.22600001 184306.24347619 7530.75346455
0.22700001 181538.71775753 8692.07421727
0.22800001 178816.05063875 11056.19693384
0.22900001 176137.55513459 7292.09512742
0.23000001 173503.54731203 8416.65747815
0.23100001 170913.85751460 7732.14327963
0.23200001 168365.03649433 5884.35830377
0.23300001 165859.44155658 7568.16667616
0.23400001 163394.02080666 6335.60345642
0.23500001 160969.11131735 6837.96817217
0.23600001 158584.35181447 6201.44137101
0.23700001 156239.22773050 6693.28883255
0.23800001 153932.07092682 8277.69750561
0.23900001 151663.20615997 6005.86324801
0.24000001 149431.05599219 5942.12622259
0.24100001 147236.71551370 6413.63163115
0.24200001 145078.35760510 7403.34893878
0.24300001 142954.61424974 6278.56695484
0.24400001 140865.94081482 6729.87064077
0.24500001 138810.80437603 5634.33081615
0.24600001 136789.59558292 5574.86023170
0.24700001 134801.76592434 5516.08852257
0.24800001 132845.94501765 5457.97590925
0.24900001 130920.91354254 6873.34828614
0.25000001 129028.15538085 5343.70130790
0.25100001 127165.06798939 5768.20775689
0.25200001 125333.90690994 6658.99078916
0.25300001 123530.61499292 6118.47165007
0.25400001 121757.14524015 5588.65323093
0.25500001 120010.43881209 4608.40106842
0.25600001 118292.99219559 5472.23407787
0.25700001 116601.76757555 4512.48861867
0.25800001 114937.53165614 6251.45264256
0.25900001 113300.44260931 5744.33271208
0.26000001 111688.20761907 5684.37159573
0.26100001 110100.56527261 4759.64766194
0.26200001 108539.21654506 4281.87229531
0.26300001 107000.61048187 7203.28143848
0.26400001 105486.69426212 4612.40592486
0.26500001 103996.06187223 4564.38737155
0.26600001 102527.83768153 4927.48811214
0.26700001 101082.32100186 4469.86044622
0.26800001 99659.16545924  4021.24751657
0.26900001 98256.67370544  4775.27456806
0.27000001 96876.00315144  4331.81068591
0.27100001 95515.68534333  3897.04014643
0.27200001 94176.39048130  3856.52337271
0.27300001 92856.79993122  4198.05612356
0.27400001 91555.43193787  4154.32792078
0.27500001 90275.33451742  4111.13892848
0.27600001 89011.60357961  4068.27553414
0.27700001 87768.40509143  3659.94266553
0.27800001 86542.17976551  3983.96943406
0.27900001 85334.19129893  3942.43982460
0.28000001 84143.04534690  3546.62952923
0.28100001 82969.31621296  4913.44313868
0.28200001 81812.80391786  4167.54442882
0.28300001 80672.51462536  4123.97914284
0.28400001 79547.75924279  5101.00030288
0.28500001 78439.59500204  3365.05878486
0.28600001 77346.64046102  4994.65954418
0.28700001 76269.80667790  5271.76928710
0.28800001 75206.51600544  3260.20262315
0.28900001 74159.66848774  4193.72945149
0.29000001 73126.54433288  6703.14500356
0.29100001 72108.29496984  3158.34346918
0.29200001 71103.66983414  3750.00772456
0.29300001 70113.24278514  3710.39298382
0.29400001 69135.76949895  3059.25794514
0.29500001 68172.93591040  5145.69344610
0.29600001 67221.99352617  4791.58392537
0.29700001 66284.80137459  3851.80999021
0.29800001 65360.49302162  2931.41825079
0.29900001 64449.16254436  4060.29743251
0.30000001 63549.27977881  3443.10014141
0.30100001 62662.73876736  3122.48442060
0.30200001 61787.33240193  2808.23439061
0.30300001 60924.77244252  4722.88858333
0.30400001 60073.73578491  3572.88560495
0.30500001 59234.73386278  2990.76185432
0.30600001 58406.11170025  4034.40235669
0.30700001 57589.82051500  3192.77980051
0.30800001 56784.46844824  3421.54830834
0.30900001 55990.38402693  2863.90827857
0.31000001 55207.33645466  3090.50684105
0.31100001 54434.75567903  2547.54668639
0.31200001 53673.81081675  3023.98264459
0.31300001 52922.63952567  3240.45337158
0.31400001 52183.52570934  2465.67170651
0.31500001 51453.26462198  3414.43880198
0.31600002 50734.83326542  3377.41801039
0.31700002 50025.81600620  2624.85469013
0.31800002 49326.91427914  3304.41014402
0.31900002 48638.86857332  2801.59896248
0.32000002 47960.85869685  2540.24700116
0.32100002 47292.30182820  3426.32742969
0.32200002 46634.74716323  2937.28968916
0.32300002 45985.27745372  2458.37304908
0.32400002 45346.97760018  2431.73178896
0.32500002 44717.95514590  3280.06216527
0.32600002 44098.74573108  2379.34793859
0.32700002 43489.15910732  2353.63340234
0.32800002 42890.07672179  2963.27554103
0.32900002 42298.55224642  2303.15627888
0.33000002 41717.91865122  2278.42423503
0.33100002 41145.59600153  2049.05077791
0.33200002 40584.15078273  2838.04979863
0.33300002 40031.12978190  2005.55969705
0.33400002 39488.01664490  2182.70022341
0.33500002 38953.79126913  1963.27117294
0.33600002 38428.37880396  2913.83196080
0.33700002 37912.20747782  2306.57881218
0.33800002 37405.98136465  2282.51309096
0.33900002 36907.92860666  2446.99578251
0.34000002 36419.03623669  2235.40055007
0.34100002 35939.29648010  1843.68599674
0.34200002 35469.38399234  2919.83982853
0.34300002 35007.45137744  1806.38457663
0.34400002 34555.30971534  1967.06109871
0.34500002 34111.46306078  1770.38501670
0.34600002 33677.24878003  2629.35132303
0.34700002 33250.56814511  1735.67973938
0.34800002 32833.60398714  1890.72317515
0.34900002 32424.93300700  2383.23268889
0.35000002 32025.36814175  1854.74928377
0.35100002 31635.10992179  2505.50082447
0.35200002 31251.89556761  1985.74553842
0.35300002 30878.58302628  2131.54868726
0.35400002 30513.29497103  2112.28294442
0.35500002 30156.88449555  1771.41547917
0.35600002 29808.46313935  1915.49193206
0.35700002 29468.53715101  3006.67498793
0.35800002 29137.38750136  2039.76290865
0.35900002 28815.01845232  1867.21328415
0.36000002 28500.69173894  2160.63754307
0.36100002 28194.08381278  1684.03270590
0.36200002 27897.25090710  1519.00538384
0.36300002 27607.11812579  1959.55333739
0.36400002 27325.87105288  1795.30981321
0.36500002 27051.79955504  2227.71579888
0.36600002 26786.81354147  2064.45981743
0.36700002 26529.19115057  1610.85256297
0.36800002 26280.36960938  2036.46593750
0.36900002 26039.20912732  1445.17617502
0.37000002 25805.24885179  1436.06216663
0.37100002 25579.13059397  1427.31555476
0.37200002 25361.38489681  1560.86650741
0.37300002 25150.94265569  2398.64551470
0.37400002 24948.01014134  1543.65820062
0.37500002 24752.81885368  1535.66495443
0.37600002 24565.34265214  1667.00423134
0.37700002 24384.94056637  1935.67667386
0.37800002 24211.97263126  1376.45070929
0.37900002 24046.94557689  1370.67596282
0.38000002 23888.46270737  1501.74827924
0.38100002 23736.43827795  1496.10777553
0.38200002 23592.64163390  1762.01652390
0.38300002 23455.09809138  2026.52057110
0.38400002 23324.78767186  1885.80917261
0.38500002 23200.78366253  1343.32543770
0.38600002 23084.50465496  1742.07222632
0.38700002 22973.85983848  1604.49444713
0.38800002 22869.94522451  1467.90750378
0.38900002 22772.40353442  1598.62280385
0.39000002 22681.99171659  1862.41842808
0.39100002 22596.95567023  1461.57116199
0.39200002 22518.77683059  1460.23015276
0.39300002 22446.13554686  1591.88000840
0.39400002 22380.71478145  1989.08612044
0.39500002 22320.02365427  1723.55230824
0.39600002 22265.33987576  1591.08126290
0.39700002 22215.79212136  1856.79599348
0.39800002 22173.07848420  1725.17645320
0.39900002 22134.77554718  1328.08659575
0.40000002 22102.35976799  1994.18550455
0.40100002 22074.86834628  1597.33754922
0.40200002 22053.06404790  1333.10778486
0.40300002 22036.03304231  1468.92203220
0.40400002 22024.05271709  1605.55351915
0.40500002 22016.40756641  1474.87921275
0.40600002 22014.61464296  1747.18997392
0.40700002 22016.78924068  1616.91307845
0.40800002 22023.36237456  1891.58668398
0.40900002 22034.03667425  1761.62131558
0.41000002 22049.77838815  1767.17957265
0.41100002 22069.29649815  1909.43562349
0.41200002 22092.16320515  1505.47053295
0.41300002 22120.23993663  2197.86714424
0.41400002 22151.42436029  1378.92623177
0.41500002 22186.33536263  1522.87013145
0.41600002 22223.91350704  2085.15878360
0.41700002 22266.41061502  1535.71441289
0.41800002 22312.56506167  1823.04821475
0.41900002 22360.15173478  1549.55858864
0.42000002 22411.49919071  1839.87211324
0.42100002 22466.47587247  1990.97918616
0.42200002 22524.14275934  1857.90400354
0.42300002 22583.98303290  1723.60966675
0.42400002 22646.48782567  1443.71366730
0.42500002 22712.13328371  2322.08861696
0.42600002 22778.85048153  1896.68107522
0.42700002 22849.12462801  2053.67941888
0.42800002 22920.76394469  1769.94147568
0.42900002 22995.33537078  2076.47888238
0.43000002 23071.56038626  2088.20702951
0.43100002 23148.21672197  1500.00451466
0.43200002 23227.81433838  2262.96991915
0.43300002 23308.26264680  1820.84156425
0.43400002 23390.74199987  2594.61817929
0.43500002 23473.83507120  1535.18888641
0.43600002 23558.94278151  1853.14652701
0.43700002 23644.49529014  1708.78775560
0.43800002 23730.54278574  2187.71884309
0.43900002 23818.55845181  1886.42991878
0.44000002 23906.59818038  1739.56369903
0.44100002 23995.60698965  1749.99970069
0.44200002 24085.00387889  1920.53830032
0.44300002 24175.05371112  2415.08798019
0.44400002 24265.09501280  1943.63420264
0.44500002 24354.95652614  2281.08533634
0.44600002 24444.85878952  2294.63900332
0.44700002 24535.71780581  1813.68034616
0.44800002 24625.42342625  2321.93128490
0.44900002 24715.57500687  1668.30139203
0.45000002 24805.73978325  2684.97340139
0.45100002 24894.49727102  1856.63169446
0.45200002 24983.30586052  2037.13885641
0.45300002 25071.11165905  2561.01417735
0.45400002 25158.49664913  2232.18772098
0.45500002 25245.39607312  1726.78517324
0.45600002 25330.92622515  2083.72209004
0.45700002 25415.93206100  2095.28953841
0.45800002 25499.40646001  2106.76106157
0.45900002 25581.77876837  3000.74279175
0.46000002 25663.44934005  2484.47864836
0.46100002 25742.96613037  1962.38640113
0.46200002 25821.82725810  2510.65638330
0.46300002 25899.10308572  1982.83542622
0.46400002 25974.31261203  2174.05006867
0.46500002 26049.03732279  2731.24169274
0.46600002 26121.05014174  2561.69150881
0.46700002 26191.36788291  2574.08775753
0.46800002 26260.61523373  2771.15155388
0.46900002 26327.27690822  2598.50235400
0.47000002 26392.19005840  2051.06914760
0.47100002 26455.29829280  1873.03520791
0.47200002 26516.50585071  2822.01926892
0.47300002 26575.48754065  2645.32415518
0.47400002 26631.68872668  2656.51107640
0.47500002 26686.26132584  2095.93906387
0.47600002 26739.24278679  2869.78936811
0.47700002 26788.63543961  2112.81977727
