# SAXS profile: number of points = 501, q_min = 0, q_max = 0.5, delta_q = 0.001
#    q    intensity    error
0.00000000 1682732.95097188 302.89193117
0.00100000 1682651.03250741 706.71345044
0.00200000 1682405.21296344 832.79060679
0.00300000 1681995.72008841 1211.03696160
0.00400000 1681422.42344842 1387.17355205
0.00500000 1680685.82117662 1512.61729893
0.00600000 1679785.83090040 1940.15271368
0.00700000 1678723.01394915 2014.46770046
0.00800000 1677497.18090798 2264.62128984
0.00900000 1676109.56513583 3268.41379173
0.01000000 1674559.55616407 3868.23274177
0.01100000 1672848.42119669 3312.24001818
0.01200000 1670976.09435863 5213.44564298
0.01300000 1668943.68861739 3504.78190067
0.01400000 1666751.31106512 5625.28592422
0.01500000 1664400.27910039 4394.01693249
0.01600000 1661890.01835527 5085.38368350
0.01700000 1659222.86763741 5375.88233230
0.01800000 1656398.70281050 5664.88381852
0.01900000 1653418.23477147 6944.35689939
0.02000000 1650282.49576353 5718.22910649
0.02100000 1646993.68895270 7065.60324595
0.02200000 1643550.22385147 7371.32308887
0.02300000 1639955.40750321 6494.22370932
0.02400000 1636208.69066604 7976.51773071
0.02500000 1632312.75157640 7002.62202408
0.02600000 1628267.48755299 9232.27707669
0.02700000 1624074.97418864 6821.11520401
0.02800000 1619735.10264224 9159.60242550
0.02900000 1615250.53281581 11629.80437025
0.03000000 1610622.37212124 10485.15212446
0.03100000 1605851.15434854 8478.89448510
0.03200000 1600938.32617790 8717.10958753
0.03300000 1595887.45715180 10580.73432869
0.03400000 1590696.89211046 10021.39088269
0.03500000 1585369.81097088 11985.39632440
0.03600000 1579907.57931624 9645.33621747
0.03700000 1574311.74281773 12563.00828869
0.03800000 1568584.00809561 10093.83855923
0.03900000 1562726.33687928 15939.80937434
0.04000000 1556738.61067246 10531.33718921
0.04100000 1550624.87553141 10745.83088568
0.04200000 1544385.90207698 10957.41848358
0.04300000 1538022.64665254 12181.13992691
0.04400000 1531538.51629979 15506.82819770
0.04500000 1524934.98098892 13678.66741505
0.04600000 1518212.09127277 13914.41446335
0.04700000 1511373.84149750 10881.89216488
0.04800000 1504420.92491641 13268.99317514
0.04900000 1497356.98414477 17968.28464612
0.05000000 1490181.68685446 12539.87947881
0.05100000 1482899.45989076 12723.27795856
0.05200000 1475508.64428575 14076.35312246
0.05300000 1468015.34835640 14269.10985122
0.05400000 1460419.44735900 18072.69150387
0.05500000 1452723.59530134 17084.03027770
0.05600000 1444928.75515145 17295.79800626
0.05700000 1437040.27910712 12502.25101182
0.05800000 1429056.43152092 12647.15000949
0.05900000 1420980.72168939 12788.82709252
0.06000000 1412816.40165639 18098.17895074
0.06100000 1404564.81744642 19593.68011902
0.06200000 1396228.39707557 15833.23076294
0.06300000 1387809.81843578 15987.56985588
0.06400000 1379308.33368922 18827.55963536
0.06500000 1370730.00210422 17641.29595230
0.06600000 1362075.73629326 15057.74796925
0.06700000 1353346.94755531 19325.79531552
0.06800000 1344546.98447288 18090.88052290
0.06900000 1335678.06644072 18232.00646052
0.07000000 1326741.44722379 15542.77678207
0.07100000 1317739.87261163 18501.06867802
0.07200000 1308675.88525815 18629.00209936
0.07300000 1299552.37871431 15867.53528758
0.07400000 1290371.38642576 15968.34665536
0.07500000 1281134.47856235 23367.89398429
0.07600000 1271842.79291896 16158.76344157
0.07700000 1262501.83587877 16248.39938962
0.07800000 1253111.83007575 20789.12623589
0.07900000 1243674.80526732 17908.91803584
0.08000000 1234194.50913388 20993.64958520
0.08100000 1224672.51003907 18076.16709628
0.08200000 1215110.25922750 19666.56046845
0.08300000 1205511.10131839 16708.38464843
0.08400000 1195877.02087976 16772.17600510
0.08500000 1186209.78297532 15302.10691874
0.08600000 1176512.10245754 16888.83202373
0.08700000 1166787.41711609 16941.75409207
0.08800000 1157035.05246926 15446.41867589
0.08900000 1147260.46799895 21683.22386363
0.09000000 1137463.51855874 18631.65330922
0.09100000 1127647.04245879 20229.98889214
0.09200000 1117813.32403321 17152.84626325
0.09300000 1107966.52770101 17184.56165218
0.09400000 1098104.06769578 17212.78207009
0.09500000 1088231.45797285 25072.85397019
0.09600000 1078350.10594164 21965.99269060
0.09700000 1068464.20366762 18847.70943878
0.09800000 1058573.62872705 15719.81912571
0.09900000 1048681.02184719 18876.25928086
0.10000000 1038787.38210780 20458.91845274
0.10100000 1028894.97751510 18890.51267563
0.10200000 1019006.99474938 15743.65880940
0.10300000 1009124.44540746 15742.34208889
0.10400000 999250.46981275 15738.19563996
0.10500000 989387.67859088 22023.77076164
0.10600001 979533.15671394 20437.96027651
0.10700001 969694.98310976 18850.87135873
0.10800001 959870.91281312 20402.05721200
0.10900001 950065.54352557 17243.69042657
0.11000001 940278.39380533 17221.19959314
0.11100001 930512.41840820 21885.65311119
0.11200001 920769.12966179 21849.85247550
0.11300001 911050.11085450 21810.54068071
0.11400001 901357.88174929 23322.63628840
0.11500001 891694.14098402 18618.57454046
0.11600001 882059.46061700 15480.14426281
0.11700001 872457.17444074 21619.48980081
0.11800001 862886.02830450 24644.02612907
0.11900001 853349.30617656 15360.28823467
0.12000001 843848.06305849 16847.42737256
0.12100001 834386.79784148 21376.99076773
0.12200001 824963.14364612 21308.79900426
0.12300001 815581.13655735 18203.77182562
0.12400001 806239.57989529 22675.48925297
0.12500001 796941.32788378 15062.19180674
0.12600001 787689.24626530 15005.48084846
0.12700001 778482.67783641 19430.92855451
0.12800001 769322.94508908 17863.67962687
0.12900001 760212.69906724 19271.39282966
0.13000001 751152.37660573 17712.17387522
0.13100001 742142.24228245 17633.30050782
0.13200001 733185.17282326 19015.15835355
0.13300001 724281.56987874 21837.09036131
0.13400001 715431.78641493 15936.24379372
0.13500001 706638.59429769 17298.51360400
0.13600001 697901.94404700 18644.45131432
0.13700001 689223.38179917 19973.69454636
0.13800001 680601.66024892 22704.87245657
0.13900001 672041.48694751 16935.44626972
0.14000001 663540.62024092 18244.05021392
0.14100001 655102.67476701 15349.05639370
0.14200001 646726.18849275 15259.50513721
0.14300001 638414.02539738 16547.69231881
0.14400001 630162.76348049 17817.85297788
0.14500001 621978.87607982 19069.87324017
0.14600001 613859.82445542 18949.85367489
0.14700001 605808.03523441 14793.83291835
0.14800001 597820.73843535 17369.68237472
0.14900001 589901.95804495 15927.35361868
0.15000001 582050.55353070 19775.16848926
0.15100001 574267.95728570 13093.31004392
0.15200001 566555.46619945 13002.44856282
0.15300001 558912.50741071 14201.96748348
0.15400001 551337.75990787 14100.46387506
0.15500001 543835.15260046 16543.46612284
0.15600001 536401.58049701 17685.16094364
0.15700001 529042.27785102 13792.13283452
0.15800001 521751.43912918 17421.28137479
0.15900001 514534.57804797 18523.24568403
0.16000001 507387.89604465 15929.44374823
0.16100001 500315.70749408 14589.20671920
0.16200001 493315.72561025 13267.72706660
0.16300001 486388.37859369 16751.21654956
0.16400001 479534.73090163 11868.48515012
0.16500001 472753.23187087 11771.55602934
0.16600001 466045.99658628 17511.67914851
0.16700001 459411.05964282 17365.73887442
0.16800001 452849.86263044 11479.74455971
0.16900001 446363.62608928 12520.50030300
0.17000001 439949.39133996 14670.11314695
0.17100001 433609.19525108 17899.38842520
0.17200001 427342.28126828 12198.48599485
0.17300001 421148.81787737 13190.38159883
0.17400001 415029.30224926 14162.87560811
0.17500001 408982.06589044 11876.83975437
0.17600001 403006.83034659 12839.79822125
0.17700001 397107.43726495 11663.04598332
0.17800001 391278.66885679 13657.58258152
0.17900001 385522.20534828 10409.10003606
0.18000001 379839.61419861 11343.91061387
0.18100001 374229.12196991 13281.39216608
0.18200001 368688.49078228 11132.54950505
0.18300001 363220.22978169 11027.36669710
0.18400001 357822.92765288 10922.54538259
0.18500001 352497.03776190 10818.13459998
0.18600001 347241.88123553 10714.14875170
0.18700001 342055.93538269 10610.57561687
0.18800001 336938.82024223 12417.88080672
0.18900001 331894.35360457 10404.88847711
0.19000001 326914.76888158 9366.10857099
0.19100001 322006.56865423 12983.30546160
0.19200001 317164.56078882 11936.48880930
0.19300001 312392.31248081 10908.74006730
0.19400001 307685.48258181 10799.76094895
0.19500001 303045.92474776 11582.41579119
0.19600001 298471.45063643 11465.78131803
0.19700001 293964.59506997 10476.89866341
0.19800001 289521.54240426 11234.88398394
0.19900001 285143.57295493 9409.73835222
0.20000001 280827.95023951 9313.65940987
0.20100001 276577.71915281 9218.33581504
0.20200001 272388.90011972 10782.51512086
0.20300001 268263.10684647 8208.85145749
0.20400001 264199.02674718 9748.94454776
0.20500001 260195.45117620 11256.05574992
0.20600001 256252.31634697 13526.27915773
0.20700001 252369.23838865 9448.70473190
0.20800001 248544.92330587 9350.26045676
0.20900001 244781.40362229 10023.79895217
0.21000001 241073.11557938 8392.96091565
0.21100001 237423.60909254 9060.08535127
0.21200001 233829.47726906 7470.85215193
0.21300001 230291.51804240 10349.30131009
0.21400001 226809.25733500 8046.05878435
0.21500001 223382.65520553 9408.87788209
0.21600001 220008.39997492 7877.40113353
0.21700001 216688.17475086 9919.98510911
0.21800001 213420.67598554 7010.86953760
0.21900001 210204.13558075 11792.45256365
0.22000001 207038.63242962 7549.66408851
0.22100001 203924.96676113 8827.91222850
0.22200001 200861.02983981 10750.08282534
0.22300001 197845.70987240 8641.90101586
0.22400001 194878.15784840 7234.85195223
0.22500001 191960.81818046 8459.71365725
0.22600001 189088.64377209 7082.31548739
0.22700001 186263.95320849 7644.27300117
0.22800001 183484.23356863 7563.22046536
0.22900001 180749.49247965 6235.85778545
0.23000001 178059.58794011 6786.74151529
0.23100001 175414.34137308 7325.30324217
0.23200001 172810.49928571 7247.67268281
0.23300001 170250.35668957 7170.94536291
0.23400001 167730.68524164 7686.25901472
0.23500001 165252.17449136 8189.89815514
0.23600001 162814.27661030 7524.46214943
0.23700001 160416.25615990 9162.97698524
0.23800001 158056.98721638 7366.24623763
0.23900001 155736.31293893 6167.15828409
0.24000001 153452.77533369 7766.24532698
0.24100001 151207.60062219 6586.60339466
0.24200001 148998.81782904 8146.51075015
0.24300001 146825.16962455 6448.56175495
0.24400001 144686.88730776 7444.14070412
0.24500001 142582.75486680 6313.56468416
0.24600001 140512.86229754 7809.00269159
0.24700001 138477.08415693 6181.61732919
0.24800001 136473.68614580 7136.20938615
0.24900001 134501.37542651 7565.70272566
0.25000001 132561.81609232 5490.04787319
0.25100001 130652.70589943 5926.40701997
0.25200001 128775.80079467 6353.15443277
0.25300001 126927.06485211 5319.51353962
0.25400001 125108.76073418 5263.95135693
0.25500001 123317.65164593 5208.93785197
0.25600001 121556.36594638 6091.79756762
0.25700001 119821.70041156 5100.81002786
0.25800001 118114.44427626 5965.37029042
0.25900001 116434.88847606 6811.44129813
0.26000001 114780.47234163 5841.75241623
0.26100001 113151.43294299 6225.59213509
0.26200001 111548.78608067 5280.71978293
0.26300001 109969.52839738 5661.23158977
0.26400001 108415.32931438 4740.46049858
0.26500001 106884.88704671 7250.00223144
0.26600001 105377.35622559 5064.43597985
0.26700001 103893.02946575 4176.49998216
0.26800001 102431.37625845 5786.34871865
0.26900001 100990.90183199 4499.14488952
0.27000001 99572.63147882  5261.91595950
0.27100001 98175.27152475  4406.10639454
0.27200001 96799.32939351  3963.93272625
0.27300001 95443.54990775  4315.00309553
0.27400001 94106.31924495  4658.26302308
0.27500001 92790.83715175  5762.31125983
0.27600001 91492.27182163  4561.80488892
0.27700001 90214.72610994  3761.95425683
0.27800001 88954.36866711  5211.83670687
0.27900001 87712.77682056  5157.51152114
0.28000001 86488.35463842  5468.22648082
0.28100001 85281.89461646  3968.16674431
0.28200001 84092.96261884  6068.56893461
0.28300001 82920.86308122  4592.15761479
0.28400001 81764.55824096  3844.97853327
0.28500001 80625.31519706  3458.82618566
0.28600001 79501.65460646  3422.54639280
0.28700001 78394.49052799  4402.63479644
0.28800001 77301.27192896  6031.81853412
0.28900001 76225.06908957  4310.52786105
0.29000001 75162.77924915  3937.02656343
0.29100001 74115.87321819  3895.53048074
0.29200001 73082.93012605  3854.39391730
0.29300001 72064.67905290  3495.85774634
0.29400001 71059.64090647  4087.70603664
0.29500001 70069.65783282  3422.20225055
0.29600001 69092.04269960  4309.27090716
0.29700001 68128.33866006  3654.40425872
0.29800001 67178.07389380  4218.11145947
0.29900001 66241.16189524  4173.19339696
0.30000001 65315.94458304  4423.52255629
0.30100001 64404.52292859  5251.54504821
0.30200001 63504.63397501  2886.28575080
0.30300001 62617.86687900  2855.37486486
0.30400001 61743.00923563  4802.06277064
0.30500001 60880.54913927  2794.41733779
0.30600001 60028.80862517  3593.62479848
0.30700001 59189.66986755  3008.01916508
0.30800001 58361.97680731  2975.58552840
0.30900001 57545.79218982  4548.99508797
0.31000001 56741.10634139  3176.36728338
0.31100001 55946.92509143  2880.14784007
0.31200001 55164.92417502  2848.99264391
0.31300001 54392.96968453  3842.86349016
0.31400001 53633.34072000  4054.68075041
0.31500001 52882.86021360  2506.64769281
0.31600002 52144.59822289  3223.31849176
0.31700002 51416.11937270  2697.80391122
0.31800002 50697.95500207  3153.66644023
0.31900002 49990.95760223  3359.39250993
0.32000002 49294.37292868  2610.87658579
0.32100002 48607.46313336  2582.51463856
0.32200002 47931.87953674  3018.98957557
0.32300002 47264.72742498  2986.18562011
0.32400002 46609.01583079  2499.40859228
0.32500002 45962.68081556  2472.33271814
0.32600002 45326.53568739  2667.92001689
0.32700002 44700.37190781  3298.88760301
0.32800002 44084.91771865  4351.18158487
0.32900002 43477.30601552  3443.40279949
0.33000002 42880.74216340  2980.64052892
0.33100002 42292.82249814  3369.89225623
0.33200002 41716.00092399  2083.71434483
0.33300002 41147.89551499  2473.81159551
0.33400002 40589.87128848  3263.42580614
0.33500002 40041.09509967  3027.10693289
0.33600002 39501.33443566  1996.79255028
0.33700002 38970.97663635  2370.99433084
0.33800002 38450.82178208  2150.74681823
0.33900002 37939.07707090  2902.33953337
0.34000002 37436.68685665  2297.86394808
0.34100002 36943.82670347  1895.21839964
0.34200002 36460.80312196  2063.49925041
0.34300002 35985.96805278  2599.62645525
0.34400002 35521.19373133  2205.86623518
0.34500002 35064.93964326  1819.87045367
0.34600002 34618.59988705  1982.08803041
0.34700002 34179.85361531  2141.02613186
0.34800002 33751.07047747  1943.55548549
0.34900002 33330.74827445  2799.78298766
0.35000002 32919.73950097  2253.19167686
0.35100002 32518.23465695  2403.74801969
0.35200002 32123.92184883  2041.15409095
0.35300002 31739.73726101  2022.45615406
0.35400002 31363.56190418  1837.12072555
0.35500002 30996.55662107  1986.25944236
0.35600002 30637.80643351  2460.98191833
0.35700002 30287.59093786  2439.66556560
0.35800002 29946.40137716  1773.87516960
0.35900002 29614.03480507  2078.90534178
0.36000002 29289.90985216  2537.67790979
0.36100002 28973.64178861  2517.23011783
0.36200002 28667.38247347  1717.03295458
0.36300002 28367.84249122  2013.54955540
0.36400002 28077.32812637  2920.74419669
0.36500002 27794.20251113  2136.26250619
0.36600002 27520.27378224  2120.98760086
0.36700002 27253.81498357  1654.85172419
0.36800002 26996.32539159  1793.09601745
0.36900002 26746.55543630  1632.87728673
0.37000002 26504.05404420  1622.44574517
0.37100002 26269.58573212  1612.42724862
0.37200002 26043.56252791  1602.85113171
0.37300002 25825.01440185  1448.78337657
0.37400002 25614.07645830  1728.95024284
0.37500002 25410.90401779  2149.76258174
0.37600002 25215.62794436  1568.53821058
0.37700002 25027.57186695  1702.87607050
0.37800002 24846.91777966  1553.80207696
0.37900002 24674.33737931  1687.72475670
0.38000002 24508.40064660  1960.91722863
0.38100002 24349.00700525  1534.71798425
0.38200002 24197.93723467  1668.20587199
0.38300002 24053.25563018  1524.01434893
0.38400002 23915.78182526  2071.70469876
0.38500002 23784.73449611  1927.99066959
0.38600002 23661.46065388  1648.25742723
0.38700002 23543.95273858  1507.28392573
0.38800002 23433.13510895  1640.78819806
0.38900002 23328.86359427  1501.21244341
0.39000002 23231.71468641  1362.54013091
0.39100002 23139.99911623  1360.63201250
0.39200002 23055.40238474  1359.11603497
0.39300002 22976.16937859  1493.68084207
0.39400002 22904.33867622  1628.49855703
0.39500002 22837.14934792  1627.83208264
0.39600002 22776.11514172  2170.10835352
0.39700002 22720.24571370  1898.95822672
0.39800002 22671.30129357  1492.56519138
0.39900002 22626.75278643  1629.12627781
0.40000002 22588.14152417  1766.27981017
0.40100002 22554.47259121  1904.04866636
0.40200002 22526.57415619  1361.73147226
0.40300002 22503.51187212  1636.45546088
0.40400002 22485.52072482  1912.39362826
0.40500002 22471.89527043  1642.24618417
0.40600002 22464.06402873  1371.43117393
0.40700002 22460.32608682  1512.02922381
0.40800002 22460.97186277  1653.57682689
0.40900002 22465.87010562  1934.31150774
0.41000002 22475.73142335  1662.75468948
0.41100002 22489.49251079  1945.79098423
0.41200002 22506.47010980  1951.98624511
0.41300002 22528.85208641  2238.46684937
0.41400002 22554.29148719  1544.40518276
0.41500002 22583.40551378  1550.12502792
0.41600002 22615.28389505  1697.50328960
0.41700002 22652.04632991  1562.31170940
0.41800002 22692.60306624  1426.23017029
0.41900002 22734.49197865  1432.27306252
0.42000002 22780.20927990  2013.99839787
0.42100002 22829.59207414  2023.15854548
0.42200002 22881.50233032  1742.19766999
0.42300002 22935.82383605  1750.46215811
0.42400002 22992.67147413  1758.93945112
0.42500002 23052.80033056  1620.38141202
0.42600002 23113.92966271  2072.62617107
0.42700002 23178.57386917  1636.87096421
0.42800002 23244.62569393  1794.95008114
0.42900002 23313.58663161  2255.58961349
0.43000002 23384.32571492  1965.33574784
0.43100002 23455.38350649  1671.89981557
0.43200002 23529.45449405  1528.23814181
0.43300002 23604.37460299  1536.64485947
0.43400002 23681.31676809  1854.24719081
0.43500002 23758.90809737  1864.59919584
0.43600002 23838.50328577  1718.87536088
0.43700002 23918.50246964  2514.31309876
0.43800002 23998.99916251  1580.33416974
0.43900002 24081.51104064  2384.06970600
0.44000002 24163.97173037  1918.13616686
0.44100002 24247.49941451  1607.60928737
0.44200002 24331.35708801  1778.50063063
0.44300002 24415.82662898  2276.53178277
0.44400002 24500.40780411  1962.48275811
0.44500002 24584.70625492  1973.66031168
0.44600002 24669.10215222  2315.68872877
0.44700002 24754.48680125  2661.60254701
0.44800002 24838.65834417  1840.17209064
0.44900002 24923.28059414  1850.55367182
0.45000002 25007.96853012  2537.68372686
0.45100002 25091.22694065  2041.42232064
0.45200002 25174.49341921  2052.72829069
0.45300002 25256.75778977  1719.98528700
0.45400002 25338.70260173  1902.30318798
0.45500002 25420.11522747  1738.73596396
0.45600002 25500.13560814  1922.83781666
0.45700002 25579.62405293  1933.05228129
0.45800002 25657.63395105  1943.18099938
0.45900002 25734.47241180  1953.24654863
0.46000002 25810.69265448  1784.80948165
0.46100002 25884.68735438  1793.80891868
0.46200002 25958.05081859  1802.78671479
0.46300002 26029.86247138  1992.84636526
0.46400002 26099.59217211  1820.44664028
0.46500002 26168.89716048  1829.20599821
0.46600002 26235.42921672  2205.35028448
0.46700002 26300.28497797  2215.53611155
0.46800002 26364.14859954  2782.07691283
0.46900002 26425.26889474  2421.87600899
0.47000002 26484.80671100  2432.49718766
0.47100002 26542.47351486  2255.04865670
0.47200002 26598.29673949  2453.29401605
0.47300002 26651.92410475  2463.43746176
0.47400002 26702.72317717  2853.85367483
0.47500002 26751.91465356  2101.09547648
0.47600002 26799.52654778  2301.00745846
0.47700002 26843.56619253  2309.62054468
