# SAXS profile: number of points = 501, q_min = 0, q_max = 0.5, delta_q = 0.001
#    q    intensity    error
0.00000000 1700912.83420644 255.13692513
0.00100000 1700830.40781756 612.29896136
0.00200000 1700583.06926777 994.84112702
0.00300000 1700171.04947695 1224.12319923
0.00400000 1699594.19975618 1402.16526808
0.00500000 1698853.04828549 1834.76136477
0.00600000 1697947.48748641 1961.12942789
0.00700000 1696878.07680155 2647.12990983
0.00800000 1695644.65943727 2746.94446426
0.00900000 1694248.46004537 2795.51007858
0.01000000 1692688.83670891 4468.69872187
0.01100000 1690967.09376471 3652.48908156
0.01200000 1689083.16029368 3623.08353768
0.01300000 1687038.17218241 4605.61441319
0.01400000 1684832.16648388 5307.22155970
0.01500000 1682466.53458963 4037.91986282
0.01600000 1679940.66130149 4283.84887782
0.01700000 1677256.90579263 5887.17200342
0.01800000 1674415.16971271 5726.50013810
0.01900000 1671416.11866999 6518.52315695
0.02000000 1668260.85952909 6306.02633428
0.02100000 1664951.51936470 6593.20831561
0.02200000 1661486.58446660 8024.98056757
0.02300000 1657869.23904948 8952.49429837
0.02400000 1654099.13453730 9304.30805603
0.02500000 1650178.77656458 7722.83702703
0.02600000 1646108.13095659 8000.08588236
0.02700000 1641889.33385984 7585.52906986
0.02800000 1637522.15121558 7835.54385290
0.02900000 1633009.46069881 9553.10578371
0.03000000 1628352.10119973 8329.02138048
0.03100000 1623550.73978663 7793.04390956
0.03200000 1618606.94168187 9614.52567642
0.03300000 1613524.23052301 12343.46093254
0.03400000 1608300.71744614 11821.01081866
0.03500000 1602939.86340472 15580.57619177
0.03600000 1597442.90021807 9752.38935653
0.03700000 1591811.53664963 12702.65664993
0.03800000 1586047.30943742 9278.37718961
0.03900000 1580152.24776095 11377.09671075
0.04000000 1574126.25233728 10648.96459052
0.04100000 1567973.47625482 11853.88003011
0.04200000 1561694.44548793 15109.39446106
0.04300000 1555290.40182186 16423.86740560
0.04400000 1548764.53255118 12544.99329628
0.04500000 1542118.34575457 14896.86391217
0.04600000 1535352.00640948 11906.65536321
0.04700000 1528469.56516697 16507.47207153
0.04800000 1521471.53934962 17892.50613526
0.04900000 1514361.79833851 12493.48541783
0.05000000 1507139.68288655 13835.54293317
0.05100000 1499809.99263848 18717.62958007
0.05200000 1492370.85715161 13050.78375397
0.05300000 1484828.51920341 14432.53387947
0.05400000 1477182.66101545 14624.10902603
0.05500000 1469436.12750970 14811.91685626
0.05600000 1461589.97927928 12496.59490598
0.05700000 1453649.22013578 15176.09856662
0.05800000 1445612.47138703 15352.40516297
0.05900000 1437483.10589876 16818.55312454
0.06000000 1429264.40666231 14385.54692513
0.06100000 1420957.69015135 14536.39784955
0.06200000 1412565.50744512 14683.61913626
0.06300000 1404090.29331492 16175.12093526
0.06400000 1395531.69453329 17688.36505544
0.06500000 1386895.50658784 15103.29277324
0.06600000 1378182.43863568 20776.10123452
0.06700000 1369394.65913359 16761.39141221
0.06800000 1360534.68215782 14081.53461948
0.06900000 1351605.32321965 17030.22786990
0.07000000 1342607.55943153 15728.64829529
0.07100000 1333544.11687121 17282.73256414
0.07200000 1324417.65352234 15952.61138401
0.07300000 1315231.13803258 23358.50610594
0.07400000 1305986.63616040 16161.58537988
0.07500000 1296685.44314550 22173.32211711
0.07600000 1287328.81965360 17842.37827686
0.07700000 1277922.69884291 17942.03553303
0.07800000 1268466.74478663 18037.59795676
0.07900000 1258963.11796575 18129.06974903
0.08000000 1249416.01056457 16698.44576454
0.08100000 1239826.37464036 24399.78419772
0.08200000 1230196.14482264 19910.72553827
0.08300000 1220528.42192543 16916.52472181
0.08400000 1210825.30673547 23157.03507828
0.08500000 1201088.54274174 15494.04292874
0.08600000 1191320.75736726 18656.08393630
0.08700000 1181525.77736239 20274.98329161
0.08800000 1171702.58108773 15642.23019214
0.08900000 1161856.56925512 18822.07730600
0.09000000 1151987.94842696 18869.56348164
0.09100000 1142099.27978607 17337.06788167
0.09200000 1132192.80078375 17373.49934435
0.09300000 1122273.00575082 17406.45513716
0.09400000 1112337.19119612 17435.88629144
0.09500000 1102390.86165647 20636.75790019
0.09600000 1092435.28161000 20663.41432299
0.09700000 1082475.19696107 22277.34060078
0.09800000 1072509.58811625 17519.44494560
0.09900000 1062541.96704971 20719.56933175
0.10000000 1052572.82168591 20730.42269800
0.10100000 1042604.62680108 19142.22184836
0.10200000 1032640.57246335 19145.15711399
0.10300000 1022681.52337573 15953.83251514
0.10400000 1012731.06765478 17545.56657255
0.10500000 1002791.23667578 17538.81955465
0.10600001 992859.54033628 15935.39637221
0.10700001 982943.92798484 15923.69238269
0.10800001 973042.27520984 20682.01453292
0.10900001 963158.85781327 20659.75847246
0.11000001 953293.69971609 19046.80901685
0.11100001 943449.49119665 15849.95219821
0.11200001 933627.65879573 17407.48851774
0.11300001 923830.01003540 15797.49391536
0.11400001 914058.87270800 18921.01955594
0.11500001 904316.16964887 17308.61230211
0.11600001 894602.22127472 26690.45852862
0.11700001 884920.83166891 18795.71934983
0.11800001 875270.24513942 18748.28953390
0.11900001 865653.93311696 18698.12583604
0.12000001 856072.90486602 15537.72395522
0.12100001 846531.97264233 30983.07165826
0.12200001 837028.42717936 18531.81025081
0.12300001 827566.75990708 21549.83944329
0.12400001 818145.09073052 21476.30964359
0.12500001 808766.70902278 15285.69152080
0.12600001 799434.67700524 19798.00070898
0.12700001 790147.85817335 18205.00751025
0.12800001 780907.99723722 16621.62750456
0.12900001 771717.48643391 19563.03920315
0.13000001 762577.00606432 23975.42220074
0.13100001 753486.49459888 19394.74328520
0.13200001 744449.55604917 16336.94627763
0.13300001 735465.70017745 20696.00577866
0.13400001 726535.76128186 20597.28980341
0.13500001 717662.59900402 26352.57187790
0.13600001 708845.72586314 20393.49249465
0.13700001 700087.17911761 20288.52740750
0.13800001 691385.34917495 15856.92373107
0.13900001 682745.56381686 15771.42326792
0.14000001 674164.85749959 17110.30489027
0.14100001 665647.17981126 14178.28559867
0.14200001 657191.18364862 22554.80248662
0.14300001 648799.69085426 19619.70357685
0.14400001 640468.92436964 15323.21973834
0.14500001 632205.96806179 16614.37362440
0.14600001 624007.63318528 15135.30585691
0.14700001 615877.09009576 17774.21365869
0.14800001 607811.11500876 17659.95277975
0.14900001 599813.64069046 16194.96906273
0.15000001 591883.64720357 14746.78176587
0.15100001 584023.07593112 21305.16281525
0.15200001 576232.29730704 14546.98503194
0.15300001 568511.64341104 17072.40545726
0.15400001 560858.92802569 14343.96776116
0.15500001 553278.82416356 19420.08764463
0.15600001 545768.05526242 16708.68980042
0.15700001 538331.74973721 15310.15568512
0.15800001 530963.92798571 17728.88639222
0.15900001 523670.60406137 15081.71410883
0.16000001 516447.51581121 21202.75376245
0.16100001 509299.25586106 14851.16700195
0.16200001 502223.42724202 14735.23605087
0.16300001 495220.40983973 13400.66492288
0.16400001 488291.36405675 13293.73301404
0.16500001 481434.96869316 11987.73128642
0.16600001 474653.21989174 15457.08283555
0.16700001 467943.60923955 17688.26926440
0.16800001 461308.14457625 15202.41062231
0.16900001 454748.27176047 13915.29777292
0.17000001 448260.41543830 13797.45623870
0.17100001 441846.98237110 17099.47902522
0.17200001 435506.91621358 12431.54551037
0.17300001 429241.13005785 13443.83282829
0.17400001 423049.24093509 16657.56464849
0.17500001 416930.06347546 14309.04045426
0.17600001 410883.08987480 11999.84120654
0.17700001 404912.42676203 10811.16230516
0.17800001 399012.85000785 16070.24329310
0.17900001 393185.59726784 13800.81511596
0.18000001 387432.92454262 11570.68483801
0.18100001 381752.73230917 11464.03509277
0.18200001 376142.44613568 11357.62169758
0.18300001 370605.15092447 10228.70264871
0.18400001 365139.08577217 11145.87111973
0.18500001 359744.87285671 11040.57066955
0.18600001 354421.75211621 12923.98980149
0.18700001 349168.19621294 13785.16103776
0.18800001 343983.64627082 12677.51788227
0.18900001 338872.42885204 11589.43761431
0.19000001 333826.42537029 9564.12753875
0.19100001 328852.24841802 9470.94520194
0.19200001 323944.65020515 13129.47729320
0.19300001 319107.19918921 13000.42790927
0.19400001 314335.47971322 12872.03850251
0.19500001 309631.74484380 9103.17372858
0.19600001 304993.14658102 12617.56707032
0.19700001 300422.80613370 12491.58086936
0.19800001 295916.57683703 11483.04330684
0.19900001 291475.85974916 9618.70382630
0.20000001 287097.93397942 8656.00311857
0.20100001 282785.90309268 8568.41326867
0.20200001 278535.56752183 10177.69011828
0.20300001 274348.76827561 16790.14541205
0.20400001 270224.11482495 9140.33111598
0.20500001 266160.35950970 13158.96879614
0.20600001 262157.54950116 10581.98998580
0.20700001 258215.12148588 8861.94338829
0.20800001 254331.95678348 10365.29938868
0.20900001 250510.07242264 9469.28118520
0.21000001 246743.81766560 17961.71705606
0.21100001 243036.80263710 10819.99896490
0.21200001 239385.56677839 8413.20614216
0.21300001 235790.98913751 7568.89110914
0.21400001 232252.58682303 9737.19016290
0.21500001 228770.13566212 8153.36802047
0.21600001 225340.65763908 9535.29037881
0.21700001 221965.59757996 9435.75799924
0.21800001 218643.69998137 8618.93506077
0.21900001 215373.03671543 8528.77265718
0.22000001 212154.03029700 7736.19708057
0.22100001 208987.35531475 9742.99096546
0.22200001 205870.86821977 6886.38086757
0.22300001 202803.34323035 8177.03118570
0.22400001 199783.92910018 10788.33268155
0.22500001 196815.31701188 6672.03956221
0.22600001 193892.26015586 6602.03177051
0.22700001 191017.18916356 6532.78817832
0.22800001 188187.37428258 9049.93125722
0.22900001 185403.22954403 9594.61758264
0.23000001 182664.10215224 8228.10487057
0.23100001 179970.36714419 7515.56288737
0.23200001 177318.39712262 9915.64523604
0.23300001 174710.46103716 6745.57121967
0.23400001 172143.27880020 6674.85595117
0.23500001 169618.02201708 6604.92608973
0.23600001 167133.78637652 7724.08830272
0.23700001 164689.54026895 5879.41686569
0.23800001 162284.61447016 6399.69407433
0.23900001 159918.84816347 8059.91032867
0.24000001 157590.60227157 6836.28064990
0.24100001 155301.12566768 8456.14669259
0.24200001 153048.37093489 6694.33606135
0.24300001 150831.40401667 6624.51557777
0.24400001 148650.01511273 7101.75480795
0.24500001 146503.19999702 6487.16200274
0.24600001 144391.10391243 6419.62878363
0.24700001 142313.73407291 6882.29250534
0.24800001 140268.92501226 5762.94905675
0.24900001 138255.46544579 6221.49623938
0.25000001 136275.50546990 6670.00493077
0.25100001 134326.13817611 7108.53956858
0.25200001 132409.65448534 7034.92527563
0.25300001 130521.56423129 5470.15901573
0.25400001 128664.39123995 5413.55451754
0.25500001 126834.56199316 5357.49215206
0.25600001 125035.20447058 5302.11809643
0.25700001 123262.97192413 7155.41585874
0.25800001 121518.20467873 6137.27721768
0.25900001 119801.71293958 5139.49372828
0.26000001 118110.68050894 4624.03336071
0.26100001 116445.61177320 6864.46913883
0.26200001 114806.93662958 5887.87402364
0.26300001 113192.33459439 5378.89999444
0.26400001 111603.07203690 4879.84455572
0.26500001 110037.99528824 5707.67108568
0.26600001 108496.04327245 4779.79341255
0.26700001 106977.71313124 6020.70597993
0.26800001 105482.53942722 5107.46480076
0.26900001 104008.78424984 4633.59155760
0.27000001 102557.61803227 4585.86410733
0.27100001 101127.75993475 4538.61408065
0.27200001 99719.56654116  5308.57137604
0.27300001 98332.06824219  4445.59301561
0.27400001 96963.22627038  5199.65325482
0.27500001 95616.67252032  4750.23651562
0.27600001 94287.47480238  5484.70266882
0.27700001 92979.32219279  3877.23791894
0.27800001 91688.86150447  4220.89693912
0.27900001 90417.38788983  4936.78961243
0.28000001 89163.47782005  5261.53707518
0.28100001 87927.72789835  4091.27737275
0.28200001 86710.04413302  4417.00985719
0.28300001 85509.37776172  5464.04949759
0.28400001 84324.82255594  3965.37496838
0.28500001 83157.73807665  3924.21384558
0.28600001 82006.46641220  3883.41640076
0.28700001 80872.05203638  5939.24378267
0.28800001 79751.69576696  4840.13064520
0.28900001 78648.89487513  4105.47250681
0.29000001 77560.19973794  3724.05316669
0.29100001 76487.05878592  3685.14666674
0.29200001 75428.30947970  5635.62640954
0.29300001 74384.50412369  3608.39246585
0.29400001 73354.24002466  3895.11032969
0.29500001 72339.18303967  3533.04586690
0.29600001 71336.80996061  3178.05503419
0.29700001 70348.66398807  3144.58542913
0.29800001 69374.19649094  3422.57614590
0.29900001 68413.33498538  4310.04030811
0.30000001 67464.50018604  3350.62456036
0.30100001 66529.68127055  4520.69205634
0.30200001 65606.51275074  3279.99776025
0.30300001 64696.90389430  4130.25054014
0.30400001 63799.38416406  4670.11514190
0.30500001 62914.49429301  3176.55296724
0.30600001 62040.49799628  3142.66157478
0.30700001 61179.44930000  3957.08696807
0.30800001 60330.01686479  3635.18533829
0.30900001 59492.39093949  3872.95483352
0.31000001 58666.52456111  3557.83155045
0.31100001 57851.31361192  3248.92992627
0.31200001 57048.41892421  4017.63509296
0.31300001 56255.79180574  2649.64791950
0.31400001 55475.83748108  3407.60347861
0.31500001 54705.09765683  2593.02175171
0.31600002 53946.95855780  3591.24920123
0.31700002 53198.74311151  3806.37024985
0.31800002 52461.03877078  2761.28690644
0.31900002 51734.65262519  3724.89516538
0.32000002 51019.09463744  2702.22647542
0.32100002 50313.16908856  3159.16403666
0.32200002 49618.80618765  2644.43440099
0.32300002 48933.17246602  3329.41321224
0.32400002 48259.14817531  2823.16030194
0.32500002 47594.57071522  2327.37461818
0.32600002 46940.34855906  3914.12114994
0.32700002 46296.39719003  2505.56113457
0.32800002 45663.24776051  3154.87393717
0.32900002 45038.20563740  2898.20867001
0.33000002 44424.26731065  2426.23147406
0.33100002 43819.15866337  2836.85246620
0.33200002 43225.42962844  2159.11031218
0.33300002 42640.49479181  2777.17555730
0.33400002 42065.76027182  2325.18500914
0.33500002 41500.49343602  2300.78746505
0.33600002 40944.47364547  2483.69188895
0.33700002 40397.87858111  2662.62430337
0.33800002 39861.64371548  2635.05408260
0.33900002 39334.07060871  2407.24523525
0.34000002 38815.98568173  2382.52531398
0.34100002 38307.59927509  1965.17993588
0.34200002 37809.02410454  2334.32925877
0.34300002 37318.88483132  2118.22000334
0.34400002 36838.87709864  2668.97677220
0.34500002 36367.70539344  1887.48399931
0.34600002 35906.45850506  2429.61062981
0.34700002 35452.81472481  2405.82812117
0.34800002 35009.47421914  2016.02066839
0.34900002 34574.61505883  2178.20085187
0.35000002 34149.29284096  1977.75638855
0.35100002 33733.44594486  1959.23863327
0.35200002 33324.98676428  2293.92557257
0.35300002 32926.82213379  2447.78007336
0.35400002 32536.64628320  2079.09179597
0.35500002 32155.82214353  2232.25727893
0.35600002 31783.47937790  2553.00810195
0.35700002 31419.57822512  1687.23143060
0.35800002 31065.04459848  2174.70855012
0.35900002 30719.34032621  1824.72890181
0.36000002 30382.02253740  2138.74257782
0.36100002 30052.63915911  1795.04422200
0.36200002 29733.37463266  2104.67702306
0.36300002 29420.92164775  1927.65887767
0.36400002 29117.56197862  1753.60525323
0.36500002 28821.83479383  2531.71008821
0.36600002 28535.22493727  1727.95062793
0.36700002 28256.24508226  1715.71928267
0.36800002 27986.33381607  2633.37420516
0.36900002 27724.18478049  2308.03849231
0.37000002 27469.47547590  2140.14693570
0.37100002 27222.87703686  2278.55491592
0.37200002 26984.89635047  1811.76602679
0.37300002 26754.32918697  1951.19332003
0.37400002 26531.58528770  1641.64191744
0.37500002 26316.60864288  2077.95951688
0.37600002 26109.63662868  1919.45002768
0.37700002 25910.04062936  1616.00931061
0.37800002 25717.69499943  2046.87144197
0.37900002 25533.84222782  2037.60070631
0.38000002 25356.47529394  1594.03489487
0.38100002 25185.80268910  1731.77587494
0.38200002 25023.56091189  1437.60364249
0.38300002 24867.83246754  1575.62593979
0.38400002 24719.38560310  1570.29904483
0.38500002 24577.36716219  1707.63555133
0.38600002 24443.24820971  1560.82368837
0.38700002 24314.94688146  1556.64297310
0.38800002 24193.39106985  1835.18976655
0.38900002 24078.46800980  1549.44948984
0.39000002 23970.82741430  2108.83364168
0.39100002 23868.53297779  2806.93961117
0.39200002 23773.61488528  1541.60013027
0.39300002 23684.04477420  1539.69982372
0.39400002 23601.95446142  1538.25745490
0.39500002 23524.48779991  1676.82556982
0.39600002 23453.31463444  2653.62541004
0.39700002 23387.41438430  1396.22870489
0.39800002 23328.56061667  2233.94307049
0.39900002 23274.08640577  1675.73430061
0.40000002 23225.68470953  1536.72750161
0.40100002 23182.17540432  1677.46229173
0.40200002 23144.54335995  2098.63156860
0.40300002 23111.85227301  1680.69397692
0.40400002 23084.30911653  1402.37184527
0.40500002 23061.29333271  1544.87611356
0.40600002 23043.99615230  1688.20323811
0.40700002 23030.93544110  1691.39197893
0.40800002 23022.21163141  1694.89530061
0.40900002 23017.89962526  1698.72107283
0.41000002 23018.64230549  2128.64904806
0.41100002 23023.35327030  2134.26494928
0.41200002 23031.26927532  1854.82335897
0.41300002 23044.68541330  1860.39754157
0.41400002 23061.17226302  1579.11384553
0.41500002 23081.45261967  1584.31098288
0.41600002 23104.47574516  1734.22203161
0.41700002 23132.59657818  1885.53803643
0.41800002 23164.54078443  1892.65889447
0.41900002 23197.79673942  1753.75351660
0.42000002 23234.95298490  1907.47355568
0.42100002 23276.06535792  2210.06251046
0.42200002 23319.47449485  1775.54487217
0.42300002 23365.50896645  1931.86037289
0.42400002 23414.08618080  1940.44248418
0.42500002 23465.96928074  2099.26571133
0.42600002 23519.03851011  1958.31283434
0.42700002 23575.50919323  1816.25731431
0.42800002 23633.54597526  1977.06438225
0.42900002 23694.65489018  1528.30531284
0.43000002 23757.56863880  1535.92688528
0.43100002 23820.80809193  1852.30612500
0.43200002 23886.99512056  1706.60644726
0.43300002 23954.28956930  2027.25162232
0.43400002 24023.56564730  1567.53773277
0.43500002 24093.64570813  1575.72450398
0.43600002 24165.67164468  1742.46583651
0.43700002 24238.21834360  1910.94122477
0.43800002 24311.42776264  1760.99835344
0.43900002 24386.55421455  2092.36645076
0.44000002 24461.79535896  2265.40697555
0.44100002 24538.06589641  2440.31076904
0.44200002 24614.83236307  2126.35239445
0.44300002 24692.18916457  1808.94986392
0.44400002 24769.76901113  1818.72037583
0.44500002 24847.22885261  1662.27968902
0.44600002 24924.65277052  2172.55746170
0.44700002 25003.29448064  1848.24361560
0.44800002 25080.58218789  2871.60139369
0.44900002 25158.57928866  2207.66543721
0.45000002 25236.59999863  2390.15849914
0.45100002 25313.38006403  1887.87197465
0.45200002 25390.19806377  1725.26404020
0.45300002 25465.96067122  1734.23200390
0.45400002 25541.51269529  1743.20832407
0.45500002 25616.63251294  1927.39552162
0.45600002 25690.38262172  1761.07581218
0.45700002 25763.69586619  1769.96598989
0.45800002 25835.58253252  2134.53593000
0.45900002 25906.34670525  1966.29180812
0.46000002 25976.50090263  2155.53014706
0.46100002 26044.56561650  1804.88848277
0.46200002 26112.00838827  1994.82697537
0.46300002 26178.09855277  2368.59446931
0.46400002 26242.08962782  2928.61734127
0.46500002 26305.66961878  2022.64303285
0.46600002 26366.61672347  2031.67974792
0.46700002 26425.84616604  2040.60393766
0.46800002 26484.24427828  2235.80000794
0.46900002 26539.92245703  2432.38400847
0.47000002 26594.03702807  2066.75568559
0.47100002 26646.44597200  2263.88215708
0.47200002 26696.99478113  2651.81261730
0.47300002 26745.48963821  2091.76484375
0.47400002 26791.17111419  2099.75813560
0.47500002 26835.23034333  2107.63909106
0.47600002 26877.78391916  2307.72663668
0.47700002 26916.99117736  2122.94319478
