# SAXS profile: number of points = 501, q_min = 0, q_max = 0.5, delta_q = 0.001
#    q    intensity    error
0.00000000 1682732.95097188 353.37391970
0.00100000 1682650.96935804 555.27483308
0.00200000 1682404.96063599 832.79048189
0.00300000 1681995.15647629 1311.95626879
0.00400000 1681421.42415747 1387.17272764
0.00500000 1680684.26074170 1663.87748399
0.00600000 1679783.58164738 2116.52739904
0.00700000 1678719.93851309 3021.69601491
0.00800000 1677493.18246758 2264.61589194
0.00900000 1676104.50173441 2514.15686008
0.01000000 1674553.31901620 3039.31440525
0.01100000 1672840.87455624 4215.55918742
0.01200000 1670967.11400481 3584.22461669
0.01300000 1668933.17975870 3504.75983207
0.01400000 1666739.11551142 4875.21212899
0.01500000 1664386.30940317 4393.98005248
0.01600000 1661874.18279711 6356.66903336
0.01700000 1659204.96049141 4479.85359429
0.01800000 1656378.64353651 5192.74728115
0.01900000 1653395.90248645 5952.22551753
0.02000000 1650257.82178113 5718.14361114
0.02100000 1646966.52186087 5434.98976856
0.02200000 1643520.43818886 8505.21865404
0.02300000 1639922.94431687 7084.46744192
0.02400000 1636173.38921612 7976.34563613
0.02500000 1632274.50954155 8912.21922912
0.02600000 1628226.16630381 7253.74790266
0.02700000 1624030.58504314 7503.02164655
0.02800000 1619687.40540899 9159.33269763
0.02900000 1615199.52639293 7268.39820249
0.03000000 1610567.87036375 11233.71141215
0.03100000 1605793.09870095 10790.93011980
0.03200000 1600876.54793254 9509.20713270
0.03300000 1595822.04390992 11394.16991879
0.03400000 1590627.63038316 9185.87498930
0.03500000 1585296.60554130 8560.60206524
0.03600000 1579830.28932018 9644.86436202
0.03700000 1574230.31826620 8973.11322910
0.03800000 1568498.35647555 10093.28739103
0.03900000 1562636.42970540 12188.56471615
0.04000000 1556644.32726441 12445.37197318
0.04100000 1550526.16290781 11721.97833509
0.04200000 1544282.62068029 12948.81037514
0.04300000 1537914.74829902 13195.30915290
0.04400000 1531425.98830533 13438.26367148
0.04500000 1524817.61653778 12625.49045157
0.04600000 1518089.83547819 12843.04060518
0.04700000 1511246.73603198 11969.07470603
0.04800000 1504288.88247741 12162.17618071
0.04900000 1497219.93058680 14597.89500272
0.05000000 1490039.35324237 18238.08253296
0.05100000 1482752.08494262 12722.01348145
0.05200000 1475355.99327742 17593.62103972
0.05300000 1467857.48367049 16645.50464080
0.05400000 1460256.17905842 15661.24825075
0.05500000 1452554.95930341 19522.33956374
0.05600000 1444754.74943699 14823.18442093
0.05700000 1436860.72703004 17500.96447215
0.05800000 1428871.48433450 18968.26984021
0.05900000 1420790.15727057 12787.11201267
0.06000000 1412620.25257055 15510.57109786
0.06100000 1404362.95416629 15672.69130090
0.06200000 1396020.89464386 15830.87768525
0.06300000 1387596.70026890 15985.11473449
0.06400000 1379089.44491359 17479.95953176
0.06500000 1370505.36055432 16281.60444500
0.06600000 1361845.25717554 19161.16366498
0.06700000 1353110.81720696 20702.59647213
0.06800000 1344304.91714193 16696.26785244
0.06900000 1335430.41126304 19630.82796466
0.07000000 1326487.93190711 16952.51656363
0.07100000 1317480.57745318 14228.79090294
0.07200000 1308410.63545831 17192.51655534
0.07300000 1299281.30810311 20190.83247398
0.07400000 1290094.51502606 14513.56397421
0.07500000 1280851.73890010 18982.22366024
0.07600000 1271554.17794392 17623.74173251
0.07700000 1262207.46870710 14767.82807631
0.07800000 1252811.64630444 17814.98244590
0.07900000 1243368.73685196 19396.55320466
0.08000000 1233882.81142231 17990.01223447
0.08100000 1224354.97288493 25601.26368419
0.08200000 1214786.95625943 16636.50814664
0.08300000 1205182.08395301 21259.41295868
0.08400000 1195542.22023358 22864.74603521
0.08500000 1185869.45017252 21416.80327553
0.08600000 1176166.07981295 15348.96806222
0.08700000 1166435.82645933 18476.34435872
0.08800000 1156677.78723541 20074.14394023
0.08900000 1146897.78515373 18579.74499218
0.09000000 1137095.46726388 18625.62462873
0.09100000 1127273.64784280 17112.01477820
0.09200000 1117434.29473360 21823.49280156
0.09300000 1107582.25695650 20301.98372405
0.09400000 1097714.56564483 15642.43329559
0.09500000 1087836.71209742 17231.33432954
0.09600000 1077950.15062693 23526.26314335
0.09700000 1068059.22134126 15700.47129184
0.09800000 1058163.45755601 17285.10089188
0.09900000 1048266.06079512 17296.39081644
0.10000000 1038367.36093112 18877.51950948
0.10100000 1028470.21849300 22029.83311622
0.10200000 1018577.53164509 17310.72596454
0.10300000 1008690.23641766 20456.23895683
0.10400000 998811.79312227 17304.41512993
0.10500000 988944.43354430 20441.48240312
0.10600001 979085.40307076 17285.75360457
0.10700001 969242.87165479 20412.25583760
0.10800001 959414.59540794 17255.07231046
0.10900001 949604.98489823 25069.57278123
0.11000001 939813.79713432 15647.90045883
0.11100001 930043.64077526 17187.20729059
0.11200001 920296.67102776 15599.02930828
0.11300001 910573.79345603 15570.81260118
0.11400001 900877.84051214 21756.20087275
0.11500001 891210.56954597 21709.89049641
0.11600001 881572.29311003 21660.23226173
0.11700001 871966.63827711 15433.81022436
0.11800001 862392.19954063 18472.44178418
0.11900001 852852.34999032 16886.47732519
0.12000001 843347.93679516 19898.79550601
0.12100001 833883.63784106 19838.09267877
0.12200001 824457.23772997 18253.48410329
0.12300001 815072.50448259 16676.38422741
0.12400001 805728.36563257 22661.11135115
0.12500001 796427.48440435 21073.47223033
0.12600001 787173.09022055 20993.90730549
0.12700001 777964.21070062 16430.60490431
0.12800001 768802.43281085 16363.96055360
0.12900001 759690.13384819 17776.74996990
0.13000001 750627.95184623 19174.79193371
0.13100001 741615.93062014 19089.19495398
0.13200001 732657.27816118 16078.16472718
0.13300001 723752.09085255 14547.41771195
0.13400001 714900.97582261 20267.44362009
0.13500001 706106.62959910 15845.03351527
0.13600001 697368.71905670 14330.92785233
0.13700001 688689.11987616 19958.21163511
0.13800001 680066.49335404 24104.95799362
0.13900001 671505.58640625 16921.94157545
0.14000001 663004.25820406 19631.55701126
0.14100001 654565.72461155 18124.92576932
0.14200001 646188.98027326 13860.75428061
0.14300001 637876.70575296 19289.39249180
0.14400001 629625.30008905 17802.65619977
0.14500001 621441.53210712 13609.57019514
0.14600001 613322.56668935 17580.89220352
0.14700001 605271.25462591 14780.72473527
0.14800001 597284.42227105 20023.96120134
0.14900001 589366.22680683 13260.74072881
0.15000001 581515.49201266 14488.45916710
0.15100001 573733.84601787 14389.24553708
0.15200001 566022.44269245 22083.36664369
0.15300001 558380.58577971 19347.88821027
0.15400001 550807.16157090 14086.89382195
0.15500001 543305.95695014 17798.70398966
0.15600001 535873.98996006 15143.79967098
0.15700001 528516.52855712 13778.42654978
0.15800001 521227.29547754 17403.78021743
0.15900001 514012.67510285 16037.19622017
0.16000001 506867.86543058 17137.20333913
0.16100001 499798.07950149 13359.60329570
0.16200001 492800.47889294 16868.56118880
0.16300001 485875.60038781 19124.06453407
0.16400001 479024.60998433 15412.61755387
0.16500001 472246.06248621 12934.82026217
0.16600001 465541.70749341 18658.91251728
0.16700001 458909.90654437 13877.43622912
0.16800001 452351.80290225 12613.83061951
0.16900001 445868.87856737 12506.62263435
0.17000001 439457.98835245 12399.30772686
0.17100001 433121.41389727 14526.89290809
0.17200001 426858.09534128 11076.96809719
0.17300001 420668.58097804 16469.17572304
0.17400001 414553.02423055 11970.21913996
0.17500001 408509.89986987 11863.12805249
0.17600001 402538.85435000 18168.59204917
0.17700001 396643.67445508 15885.57991221
0.17800001 390819.24285616 14690.89603284
0.17900001 385067.39052723 13515.86604591
0.18000001 379389.43818209 13390.55085314
0.18100001 373783.85825148 12245.15977474
0.18200001 368248.04542129 11119.25025675
0.18300001 362784.77813863 12015.43241955
0.18400001 357392.70069371 9917.64791277
0.18500001 352072.00495129 12769.65222285
0.18600001 346822.22219602 11674.03655064
0.18700001 341641.80968683 12524.58933484
0.18800001 336530.05625200 13356.87856370
0.18900001 331491.30357109 9447.50259815
0.19000001 326517.56275526 11225.67433793
0.19100001 321615.09971750 12967.52143333
0.19200001 316779.11317865 15590.28479175
0.19300001 312012.90472397 12711.40633910
0.19400001 307312.13519533 9887.76841715
0.19500001 302678.85625453 11568.38643271
0.19600001 298110.73028680 13213.75874440
0.19700001 293610.17371253 11336.28934277
0.19800001 289173.63162088 8631.83331181
0.19900001 284802.17709203 12816.09857483
0.20000001 280493.27186430 10993.93431031
0.20100001 276249.76917092 15066.66312267
0.20200001 272067.80100965 9941.35791876
0.20300001 267948.76710296 10659.00245915
0.20400001 263891.70047676 10549.07122517
0.20500001 259895.14995939 11243.06471867
0.20600001 255959.04051770 8742.28144211
0.20700001 252083.15667064 8651.49434588
0.20800001 248265.94454280 11674.70659399
0.20900001 244509.77834707 12323.29341123
0.21000001 240808.77599937 7621.59812067
0.21100001 237166.68558021 8296.09105378
0.21200001 233579.89897378 8955.45375002
0.21300001 230049.51151387 8123.04863558
0.21400001 226574.66480607 8768.43994254
0.21500001 223155.77035207 10845.37095185
0.21600001 219789.11493759 7154.13602946
0.21700001 216476.46911203 7786.65896211
0.21800001 213216.66471954 10506.25165080
0.21900001 210007.93865285 7623.28853354
0.22000001 206850.05065998 6857.07950360
0.22100001 203744.34080713 8820.09293059
0.22200001 200688.16367252 8055.62327072
0.22300001 197680.68684982 8634.69280990
0.22400001 194720.95099562 7229.01564755
0.22500001 191811.56257650 7152.65350671
0.22600001 188947.21630606 8363.74892529
0.22700001 186130.43166007 7002.22717018
0.22800001 183358.64373033 8817.71759398
0.22900001 180631.75886587 7478.15517070
0.23000001 177949.79229356 8015.74877294
0.23100001 175312.60284879 6710.96675443
0.23200001 172716.72983622 7243.73999191
0.23300001 170164.45824388 7167.32732021
0.23400001 167652.69538015 7682.68512915
0.23500001 165182.18004469 8186.42923020
0.23600001 162752.25160826 7521.59566383
0.23700001 160362.13239886 7442.40691664
0.23800001 158010.65267305 5664.68216626
0.23900001 155697.87740922 9528.71054815
0.24000001 153422.25199388 7764.70054068
0.24100001 151184.85060882 8232.01550503
0.24200001 148983.88602535 7059.60177324
0.24300001 146818.02147342 6448.24780813
0.24400001 144687.54692395 6380.72112118
0.24500001 142591.09981840 5261.61183220
0.24600001 140528.94973280 8330.55653424
0.24700001 138500.84348696 7213.12427002
0.24800001 136505.02002793 6628.00156100
0.24900001 134540.26112622 7567.89004637
0.25000001 132608.36827833 5991.24636225
0.25100001 130706.62602806 6916.99497664
0.25200001 128837.17888303 4889.37116993
0.25300001 126995.91059388 6290.10774930
0.25400001 125184.92598530 5745.98837457
0.25500001 123401.06620467 6634.04163303
0.25600001 121647.03063501 5627.39190342
0.25700001 119919.61718837 5104.97834524
0.25800001 118219.44068527 6889.23823189
0.25900001 116546.86401998 4999.86070302
0.26000001 114899.48090788 6297.64084654
0.26100001 113277.32595255 6677.69868087
0.26200001 111681.50132164 5727.58606629
0.26300001 110109.06083861 4796.35091708
0.26400001 108561.54764708 6041.45041243
0.26500001 107037.77664742 5552.04973742
0.26600001 105536.72292835 4649.42054862
0.26700001 104058.85216417 5019.79926594
0.26800001 102603.64627317 5382.07451994
0.26900001 101169.50073516 5326.57446577
0.27000001 99757.40805732  5271.68047826
0.27100001 98366.18178453  4414.67444740
0.27200001 96996.23524537  4369.19562339
0.27300001 95646.47634404  4324.17740015
0.27400001 94315.06697657  5057.64570597
0.27500001 93005.45303768  4620.51112558
0.27600001 91712.63928821  4953.85844560
0.27700001 90440.52566355  3771.37009866
0.27800001 89185.70392443  4478.90626306
0.27900001 87949.49370342  4063.26680140
0.28000001 86730.40416572  3655.68670860
0.28100001 85529.03513644  3979.66619325
0.28200001 84345.25298396  5012.63862208
0.28300001 83178.06298915  3897.72421615
0.28400001 82026.65141742  3506.63951407
0.28500001 80892.20779785  4511.35864241
0.28600001 79773.21321432  4807.93178800
0.28700001 78670.59809025  4757.99799771
0.28800001 77581.81584973  3699.48906390
0.28900001 76509.94831238  4326.63778186
0.29000001 75451.88574456  4281.51745924
0.29100001 74409.08770854  3259.11819590
0.29200001 73380.14344409  4192.57469414
0.29300001 72365.74024483  3829.59515503
0.29400001 71364.50272324  4421.03115298
0.29500001 70378.19587520  4062.22965821
0.29600001 69404.05337914  5256.31623149
0.29700001 68443.90531538  4589.16406864
0.29800001 67496.86696849  3632.68155221
0.29900001 66563.14606542  3594.41005769
0.30000001 65641.05094523  3556.43230857
0.30100001 64732.55531475  3812.10036295
0.30200001 63835.48678734  3191.45531302
0.30300001 62951.42760902  3731.76080533
0.30400001 62079.18934922  3976.17226606
0.30500001 61219.17331008  4214.94028194
0.30600001 60369.79648963  3058.03218596
0.30700001 59532.94360473  4125.63318713
0.30800001 58707.27257281  3537.40687635
0.30900001 57893.12538252  3230.43654929
0.31000001 57090.31880190  4261.22159712
0.31100001 56297.94450526  2634.74392759
0.31200001 55517.51759966  2867.20233218
0.31300001 54747.02938563  3094.30224738
0.31400001 53988.84824399  2806.07052034
0.31500001 53239.62956370  3028.27027296
0.31600002 52502.56654514  2496.49715742
0.31700002 51775.05842245  2963.60448442
0.31800002 51057.84301055  2443.11790373
0.31900002 50351.65146544  2416.87938478
0.32000002 49655.73827739  2630.01630239
0.32100002 48969.40962891  3547.83389560
0.32200002 48294.27638689  2573.84358191
0.32300002 47627.45105420  2314.69423084
0.32400002 46971.95391892  2289.88286198
0.32500002 46325.72480302  2718.39366016
0.32600002 45689.53420609  2241.07175893
0.32700002 45063.24057194  2660.53384935
0.32800002 44447.53413739  2412.83450490
0.32900002 43839.51211914  2170.05595266
0.33000002 43242.52974854  2576.39004442
0.33100002 42653.98319340  2124.16846362
0.33200002 42076.56012462  2732.24156108
0.33300002 41507.61014117  2495.43763986
0.33400002 40948.69247837  2263.43908393
0.33500002 40398.84331184  2036.10179934
0.33600002 39858.02234373  2619.27006236
0.33700002 39326.39267638  2193.23302343
0.33800002 38804.87700464  2959.84213370
0.33900002 38291.74292497  1952.87898166
0.34000002 37787.84868172  2319.41826193
0.34100002 37293.33061325  2104.46274617
0.34200002 36808.59167939  2651.32298423
0.34300002 36331.92769728  2062.20031376
0.34400002 35865.17919588  2412.83004467
0.34500002 35406.94554860  1837.62056100
0.34600002 34958.49149246  2729.38435254
0.34700002 34517.46384618  2702.71754716
0.34800002 34086.43345058  1962.86736322
0.34900002 33663.70562101  1944.07909169
0.35000002 33250.25826149  2100.75141646
0.35100002 32846.11805899  1734.27511565
0.35200002 32449.13954866  2061.81842458
0.35300002 32062.21444660  2213.25476808
0.35400002 31683.27831407  1687.13465013
0.35500002 31313.25706608  1672.12800653
0.35600002 30951.58458617  2651.93189295
0.35700002 30598.25776151  2629.00243139
0.35800002 30253.97892239  1955.01221056
0.35900002 29918.40854069  2584.95062035
0.36000002 29591.02785104  1602.35423403
0.36100002 29271.40949232  2225.21265501
0.36200002 28961.68030262  1734.65992389
0.36300002 28658.68448523  2503.62279522
0.36400002 28364.58046135  1708.25693920
0.36500002 28077.90338180  1849.77236241
0.36600002 27800.23252868  1989.52373516
0.36700002 27530.04373465  1671.62433475
0.36800002 27268.70364680  1811.18738201
0.36900002 27015.06484413  1799.20340385
0.37000002 26768.67715944  2681.41851808
0.37100002 26530.22985182  1924.50296461
0.37200002 26300.30493371  1471.50213075
0.37300002 26077.60710221  1462.95382773
0.37400002 25862.50983976  1891.19612162
0.37500002 25655.21650009  1736.34513498
0.37600002 25455.75249653  1727.42744625
0.37700002 25263.39867800  1862.16520477
0.37800002 25078.45013999  1568.28095380
0.37900002 24901.54931233  2271.02140487
0.38000002 24731.24588636  1413.39076936
0.38100002 24567.43821538  1830.02855936
0.38200002 24411.91929876  1682.95779618
0.38300002 24262.76671743  1537.28897204
0.38400002 24120.83742194  2089.46764066
0.38500002 23985.23622897  1805.36881648
0.38600002 23857.44013410  1523.41691193
0.38700002 23735.34555670  1381.39717684
0.38800002 23619.93830902  2480.80223813
0.38900002 23511.01248429  1925.55201369
0.39000002 23409.28462264  1784.84099061
0.39100002 23312.89823985  2056.19772217
0.39200002 23223.59483630  1369.03098046
0.39300002 23139.70983921  1641.06829955
0.39400002 23063.18654555  1913.09141459
0.39500002 22991.24306541  1775.38387362
0.39600002 22925.52422145  1774.77954169
0.39700002 22864.95245418  1774.54904404
0.39800002 22811.29441689  1501.78163909
0.39900002 22762.06476106  1775.44113548
0.40000002 22718.73968660  2049.79838534
0.40100002 22680.30933662  1504.38498957
0.40200002 22647.70725216  1642.86476191
0.40300002 22619.91607906  1919.07377107
0.40400002 22597.20668333  1510.05840816
0.40500002 22578.94769831  1650.06957597
0.40600002 22566.44004292  1928.75372185
0.40700002 22558.03293075  1794.71718501
0.40800002 22554.01019972  1383.68859131
0.40900002 22554.22147717  1941.91856120
0.41000002 22559.49074027  2225.26827206
0.41100002 22568.64854286  1534.21680064
0.41200002 22581.05501232  1538.78606673
0.41300002 22598.85517226  1684.06676723
0.41400002 22619.70874576  1971.30771060
0.41500002 22644.34312478  1836.90920132
0.41600002 22671.65698652  1843.54587521
0.41700002 22704.00715997  2562.37436949
0.41800002 22740.07045640  1572.13484550
0.41900002 22777.53821745  3156.96694653
0.42000002 22818.86068542  1585.11223262
0.42100002 22863.99051301  2170.93600208
0.42200002 22911.53482193  2180.60543001
0.42300002 22961.60246426  1606.39378452
0.42400002 23014.23037417  1760.58870705
0.42500002 23070.05637130  1474.17667198
0.42600002 23127.08197438  1481.28967065
0.42700002 23187.52598538  1935.23101044
0.42800002 23249.55559644  2094.55256294
0.42900002 23314.53471508  1503.78756038
0.43000002 23381.20852601  1813.91424340
0.43100002 23448.35106948  1975.28918770
0.43200002 23518.46119448  1527.52412697
0.43300002 23589.51949978  1535.67779221
0.43400002 23662.66118805  1543.98871569
0.43500002 23736.49036989  2483.78647001
0.43600002 23812.36403945  1560.90053676
0.43700002 23888.68882430  1726.43562315
0.43800002 23965.62142519  1735.94987020
0.43900002 24044.56201362  1745.63528491
0.44000002 24123.54890317  1595.77283557
0.44100002 24203.57304009  1765.16666546
0.44200002 24284.05250440  1775.04290193
0.44300002 24365.16631104  2271.80821450
0.44400002 24446.45458467  1958.16110503
0.44500002 24527.59873628  1969.07571987
0.44600002 24608.77780332  1980.02235589
0.44700002 24691.09786105  1825.16604039
0.44800002 24772.16518112  3336.81080803
0.44900002 24853.78585071  2180.91981176
0.45000002 24935.55435997  1855.57936564
0.45100002 25015.97356850  2204.90801482
0.45200002 25096.45969070  2216.89587184
0.45300002 25175.99781378  2400.27974532
0.45400002 25255.21772592  2068.40242978
0.45500002 25333.99134591  1906.12959920
0.45600002 25411.47225982  2438.73910836
0.45700002 25488.46828449  2101.26942496
0.45800002 25564.04039520  2992.14324987
0.45900002 25638.55859123  2653.59093996
0.46000002 25712.38918960  3378.22241378
0.46100002 25784.20541711  1965.53007210
0.46200002 25855.38529029  1975.22225287
0.46300002 25925.12223486  2165.26631168
0.46400002 25992.81710322  2538.19871043
0.46500002 26060.13366031  2368.08445795
0.46600002 26124.77422349  2379.05267742
0.46700002 26187.77071975  2022.21975082
0.46800002 26249.86280127  1846.67793559
0.46900002 26309.35205211  2040.29034834
0.47000002 26367.13868299  1862.83843625
0.47100002 26423.25945129  2057.84354360
0.47200002 26477.55742055  2066.44106683
0.47300002 26529.74979366  1886.26529973
0.47400002 26579.17442259  3030.02602779
0.47500002 26627.02201265  2471.52030036
0.47600002 26673.35836025  1908.47888113
0.47700002 26716.31795142  2107.11609670
