# SAXS profile: number of points = 501, q_min = 0, q_max = 0.5, delta_q = 0.001
#    q    intensity    error
0.00000000 1682732.95097188 328.13292544
0.00100000 1682650.97244726 605.75436447
0.00200000 1682404.97138067 984.20693942
0.00300000 1681995.18179361 1009.19714503
0.00400000 1681421.47036888 1513.27938083
0.00500000 1680684.33312113 1815.13915162
0.00600000 1679783.68683403 1763.77294298
0.00700000 1678720.07886171 2014.46417836
0.00800000 1677493.36576298 2717.53936727
0.00900000 1676104.73581094 2765.57293231
0.01000000 1674553.60654332 2763.01357010
0.01100000 1672841.20470917 3312.22572954
0.01200000 1670967.53369256 4561.74156698
0.01300000 1668933.67215101 5257.14129914
0.01400000 1666739.67200925 4875.21375675
0.01500000 1664386.95048943 4793.43463086
0.01600000 1661874.87346530 5509.11545181
0.01700000 1659205.76926291 4927.84135577
0.01800000 1656379.58310765 5192.75022670
0.01900000 1653396.93280528 6448.24832890
0.02000000 1650258.90944739 6757.81053988
0.02100000 1646967.71753328 5978.49308570
0.02200000 1643521.82352349 6237.16560364
0.02300000 1639924.36485675 7084.47357865
0.02400000 1636174.98584935 6135.65647671
0.02500000 1632276.21542413 7002.46528398
0.02600000 1628228.01756848 6594.32377277
0.02700000 1624032.57611112 8185.12455849
0.02800000 1619689.57531381 9159.34496844
0.02900000 1615201.80697422 7995.24931162
0.03000000 1610570.34232971 11982.64389772
0.03100000 1605795.72693277 10020.16579712
0.03200000 1600879.33180643 8716.78836317
0.03300000 1595824.97208720 8138.70773284
0.03400000 1590630.67626170 10856.05486639
0.03500000 1585299.84310356 9416.68150288
0.03600000 1579833.73416536 10521.69315579
0.03700000 1574233.97678343 11665.07430745
0.03800000 1568502.19929752 9175.73829054
0.03900000 1562640.40941580 15001.34862510
0.04000000 1556648.54008168 11488.06675815
0.04100000 1550530.60041696 9768.34323555
0.04200000 1544287.23107300 11952.78372303
0.04300000 1537919.54280096 12180.32334437
0.04400000 1531430.94508550 12404.59123129
0.04500000 1524822.79668341 12625.53334318
0.04600000 1518095.29728472 13913.34404640
0.04700000 1511252.31624858 10881.01718304
0.04800000 1504294.70189320 14373.53654536
0.04900000 1497225.99921054 12352.11506845
0.05000000 1490045.66778710 14818.50485618
0.05100000 1482758.50101035 11565.51684665
0.05200000 1475362.74581041 16420.78812610
0.05300000 1467864.38456061 11889.70206921
0.05400000 1460263.30419390 15661.32466783
0.05500000 1452562.33632961 12201.52419436
0.05600000 1444762.25040887 13587.98959917
0.05700000 1436868.50442306 16250.98354360
0.05800000 1428879.50086742 13910.14259044
0.05900000 1420798.45522345 14065.90536367
0.06000000 1412628.70106737 15510.66386236
0.06100000 1404371.64208446 16978.85394625
0.06200000 1396029.80659050 13192.48228894
0.06300000 1387605.89856124 15985.22069882
0.06400000 1379098.94143347 14790.83683859
0.06500000 1370515.04225931 17638.52941897
0.06600000 1361855.14133054 17792.63825397
0.06700000 1353120.93730102 26223.48499213
0.06800000 1344315.27763426 20870.49566220
0.06900000 1335440.83138216 18228.76820182
0.07000000 1326498.68442520 15539.93281575
0.07100000 1317491.52179254 15651.80001199
0.07200000 1308421.91808492 15759.94274164
0.07300000 1299292.75681462 15864.36530404
0.07400000 1290106.15513475 17416.43391053
0.07500000 1280863.59057033 20442.58386370
0.07600000 1271566.23987670 17623.90891091
0.07700000 1262219.74657526 16244.76890012
0.07800000 1252824.07822308 20784.35243243
0.07900000 1243381.40591694 19396.75084208
0.08000000 1233895.71649164 17990.20039039
0.08100000 1224368.03176137 22589.59124586
0.08200000 1214800.25567345 16636.69028213
0.08300000 1205195.63389477 21259.65197966
0.08400000 1195555.96838547 18292.00717490
0.08500000 1185883.39258061 16827.68613070
0.08600000 1176180.17002010 18418.98232731
0.08700000 1166450.06824836 16936.85578628
0.08800000 1156692.30257680 20074.39585399
0.08900000 1146912.51250364 23224.97946907
0.09000000 1137110.21628746 29490.95484477
0.09100000 1127288.51534223 18667.89869111
0.09200000 1117449.52828614 15588.42165204
0.09300000 1107597.60731920 18740.55239650
0.09400000 1097729.99420909 23463.97972897
0.09500000 1087852.35631784 17231.58213401
0.09600000 1077965.78202128 17252.84315227
0.09700000 1068075.17481468 17270.77638870
0.09800000 1058179.52188917 20428.15663055
0.09900000 1048282.25020026 17296.65794164
0.10000000 1038383.73501350 22024.12005537
0.10100000 1028486.58068893 15735.84542463
0.10200000 1018594.09114396 15737.27944840
0.10300000 1008707.07157840 18882.99726822
0.10400000 998828.56036393 17304.70562241
0.10500000 988961.14814432 18869.37959439
0.10600001 979102.43593659 20428.97328707
0.10700001 969260.02044130 20412.61699106
0.10800001 959431.85567762 15686.71157857
0.10900001 949622.25799494 17235.64479381
0.11000001 939831.16796188 20342.64658805
0.11100001 930061.14292731 25000.04469872
0.11200001 920314.14154862 23398.98815043
0.11300001 910591.22801375 17128.22180535
0.11400001 900895.40018063 20202.58030028
0.11500001 891228.03327768 20159.57906202
0.11600001 881589.87143168 18566.28356667
0.11700001 871984.25222783 15434.12199130
0.11800001 862409.91791409 23091.02663970
0.11900001 852870.07006001 16886.82818259
0.12000001 843365.64218101 19899.21326461
0.12100001 833901.34175200 16786.43480025
0.12200001 824474.93420811 22817.34487916
0.12300001 815090.18631629 16676.74599775
0.12400001 805746.09376265 18129.28796387
0.12500001 796445.24521282 21073.94218135
0.12600001 787190.81929948 19494.78155861
0.12700001 777982.00555106 19418.43177367
0.12800001 768819.88780543 19339.66518921
0.12900001 759707.67436122 17777.16041793
0.13000001 750645.39855775 17700.21933229
0.13100001 741633.37711666 19089.64402682
0.13200001 732674.66156116 17540.23222463
0.13300001 723769.33305568 16002.54070827
0.13400001 714918.20925785 20267.93218800
0.13500001 706123.69140937 17285.90878070
0.13600001 697385.79079270 15764.40654417
0.13700001 688706.18781082 25661.19376784
0.13800001 680083.43193434 18433.66229183
0.13900001 671522.33861413 16922.36373110
0.14000001 663020.78377024 19632.04633330
0.14100001 654582.14568052 20913.90054085
0.14200001 646205.29449325 18019.43548684
0.14300001 637892.90235890 20667.73101128
0.14400001 629641.26069300 16433.63767926
0.14500001 621457.38982252 13609.91747912
0.14600001 613338.29403938 14876.52102372
0.14700001 605286.78468329 16124.84070468
0.14800001 597299.84721837 18689.51310121
0.14900001 589381.39794392 18565.51491117
0.15000001 581530.53286891 18440.33406734
0.15100001 573748.76288706 13081.47241107
0.15200001 566036.93682638 14289.60314447
0.15300001 558395.05419368 12898.92636056
0.15400001 550821.32171922 14087.25596776
0.15500001 543319.92791798 12713.68691328
0.15600001 535887.79260759 13882.17392267
0.15700001 528529.99333267 16284.00986313
0.15800001 521240.69484437 16161.06850643
0.15900001 514025.69886290 12336.61735501
0.16000001 506880.75944459 17137.63928576
0.16100001 499810.65384834 13359.93940801
0.16200001 492812.91997751 13254.20410847
0.16300001 485887.74050759 20319.82626728
0.16400001 479036.42197137 13041.76720387
0.16500001 472257.55969027 16462.89930804
0.16600001 465552.99457134 16326.94429046
0.16700001 458920.82256893 17347.20791215
0.16800001 452362.58334363 11467.39202921
0.16900001 445879.44002843 12506.91888335
0.17000001 439468.00042066 11272.35474307
0.17100001 433131.28489712 13409.74521364
0.17200001 426867.73341344 12184.94002569
0.17300001 420677.84073988 15371.56902655
0.17400001 414561.98074055 11970.47775920
0.17500001 408518.52294890 11863.37846671
0.17600001 402547.06589128 11756.38761460
0.17700001 396651.70369994 12708.72118679
0.17800001 390827.05008186 13641.81882744
0.17900001 385074.80265306 13516.12621154
0.18000001 379396.49863804 15450.92313686
0.18100001 373790.59900662 13265.82898538
0.18200001 368254.47057479 10108.58569479
0.18300001 362790.81650869 11014.32970951
0.18400001 357398.45486486 11901.36910923
0.18500001 352077.37242453 9822.95915470
0.18600001 346827.19329334 10701.35355463
0.18700001 341646.46340156 10597.87379541
0.18800001 336534.36642043 9540.74973878
0.18900001 331495.29557186 12281.90128123
0.19000001 326521.14902874 12161.28077018
0.19100001 321618.42051694 9262.61094855
0.19200001 316782.13663339 13756.26493331
0.19300001 312015.46941360 12711.51082456
0.19400001 307314.30204546 8988.94375959
0.19500001 302680.71488178 10678.57612565
0.19600001 298112.19852788 11451.98064763
0.19700001 293611.36646527 13952.41279379
0.19800001 289174.47826589 12084.60201784
0.19900001 284802.63530927 11107.30330199
0.20000001 280493.31804497 10993.93612036
0.20100001 276249.51230865 12555.54092783
0.20200001 272067.22002568 9941.33668960
0.20300001 267947.85402509 12298.80708105
0.20400001 263890.42902079 9737.55729112
0.20500001 259893.48882080 9636.85102098
0.20600001 255957.04077387 9536.95979003
0.20700001 252080.70804125 9437.90215519
0.20800001 248263.35201137 7783.05645346
0.20900001 244506.69297101 8472.15731194
0.21000001 240805.42970056 9907.93987340
0.21100001 237163.00207656 9050.14058707
0.21200001 233575.86106926 7462.74911396
0.21300001 230045.08576628 12553.56092374
0.21400001 226569.97029700 7306.88188752
0.21500001 223150.68541342 8676.09905906
0.21600001 219783.66536476 10730.93796878
0.21700001 216470.81127164 7786.45544958
0.21800001 213210.60661386 7704.36563426
0.21900001 210001.54562389 8316.06159990
0.22000001 206843.35780092 9599.60068943
0.22100001 203737.39536085 8141.34670357
0.22200001 200680.90880805 10740.44274726
0.22300001 197673.01732479 8634.35780503
0.22400001 194713.08630564 8543.03706563
0.22500001 191803.31109923 8452.77231985
0.22600001 188938.70172770 8363.37202747
0.22700001 186121.69975201 7638.43491904
0.22800001 183349.55359799 8817.28044950
0.22900001 180622.43064360 8100.91639747
0.23000001 177940.15257704 6782.18923622
0.23100001 175302.67579274 6710.58674671
0.23200001 172706.55920874 6639.70398280
0.23300001 170154.04568049 7764.12947160
0.23400001 167642.04117537 8864.07334638
0.23500001 165171.20343975 7016.47305397
0.23600001 162741.11672288 5785.44697313
0.23700001 160350.68063034 7441.87544004
0.23800001 157998.99463233 9062.82276077
0.23900001 155686.09255556 7846.57943594
0.24000001 153410.17803666 6100.35601818
0.24100001 151172.58947113 6585.07830884
0.24200001 148971.46872407 5973.01132103
0.24300001 146805.37050099 7522.30754030
0.24400001 144674.63165915 6911.83085447
0.24500001 142578.05058927 6839.46941030
0.24600001 140515.69907202 5726.71758658
0.24700001 138487.44006762 6697.25291849
0.24800001 136491.51530101 6117.55000519
0.24900001 134526.44954114 8071.58735431
0.25000001 132594.45923219 8486.70876465
0.25100001 130692.60649608 5434.19883519
0.25200001 128822.97311466 5377.71526709
0.25300001 126981.62381337 6289.40012503
0.25400001 125170.55102569 5266.55118357
0.25500001 123386.55421885 6633.26146864
0.25600001 121632.39397214 7033.39351421
0.25700001 119904.78892319 5568.37866105
0.25800001 118204.55078121 5510.69641815
0.25900001 116531.94192573 5908.16973518
0.26000001 114884.39928103 5397.26933360
0.26100001 113262.28045917 5341.44939919
0.26200001 111666.36357067 5726.80972670
0.26300001 110093.77652839 4795.68513250
0.26400001 108546.23333596 5177.65557512
0.26500001 107022.52460822 6832.31829429
0.26600001 105521.33326484 4648.74255696
0.26700001 104043.53554471 7110.33555559
0.26800001 102588.24001190 5381.26638447
0.26900001 101154.08978217 4916.08899605
0.27000001 99742.02672634  4459.96493612
0.27100001 98350.80559657  6019.06958735
0.27200001 96980.89069687  4765.64119437
0.27300001 95631.03706741  4323.47939042
0.27400001 94299.76431602  3889.86546212
0.27500001 92990.00319715  4619.74357747
0.27600001 91697.32262225  6477.04068996
0.27700001 90425.27344082  6033.17452950
0.27800001 89170.53238453  5970.85913105
0.27900001 87934.33396638  4801.21486180
0.28000001 86715.32473462  3655.05111055
0.28100001 85514.07261549  3978.96998712
0.28200001 84330.40139568  3937.80827955
0.28300001 83163.31947145  4251.30909260
0.28400001 82011.99860385  3856.61441688
0.28500001 80877.62048377  4510.54510787
0.28600001 79758.75275663  4120.33736243
0.28700001 78656.31127531  3737.74808872
0.28800001 77567.61979860  4371.32342066
0.28900001 76495.84889445  4658.59741818
0.29000001 75437.98484084  4610.01547184
0.29100001 74395.28428011  3258.51360571
0.29200001 73366.54152365  4191.79754837
0.29300001 72352.38185934  3190.74019103
0.29400001 71351.26524699  3788.75236396
0.29500001 70365.07840159  3124.20962892
0.29600001 69391.19403495  3400.51562465
0.29700001 68431.11580851  3364.75812359
0.29800001 67484.34513382  3632.00762704
0.29900001 66550.85368559  3893.22512491
0.30000001 65629.03092581  4741.04141852
0.30100001 64720.67704150  3518.21617053
0.30200001 63823.86580752  3771.03328976
0.30300001 62939.97444458  3731.08186171
0.30400001 62067.99044290  3123.57176691
0.30500001 61208.21599469  2809.45724716
0.30600001 60359.08203755  4169.30378913
0.30700001 59522.52774061  4399.90545889
0.30800001 58697.11416328  5441.22274054
0.30900001 57883.18697559  3229.88198615
0.31000001 57080.66559741  2929.09449381
0.31100001 56288.56718419  2897.73557584
0.31200001 55508.42123432  2866.73255037
0.31300001 54738.19755221  3093.80307213
0.31400001 53980.27698653  3570.79549172
0.31500001 53231.37037446  3784.75061282
0.31600002 52494.57835860  2745.72905105
0.31700002 51767.41038909  2469.30559248
0.31800002 51050.50886130  3175.59705408
0.31900002 50344.61189444  3383.15807950
0.32000002 49648.92859457  3107.77483253
0.32100002 48962.96122578  3310.87559486
0.32200002 48288.15985681  2339.56145584
0.32300002 47621.66732934  2777.29577015
0.32400002 46966.48053879  2518.57763815
0.32500002 46320.58132599  3850.63010796
0.32600002 45684.76033163  2464.92136041
0.32700002 45058.76564465  3103.64792457
0.32800002 44443.47511146  3509.25696097
0.32900002 43835.77687299  3037.81948115
0.33000002 43239.06371896  2146.81961531
0.33100002 42650.82075771  2336.41207175
0.33200002 42073.73750490  2521.89994547
0.33300002 41505.15369597  2703.23078823
0.33400002 40946.68520587  2263.32813194
0.33500002 40397.15361549  2036.01663864
0.33600002 39856.64670866  2417.70430384
0.33700002 39325.42226627  2193.17890365
0.33800002 38804.20981352  2170.51357871
0.33900002 38291.42639869  2343.43540658
0.34000002 37787.87561582  2705.98990100
0.34100002 37293.75102023  2104.48646974
0.34200002 36809.28926284  2083.22182449
0.34300002 36333.02222533  1874.78403562
0.34400002 35866.63377131  2041.70822413
0.34500002 35408.77427058  2021.48701885
0.34600002 34960.61370004  2183.64003512
0.34700002 34519.97109686  2342.52534958
0.34800002 34089.22729708  2855.31381364
0.34900002 33666.87364392  2121.01314002
0.35000002 33253.80346811  2626.21925328
0.35100002 32850.01741331  1734.48100157
0.35200002 32453.40896421  1890.24889465
0.35300002 32066.88500280  2213.57717659
0.35400002 31688.25130185  1687.39946175
0.35500002 31318.60323857  2341.37888901
0.35600002 30957.17375087  1657.75673288
0.35700002 30604.21009834  1807.79077613
0.35800002 30260.28208723  1955.41952110
0.35900002 29925.07842107  1777.54974241
0.36000002 29598.00130982  2564.37095495
0.36100002 29278.67102770  2066.78148574
0.36200002 28969.30251156  1577.37859647
0.36300002 28666.58238391  1721.71501953
0.36400002 28372.89020853  1864.09897500
0.36500002 28086.43388303  1541.94529322
0.36600002 27809.14169982  1990.16132002
0.36700002 27539.22565625  1976.21492670
0.36800002 27278.21800549  2415.75910100
0.36900002 27024.87895574  1649.86893840
0.37000002 26778.76302680  1788.28587964
0.37100002 26540.59595628  2073.35145432
0.37200002 26310.91601984  1619.30540315
0.37300002 26088.57585758  2195.35376241
0.37400002 25873.70472613  1600.93555577
0.37500002 25666.68577917  2026.64160513
0.37600002 25467.50499734  2160.28121373
0.37700002 25275.47481421  1576.43143884
0.37800002 25090.71476841  1569.04792237
0.37900002 24914.17040233  1562.11855823
0.38000002 24744.04717631  1838.35907205
0.38100002 24580.41101307  1690.14914133
0.38200002 24425.17870261  1403.22658294
0.38300002 24276.26190551  1538.14402720
0.38400002 24134.59587500  2090.65946672
0.38500002 23999.19356514  1806.41938523
0.38600002 23871.61400582  2494.34506564
0.38700002 23749.72977263  1658.68120590
0.38800002 23634.56624312  1516.98470618
0.38900002 23525.85098257  1789.14105199
0.39000002 23424.22534821  1648.59705811
0.39100002 23328.05633571  2057.53466629
0.39200002 23238.94617333  2328.89110110
0.39300002 23155.25453909  1779.01829052
0.39400002 23078.85988520  1640.90701558
0.39500002 23007.15427460  1776.61253726
0.39600002 22941.49652603  1912.63265599
0.39700002 22881.10669662  1912.40298831
0.39800002 22827.61082026  1639.47908679
0.39900002 22778.47419511  1913.39192304
0.40000002 22735.31936168  1367.52952440
0.40100002 22696.98905795  1916.07990705
0.40200002 22664.51413413  1507.07693875
0.40300002 22636.81511300  1920.50748518
0.40400002 22614.22911495  1373.81448382
0.40500002 22596.08158127  1926.54200690
0.40600002 22583.69006929  1792.35464727
0.40700002 22575.29223829  1657.92954053
0.40800002 22571.37995576  1384.75422590
0.40900002 22571.65512407  2082.23528386
0.41000002 22576.96316882  1391.86984531
0.41100002 22586.17864299  1954.15626878
0.41200002 22598.61566603  1819.97959890
0.41300002 22616.45646977  1544.93021465
0.41400002 22637.36649810  1691.01135753
0.41500002 22662.03944287  1696.93359389
0.41600002 22689.35368907  1561.14105455
0.41700002 22721.74353223  1424.65338698
0.41800002 22757.80889646  1716.39402830
0.41900002 22795.28375988  2010.54412289
0.42000002 22836.57365447  2451.62048084
0.42100002 22881.66679629  2172.61436526
0.42200002 22929.21108543  1745.83021477
0.42300002 22979.21498043  1607.62595621
0.42400002 23031.85122351  2055.59281910
0.42500002 23087.66875024  1475.30210305
0.42600002 23144.60507947  1630.65322814
0.42700002 23205.03857541  1787.71625656
0.42800002 23266.90037443  1946.39264306
0.42900002 23331.82528784  2407.84448381
0.43000002 23398.49561795  2117.79793874
0.43100002 23465.54067025  1976.73723973
0.43200002 23535.54435324  2140.08714945
0.43300002 23606.55641951  1536.78689574
0.43400002 23679.57757650  2317.63876513
0.43500002 23753.28075523  2019.50402551
0.43600002 23829.08404980  1718.19618683
0.43700002 23905.26318585  2041.74862546
0.43800002 23982.06737535  1895.06305381
0.43900002 24060.83100415  2064.41939799
0.44000002 24139.74119474  1596.84395571
0.44100002 24219.61121953  2248.06441993
0.44200002 24299.93076069  1776.20352313
0.44300002 24380.93844049  2273.27880792
0.44400002 24462.04757905  2775.83098058
0.44500002 24543.04919207  2298.70209627
0.44600002 24624.06255871  2311.46086193
0.44700002 24706.16856154  2490.38190903
0.44800002 24787.09284914  2337.17509551
0.44900002 24868.49740381  2014.34838517
0.45000002 24950.05269306  2869.38094595
0.45100002 25030.33130520  2206.17350580
0.45200002 25110.59333078  2218.14436700
0.45300002 25189.99355576  2058.52637094
0.45400002 25268.96941049  2069.52869280
0.45500002 25347.53657266  2600.65737561
0.45600002 25424.81305876  2091.44522133
0.45700002 25501.60966348  2102.35280030
0.45800002 25576.93738015  2113.16666650
0.45900002 25651.24661179  1946.92971011
0.46000002 25724.88776958  2490.42650301
0.46100002 25796.44440571  2145.23241845
0.46200002 25867.41926153  1976.14158814
0.46300002 25936.87520390  1985.72725972
0.46400002 26004.34453533  2176.56374077
0.46500002 26071.40857842  2186.86985521
0.46600002 26135.78446284  2746.21768259
0.46700002 26198.56348632  2206.96709269
0.46800002 26260.39757284  1847.41905681
0.46900002 26319.61983830  3154.40658713
0.47000002 26377.16164233  2236.25587003
0.47100002 26433.02486490  2245.74989896
0.47200002 26487.09345562  2443.03718067
0.47300002 26539.01566228  2264.30892363
0.47400002 26588.15728341  2273.28755548
0.47500002 26635.72602787  2472.32820709
0.47600002 26681.83847712  2481.81132358
0.47700002 26724.47973714  2107.75981677
