# SAXS profile: number of points = 501, q_min = 0, q_max = 0.5, delta_q = 0.001
#    q    intensity    error
0.00000000 1700912.83420644 459.24646524
0.00100000 1700830.40125757 561.27404574
0.00200000 1700583.04308267 841.78863298
0.00300000 1700170.99251347 1020.10263185
0.00400000 1699594.10506915 1274.69562724
0.00500000 1698852.89493685 1987.65796575
0.00600000 1697947.26440274 2317.69811027
0.00700000 1696877.78486118 2850.75479704
0.00800000 1695644.27615188 2975.85583029
0.00900000 1694247.96034378 4066.19527865
0.01000000 1692688.22733479 3351.52283484
0.01100000 1690966.35726269 3652.48749071
0.01200000 1689082.29440385 3952.45274220
0.01300000 1687037.14504517 4959.88942519
0.01400000 1684830.96883403 5307.21778710
0.01500000 1682465.16060492 4845.49987831
0.01600000 1679939.11409731 5997.38290543
0.01700000 1677255.17029361 4528.58916294
0.01800000 1674413.21600411 7158.11682052
0.01900000 1671413.96090436 7521.36316345
0.02000000 1668258.44919690 5780.51578795
0.02100000 1664948.88311278 6043.76471971
0.02200000 1661483.67190824 8024.96649991
0.02300000 1657866.05874082 6565.14989145
0.02400000 1654095.64777479 6823.14485819
0.02500000 1650175.03975206 9653.52442343
0.02600000 1646104.06125108 8666.73827889
0.02700000 1641884.99899138 8964.69250509
0.02800000 1637517.48552815 9972.48194420
0.02900000 1633004.40362761 8083.37216910
0.03000000 1628346.73891374 7571.81268399
0.03100000 1623545.02432903 9351.61977043
0.03200000 1618600.83172836 12018.11172911
0.03300000 1613517.74975056 9874.72908370
0.03400000 1608293.80909468 13509.66861974
0.03500000 1602932.57486224 10387.00356476
0.03600000 1597435.26453723 11525.49596627
0.03700000 1591803.41464812 9073.27988311
0.03800000 1586038.74531936 13917.49063427
0.03900000 1580143.27970538 9480.86011729
0.04000000 1574116.79297228 12585.06434299
0.04100000 1567963.56802784 10865.98803025
0.04200000 1561684.09229037 11080.14914884
0.04300000 1555279.48046606 13344.29856181
0.04400000 1548753.23943424 10454.08485169
0.04500000 1542106.49173687 14896.74940235
0.04600000 1535339.65864623 14071.38862563
0.04700000 1528456.67807850 14306.35517217
0.04800000 1521458.14568619 16774.07683666
0.04900000 1514347.82695393 17036.41384623
0.05000000 1507125.20311629 13835.41000887
0.05100000 1499794.89614919 15207.92095540
0.05200000 1492355.24440491 13050.64722050
0.05300000 1484812.25003026 12026.97978592
0.05400000 1477165.82352854 18279.92791863
0.05500000 1469418.73359290 13577.42973178
0.05600000 1461571.96590437 14995.72906994
0.05700000 1453630.69563205 17705.22269925
0.05800000 1445593.30464921 17910.90188091
0.05900000 1437463.32985351 12937.17057292
0.06000000 1429243.94965833 22231.89067558
0.06100000 1420936.54909433 15857.65262894
0.06200000 1412543.75492574 21357.66257281
0.06300000 1404067.98286343 14826.95859228
0.06400000 1395508.63323757 20409.31471558
0.06500000 1386871.75599119 19222.04343720
0.06600000 1378158.07309222 19390.68499567
0.06700000 1369369.63711691 19554.59933316
0.06800000 1360508.89944917 14081.26776843
0.06900000 1351578.82832691 15610.73619805
0.07000000 1342580.31803632 20017.87347933
0.07100000 1333516.30583372 17282.37213307
0.07200000 1324389.10723071 15952.26754391
0.07300000 1315201.89756803 20438.23844585
0.07400000 1305956.53281875 19099.61518756
0.07500000 1296654.72643054 22172.79686126
0.07600000 1287297.36780574 20815.59941327
0.07700000 1277890.44336631 17941.58266612
0.07800000 1268433.75124897 15030.94065719
0.07900000 1258929.46021175 19639.30050046
0.08000000 1249381.54377398 18215.98376276
0.08100000 1239791.27954573 27448.98021700
0.08200000 1230160.26528836 19910.14482798
0.08300000 1220491.75515518 21529.47557136
0.08400000 1210787.88753109 21612.56480689
0.08500000 1201050.29202364 20141.61434279
0.08600000 1191281.88087069 20210.09805787
0.08700000 1181486.07133179 17155.17856131
0.08800000 1171661.95577206 15641.68784415
0.08900000 1161815.32105052 17252.95832797
0.09000000 1151945.80414226 20441.27925474
0.09100000 1142056.37402697 25216.60592322
0.09200000 1132149.30228534 17372.83185986
0.09300000 1122228.63324434 18988.10936679
0.09400000 1112291.97082782 15850.16132921
0.09500000 1102344.91161169 19048.52096798
0.09600000 1092388.56858930 20662.53074617
0.09700000 1082427.60756022 19094.02389503
0.09800000 1072461.31773306 17518.65644886
0.09900000 1062492.86154322 19124.87240708
0.10000000 1052522.97421150 25513.15809470
0.10100000 1042553.90347356 30307.04339937
0.10200000 1032589.05651756 17548.85184095
0.10300000 1022629.34512356 22334.22594812
0.10400000 1012678.06562749 20734.58436918
0.10500000 1002737.47600456 17537.87928047
0.10600001 992804.94593357 23901.78019801
0.10700001 982888.73333576 20699.63769813
0.10800001 972986.24218852 19089.99097015
0.10900001 963102.06317305 25425.89566445
0.11000001 953236.13690618 17458.52066920
0.11100001 943391.12348011 19018.76594464
0.11200001 933568.57513971 22153.58333099
0.11300001 923770.17384106 23694.70607459
0.11400001 913998.34540408 18919.76664069
0.11500001 904254.93958150 17307.44035856
0.11600001 894540.16596371 15699.18065196
0.11700001 884858.06921324 18794.38627521
0.11800001 875206.67005488 17184.68377590
0.11900001 865589.59915452 17138.67487052
0.12000001 856007.87598815 21751.16115345
0.12100001 846466.28482600 17039.36711624
0.12200001 836962.02331619 20074.53507498
0.12300001 827499.67332367 16930.64411388
0.12400001 818077.30045628 19940.63513817
0.12500001 808698.34364789 21398.15918121
0.12600001 799365.49894145 22841.87020864
0.12700001 790078.17569618 16686.45185708
0.12800001 780837.49848113 15109.20630770
0.12900001 771646.37251113 16551.81547049
0.13000001 762505.30534130 14983.22995619
0.13100001 753414.10505725 16409.35998164
0.13200001 744376.49463007 22275.46765188
0.13300001 735391.94731259 16259.51672160
0.13400001 726461.46546514 17653.01444307
0.13500001 717587.68084285 24885.94194496
0.13600001 708770.35135099 20391.32396983
0.13700001 700011.17800350 21735.34810190
0.13800001 691308.77151314 17296.54627889
0.13900001 682668.42300207 22937.66009457
0.14000001 674087.12155568 15682.63762260
0.14100001 665568.95114963 14176.61932810
0.14200001 657112.36289187 18323.57910348
0.14300001 648720.57433199 22419.78410640
0.14400001 640389.18892946 16714.15861946
0.14500001 632125.74718038 16612.26541954
0.14600001 623927.06872865 13757.59251447
0.14700001 615795.95396848 15037.73790534
0.14800001 607729.59392792 16299.30847813
0.14900001 599731.55712758 20240.94100804
0.15000001 591801.15749222 17425.58590455
0.15100001 583940.16769485 15976.60374199
0.15200001 576149.02305048 13222.62070294
0.15300001 568427.93215386 17069.89160809
0.15400001 560775.00525888 19557.02923132
0.15500001 553194.47756322 14239.22652447
0.15600001 545683.35586378 15421.01236450
0.15700001 538246.79656806 17859.02955302
0.15800001 530878.69246284 13927.60315413
0.15900001 523585.02400887 16335.85352014
0.16000001 516361.64196922 13717.14766640
0.16100001 509213.08640789 16086.04215895
0.16200001 502137.01142387 13504.97555976
0.16300001 495133.75817041 13398.32012860
0.16400001 488204.54160143 21749.51335513
0.16500001 481347.98795553 14382.67855914
0.16600001 474566.02470883 11887.87948022
0.16700001 467856.34198730 11789.98037474
0.16800001 461220.61942126 15199.52623069
0.16900001 454660.64305541 12753.23163989
0.17000001 448172.68886078 17243.44501815
0.17100001 441759.28241586 15956.34603434
0.17200001 435419.15733882 15818.77873313
0.17300001 429153.26237851 13441.08081244
0.17400001 422961.28574613 14433.55455773
0.17500001 416842.14792030 11004.63322482
0.17600001 410795.21155289 16359.92007276
0.17700001 404824.56919228 11889.69815873
0.17800001 398924.90330413 13924.47440751
0.17900001 393097.77741379 11675.00454064
0.18000001 387345.35978487 11568.06971639
0.18100001 381665.18878958 10419.46014613
0.18200001 376055.00508385 12387.25245261
0.18300001 370517.82606757 10226.29248255
0.18400001 365051.95263485 12156.23059701
0.18500001 359657.88967120 11037.90115546
0.18600001 354334.97793202 11926.91592066
0.18700001 349081.65670098 10828.51350246
0.18800001 343897.38301459 10724.44039600
0.18900001 338786.37383018 12552.03574346
0.19000001 333740.75322374 13386.34224429
0.19100001 328766.80068728 11362.18116862
0.19200001 323859.49482544 11250.87938186
0.19300001 319022.38273470 11140.26213150
0.19400001 314251.02592455 12868.58011970
0.19500001 309547.59331286 11830.90957549
0.19600001 304909.52700232 9911.08464357
0.19700001 300339.61335525 10704.10432583
0.19800001 295833.85903876 8830.64110963
0.19900001 291393.51719120 9615.98652176
0.20000001 287016.14005794 9518.89073490
0.20100001 282704.66621130 10279.14214926
0.20200001 278454.83633518 9326.84518387
0.20300001 274268.59736455 11749.66726644
0.20400001 270144.49735980 11629.72116103
0.20500001 266081.28407774 9866.29447995
0.20600001 262079.05488906 8137.55503895
0.20700001 258137.27317688 10470.04829496
0.20800001 254254.86307648 11956.33550135
0.20900001 250433.62534716 11044.12339988
0.21000001 246668.10464861 10149.15964554
0.21100001 242961.87228400 8498.80669426
0.21200001 239311.18294055 7645.99265641
0.21300001 235717.39854756 10593.14039152
0.21400001 232179.78052113 10482.91758613
0.21500001 228698.21619232 8150.80481044
0.21600001 225269.45854315 8065.77334448
0.21700001 221895.29769119 8707.17189307
0.21800001 218574.24216364 7898.18061401
0.21900001 215304.43731797 9236.56079766
0.22000001 212086.27153563 9139.85830398
0.22100001 208920.55730313 7652.76037586
0.22200001 205805.02343834 6884.17835953
0.22300001 202738.36739790 7493.21041335
0.22400001 199719.96594961 8762.71392040
0.22500001 196752.38374551 7336.89673681
0.22600001 193830.25859629 7259.91267903
0.22700001 190956.29209504 8489.91714803
0.22800001 188127.49351046 9047.05159075
0.22900001 185344.35756694 7673.25676615
0.23000001 182606.42099150 7592.77534390
0.23100001 179913.77702216 6887.09971012
0.23200001 177262.91351595 7434.40694446
0.23300001 174656.12379445 8582.60232917
0.23400001 172090.10248420 8492.64695926
0.23500001 169565.98873654 9003.95442776
0.23600001 167082.94924972 7127.75895211
0.23700001 164639.86268735 6465.40771353
0.23800001 162236.23108018 7561.01990712
0.23900001 159871.72381994 8057.53526164
0.24000001 157544.74920568 6834.29154381
0.24100001 155256.42946070 7326.55125280
0.24200001 153005.07255761 6134.73867438
0.24300001 150789.29250955 7726.44371367
0.24400001 148609.21239660 5461.38881392
0.24500001 146463.72076162 5944.96270694
0.24600001 144353.01020858 5883.10720935
0.24700001 142276.93513244 5292.70223730
0.24800001 140233.50702948 7332.81042946
0.24900001 138221.42914090 6219.96460559
0.25000001 136242.84583660 7181.36074378
0.25100001 134294.87738583 8629.78922908
0.25200001 132379.76043846 5023.81214631
0.25300001 130493.12154603 4971.78816612
0.25400001 128637.39574466 5904.45674403
0.25500001 126809.04298449 6330.30772528
0.25600001 125011.17438201 7710.68960070
0.25700001 123240.25734690 7154.09727747
0.25800001 121497.05946747 6608.22537710
0.25900001 119782.04606151 6072.95002266
0.26000001 118092.48298680 7397.31348430
0.26100001 116428.90836808 6863.48447305
0.26200001 114791.75132277 4528.53480396
0.26300001 113178.60530753 5826.43487692
0.26400001 111590.91000933 6653.60832414
0.26500001 110027.34154724 4390.09113547
0.26600001 108486.90020305 5213.88067048
0.26700001 106970.18296544 5160.24187044
0.26800001 105476.50619106 4255.97722621
0.26900001 104004.35858539 4212.17672204
0.27000001 102554.66709041 4168.84741450
0.27100001 101126.39570228 6601.53142385
0.27200001 99719.83436881  4900.23289278
0.27300001 98333.74227860  5658.12379848
0.27400001 96966.54890433  4399.85736476
0.27500001 95621.51875363  4750.47727650
0.27600001 94293.94658086  4701.49639902
0.27700001 92987.42244555  4653.09083939
0.27800001 91698.51454545  3837.58301535
0.27900001 90428.63009240  4937.40343672
0.28000001 89176.27198720  6014.04806745
0.28100001 87942.10340829  5579.92672535
0.28200001 86725.95442213  4049.66863341
0.28300001 85526.94974795  4007.79305488
0.28400001 84343.91553600  4326.84307179
0.28500001 83178.32804709  3925.18548633
0.28600001 82028.63128120  4237.59929256
0.28700001 80895.77834485  4892.57690587
0.28800001 79777.00848029  4495.83352571
0.28900001 78675.72212235  5133.59111148
0.29000001 77588.53786933  5080.10975746
0.29100001 76517.00928755  5362.31226470
0.29200001 75459.77376773  4311.39437830
0.29300001 74417.49928606  3938.17424864
0.29400001 73388.71271668  5195.92110630
0.29500001 72375.17022926  3534.80348132
0.29600001 71374.32462160  3497.69894365
0.29700001 70387.67762871  4090.22814063
0.29800001 69414.70197500  3424.57448405
0.29900001 68455.32906221  4312.68593508
0.30000001 67507.95486659  3657.58116782
0.30100001 66574.52811186  3920.57414611
0.30200001 65652.85276702  2983.92229952
0.30300001 64744.58665021  4428.52993653
0.30400001 63848.57166532  3505.28675037
0.30500001 62965.03852440  4335.14310764
0.30600001 62092.48565230  2859.35909966
0.30700001 61232.80337118  3394.74677962
0.30800001 60384.75308631  3358.60012567
0.30900001 59548.41909101  3322.80194259
0.31000001 58723.92700091  3835.25985401
0.31100001 57909.99238147  3252.22532612
0.31200001 57108.44664994  3217.49003659
0.31300001 56317.12988197  3978.80541454
0.31400001 55538.45385964  2624.19206911
0.31500001 54768.90186544  2596.04607134
0.31600002 54012.02687501  3081.92639941
0.31700002 53265.04067654  3811.11384086
0.31800002 52528.53707247  3267.53780331
0.31900002 51803.36983793  2983.87424395
0.32000002 51088.84588567  2951.91365505
0.32100002 50384.12627862  2676.90875593
0.32200002 49690.90978253  2407.52469296
0.32300002 49006.36011930  3334.39290040
0.32400002 48333.42665801  3298.75652561
0.32500002 47669.91757347  3263.48271161
0.32600002 47016.72068602  2536.78728474
0.32700002 46373.76026521  3194.22475832
0.32800002 45741.71595445  2483.08916817
0.32900002 45117.54790954  3126.64621819
0.33000002 44504.54932566  2209.65097865
0.33100002 43900.35098934  2186.23758280
0.33200002 43307.56592039  3244.81953024
0.33300002 42723.47685953  2140.44629202
0.33400002 42149.63924734  2541.62336697
0.33500002 41585.08260839  2515.06591526
0.33600002 41029.89526836  2488.87356484
0.33700002 40484.14488117  3694.58323682
0.33800002 39948.53143448  2437.65950357
0.33900002 39421.74352388  2613.66171941
0.34000002 38904.25182744  2188.94783274
0.34100002 38396.59045275  2363.69422021
0.34200002 37898.68567593  2144.87621741
0.34300002 37409.12588284  2316.37318437
0.34400002 36929.66836631  2102.22147131
0.34500002 36459.02328053  2459.89041724
0.34600002 35998.34476340  2061.08532704
0.34700002 35545.18124156  2597.64196816
0.34800002 35102.29248224  2388.88662802
0.34900002 34667.85162978  2912.09967482
0.35000002 34242.94578835  3064.91500795
0.35100002 33827.51239314  2321.92056064
0.35200002 33419.35227742  2300.42122297
0.35300002 33021.51808788  2980.85257898
0.35400002 32631.62981021  2432.68811757
0.35500002 32250.98651381  1894.42303755
0.35600002 31878.83357261  1877.82278054
0.35700002 31515.16005942  1861.60059288
0.35800002 31160.84430306  2517.01731780
0.35900002 30815.23652053  2329.63199130
0.36000002 30478.00229304  1815.42229257
0.36100002 30148.60062300  1800.77600051
0.36200002 29829.45420833  1786.63524443
0.36300002 29516.93864307  2095.11240412
0.36400002 29213.60982964  1919.33425672
0.36500002 28917.77627280  1746.34459183
0.36600002 28631.11401797  2364.21435202
0.36700002 28352.01810817  2191.04406319
0.36800002 28081.88415915  1865.19883420
0.36900002 27819.58833143  2624.77828340
0.37000002 27564.59560505  2300.95472713
0.37100002 27317.75960025  1524.33105790
0.37200002 27079.47800920  1818.11623966
0.37300002 26848.62432453  1656.82868555
0.37400002 26625.39524027  1647.44640853
0.37500002 26410.04122817  1638.47903541
0.37600002 26202.75853803  1481.76606552
0.37700002 26002.70603867  2653.83630402
0.37800002 25809.91498169  1467.29373622
0.37900002 25625.53190974  1606.72092686
0.38000002 25447.57893889  2326.92672841
0.38100002 25276.31437096  1448.33288207
0.38200002 25113.44791085  2596.98177149
0.38300002 24957.11093580  1868.78855540
0.38400002 24808.01323633  2148.99424840
0.38500002 24665.25759386  1713.74217881
0.38600002 24530.43243634  2990.38250782
0.38700002 24401.37382065  1420.16002364
0.38800002 24279.01174832  1558.34844289
0.38900002 24163.19747393  1837.61125495
0.39000002 24054.70912598  2398.37488703
0.39100002 23951.52320533  1830.85452055
0.39200002 23855.70495339  1687.55264835
0.39300002 23765.19720487  1404.52322135
0.39400002 23682.12255009  1403.16582757
0.39500002 23603.67122617  1542.26395099
0.39600002 23531.47237687  1961.81894501
0.39700002 23464.51131980  2101.24708824
0.39800002 23404.56462099  1680.91591072
0.39900002 23348.94773536  1961.31170269
0.40000002 23299.41972868  1821.89821200
0.40100002 23254.70310363  1542.48452995
0.40200002 23215.89639851  1543.74110416
0.40300002 23181.94256329  1545.30836449
0.40400002 23153.21083318  1406.55762476
0.40500002 23128.88660352  2112.82389134
0.40600002 23110.26748931  1975.23465590
0.40700002 23095.87787635  1413.46779300
0.40800002 23085.85195034  1557.94879269
0.40900002 23080.20087357  1703.31890518
0.41000002 23079.46125605  1707.41862462
0.41100002 23082.77655078  2139.77348764
0.41200002 23089.20242083  1859.48900507
0.41300002 23101.19047225  2295.33439408
0.41400002 23116.17626331  1726.77844869
0.41500002 23134.97458752  1587.98473093
0.41600002 23156.42172297  1593.27767214
0.41700002 23183.05180499  2907.15483410
0.41800002 23213.34655270  2188.43834995
0.41900002 23245.03874321  1464.43751021
0.42000002 23280.54707254  1617.18327902
0.42100002 23320.05074315  1919.00706659
0.42200002 23361.77076852  1630.53486805
0.42300002 23406.13544736  1488.63028499
0.42400002 23453.06210649  1644.64605815
0.42500002 23503.26138505  1652.04432104
0.42600002 23554.61678354  1659.54060412
0.42700002 23609.31627197  1970.43362943
0.42800002 23665.56851666  2132.03116870
0.42900002 23724.96574609  1836.31243576
0.43000002 23786.05167124  2306.65247012
0.43100002 23847.52777972  2008.91583536
0.43200002 23911.91184526  2950.84962110
0.43300002 23977.41260967  2497.48741577
0.43400002 24044.84820594  1725.81906176
0.43500002 24113.08462279  2207.79413269
0.43600002 24183.28620674  1585.21448597
0.43700002 24253.93904400  1752.83225777
0.43800002 24325.30123691  1601.82116236
0.43900002 24398.54638809  1610.30413793
0.44000002 24471.90636461  2428.22502410
0.44100002 24546.29402092  2766.61293021
0.44200002 24621.12226652  2126.89574779
0.44300002 24696.58551080  1644.79267297
0.44400002 24772.25148252  2645.67658371
0.44500002 24847.78386800  2327.24354737
0.44600002 24923.30522694  1671.10769466
0.44700002 25000.00996522  1680.00074928
0.44800002 25075.38614853  2195.47553828
0.44900002 25151.38405719  2037.26220518
0.45000002 25227.51362166  2389.29792834
0.45100002 25302.39698603  1887.05285665
0.45200002 25377.25805707  2241.70019671
0.45300002 25451.15651836  2079.86860925
0.45400002 25524.76842101  2090.47863275
0.45500002 25597.91897119  2101.07728873
0.45600002 25669.77697656  2287.56228368
0.45700002 25741.19075591  2122.10386649
0.45800002 25811.09864011  1777.09422560
0.45900002 25880.01032693  1964.29287691
0.46000002 25948.23182851  2153.18437918
0.46100002 26014.38332643  1983.07653496
0.46200002 26079.92909316  1992.37627750
0.46300002 26144.12423496  2183.55735959
0.46400002 26206.21832676  1827.88381492
0.46500002 26267.92744500  2754.19232314
0.46600002 26326.99045300  2766.30865296
0.46700002 26384.38633345  2222.62081007
0.46800002 26440.97137916  2046.13466716
0.46900002 26494.81842467  2054.67326622
0.47000002 26547.06726045  2063.10542993
0.47100002 26597.65642732  1883.11416431
0.47200002 26646.40163793  2079.61851440
0.47300002 26693.12623959  2087.66950215
0.47400002 26737.00900074  1905.01198160
0.47500002 26779.30386504  2103.24662525
0.47600002 26820.16724238  2302.77966858
0.47700002 26857.62645208  2503.39948025
