# SAXS profile: number of points = 501, q_min = 0, q_max = 0.5, delta_q = 0.001
#    q    intensity    error
0.00000000 1700912.83420644 280.65061764
0.00100000 1700830.38417954 612.29895285
0.00200000 1700582.97434084 841.78859895
0.00300000 1700170.82726921 1326.13329251
0.00400000 1699593.81403518 1274.69540896
0.00500000 1698852.44443311 1834.76071261
0.00600000 1697946.61744230 2139.41282508
0.00700000 1696876.90120585 2443.50283929
0.00800000 1695643.11611175 3891.50111578
0.00900000 1694246.49915061 3557.91780031
0.01000000 1692686.42352671 3910.10580718
0.01100000 1690964.19220724 3956.85638204
0.01200000 1689079.70916475 3623.07613501
0.01300000 1687034.09843211 3542.77176296
0.01400000 1684827.46970373 3790.86197489
0.01500000 1682461.11109006 6056.86026963
0.01600000 1679934.52739505 7282.51650181
0.01700000 1677250.01456975 4981.43276673
0.01800000 1674407.41424656 5249.26747987
0.01900000 1671407.50520809 5014.22274188
0.02000000 1668251.30047808 5254.99183422
0.02100000 1664940.99690798 6043.73609279
0.02200000 1661474.98702655 6305.29786223
0.02300000 1657856.64806293 6565.11262516
0.02400000 1654085.41772488 8063.66677909
0.02500000 1650163.96732599 9009.89567309
0.02600000 1646092.10924239 8000.00801682
0.02700000 1641872.05006157 8275.03551132
0.02800000 1637503.60566556 8547.76921357
0.02900000 1632989.47936243 10287.83419234
0.03000000 1628330.82715513 8328.91256374
0.03100000 1623528.10681947 10130.81585270
0.03200000 1618582.80431246 11216.77935051
0.03300000 1613498.57982643 8228.84313647
0.03400000 1608273.50960152 10976.46720949
0.03500000 1602911.07929566 13849.15236464
0.03600000 1597412.58072442 11525.33230256
0.03700000 1591779.47939361 10887.77214258
0.03800000 1586013.53853228 15772.90537067
0.03900000 1580116.78578075 12324.91149986
0.04000000 1574088.98468215 10648.71247483
0.04100000 1567934.32923814 12841.38275187
0.04200000 1561653.49385424 11079.93205293
0.04300000 1555247.47956981 12317.56060995
0.04400000 1548719.77006826 11499.24482680
0.04500000 1542071.58803695 11704.32389704
0.04600000 1535303.20901392 11906.27693939
0.04700000 1528418.78953138 12105.07737607
0.04800000 1521418.56940128 12300.66970594
0.04900000 1514306.73451768 12493.03114129
0.05000000 1507082.56273110 12682.10035594
0.05100000 1499750.72861082 14037.66747373
0.05200000 1492309.34407808 15423.01778978
0.05300000 1484764.66330816 15634.57263349
0.05400000 1477116.62829930 13404.83402694
0.05500000 1469367.80614746 12342.69014742
0.05600000 1461519.25342586 17494.38627987
0.05700000 1453576.23008100 16439.94792961
0.05800000 1445537.07735230 12793.00373190
0.05900000 1437405.27992650 14230.31293591
0.06000000 1429184.17896318 13077.03584846
0.06100000 1420874.90187722 15856.96464597
0.06200000 1412480.18687595 16017.52606789
0.06300000 1404002.48797710 17521.95186920
0.06400000 1395441.25279160 16326.66342121
0.06500000 1386802.52245872 13729.34561457
0.06600000 1378086.83776481 18004.70537781
0.06700000 1369296.45075348 13966.82445132
0.06800000 1360433.77595046 18304.63731224
0.06900000 1351501.76608656 18447.99997080
0.07000000 1342501.18154530 15727.40207829
0.07100000 1333435.16192500 18721.43055030
0.07200000 1324305.99947487 15951.26651094
0.07300000 1315116.74503557 17517.35586466
0.07400000 1305869.30453354 19098.33947383
0.07500000 1296565.42161892 14780.84649927
0.07600000 1287206.06697562 19327.40000172
0.07700000 1277797.12599176 22425.34061265
0.07800000 1268338.30142323 19538.75244972
0.07900000 1258831.90643245 24169.57373715
0.08000000 1249281.78099199 21250.28409155
0.08100000 1239689.53545209 16773.00020163
0.08200000 1230056.34406517 15314.20220223
0.08300000 1220385.71209228 16914.54676343
0.08400000 1210679.66654360 18523.39976758
0.08500000 1200940.02518859 21688.97787310
0.08600000 1191169.38041743 20208.18948759
0.08700000 1181371.46763128 24950.56656799
0.08800000 1171545.25505022 23460.19483416
0.08900000 1161696.35001927 20387.77190045
0.09000000 1151824.77555861 18866.89070993
0.09100000 1141933.16384517 17334.54624157
0.09200000 1132023.95961832 17370.90847655
0.09300000 1122101.09464113 23732.43926690
0.09400000 1112162.31374247 23772.47057349
0.09500000 1102213.02708379 15871.86833603
0.09600000 1092254.66090285 19070.76727584
0.09700000 1082291.38486972 19091.62092665
0.09800000 1072323.06721697 17516.39812657
0.09900000 1062352.36298311 22309.40067169
0.10000000 1052380.45841380 28698.41645055
0.10100000 1042409.25748750 25518.17982346
0.10200000 1032442.25028464 15951.23351718
0.10300000 1022480.36322700 25521.11106668
0.10400000 1012526.86165033 17542.02870336
0.10500000 1002584.43580396 19129.31193516
0.10600001 992649.73630424 19118.43482081
0.10700001 982731.39605279 17512.27430175
0.10800001 972826.91807028 20677.43711670
0.10900001 962940.73512341 15888.52287734
0.11000001 953072.61882299 19042.39182040
0.11100001 943225.82721381 20600.05303606
0.11200001 933401.10164908 18985.37930132
0.11300001 923600.75170879 18952.28831735
0.11400001 913826.92008878 20492.56964787
0.11500001 904081.51591453 15731.01911765
0.11600001 894364.90027377 17265.71521285
0.11700001 884680.76283084 20356.50531143
0.11800001 875027.52133484 15619.24199147
0.11900001 865408.70125256 15577.35735627
0.12000001 855825.05027614 17086.54793362
0.12100001 846281.64600074 18584.34582165
0.12200001 836775.42411801 24701.61168369
0.12300001 827311.24798077 27698.38188739
0.12400001 817887.17063283 16868.92368912
0.12500001 808506.48469499 16808.85060885
0.12600001 799171.77971379 22836.33468145
0.12700001 789882.77093882 19715.47489175
0.12800001 780640.56900488 21147.55401101
0.12900001 771447.77870983 16547.55563325
0.13000001 762304.98141955 22468.94038641
0.13100001 753212.31822544 16404.96506424
0.13200001 744173.05915169 22269.37984490
0.13300001 735187.03950978 22165.89028619
0.13400001 726254.91619485 16177.32902093
0.13500001 717379.67406623 17561.45524913
0.13600001 708561.06490776 16017.02362745
0.13700001 699800.43945710 15934.45675780
0.13800001 691096.66412555 15850.30273915
0.13900001 682454.92375237 18631.02029704
0.14000001 673872.39990712 15677.64212321
0.14100001 665353.03924622 14172.02040434
0.14200001 656895.14521084 14090.40152935
0.14300001 648501.97572176 18209.93633719
0.14400001 640169.47191709 15316.05533807
0.14500001 631904.94376802 16606.46270559
0.14600001 623705.12499944 24754.85757902
0.14700001 615572.91051113 15032.29118385
0.14800001 607505.63756142 20366.62746012
0.14900001 599506.59902458 17535.56884881
0.15000001 591575.41841680 14739.10224529
0.15100001 583713.27894216 15970.39606542
0.15200001 575921.49810168 18504.35860717
0.15300001 568199.50773213 15750.49109758
0.15400001 560545.76949599 15639.22770697
0.15500001 552964.68469481 16821.18650226
0.15600001 545452.83211894 14129.95628290
0.15700001 538015.53208194 19126.45306822
0.15800001 530646.92158788 12655.92967721
0.15900001 523352.67304797 18840.69711902
0.16000001 516128.76822951 13710.96137521
0.16100001 508979.84327965 18552.31616329
0.16200001 501903.29460082 14725.84335874
0.16300001 494899.71470618 13391.98691216
0.16400001 487970.27200840 14492.71776284
0.16500001 481113.44112252 13177.69777448
0.16600001 474331.12205859 13070.19468541
0.16700001 467621.31408712 12962.46343851
0.16800001 460985.50704254 12854.58147083
0.16900001 454425.27244286 15064.19849278
0.17000001 447937.38687165 12638.55396737
0.17100001 441524.02622190 13669.58449733
0.17200001 435184.01715386 12422.32835628
0.17300001 428918.20918860 12314.24236734
0.17400001 422726.49779126 12206.22820017
0.17500001 416607.53139291 12098.28328302
0.17600001 410560.85418370 15260.54767075
0.17700001 404590.55025849 11882.82502232
0.17800001 398691.31779747 16057.29358271
0.17900001 392864.66668118 10607.34650141
0.18000001 387112.56960713 15765.16014192
0.18100001 381433.03625251 12495.74685789
0.18200001 375823.35826009 12379.62200587
0.18300001 370286.86908090 17373.86071801
0.18400001 364821.60351173 11136.17997328
0.18500001 359428.40595474 13036.46889985
0.18600001 354106.26034125 13905.75350056
0.18700001 348853.66169321 15740.27795924
0.18800001 343670.31404377 11691.66463615
0.18900001 338560.36242508 16403.25033451
0.19000001 333515.69634427 12421.79269726
0.19100001 328542.79965191 12300.64300017
0.19200001 323636.57870058 14053.91909414
0.19300001 318800.59304579 10204.80746560
0.19400001 314030.51771067 10103.93238479
0.19500001 309328.28170860 9094.25191198
0.19600001 304691.47114669 9903.99673765
0.19700001 300122.93627568 9805.01679149
0.19800001 295618.64778561 12353.90387479
0.19900001 291179.72559201 10482.47061671
0.20000001 286803.98462376 9511.85459959
0.20100001 282493.96208143 9415.52420117
0.20200001 278245.75851281 8472.58374716
0.20300001 274061.19782706 9224.90035487
0.20400001 269938.73970543 9130.67830210
0.20500001 265877.43788094 9037.17454073
0.20600001 261876.91808877 9757.53442921
0.20700001 257937.07115733 9657.16440062
0.20800001 254056.53904618 11150.54202583
0.20900001 250237.35906667 8670.72490154
0.21000001 246473.70451886 8580.98242847
0.21100001 242769.52891579 9264.08566137
0.21200001 239121.03872580 7639.91754846
0.21300001 235529.43680333 7560.49527881
0.21400001 231994.04317920 7481.80824624
0.21500001 228514.59042906 9625.03500392
0.21600001 225088.19167972 8791.94518268
0.21700001 221716.37808936 7250.12590630
0.21800001 218397.64357497 8609.23551677
0.21900001 215130.27167577 7809.22923106
0.22000001 211914.73714708 8429.96864230
0.22100001 208751.42509296 6951.42278428
0.22200001 205638.33824854 8942.18356156
0.22300001 202574.37101055 6806.49918780
0.22400001 199558.60637835 9429.14459725
0.22500001 196593.80451497 7330.98331703
0.22600001 193674.36846469 7254.07381388
0.22700001 190803.08046774 9135.65192481
0.22800001 187977.09245164 7748.41611728
0.22900001 185196.90147159 7667.15208351
0.23000001 182461.77604290 6954.53092277
0.23100001 179772.06245174 8758.49529686
0.23200001 177124.08142918 6190.48693872
0.23300001 174520.31102531 7350.79584804
0.23400001 171957.26651185 6667.64332435
0.23500001 169436.21126765 6597.84637882
0.23600001 166956.24655829 7715.88329963
0.23700001 164516.29982648 8222.52505424
0.23800001 162115.86338745 9298.96636373
0.23900001 159754.38324817 6901.38968275
0.24000001 157430.65844700 9105.78971528
0.24100001 155145.58741241 6194.96359841
0.24200001 152897.43460514 6130.42293047
0.24300001 150685.00936926 6618.08592455
0.24400001 148508.17447133 7640.74593798
0.24500001 146366.16679602 7021.18535334
0.24600001 144258.68260763 6413.74133214
0.24700001 142185.97485660 7405.04592083
0.24800001 140145.99148273 6281.34363541
0.24900001 138137.39083537 5698.16764152
0.25000001 136162.20965495 6664.45966685
0.25100001 134217.71490048 6595.45882223
0.25200001 132306.09086878 6025.21966322
0.25300001 130422.93037646 5466.02527068
0.25400001 128570.72059319 5409.61332489
0.25500001 126745.94513479 6813.86233282
0.25600001 124951.52389268 6261.94591615
0.25700001 123184.28241892 5243.95515068
0.25800001 121444.55376241 4718.12113690
0.25900001 119733.18582997 5603.51336197
0.26000001 118047.16556792 6008.01077585
0.26100001 116387.23430336 6403.62593437
0.26200001 114753.77622883 4979.74035508
0.26300001 113144.17744311 6720.76445813
0.26400001 111560.08069796 6208.31878461
0.26500001 110000.08858186 4389.00374210
0.26600001 108463.35517067 5212.74909617
0.26700001 106950.25089247 5589.22037612
0.26800001 105460.24400433 4680.85315163
0.26900001 103991.66437025 5475.16138819
0.27000001 102545.65606709 5419.02545131
0.27100001 101121.04968270 4538.31292453
0.27200001 99718.05340188  5716.83627207
0.27300001 98335.65555349  5658.23388832
0.27400001 96972.02647718  5200.12516593
0.27500001 95630.67325519  5146.84307817
0.27600001 94306.59140791  5877.65858766
0.27700001 93003.73319758  3878.25585788
0.27800001 91718.37277380  4222.25549047
0.27900001 90452.05489540  4938.68243103
0.28000001 89203.27873736  4887.89388975
0.28100001 87972.69612984  4465.49426690
0.28200001 86760.12546336  4787.85775030
0.28300001 85564.56397266  4374.06071731
0.28400001 84385.07396986  3968.20829125
0.28500001 83222.99324143  3570.26657904
0.28600001 82076.79895427  4240.08763467
0.28700001 80947.41319278  4546.00694008
0.28800001 79832.01149069  3460.71786193
0.28900001 78734.16976184  4452.41751078
0.29000001 77650.39077862  4067.32766151
0.29100001 76582.17018475  4696.01889801
0.29200001 75528.34105159  3651.41782098
0.29300001 74489.37601211  4270.47612892
0.29400001 73463.90784754  3575.85588375
0.29500001 72453.57110035  4182.02032188
0.29600001 71456.04324553  3820.04025274
0.29700001 70472.50353282  3150.12105704
0.29800001 69502.81716869  3740.64179710
0.29900001 68546.50887846  3701.51165466
0.30000001 67602.11895008  3967.90655961
0.30100001 66671.97061806  3624.28849437
0.30200001 65753.24275578  3287.33352720
0.30300001 64848.13459512  3252.78258528
0.30400001 63954.98220300  4388.91086146
0.30500001 63074.46925976  4342.67741413
0.30600001 62204.78225273  3150.98339419
0.30700001 61347.90641728  2834.27341066
0.30800001 60502.65837408  3084.72818324
0.30900001 59669.19648843  3052.07954488
0.31000001 58847.41803139  4117.84827171
0.31100001 58036.19461838  2987.70344041
0.31200001 57237.35262602  3493.48198293
0.31300001 56448.61715995  2924.60299353
0.31400001 55672.42677631  3682.73120562
0.31500001 54905.51176893  3643.52993350
0.31600002 54151.03027295  3089.85793367
0.31700002 53406.52281069  3056.98951043
0.31800002 52672.40877032  2772.41236690
0.31900002 51949.51906791  4239.08095666
0.32000002 51237.34092828  3207.20150727
0.32100002 50534.80029795  2928.99716396
0.32200002 49843.73893380  3139.40804540
0.32300002 49161.34489488  3344.93806503
0.32400002 48490.51471641  2836.69524523
0.32500002 47828.99448389  3508.25691152
0.32600002 47177.76472741  2314.06946946
0.32700002 46536.79695886  2289.61051879
0.32800002 45906.53643932  2718.58521667
0.32900002 45284.24090472  2914.04104021
0.33000002 44673.01500242  2439.81682989
0.33100002 44070.57594719  2853.12922193
0.33200002 43479.36053936  3040.51182650
0.33300002 42896.89808038  2578.96163472
0.33400002 42324.57080275  3190.21467533
0.33500002 41761.58455237  2104.78396111
0.33600002 41207.70694806  2291.35465336
0.33700002 40663.31144644  2473.95598556
0.33800002 40129.15805498  2856.79489722
0.33900002 39603.49530250  2423.73402730
0.34000002 39087.31391013  2199.24782131
0.34100002 38580.71555308  2177.10988176
0.34200002 38083.81934643  2939.11889725
0.34300002 37595.35228535  2133.91229678
0.34400002 37116.87060755  2881.19721736
0.34500002 36647.12207932  1901.98572600
0.34600002 36187.25987065  2071.90166202
0.34700002 35734.95894649  2611.51092349
0.34800002 35292.72381382  2217.08901499
0.34900002 34858.98865043  2196.11638899
0.35000002 34434.61849680  1994.28102470
0.35100002 34019.68176287  2155.48713858
0.35200002 33612.09398729  1957.73650701
0.35300002 33214.59568583  2645.54267168
0.35400002 32825.11898031  1922.73143534
0.35500002 32444.76133116  2252.31543829
0.35600002 32072.90289002  1889.25443422
0.35700002 31709.45150478  2213.63691440
0.35800002 31355.15480356  2195.01771599
0.35900002 31009.63406328  1841.97235060
0.36000002 30672.38746739  2159.18281804
0.36100002 30343.00777497  1977.15048027
0.36200002 30023.65785788  1961.74589735
0.36300002 29711.09825934  1622.22604180
0.36400002 29407.42517684  1932.06792563
0.36500002 29111.34191298  1758.03402140
0.36600002 28824.31734302  1745.45661939
0.36700002 28544.82577451  3624.05125200
0.36800002 28274.27333955  2347.47165521
0.36900002 28011.45606418  1710.09947372
0.37000002 27755.97157038  2008.00585838
0.37100002 27508.44410183  2148.95975503
0.37200002 27269.51685609  2288.59431056
0.37300002 27037.89603948  2123.55645553
0.37400002 26813.94441147  1659.11288905
0.37500002 26597.75661316  1650.12489845
0.37600002 26389.45382717  1790.78842154
0.37700002 26188.48361002  1633.37580013
0.37800002 25994.68493724  1773.35749043
0.37900002 25809.23617736  1618.23918498
0.38000002 25630.20727205  1611.24305649
0.38100002 25457.84968994  1604.60834197
0.38200002 25293.80166418  1598.44187189
0.38300002 25136.13882056  1447.84166465
0.38400002 24985.73676250  1587.21900303
0.38500002 24841.64715328  1438.33143832
0.38600002 24705.41555696  1434.14944102
0.38700002 24574.91160590  2288.41587716
0.38800002 24451.02582244  1569.38916676
0.38900002 24333.76916645  1423.52556368
0.39000002 24223.69267022  1704.86357090
0.39100002 24118.97125618  2127.29336558
0.39200002 24021.41488339  2265.69995914
0.39300002 23929.21586957  1979.90341485
0.39400002 23844.40110351  1554.05891555
0.39500002 23764.10508174  1693.90549048
0.39600002 23690.14700154  1975.04764909
0.39700002 23621.29613629  1974.26802461
0.39800002 23559.46931417  1833.04459684
0.39900002 23501.90854921  1551.12603774
0.40000002 23450.39282071  1551.59531450
0.40100002 23403.71011488  1693.49254415
0.40200002 23362.85951193  1835.97040173
0.40300002 23326.87306010  1413.60857442
0.40400002 23295.96306766  1839.79877044
0.40500002 23269.51586414  2692.51580821
0.40600002 23248.69081679  1419.33264161
0.40700002 23232.13225517  2985.79377890
0.40800002 23219.85866771  1424.53839676
0.40900002 23211.90439744  1570.28540689
0.41000002 23209.00942954  1860.08614886
0.41100002 23209.91922346  1721.24769117
0.41200002 23214.08852444  1725.73542268
0.41300002 23223.71388023  2163.28905045
0.41400002 23236.37975014  1880.40412038
0.41500002 23252.69723275  1596.06521368
0.41600002 23271.78506683  1601.21524739
0.41700002 23295.92792085  1606.72022483
0.41800002 23323.83932699  1905.67438251
0.41900002 23353.06844871  1618.36772018
0.42000002 23386.13529395  1624.51796517
0.42100002 23423.07046262  1630.94847359
0.42200002 23462.30790338  1935.28855911
0.42300002 23504.15439886  1494.86429060
0.42400002 23548.55292931  1651.34235242
0.42500002 23596.15701340  2110.91230645
0.42600002 23644.97577439  1665.90684713
0.42700002 23697.12982589  2129.89812968
0.42800002 23750.85119223  1528.36734664
0.42900002 23807.60970651  2303.38634826
0.43000002 23866.17627837  2777.30706512
0.43100002 23924.99832905  2015.44195475
0.43200002 23986.88721193  2025.33291772
0.43300002 24049.74854248  1565.63870431
0.43400002 24114.52713297  1730.82026699
0.43500002 24180.24765088  2372.08240696
0.43600002 24247.81895418  1748.38906855
0.43700002 24315.96452643  1757.31483960
0.43800002 24384.65837436  1766.30281305
0.43900002 24455.33762154  1936.86283141
0.44000002 24526.08188762  2109.12051188
0.44100002 24597.92199242  1630.84230538
0.44200002 24670.21918312  1967.20337089
0.44300002 24743.09981849  2307.04673641
0.44400002 24816.23747368  2153.42910883
0.44500002 24889.19138418  1831.59568076
0.44600002 24962.16172865  2677.94083716
0.44700002 25036.40438519  2523.66968163
0.44800002 25109.24543016  2536.66163980
0.44900002 25182.87353304  2379.78166165
0.45000002 25256.46949179  3417.20048419
0.45100002 25328.84477902  2060.75490889
0.45200002 25401.24922433  2416.42095323
0.45300002 25472.66412679  2428.56391294
0.45400002 25543.93736989  1743.37380812
0.45500002 25614.70376474  1752.04582054
0.45600002 25684.15858942  1936.71407022
0.45700002 25753.19543767  2123.09353250
0.45800002 25820.82590682  2311.09313232
0.45900002 25887.33425955  2322.09399314
0.46000002 25953.35299527  2333.07677808
0.46100002 26017.24683911  2163.59434968
0.46200002 26080.55360778  2354.68289408
0.46300002 26142.52784689  2183.42402926
0.46400002 26202.43857066  1827.62017692
0.46500002 26262.01350878  1835.71483127
0.46600002 26318.95492227  2028.00716765
0.46700002 26374.20603356  2406.91015670
0.46800002 26428.70625997  2417.03744556
0.46900002 26480.43380278  2053.55773874
0.47000002 26530.82485650  2061.84315145
0.47100002 26579.39695571  2258.18567239
0.47200002 26626.17398651  2455.86527405
0.47300002 26670.93325846  2465.19447792
0.47400002 26712.98584197  2283.96039774
0.47500002 26753.41166800  2483.25178872
0.47600002 26792.42540953  2108.69794180
0.47700002 26828.09797039  2500.64713035
