# SAXS profile: number of points = 501, q_min = 0, q_max = 0.5, delta_q = 0.001
#    q    intensity    error
0.00000000 1700912.83420644 331.67800267
0.00100000 1700830.39028677 510.24912920
0.00200000 1700583.00068208 841.78861199
0.00300000 1700170.88425280 1224.12308027
0.00400000 1699593.90811758 1784.57367133
0.00500000 1698852.59489981 1834.76087511
0.00600000 1697946.83679466 2674.26637683
0.00700000 1696877.19234360 2850.75380162
0.00800000 1695643.49658103 2518.03069873
0.00900000 1694246.99413081 3303.78177978
0.01000000 1692687.02707886 2792.93371528
0.01100000 1690964.92050854 3956.85808627
0.01200000 1689080.57062080 3952.44870854
0.01300000 1687035.11942748 4959.88346987
0.01400000 1684828.66002583 5307.21051436
0.01500000 1682462.47785127 6460.65620263
0.01600000 1679936.06223521 4283.83715020
0.01700000 1677251.73405257 6340.01183912
0.01800000 1674409.35248473 7158.10030397
0.01900000 1671409.65402487 6518.49794483
0.02000000 1668253.69868555 6831.49920514
0.02100000 1664943.61686070 5494.31418474
0.02200000 1661477.88551334 7451.72865508
0.02300000 1657859.79686781 6565.12509443
0.02400000 1654088.87894564 8063.68365254
0.02500000 1650167.68057595 7722.78509780
0.02600000 1646096.14565500 8666.69660327
0.02700000 1641876.36126581 8964.64534310
0.02800000 1637508.23121468 7835.47724569
0.02900000 1632994.50447184 8818.17072903
0.03000000 1628336.13941703 13629.17411339
0.03100000 1623533.77947041 10130.85125005
0.03200000 1618588.86759242 9614.41831632
0.03300000 1613505.01150208 9874.65112562
0.03400000 1608280.36244771 12665.20843865
0.03500000 1602918.32332494 12118.06308393
0.03600000 1597420.15293646 17731.36451703
0.03700000 1591787.55152059 12702.46524859
0.03800000 1586022.04172605 14845.16699758
0.03900000 1580125.68723800 10428.83001873
0.04000000 1574098.36729454 11616.84648895
0.04100000 1567944.17013764 15804.87796781
0.04200000 1561663.78155175 19138.19053079
0.04300000 1555258.28039726 13344.11666522
0.04400000 1548730.99267048 14635.50856044
0.04500000 1542083.34168010 13832.48821760
0.04600000 1535315.46612960 10823.97453939
0.04700000 1528431.57147342 12105.17860906
0.04800000 1521431.85907254 16773.78702673
0.04900000 1514320.59287344 12493.14547273
0.05000000 1507096.92911336 16141.00886243
0.05100000 1499765.68093011 12867.99014182
0.05200000 1492324.83728517 11863.98300929
0.05300000 1484780.77445857 14432.06980053
0.05400000 1477133.31809949 20716.79575245
0.05500000 1469385.04540515 16045.68544434
0.05600000 1461537.11593188 18744.21438651
0.05700000 1453594.57750260 21498.66480479
0.05800000 1445556.08522398 14072.48914673
0.05900000 1437424.89111546 18111.55447397
0.06000000 1429204.44933765 15692.66558687
0.06100000 1420895.82442782 17178.63132011
0.06200000 1412501.75203361 18687.39905292
0.06300000 1404024.57948519 17522.22757123
0.06400000 1395464.07616065 13605.77537886
0.06500000 1386826.04900213 15102.53638010
0.06600000 1378111.00328778 15235.01785417
0.06700000 1369321.25935271 18157.20074876
0.06800000 1360459.31831952 16896.90552446
0.06900000 1351527.98917357 14191.04455073
0.07000000 1342528.16551397 14297.92563227
0.07100000 1333462.70900692 23042.23669089
0.07200000 1324334.26386161 20302.04521608
0.07300000 1315145.72841839 17517.74192334
0.07400000 1305899.10399762 22037.04841271
0.07500000 1296595.85843266 17737.43217476
0.07600000 1287237.19984979 16354.34939079
0.07700000 1277829.02681399 22425.90047210
0.07800000 1268370.94069544 15030.19635210
0.07900000 1258865.26389425 18127.66065033
0.08000000 1249315.86188769 16697.10727741
0.08100000 1239724.27171166 21348.05296049
0.08200000 1230091.85715030 21440.50207623
0.08300000 1220421.98258995 24603.70832371
0.08400000 1210716.68161698 16980.30225671
0.08500000 1200977.83012349 17041.87620949
0.08600000 1191207.88396131 17099.78997713
0.08700000 1181410.71181255 15594.62212821
0.08800000 1171585.39939890 15640.66581652
0.08900000 1161737.14019264 15683.45212925
0.09000000 1151866.37387615 20439.86976461
0.09100000 1141975.56992074 22062.96904741
0.09200000 1132066.95128453 18950.80165494
0.09300000 1122144.97620676 25315.59185286
0.09400000 1112206.93152282 19018.73942287
0.09500000 1102258.40527717 17459.77396025
0.09600000 1092300.82174328 19071.57324415
0.09700000 1082338.39890013 25456.60033892
0.09800000 1072370.73256421 17517.17674005
0.09900000 1062400.84734835 22310.41884341
0.10000000 1052429.66070936 20727.60314243
0.10100000 1042459.30261959 23924.44212033
0.10200000 1032493.10651219 22332.82694431
0.10300000 1022531.89562124 17546.64815427
0.10400000 1012579.16690374 22327.37168062
0.10500000 1002637.42624602 20724.51657558
0.10600001 992703.57910490 19119.47183320
0.10700001 982785.86300493 15921.13172989
0.10800001 972882.18431545 23859.93669323
0.10900001 962996.73553853 17478.39157266
0.11000001 953129.43266289 22217.44812114
0.11100001 943283.29684347 15847.16013295
0.11200001 933459.33038241 17404.35003433
0.11300001 923659.71305737 15794.58183690
0.11400001 913886.55628582 17340.99822201
0.11500001 904141.82650503 17305.27537418
0.11600001 894425.94814748 15697.17612919
0.11700001 884742.58010431 26621.90548910
0.11800001 875090.09525083 15620.35893592
0.11900001 865472.00476941 23367.74522943
0.12000001 855889.01222044 18641.26356426
0.12100001 846346.29645377 18585.76554567
0.12200001 836840.73984332 23159.56856624
0.12300001 827377.22843771 29239.51263059
0.12400001 817953.80758973 19937.62499941
0.12500001 808573.69557335 18338.45227972
0.12600001 799239.76623990 16748.07009078
0.12700001 789951.20251309 16683.77018332
0.12800001 780709.89427682 18128.08459947
0.12900001 771517.60614356 16549.05343177
0.13000001 762375.40432578 17976.81288134
0.13100001 753283.34875798 19389.51431101
0.13200001 744244.73315026 17817.21975153
0.13300001 735259.39053234 17734.45733570
0.13400001 726327.76425247 19120.57929540
0.13500001 717453.11771923 19026.85757900
0.13600001 708634.95287917 17474.93876196
0.13700001 699874.89516342 15936.15211431
0.13800001 691171.68792736 17293.11644741
0.13900001 682530.47822677 17199.76886242
0.14000001 673948.49190453 21381.01691401
0.14100001 665429.56757327 15591.01550356
0.14200001 656972.22822488 16910.46595210
0.14300001 648579.42311499 18212.11106009
0.14400001 640247.43843336 19495.53541990
0.14500001 631983.36284890 17992.56718906
0.14600001 623783.91964263 20631.65411546
0.14700001 615652.21629325 19134.47178509
0.14800001 607585.22722507 13579.53046914
0.14900001 599586.76479826 17537.91369780
0.15000001 591655.90502607 16081.20825737
0.15100001 583794.17627930 15972.60941667
0.15200001 576002.66780269 14541.18803483
0.15300001 568281.11376725 13127.29434749
0.15400001 560627.61927538 15641.51131592
0.15500001 553046.84754463 12941.29684328
0.15600001 545535.34556208 12847.35799432
0.15700001 538098.21186146 16578.80668992
0.15800001 530729.82666580 15189.48835610
0.15900001 523435.98861889 16331.20361575
0.16000001 516212.29742765 14959.83308559
0.16100001 509063.56587767 13607.26975823
0.16200001 501987.23521721 13500.94732849
0.16300001 494983.84907317 15829.58424064
0.16400001 488054.49962301 13287.28437952
0.16500001 481197.85020518 11981.82703579
0.16600001 474415.68593482 16637.75889125
0.16700001 467705.92363065 12964.80881517
0.16800001 461070.27739612 12856.94529225
0.16900001 454510.14252552 15067.01193616
0.17000001 448022.28450807 12640.94935430
0.17100001 441608.82317203 12532.85899344
0.17200001 435268.87194234 12424.75053633
0.17300001 429003.17144403 11196.98330346
0.17400001 422811.40838378 13318.55999307
0.17500001 416692.38459190 11000.67947276
0.17600001 410645.65319241 10902.64260718
0.17700001 404675.21311213 11885.31157045
0.17800001 398775.99502831 11777.84956945
0.17900001 392949.11679553 12731.55198553
0.18000001 387196.86777994 10512.39545678
0.18100001 381517.16323273 11456.96095307
0.18200001 375907.34869361 15477.98581361
0.18300001 370370.64727376 13288.89945194
0.18400001 364905.23834832 10126.12084253
0.18500001 359511.75716038 11033.41634849
0.18600001 354189.30644650 11922.01261823
0.18700001 348936.52849996 12792.01373916
0.18800001 343752.85732268 12669.01215519
0.18900001 338642.52827406 12546.70626535
0.19000001 333597.47627463 11469.08177622
0.19100001 328624.32775842 17982.32406461
0.19200001 323717.71429428 10308.79109881
0.19300001 318881.37978988 12063.28316747
0.19400001 314110.81741185 10106.51602780
0.19500001 309408.25140040 10006.26332314
0.19600001 304770.84741351 13508.96844999
0.19700001 300201.87829034 8915.99620657
0.19800001 295697.04015835 9709.21277244
0.19900001 291257.64516528 9611.50274469
0.20000001 286881.24016289 9514.41677966
0.20100001 282570.67037816 10274.27006054
0.20200001 278321.90752495 16102.31472091
0.20300001 274136.67843001 14260.59068595
0.20400001 270013.66706546 9963.50478565
0.20500001 265951.66015092 8217.90668710
0.20600001 261950.50965516 12200.34556387
0.20700001 258009.97481507 13684.84971106
0.20800001 254128.64465214 10357.01340238
0.20900001 250308.72377304 10250.14272304
0.21000001 246544.33316947 10924.37991916
0.21100001 242839.35549490 10038.97943074
0.21200001 239190.12541020 9170.54984176
0.21300001 235597.65865826 9075.22224055
0.21400001 232061.38526772 8232.37803157
0.21500001 228581.08384962 8146.63021355
0.21600001 225153.77737544 10260.25812009
0.21700001 221781.05356980 9427.91303300
0.21800001 218461.46149564 11482.33495910
0.21900001 215193.11594126 9231.78511037
0.22000001 211976.54999339 7729.72526099
0.22100001 208812.25569879 8344.13813226
0.22200001 205698.24972396 8944.78881220
0.22300001 202633.26144670 10212.71685983
0.22400001 199616.44920157 12800.40541034
0.22500001 196650.44311495 8666.38543789
0.22600001 193730.01499358 7256.15805472
0.22700001 190857.59600754 7180.06310134
0.22800001 188030.55146778 7750.61969803
0.22900001 185249.17266798 7030.20643521
0.23000001 182512.81176349 6324.06922668
0.23100001 179821.86933339 6883.58148363
0.23200001 177172.83864587 6811.41010388
0.23300001 174567.80616427 9190.99542923
0.23400001 172003.53255896 6669.43729041
0.23500001 169481.25924635 6599.60054719
0.23600001 166999.99850067 7124.22027299
0.23700001 164558.82536745 6462.22537783
0.23800001 162156.91633552 8138.65601583
0.23900001 159794.24349370 8628.88955680
0.24000001 157469.12534731 6261.76006562
0.24100001 155182.78640377 7323.07603678
0.24200001 152933.22207828 6131.85782928
0.24300001 150719.40225873 6067.96342197
0.24400001 148541.27707640 6550.67062894
0.24500001 146397.77391026 7022.70154668
0.24600001 144288.92550084 6949.67642550
0.24700001 142214.79975732 7935.58620186
0.24800001 140173.34616912 6282.56967251
0.24900001 138163.25454032 5699.23451940
0.25000001 136186.64267171 6665.65554091
0.25100001 134240.62808868 6596.58477636
0.25200001 132327.52247860 5021.82971564
0.25300001 130442.91353184 5466.86276476
0.25400001 128589.16592096 7377.80374377
0.25500001 126762.77106352 5354.45970305
0.25600001 124966.87469956 6262.71522187
0.25700001 123198.11420651 5244.54396991
0.25800001 121456.79459803 5662.31603207
0.25900001 119743.82145094 4670.00925755
0.26000001 118056.30265462 5546.28536114
0.26100001 116394.71663191 5489.17509609
0.26200001 114759.63503085 6338.17494266
0.26300001 113148.52441336 6272.95449030
0.26400001 111562.79702159 6651.93208717
0.26500001 110001.21053780 6583.57276221
0.26600001 108462.81582138 5647.11677296
0.26700001 106948.03626150 5159.17351339
0.26800001 105456.46076451 4680.68523253
0.26900001 103986.22495734 5053.73077208
0.27000001 102538.58821979 4168.19380838
0.27100001 101112.31832124 4537.92106100
0.27200001 99707.64990070  4899.63414799
0.27300001 98323.67683470  5253.43430189
0.27400001 96958.34644890  3999.53198029
0.27500001 95615.36179023  5541.86663163
0.27600001 94289.63733350  4309.50807828
0.27700001 92985.03782122  4265.22388672
0.27800001 91698.01883759  4605.07472397
0.27900001 90430.10294122  5697.09675493
0.28000001 89179.67079707  4134.81563220
0.28100001 87947.38149011  3720.17441310
0.28200001 86733.09519898  4786.36608509
0.28300001 85535.91335066  4736.97910556
0.28400001 84354.73960131  4688.01487523
0.28500001 83191.06791945  4282.67637920
0.28600001 82043.17883972  5297.93852434
0.28700001 80912.15059385  6641.26963509
0.28800001 79795.14699600  5880.50363621
0.28900001 78695.64294904  3765.58669335
0.29000001 77610.24827947  4403.99374708
0.29100001 76540.38871715  4358.20993985
0.29200001 75484.90275284  3981.07395963
0.29300001 74444.29779398  3282.99368812
0.29400001 73417.25850785  5522.81353268
0.29500001 72405.37520265  4500.71833565
0.29600001 71406.16117819  3499.25909418
0.29700001 70421.12931630  4092.17201829
0.29800001 69449.79286786  3426.30569333
0.29900001 68491.97291407  4006.78060515
0.30000001 67546.07234548  5184.49902831
0.30100001 66614.30936788  3621.15402866
0.30200001 65694.04280965  3582.95326446
0.30300001 64787.40347744  4136.02803380
0.30400001 63892.76590360  4676.95068556
0.30500001 63010.73096653  2892.19268829
0.30600001 62139.53895681  3147.67849488
0.30700001 61281.24998176  3680.55204815
0.30800001 60434.54004686  3361.36927655
0.30900001 59599.62714552  3325.65935217
0.31000001 58776.38514128  3564.49404565
0.31100001 57963.82914957  3255.24879916
0.31200001 57163.49534273  4025.73935011
0.31300001 56373.38260596  2920.70509110
0.31400001 55595.92511924  3152.28910351
0.31500001 54827.59348946  3378.47647078
0.31600002 54071.82304415  2828.22683823
0.31700002 53325.95946321  3052.37806420
0.31800002 52590.57513104  2768.10505309
0.31900002 51866.43652865  2987.50688551
0.32000002 51153.06839569  2709.32239586
0.32100002 50449.27427639  2924.04007551
0.32200002 49757.00394261  3616.09043275
0.32300002 49073.42131364  2861.96206653
0.32400002 48401.42692671  3303.39754417
0.32500002 47738.78621195  2567.86943193
0.32600002 47086.42936951  2771.50736393
0.32700002 46444.35130868  2742.07463111
0.32800002 45812.97857840  2486.95765989
0.32900002 45189.65806275  2684.26581604
0.33000002 44577.41963466  3541.23038347
0.33100002 43973.94174326  2627.88288302
0.33200002 43381.78585935  2600.30436755
0.33300002 42798.36312190  2573.03771274
0.33400002 42225.06503913  2546.17154243
0.33500002 41661.20218599  2309.69715857
0.33600002 41106.49905269  2493.52035062
0.33700002 40561.23631498  2879.03668998
0.33800002 40026.23313926  3053.00107728
0.33900002 39499.81497142  2618.83785663
0.34000002 38982.83556261  2791.56098684
0.34100002 38475.51601414  2763.31169100
0.34200002 37977.92426514  2540.15358477
0.34300002 37488.78322914  1934.42130624
0.34400002 37009.65395172  2489.82458752
0.34500002 36539.28606013  2086.02793997
0.34600002 36078.78429658  3004.64129852
0.34700002 35625.89132579  2231.60593834
0.34800002 35183.18624989  2394.39185364
0.34900002 34748.91524740  2554.04539165
0.35000002 34324.11124855  3072.17972281
0.35100002 33908.75224889  2506.53508495
0.35200002 33500.68257937  1951.24734925
0.35300002 33102.84960504  2460.86595619
0.35400002 32712.99096864  1916.16353674
0.35500002 32332.38381152  2244.51419050
0.35600002 31960.21048265  2396.05709337
0.35700002 31596.44685228  1866.40220397
0.35800002 31241.95483654  1850.61728240
0.35900002 30896.27081286  2002.07844350
0.36000002 30558.86362528  1985.71505243
0.36100002 30229.37744209  2133.89185471
0.36200002 29909.92723490  2117.17429961
0.36300002 29597.27090224  1939.21328137
0.36400002 29293.61323389  2245.35556073
0.36500002 28997.53587760  1751.16127460
0.36600002 28710.52327825  2212.72013387
0.36700002 28431.11525407  1726.33740000
0.36800002 28160.65148047  1870.43055993
0.36900002 27897.93417734  1703.16896220
0.37000002 27642.64256576  1692.14444482
0.37100002 27395.34362415  2140.12434530
0.37200002 27156.63041657  1519.41354378
0.37300002 26925.27847988  1812.60983313
0.37400002 26701.66790059  2403.15022489
0.37500002 26485.80160973  2091.31899417
0.37600002 26277.84040499  1634.61313983
0.37700002 26077.26131410  1478.58078655
0.37800002 25883.89628981  1618.64953116
0.37900002 25698.93327256  1464.83926593
0.38000002 25520.41755508  1604.34112560
0.38100002 25348.57062193  1597.72048199
0.38200002 25185.06688333  2025.63502539
0.38300002 25028.03654037  1441.61497302
0.38400002 24878.25704589  1436.71941246
0.38500002 24734.81924348  1432.14610204
0.38600002 24599.28669914  2284.78185686
0.38700002 24469.48269047  1708.94875206
0.38800002 24346.41018769  2272.98096281
0.38900002 24229.90440740  1842.68431748
0.39000002 24120.65669140  2546.41784755
0.39100002 24016.71865757  1553.40143637
0.39200002 23920.07803814  1692.10640058
0.39300002 23828.77249561  1830.76467757
0.39400002 23744.90227305  1688.26263160
0.39500002 23665.64844379  1827.46145941
0.39600002 23592.59713878  1826.42099403
0.39700002 23524.81204173  2106.64701815
0.39800002 23464.04351506  1544.75537800
0.39900002 23407.58964468  1825.79207879
0.40000002 23357.17240584  1685.92078413
0.40100002 23311.63918695  1686.83029149
0.40200002 23271.95186698  1547.46851271
0.40300002 23237.16269793  1830.62376408
0.40400002 23207.51293049  1691.82777279
0.40500002 23182.30117291  1835.34287082
0.40600002 23162.81835026  1979.72617820
0.40700002 23147.53052479  1558.29182876
0.40800002 23136.58295651  1703.31531796
0.40900002 23130.01479697  2275.99356386
0.41000002 23128.46753348  1711.04410920
0.41100002 23130.83814483  2287.17738413
0.41200002 23136.43616468  1576.63251715
0.41300002 23147.49631107  2299.93534244
0.41400002 23161.59669400  2162.71419378
0.41500002 23179.48078635  1446.39966960
0.41600002 23200.05848389  2612.09470847
0.41700002 23225.78109371  1747.50785229
0.41800002 23255.26544340  1900.07155309
0.41900002 23286.06168426  1613.72415118
0.42000002 23320.70544039  1619.97288018
0.42100002 23359.28904025  1774.37167958
0.42200002 23400.24492324  1781.69473288
0.42300002 23443.72249985  1789.22498597
0.42400002 23489.77848859  1647.22079457
0.42500002 23539.09505337  1654.56306970
0.42600002 23589.63765522  1662.00799975
0.42700002 23643.55343616  1821.49944304
0.42800002 23699.01955914  1982.54157517
0.42900002 23757.58376304  1685.60064786
0.43000002 23817.90779768  2001.77615571
0.43100002 23878.58184596  1856.79861233
0.43200002 23942.22839972  2021.56215073
0.43300002 24006.92247832  1875.42087288
0.43400002 24073.60602691  1570.80286769
0.43500002 24141.10592197  2052.47692275
0.43600002 24210.56560900  1904.40318105
0.43700002 24280.57351918  2233.32725813
0.43800002 24351.18768602  1763.87836363
0.43900002 24423.74404310  1934.36061988
0.44000002 24496.43169479  1782.48293674
0.44100002 24570.14792241  1791.90097290
0.44200002 24644.39044711  2292.66775195
0.44300002 24719.23208536  2469.45140236
0.44400002 24794.26420437  2151.52237830
0.44500002 24869.19878897  1830.12442561
0.44600002 24944.13225092  2007.00497602
0.44700002 25020.29485943  2522.04584135
0.44800002 25095.11382511  2366.21839471
0.44900002 25170.67247404  2378.62866152
0.45000002 25246.25315668  1878.70001769
0.45100002 25320.60422662  1888.41075272
0.45200002 25395.02541838  1898.15126486
0.45300002 25468.36604643  1907.83539096
0.45400002 25541.60161722  1917.53583229
0.45500002 25614.37135537  2277.63000886
0.45600002 25685.76606106  2817.21495510
0.45700002 25756.77659467  2300.33782669
0.45800002 25826.37612027  2133.77529618
0.45900002 25894.87553198  1786.74649639
0.46000002 25962.83068454  1795.32982692
0.46100002 26028.68407352  2525.30304850
0.46200002 26093.93675321  2537.11359076
0.46300002 26157.85094713  2002.64516343
0.46400002 26219.72906937  1828.82618927
0.46500002 26281.22280855  2020.76331752
0.46600002 26340.08360991  2214.14753319
0.46700002 26397.28317075  2779.63404962
0.46800002 26453.65407908  2605.42051374
0.46900002 26507.34403322  2242.52141150
0.47000002 26559.52422862  2251.71657083
0.47100002 26610.02384770  2072.38875548
0.47200002 26658.67355514  2269.71957406
0.47300002 26705.31218310  1898.74778621
0.47400002 26749.16232488  2668.22906837
0.47500002 26791.45852780  2678.07432137
0.47600002 26832.26021349  2111.83314020
0.47700002 26869.73140349  2311.87179953
