# SAXS profile: number of points = 501, q_min = 0, q_max = 0.5, delta_q = 0.001
#    q    intensity    error
0.00000000 1682732.95097188 328.13292544
0.00100000 1682650.95255464 555.27482753
0.00200000 1682404.89495747 908.49867204
0.00300000 1681994.99637313 1110.11673715
0.00400000 1681421.14382950 1513.27908695
0.00500000 1680683.82363126 1815.13860137
0.00600000 1679782.95532868 1763.77217490
0.00700000 1678719.08771855 2215.90928788
0.00800000 1677492.05906771 2264.61437535
0.00900000 1676103.08629968 3016.98568431
0.01000000 1674551.57158387 3039.31123366
0.01100000 1672838.78123331 3312.22093105
0.01200000 1670964.62140215 3584.21927005
0.01300000 1668930.23584318 4556.17974480
0.01400000 1666735.73033886 4500.18667141
0.01500000 1664382.39472288 3994.51792521
0.01600000 1661869.74593244 5932.87525820
0.01700000 1659199.97812488 5375.80817028
0.01800000 1656373.03940941 5664.79604968
0.01900000 1653389.66101461 4960.16920686
0.02000000 1650250.92068612 5718.11969884
0.02100000 1646958.90153594 6521.95754578
0.02200000 1643512.04688159 7938.16354709
0.02300000 1639913.84012647 6494.05910250
0.02400000 1636163.49655989 8589.85874862
0.02500000 1632263.81029681 7638.99498107
0.02600000 1628214.61061475 9231.97726444
0.02700000 1624018.07720359 7502.96386032
0.02800000 1619673.98764330 7045.58216936
0.02900000 1615185.10509176 7995.16663730
0.03000000 1610552.49583097 8237.97639484
0.03100000 1605776.75227182 11561.59314834
0.03200000 1600859.12965186 11093.95427945
0.03300000 1595803.51591184 13835.61712078
0.03400000 1590608.00236772 9185.76163751
0.03500000 1585275.85197984 8560.48999600
0.03600000 1579808.38207013 11398.31800339
0.03700000 1574207.19955484 9870.27959768
0.03800000 1568474.01697699 11928.24545114
0.03900000 1562610.83643702 12188.36508865
0.04000000 1556617.45702378 10530.51758474
0.04100000 1550497.91621546 14652.20598761
0.04200000 1544253.07799562 12948.56265971
0.04300000 1537883.82297105 12180.04044330
0.04400000 1531393.66684621 14471.67082379
0.04500000 1524783.89916916 16833.61502900
0.04600000 1518054.64495389 12842.74289333
0.04700000 1511210.15346861 13056.85633322
0.04800000 1504250.67454624 12161.86726958
0.04900000 1497180.27451311 12351.73783968
0.05000000 1489998.18951151 12538.33534860
0.05100000 1482709.42356589 11565.13404256
0.05200000 1475311.68808122 15247.34700687
0.05300000 1467811.53137358 11889.27395838
0.05400000 1460208.70982550 13251.39465963
0.05500000 1452505.80183627 13421.15423505
0.05600000 1444703.88853907 12352.21882341
0.05700000 1436808.13272390 15000.27760583
0.05800000 1428817.24847364 13909.53656336
0.05900000 1420734.13064315 16622.59010490
0.06000000 1412562.60639474 18094.92783329
0.06100000 1404303.44755923 16978.02947440
0.06200000 1395959.57149033 14511.00042394
0.06300000 1387533.50700481 21312.51566407
0.06400000 1379024.46161929 21512.78260734
0.06500000 1370438.60536791 18994.27995891
0.06600000 1361776.57241491 15054.44071242
0.06700000 1353040.25167419 16561.21345554
0.06800000 1344232.47550233 19477.92948177
0.06900000 1335356.08051978 15423.36345211
0.07000000 1326411.62620992 19776.79827291
0.07100000 1317402.33759617 17073.53509493
0.07200000 1308330.52350638 14326.21990353
0.07300000 1299199.27982878 21631.66902271
0.07400000 1290010.47610436 15963.88038993
0.07500000 1280765.70721652 17520.87569597
0.07600000 1271466.21144791 16153.97897375
0.07700000 1262117.55402800 17720.13128942
0.07800000 1252719.68277218 19298.14761812
0.07900000 1243274.79385283 20887.01751641
0.08000000 1233786.71192013 16489.56017836
0.08100000 1224256.99269335 18070.03405997
0.08200000 1214686.91966082 18147.42343130
0.08300000 1205079.97593886 15184.00840945
0.08400000 1195438.01110767 18290.20242846
0.08500000 1185763.30253950 21414.88624919
0.08600000 1176057.83910366 16882.31107298
0.08700000 1166325.52128595 16935.04736430
0.08800000 1156565.46335926 15440.14966097
0.08900000 1146783.32302803 20126.04826446
0.09000000 1136979.02758330 17071.74090112
0.09100000 1127155.12202993 23332.11212219
0.09200000 1117313.72492501 21821.13807309
0.09300000 1107459.60356806 20299.73548733
0.09400000 1097589.84887799 20332.85290606
0.09500000 1087709.89449305 15663.02321690
0.09600000 1077821.42157585 18818.76290534
0.09700000 1067928.25666070 18838.25533313
0.09800000 1058030.58329337 18854.10588076
0.09900000 1048131.04472641 18866.35969222
0.10000000 1038230.44569317 20447.94958954
0.10100000 1028331.23416006 18880.16234715
0.10200000 1018436.49984716 25175.75146040
0.10300000 1008547.16454546 17306.67015772
0.10400000 998666.59513782 25166.39938143
0.10500000 988797.47203053 20438.44470849
0.10600001 978936.44860501 20425.50996124
0.10700001 969091.84753749 17269.21753577
0.10800001 959261.74687946 20389.10938947
0.10900001 949450.20340699 17232.52200290
0.11000001 939656.96109890 17209.81805258
0.11100001 929885.05927828 18746.48367751
0.11200001 920136.06522919 23394.46055980
0.11300001 910411.37883163 15568.03531098
0.11400001 900713.52686716 18644.77088403
0.11500001 891044.31244276 15504.17176656
0.11600001 881404.31031141 18562.37564929
0.11700001 871796.75336612 20060.04423968
0.11800001 862220.58165378 16929.70191813
0.11900001 852679.12168075 24557.15986109
0.12000001 843172.84521446 21425.02300612
0.12100001 833706.89809933 18308.20434473
0.12200001 824278.63399461 19770.32396777
0.12300001 814892.21778511 18188.39515790
0.12400001 805546.48797161 18124.79683336
0.12500001 796243.98840180 16553.91329890
0.12600001 786987.85351818 19489.75511080
0.12700001 777777.37760767 16426.65898920
0.12800001 768614.25508525 17847.22384421
0.12900001 759500.32841944 17772.30852266
0.13000001 750436.60893314 16220.68806665
0.13100001 741423.21629847 14680.18037470
0.13200001 732463.02974949 18996.42957205
0.13300001 723556.45906255 17452.18261534
0.13400001 714703.87670414 18814.58044126
0.13500001 705908.16460205 15840.57996052
0.13600001 697169.13735453 20057.55702742
0.13700001 688488.17642097 14251.70592393
0.13800001 679864.33468421 17010.20645593
0.13900001 671302.15155637 16916.81501699
0.14000001 662799.68923106 16821.85690601
0.14100001 654360.05079809 18119.23066116
0.14200001 645982.17509031 19398.84563291
0.14300001 637668.68604601 16528.37312192
0.14400001 629416.22601755 19165.72498628
0.14500001 621231.49424712 13604.97036579
0.14600001 613111.55406294 18926.75456678
0.14700001 605059.29165744 21491.70705358
0.14800001 597071.63070633 20016.82736380
0.14900001 589152.58024425 14581.52704901
0.15000001 581301.19299740 17116.41443541
0.15100001 573518.52516243 15691.46758885
0.15200001 565806.53553702 12985.26060331
0.15300001 558163.94803690 16761.66415051
0.15400001 550589.88184687 14081.33689275
0.15500001 543088.21564328 12708.26484579
0.15600001 535655.66426537 16399.09893544
0.15700001 528297.55186133 16276.84834106
0.15800001 521007.90666425 13668.64307648
0.15900001 513792.93024713 13564.13399876
0.16000001 506647.69811013 12235.54248691
0.16100001 499577.63263195 12139.73704600
0.16200001 492579.66305148 25291.50399329
0.16300001 485654.64740160 14336.52586809
0.16400001 478803.51687455 13035.42636231
0.16500001 472024.83377439 16454.78648223
0.16600001 465320.24589852 12821.89998109
0.16700001 458688.49833181 16182.53098520
0.16800001 452130.41011844 16046.10901274
0.16900001 445647.37778601 15909.61213818
0.17000001 439236.65422564 13519.70485546
0.17100001 432900.25981544 13402.59267677
0.17200001 426637.22501255 12178.36016308
0.17300001 420447.93985749 10973.69174851
0.17400001 414332.79141930 15226.73080376
0.17500001 408289.91907872 10778.85437274
0.17600001 402319.27155829 12817.89259722
0.17700001 396424.47784909 10584.53405848
0.17800001 390600.66294135 10487.62829533
0.17900001 384849.39648850 16625.49471358
0.18000001 379171.91438030 11323.96975786
0.18100001 373567.07074241 10198.38151300
0.18200001 368031.95216484 12122.97307697
0.18300001 362569.42754627 15010.37500950
0.18400001 357178.19766480 10902.86499878
0.18500001 351858.37765498 11780.21904041
0.18600001 346609.50529132 13611.35591584
0.18700001 341430.01606875 11553.99228963
0.18800001 336319.29765104 11441.58304666
0.18900001 331281.64865708 10385.68017610
0.19000001 326309.00726239 10283.62884976
0.19100001 321407.76462442 12959.16168198
0.19200001 316572.96935514 10081.26668547
0.19300001 311808.05459741 14517.78370806
0.19400001 307108.63575692 9881.22082240
0.19500001 302476.72302371 10671.37929255
0.19600001 297909.97353239 12324.53618745
0.19700001 293410.97363511 12200.02886029
0.19800001 288975.97844467 15526.68005560
0.19900001 284606.02840429 9391.99938121
0.20000001 280298.87928996 8451.01161000
0.20100001 276056.95914355 9200.97888311
0.20200001 271876.78847593 9934.37832044
0.20300001 267759.51691351 11470.81824674
0.20400001 263704.32079722 9730.68989735
0.20500001 259709.68710065 12037.54456609
0.20600001 255775.36522843 15089.46838490
0.20700001 251901.54832071 11788.99301866
0.20800001 248086.43670255 8555.26117410
0.20900001 244332.40052727 9235.76517652
0.21000001 240633.43250366 8377.65334865
0.21100001 236993.54718890 9797.31370394
0.21200001 233408.97844560 9694.64237805
0.21300001 229880.86593464 10330.84660350
0.21400001 226408.39821522 8762.00542517
0.21500001 222991.80207798 10837.40209336
0.21600001 219627.48129422 9293.53731035
0.21700001 216317.39327916 8488.29491360
0.21800001 213060.06034058 9098.73030704
0.21900001 209853.88857122 7617.69651531
0.22000001 206698.68468864 8907.68023783
0.22100001 203595.50790294 8135.67688048
0.22200001 200541.95771346 10062.19320406
0.22300001 197537.20774793 7964.70059301
0.22400001 194580.26314515 9193.91786836
0.22500001 191673.71225933 8447.06089871
0.22600001 188812.13997291 10929.39123916
0.22700001 185998.17528850 8269.47926438
0.22800001 183229.35640545 7552.71442820
0.22900001 180505.44723739 6850.18204661
0.23000001 177826.47137648 8010.19378197
0.23100001 175192.24287936 7925.69744269
0.23200001 172599.46061878 7238.82172070
0.23300001 170050.31437339 8356.27284351
0.23400001 167541.61202614 5905.84210324
0.23500001 165074.27129398 5843.62948019
0.23600001 162647.54186321 8094.96854140
0.23700001 160260.62377506 8009.82635513
0.23800001 157912.40271723 6793.39188621
0.23900001 155602.87775724 6722.04463706
0.24000001 153330.55779399 6651.47991172
0.24100001 151096.47946211 7678.72344948
0.24200001 148898.86772945 7598.30957965
0.24300001 146736.37682526 5907.60681043
0.24400001 144609.32116341 5314.39280415
0.24500001 142516.40378992 8940.05443265
0.24600001 140457.68600308 5203.95751259
0.24700001 138432.99362519 5149.70760647
0.24800001 136440.75014206 5096.06225888
0.24900001 134479.43820750 8068.76667416
0.25000001 132551.16669952 5489.60682856
0.25100001 130652.93385402 6914.15358666
0.25200001 128787.02920711 4887.46798963
0.25300001 126949.37688779 5804.12578591
0.25400001 125142.06029746 6222.68924269
0.25500001 123361.84222693 5210.80446220
0.25600001 121611.41105911 5625.74414176
0.25700001 119887.66244056 6495.51385835
0.25800001 118191.09784368 6428.41411587
0.25900001 116522.25783706 6816.55240599
0.26000001 114878.49889929 6296.49082259
0.26100001 113260.02295376 4896.23102396
0.26200001 111668.01054518 4845.83354690
0.26300001 110099.17991660 6103.89882340
0.26400001 108555.39214823 6041.10785890
0.26500001 107035.31463930 5124.85110743
0.26600001 105537.96893952 4649.47544164
0.26700001 104063.85063337 4183.36699342
0.26800001 102612.36935816 4140.40929953
0.26900001 101181.89596486 4917.44037659
0.27000001 99773.58700607  4461.37615410
0.27100001 98386.11365344  7225.47652864
0.27200001 97019.86442247  4370.25999973
0.27300001 95673.75642045  5111.84904746
0.27400001 94346.06859168  4670.13061630
0.27500001 93040.16380320  4622.23555649
0.27600001 91750.94147400  4574.70215840
0.27700001 90482.56939001  6036.99731541
0.27800001 89231.41351741  5228.06876541
0.27900001 87998.83988511  4065.54659511
0.28000001 86783.39450134  4023.71227649
0.28100001 85585.63241039  4344.32690676
0.28200001 84405.51322213  3941.31562645
0.28300001 83241.89157086  4964.54664826
0.28400001 82094.05124980  3860.47294274
0.28500001 80963.14432376  4167.98286706
0.28600001 79847.70752263  4468.67716302
0.28700001 78748.73247080  4082.33448451
0.28800001 77663.34762500  4376.71816257
0.28900001 76594.98702773  3665.07030276
0.29000001 75540.36457738  4286.53819084
0.29100001 74500.97311168  3263.14277675
0.29200001 73475.45040400  4520.94467736
0.29300001 72464.47166179  4154.38835702
0.29400001 71466.59780158  4427.35594338
0.29500001 70483.55733133  3755.36411238
0.29600001 69512.77046165  3716.15288479
0.29700001 68555.83907774  3370.89076702
0.29800001 67612.09922706  3942.12363205
0.29900001 66681.53752710  3300.73626385
0.30000001 65762.49253453  3859.92968204
0.30100001 64857.29258638  3525.64259190
0.30200001 63963.22355864  3779.26724288
0.30300001 63082.32228132  4314.83104831
0.30400001 62213.07400555  3415.49792460
0.30500001 61356.07606429  3379.49282961
0.30600001 60509.60628405  3343.76100156
0.30700001 59675.66786421  3308.41918302
0.30800001 58852.89098253  3000.61478880
0.30900001 58041.59638277  3778.50810341
0.31000001 57241.48698175  2670.31549412
0.31100001 56451.95353010  2906.14670532
0.31200001 55674.21797176  4182.24745205
0.31300001 54906.36817293  3103.30807606
0.31400001 54150.80592344  2558.62570103
0.31500001 53404.12649003  3797.03357322
0.31600002 52669.55678237  3255.76880666
0.31700002 51944.51074798  2973.30393599
0.31800002 51229.77996277  3186.74861347
0.31900002 50525.95706444  2910.29526471
0.32000002 49832.40903223  3359.20285192
0.32100002 49148.23622414  2373.85992203
0.32200002 48475.33096111  2348.62989627
0.32300002 47810.65492441  3253.03711509
0.32400002 47157.30775723  2528.81074822
0.32500002 46513.17475932  3184.29209480
0.32600002 45878.96172540  2250.36317919
0.32700002 45254.63831919  2449.18114181
0.32800002 44640.83481531  2643.63036295
0.32900002 44034.65157785  3487.54457011
0.33000002 43439.45750379  2372.44608391
0.33100002 42852.69361256  2347.47066726
0.33200002 42276.90612479  2745.25102921
0.33300002 41709.56857088  3134.47422654
0.33400002 41152.20968076  2481.47836126
0.33500002 40603.87534545  2660.36603862
0.33600002 40064.42699939  2430.30825687
0.33700002 39534.26410835  2004.38728522
0.33800002 39014.13356775  2777.41630022
0.33900002 38502.18205953  2945.41706704
0.34000002 37999.57072251  2526.78157486
0.34100002 37506.16292990  1924.06624942
0.34200002 37022.46759931  1904.80604819
0.34300002 36546.90624964  2451.56658733
0.34400002 36081.15974370  2614.08014723
0.34500002 35623.82711798  2958.20274398
0.34600002 35176.17380539  2380.19591327
0.34700002 34736.06508056  1994.54495139
0.34800002 34305.64416844  1975.49061300
0.34900002 33883.62850568  2134.66869696
0.35000002 33470.77734565  2467.13111500
0.35100002 33067.15544297  1745.94589008
0.35200002 32670.75825119  2421.88342387
0.35300002 32284.15952939  2228.57563787
0.35400002 31905.64704636  1868.87336426
0.35500002 31535.91128203  2189.22306489
0.35600002 31174.46818777  2337.14999074
0.35700002 30821.36915728  2648.17216342
0.35800002 30477.17632950  1641.19602308
0.35900002 30141.70695174  2278.71315348
0.36000002 29814.29253322  1614.44401714
0.36100002 29494.67178440  2082.02897988
0.36200002 29184.77780111  1748.02234920
0.36300002 28881.68888822  1734.63431679
0.36400002 28587.29902162  2034.70110424
0.36500002 28300.33976529  1709.05759938
0.36600002 28022.31159578  1542.62832642
0.36700002 27751.75720369  2144.65589829
0.36800002 27489.90800182  1673.72312797
0.36900002 27235.74097586  1662.74206534
0.37000002 26988.85510060  2553.28075774
0.37100002 26749.77404122  1791.16495465
0.37200002 26519.12329106  2077.24302579
0.37300002 26295.70414304  2212.78360846
0.37400002 26079.77958782  2053.78273983
0.37500002 25871.62857911  1896.90789728
0.37600002 25671.21650472  1596.87809832
0.37700002 25477.92562409  1877.97798672
0.37800002 25291.95549286  1725.41728546
0.37900002 25114.04781280  1860.95103109
0.38000002 24942.56475647  1710.56117203
0.38100002 24777.62872509  2129.63728981
0.38200002 24620.90969214  1838.81272747
0.38300002 24470.47072660  1550.44909869
0.38400002 24327.24009607  1545.38800031
0.38500002 24190.24444650  1820.79978575
0.38600002 24061.06286213  3352.18743676
0.38700002 23937.43826800  1532.47487052
0.38800002 23820.54196173  1806.90729611
0.38900002 23710.09428456  1525.74463949
0.39000002 23606.76110105  1522.99026459
0.39100002 23508.74779951  1658.77732332
0.39200002 23417.72137210  1518.52221432
0.39300002 23332.12995206  1654.71473460
0.39400002 23253.84864735  1653.34871716
0.39500002 23180.10379094  1514.58805346
0.39600002 23112.49571394  1376.34918497
0.39700002 23050.05386594  1513.69710909
0.39800002 22994.49211248  2064.33062720
0.39900002 22943.24626345  1651.91380923
0.40000002 22897.94417481  1790.50482958
0.40100002 22857.49499471  2067.46052023
0.40200002 22822.80440929  1655.56631029
0.40300002 22792.93607338  1519.37719064
0.40400002 22768.09230672  1383.16167317
0.40500002 22747.62159083  2216.52835283
0.40600002 22732.92817175  1526.62986371
0.40700002 22722.25508204  1668.72249229
0.40800002 22716.03639297  1532.99178861
0.40900002 22713.92265694  2374.74072630
0.41000002 22716.90652277  1820.64655953
0.41100002 22723.68865781  1685.18883071
0.41200002 22733.76625607  1971.69964081
0.41300002 22749.17154939  1695.26834419
0.41400002 22767.62731670  1842.47032791
0.41500002 22789.85215370  1848.71289431
0.41600002 22814.65610864  1427.05680721
0.41700002 22844.53572496  2291.76393252
0.41800002 22878.11503432  2300.62335686
0.41900002 22913.16201894  2453.99976851
0.42000002 22951.93251486  1884.23898909
0.42100002 22994.46181599  2037.76930269
0.42200002 23039.51968513  1608.04335262
0.42300002 23086.95854761  1908.82982317
0.42400002 23137.00277686  1769.98079630
0.42500002 23190.24081755  2074.59904184
0.42600002 23244.67361097  1935.46783993
0.42700002 23302.56089439  1795.22937637
0.42800002 23361.94851852  1503.34145841
0.42900002 23424.29694249  1661.95394682
0.43000002 23488.39333074  1974.08211103
0.43100002 23552.87953350  1678.84933270
0.43200002 23620.39767043  1687.55939153
0.43300002 23688.78805009  1696.35419265
0.43400002 23759.23898587  2480.46466767
0.43500002 23830.44405430  1870.21333801
0.43600002 23903.66965458  2820.39411620
0.43700002 23977.42606003  2047.91205684
0.43800002 24051.66252693  2058.94266819
0.43900002 24127.96895944  1910.93523215
0.44000002 24204.31952853  1601.11581269
0.44100002 24281.73184229  1770.86678718
0.44200002 24359.58796936  1942.43363673
0.44300002 24438.12187715  1790.33689357
0.44400002 24516.81727805  2291.09668321
0.44500002 24595.33957654  1809.97112521
0.44600002 24673.94104860  1985.26539085
0.44700002 24753.69475144  1996.13803936
0.44800002 24832.18233312  1839.69231534
0.44900002 24911.32580373  2017.81748573
0.45000002 24990.47848789  1859.66654481
0.45100002 25068.40655218  1869.60184927
0.45200002 25146.41628754  2050.43888126
0.45300002 25223.43335176  2061.25907119
0.45400002 25300.23234116  2072.08912694
0.45500002 25376.56705742  1909.33299589
0.45600002 25451.58481858  2791.52995520
0.45700002 25526.18439969  2279.74363678
0.45800002 25599.39930067  2115.02247046
0.45900002 25671.45946484  1948.46386573
0.46000002 25743.04479745  2314.17112175
0.46100002 25812.49383485  2325.44767980
0.46200002 25881.39289134  2516.44795009
0.46300002 25948.87860618  2167.25044391
0.46400002 26014.31894068  1995.94871532
0.46500002 26079.42037570  3645.90314132
0.46600002 26141.90905135  2380.61306059
0.46700002 26202.70271770  2207.31578156
0.46800002 26262.65530324  2217.09346578
0.46900002 26320.01099867  2783.34129503
0.47000002 26375.79485027  1863.44999449
0.47100002 26429.87676165  2432.60597244
0.47200002 26482.14135015  2630.47122499
0.47300002 26532.32888478  1886.44867312
0.47400002 26579.81039902  2272.57389683
0.47500002 26625.73945525  2471.40125337
0.47600002 26670.23138372  1908.25514595
0.47700002 26711.29147055  2298.23962706
