# SAXS profile: number of points = 501, q_min = 0, q_max = 0.5, delta_q = 0.001
#    q    intensity    error
0.00000000 1664650.74656090 399.51617917
0.00100000 1664569.27288988 549.30787310
0.00200000 1664324.78414423 823.84079424
0.00300000 1663917.50632744 1198.02064723
0.00400000 1663347.32500504 1746.51475762
0.00500000 1662614.72184848 1645.98863978
0.00600000 1661719.61332149 2093.76679803
0.00700000 1660662.54789667 2192.07465433
0.00800000 1659443.37624720 3136.34811352
0.00900000 1658063.29499388 3233.22356345
0.01000000 1656521.72101631 3553.23924501
0.01100000 1654819.87113131 4468.01384659
0.01200000 1652957.74419683 4190.24806526
0.01300000 1650936.39085559 6587.23649004
0.01400000 1648755.95818121 5935.52171258
0.01500000 1646417.75621335 5136.82362812
0.01600000 1643921.21484044 6707.19885638
0.01700000 1641268.63139923 5760.85315464
0.01800000 1638459.89430794 5603.53309068
0.01900000 1635495.67747906 5397.13597921
0.02000000 1632377.16328813 5656.18712665
0.02100000 1629106.35277650 6988.86657028
0.02200000 1625681.78895084 6169.46266936
0.02300000 1622106.77306045 9343.33543812
0.02400000 1618380.69944729 10317.17742941
0.02500000 1614506.18846695 8185.54674937
0.02600000 1610483.23635486 7174.70314612
0.02700000 1606313.98345215 9445.12665530
0.02800000 1601998.14208160 9756.16913269
0.02900000 1597538.40388603 8626.70777707
0.03000000 1592935.96247709 9629.29833579
0.03100000 1588191.31559938 11434.97799847
0.03200000 1583305.73681725 7837.36375822
0.03300000 1578283.17534517 8854.16902187
0.03400000 1573121.68508660 8258.88922777
0.03500000 1567824.51939817 11852.75391399
0.03600000 1562392.91474559 9538.40918533
0.03700000 1556828.53583351 10648.70767758
0.03800000 1551133.14034370 9981.54222005
0.03900000 1545308.51492986 10199.03667085
0.04000000 1539354.77005388 12307.14195688
0.04100000 1533275.79130729 11591.56551974
0.04200000 1527072.32053583 12804.50200173
0.04300000 1520745.27808318 11040.61123137
0.04400000 1514298.27627036 13287.96799139
0.04500000 1507732.59480629 12484.02646507
0.04600000 1501048.34838176 12698.86961764
0.04700000 1494249.48262804 16137.89516292
0.04800000 1487336.86525035 10931.92646823
0.04900000 1480313.84427493 14433.06065350
0.05000000 1473180.10077619 14650.77678445
0.05100000 1465940.36675350 17151.50309000
0.05200000 1458592.82739718 11595.81351819
0.05300000 1451143.35900477 12929.68793149
0.05400000 1443592.16222316 11909.63589373
0.05500000 1435941.73166509 12061.91110867
0.05600000 1428192.84024565 13432.15428931
0.05700000 1420351.18111194 13592.76143773
0.05800000 1412415.09073665 12499.87413667
0.05900000 1404387.50074736 16431.33452618
0.06000000 1396272.20122159 16608.65860947
0.06100000 1388070.10335036 14199.95782086
0.06200000 1379783.91084450 14342.85442366
0.06300000 1371416.53521047 14482.15928894
0.06400000 1362966.81277565 22591.17597827
0.06500000 1354440.61705466 16090.75528330
0.06600000 1345839.36376783 20288.52935807
0.06700000 1337164.19092678 16366.89046290
0.06800000 1328418.40783612 21998.60986350
0.06900000 1319604.55977546 16627.01823163
0.07000000 1310723.53169603 23730.65065263
0.07100000 1301778.24971044 21088.80863306
0.07200000 1292771.08291983 21233.76603169
0.07300000 1283704.90077922 15674.03757293
0.07400000 1274581.91529835 17206.85666291
0.07500000 1265403.58280434 15868.16167215
0.07600000 1256171.23670028 15959.65631048
0.07700000 1246890.03429661 21882.92112796
0.07800000 1237560.41256789 16131.60073433
0.07900000 1228184.21199107 16212.03235869
0.08000000 1218765.62707903 16288.80337004
0.08100000 1209305.51968337 16361.90444899
0.08200000 1199805.83322822 16431.34165710
0.08300000 1190269.98215361 20996.36347059
0.08400000 1180699.27208280 15053.91642567
0.08500000 1171096.61709026 16617.86177664
0.08600000 1161463.40776494 21219.93745617
0.08700000 1151803.88145814 18244.57433902
0.08800000 1142117.20065131 16771.99187924
0.08900000 1132409.01558423 24460.03588550
0.09000000 1122678.63360594 18389.47688232
0.09100000 1112929.33228729 23037.63826068
0.09200000 1103163.07863631 23083.68850509
0.09300000 1093384.58606918 16958.39572684
0.09400000 1083590.51960139 16985.28219302
0.09500000 1073786.93200601 23193.79882150
0.09600000 1063974.80437779 18577.00095770
0.09700000 1054158.80224910 17045.74863374
0.09800000 1044338.32779261 20160.95236596
0.09900000 1034516.50699815 20173.07283505
0.10000000 1024693.79848234 18628.93413248
0.10100000 1014872.92176914 18633.06772003
0.10200000 1005056.89239561 17080.94268969
0.10300000 995246.53397905 21736.18532459
0.10400000 985445.07481976 23281.14098788
0.10500000 975655.09972213 17064.20849700
0.10600001 965874.05835734 18602.73523929
0.10700001 956109.29952622 20135.66279556
0.10800001 946359.40813584 20114.87016657
0.10900001 936628.13096889 20090.67435486
0.11000001 926915.45455998 20063.08595831
0.11100001 917224.31144057 15409.36915757
0.11200001 907556.24984661 18459.69499091
0.11300001 897912.52131838 18425.16580492
0.11400001 888296.12527993 18387.73065907
0.11500001 878708.11863765 16818.47418267
0.11600001 869149.87429984 21355.01341719
0.11700001 859624.07470138 18258.41620654
0.11800001 850129.79730280 18209.78111588
0.11900001 840670.24345884 19671.68462351
0.12000001 831246.01503650 21121.96223703
0.12100001 821862.09547907 16544.08476135
0.12200001 812516.16301896 22486.38587091
0.12300001 803211.79638661 16433.71412833
0.12400001 793948.50087621 16375.18860213
0.12500001 784728.36207585 16314.50341630
0.12600001 775554.74664572 16251.75048180
0.12700001 766426.65052185 20601.54933690
0.12800001 757345.54679205 14654.63702109
0.12900001 748314.12506984 17510.55135194
0.13000001 739332.83950365 18886.25827532
0.13100001 730402.06352314 14461.96153946
0.13200001 721523.96642469 18712.72495135
0.13300001 712699.62488312 15757.78944904
0.13400001 703929.43436042 18530.94323319
0.13500001 695215.74080349 21273.60267160
0.13600001 686558.75122088 15519.66130311
0.13700001 677959.94560586 21050.65730367
0.13800001 669418.04915388 22331.78717285
0.13900001 660937.53710242 19431.56450717
0.14000001 652516.58903977 19321.01711266
0.14100001 644158.47588800 15092.63380187
0.14200001 635861.98438204 16367.08824995
0.14300001 627629.90613436 17623.84859553
0.14400001 619458.54947868 13473.22408669
0.14500001 611354.72166739 16066.40284331
0.14600001 603315.72990951 15963.73496648
0.14700001 595343.86504265 15859.96131295
0.14800001 587436.43037255 14442.12532207
0.14900001 579597.70757295 16953.23374638
0.15000001 571826.22393717 14247.05104161
0.15100001 564123.41371727 15434.41732758
0.15200001 556490.62836715 14048.60657604
0.15300001 548927.45783017 12680.22487424
0.15400001 541432.38965894 12588.30365363
0.15500001 534009.46353530 13745.40424009
0.15600001 526655.49878274 14883.28509802
0.15700001 519375.56404085 13540.12159360
0.15800001 512164.07033629 13436.62501946
0.15900001 505026.62533891 16968.89541233
0.16000001 497958.86197716 18038.56062659
0.16100001 490965.82738956 15509.61121936
0.16200001 484044.92235011 13018.38880115
0.16300001 477196.30938828 15260.73869466
0.16400001 470421.10935672 18628.67680998
0.16500001 463718.19723728 13855.90038761
0.16600001 457089.05016056 12595.08937183
0.16700001 450532.41940504 17030.12625758
0.16800001 444049.37969584 12382.31753747
0.16900001 437640.70733726 13391.80627686
0.17000001 431303.82837361 14381.82683622
0.17100001 425041.12553963 17545.69849081
0.17200001 418851.59400342 13043.03925320
0.17300001 412734.90602452 12926.85786715
0.17400001 406692.38278141 14945.94577305
0.17500001 400721.59257967 11636.95559810
0.17600001 394822.61053868 14675.55712684
0.17700001 388999.28555907 15579.42212247
0.17800001 383246.39907951 11319.18293144
0.17900001 377565.70138674 11213.70186085
0.18000001 371958.16814929 11108.53121649
0.18100001 366422.88454378 15005.01783085
0.18200001 360957.11431751 15853.23720970
0.18300001 355563.21732086 12757.60884013
0.18400001 350240.40719443 10691.08893466
0.18500001 344988.39268370 13475.24725482
0.18600001 339806.85692441 12391.05762314
0.18700001 334694.56486102 9438.38717500
0.18800001 329650.40232367 12149.26615164
0.18900001 324678.79953371 20357.36169260
0.19000001 319771.61395796 12826.04004187
0.19100001 314935.56106662 9070.14458728
0.19200001 310165.60707609 8979.29474914
0.19300001 305464.70879289 12444.63282426
0.19400001 300828.89819812 11439.01939452
0.19500001 296260.12017771 12194.06712275
0.19600001 291756.23633818 13794.23550593
0.19700001 287319.52249391 11093.40728774
0.19800001 282946.21957989 8445.94505360
0.19900001 278637.52742508 13374.60194849
0.20000001 274391.03452497 9100.17909011
0.20100001 270209.40298085 10643.54888645
0.20200001 266088.97351877 11343.37347723
0.20300001 262030.98439320 8819.96335155
0.20400001 258034.60243929 12695.30304007
0.20500001 254098.20114668 10207.12522252
0.20600001 250221.70029169 9323.26099356
0.20700001 246405.03613061 9994.18873787
0.20800001 242646.68292479 9128.36864313
0.20900001 238948.79210769 9784.95349936
0.21000001 235305.69592819 8936.91075382
0.21100001 231720.98825082 7368.72777472
0.21200001 228191.02023521 8019.77378530
0.21300001 224717.07536396 11541.46953632
0.21400001 221298.25972486 9991.61689895
0.21500001 217934.78089326 9179.41340520
0.21600001 214623.08615278 8383.17814147
0.21700001 211365.10449872 10367.45886583
0.21800001 208159.30172793 6838.03338507
0.21900001 205004.30545531 7441.65663988
0.22000001 201899.56176130 8031.56494662
0.22100001 198846.59502347 8608.06950559
0.22200001 195842.55519212 7861.12053712
0.22300001 192886.71631722 6480.99397471
0.22400001 189978.48787957 7052.95169604
0.22500001 187119.72177925 8880.70241559
0.22600001 184305.73772886 8158.29386636
0.22700001 181538.81139540 6208.62764332
0.22800001 178816.54401403 6756.58343509
0.22900001 176138.44463348 10330.52026629
0.23000001 173504.91854499 6613.14028309
0.23100001 170915.70247662 8921.80009122
0.23200001 168367.32803582 6472.88223246
0.23300001 165862.15333835 6403.93804326
0.23400001 163397.15779312 8063.65011846
0.23500001 160972.59720340 5698.43021051
0.23600001 158588.33290519 7892.94170200
0.23700001 156243.45158317 6135.68063388
0.23800001 153936.79784361 7174.22480283
0.23900001 151668.36249111 8190.09196191
0.24000001 149436.47505013 5942.34171144
0.24100001 147242.50446306 5879.39348131
0.24200001 145084.47807639 6345.99537124
0.24300001 142961.09371328 6278.85153289
0.24400001 140872.62607176 6212.48310364
0.24500001 138817.92514063 6146.85801600
0.24600001 136797.02751070 5575.16311993
0.24700001 134809.52557393 7020.88042402
0.24800001 132853.98691384 6450.72563976
0.24900001 130929.02687578 7364.75811017
0.25000001 129036.59871335 5344.05098853
0.25100001 127173.83380579 6249.32248887
0.25200001 125342.82990743 4756.76062003
0.25300001 123539.83657505 6118.92839505
0.25400001 121766.66679473 6520.60531536
0.25500001 120020.11690952 5069.64997811
0.25600001 118302.86435898 5928.74832785
0.25700001 116611.84333174 5866.74211560
0.25800001 114947.79734319 5805.43877950
0.25900001 113310.80488808 5302.94591967
0.26000001 111698.62804283 4373.00149479
0.26100001 110111.35629492 6923.80241143
0.26200001 108550.06844941 5138.76048354
0.26300001 107011.45193025 4661.41906665
0.26400001 105497.78103552 4193.53699459
0.26500001 104007.25260502 6639.82332049
0.26600001 102539.03470113 4106.68853411
0.26700001 101093.65930288 4876.75835554
0.26800001 99670.46176411  5228.21431924
0.26900001 98268.09740869  6367.77301342
0.27000001 96887.53588639  4332.32637217
0.27100001 95527.26125350  5456.51742102
0.27200001 94187.98382655  4242.69793225
0.27300001 92868.32918910  4580.26621236
0.27400001 91567.05785263  4154.85544669
0.27500001 90286.82366913  3737.87467680
0.27600001 89023.15163810  4068.80333818
0.27700001 87779.96251196  5856.67937597
0.27800001 86553.74990527  4346.72952596
0.27900001 85345.65285871  5735.22814354
0.28000001 84154.41759099  4256.53064321
0.28100001 82980.64909794  4212.09794757
0.28200001 81824.05541116  4862.80384324
0.28300001 80683.70942294  5155.68927615
0.28400001 79558.84803477  4421.48318880
0.28500001 78450.56240817  5384.84685857
0.28600001 77357.50556466  4329.31300384
0.28700001 76280.61629408  3624.85505787
0.28800001 75217.07394000  4564.92443349
0.28900001 74170.12028994  3871.68046240
0.29000001 73136.89464718  3830.91072295
0.29100001 72118.46687605  4106.42569830
0.29200001 71113.64700561  3437.98942722
0.29300001 70123.12571041  3710.91598825
0.29400001 69145.46045795  3977.59280113
0.29500001 68182.36337107  3935.48620007
0.29600001 67231.27842043  3893.69967404
0.29700001 66293.84498327  3556.00201324
0.29800001 65369.33851103  3518.17796521
0.29900001 64457.75122381  4640.95830781
0.30000001 63557.77657177  4304.45062209
0.30100001 62670.95218340  4826.29025612
0.30200001 61795.34014556  3932.03767961
0.30300001 60932.46983197  3889.92905823
0.30400001 60081.20436423  2748.71522979
0.30500001 59241.90004936  2991.12367510
0.30600001 58413.11021175  3227.90862312
0.30700001 57596.58644910  3725.34738790
0.30800001 56790.96469801  2895.48747221
0.30900001 55996.58534754  3124.60961033
0.31000001 55213.28733646  2833.26997381
0.31100001 54440.34162784  2802.58891969
0.31200001 53679.11021817  3024.28121288
0.31300001 52927.61898567  3240.75826393
0.31400001 52188.22544660  3205.66189983
0.31500001 51457.66693431  2683.00288099
0.31600002 50738.93798289  2895.16393838
0.31700002 50029.59300467  3102.33520911
0.31800002 49330.48089362  2596.50998478
0.31900002 48642.09328069  2568.30264683
0.32000002 47963.70142061  3464.17849913
0.32100002 47294.85081482  2969.64382328
0.32200002 46637.04603044  2485.52148588
0.32300002 45987.22509705  3575.96679287
0.32400002 45348.53400347  2431.81525109
0.32500002 44719.28301012  2624.12765129
0.32600002 44099.74844142  3028.32986887
0.32700002 43489.84542957  2995.58069504
0.32800002 42890.47240463  2539.97389608
0.32900002 42298.55848947  2721.91236769
0.33000002 41717.52737142  2899.78546490
0.33100002 41144.88549338  2253.91693406
0.33200002 40583.14297714  3040.69213155
0.33300002 40029.82718465  2406.59332431
0.33400002 39486.46113779  2777.87267259
0.33500002 38951.80642015  2552.12247751
0.33600002 38426.12973150  2525.17323489
0.33700002 37909.65034201  2883.02904504
0.33800002 37403.05692903  2092.14008840
0.33900002 36904.63789613  2070.35028402
0.34000002 36415.49648807  2048.91800693
0.34100002 35935.47330227  2027.83885448
0.34200002 35465.18915842  2189.62088234
0.34300002 35002.98808380  1986.76969773
0.34400002 34550.52788956  2681.98485445
0.34500002 34106.42993536  2832.19807597
0.34600002 33671.85295741  2278.40603827
0.34700002 33244.89380982  2255.99860078
0.34800002 32827.57577666  2405.93314262
0.34900002 32418.64483757  2382.77050841
0.35000002 32018.83873904  1854.37113340
0.35100002 31628.26255183  2003.96681020
0.35200002 31244.80809275  1985.29520024
0.35300002 30871.26432521  2131.04347730
0.35400002 30505.70408331  3086.41475681
0.35500002 30148.98662391  2575.92953915
0.35600002 29800.21957447  2234.12256732
0.35700002 29460.07371615  1740.20663684
0.35800002 29128.71126096  1882.29741084
0.35900002 28806.12039798  1555.53057517
0.36000002 28491.57479921  2622.79204237
0.36100002 28184.67358284  2142.59898725
0.36200002 27887.62301003  1822.17737379
0.36300002 27597.31166149  1657.49461690
0.36400002 27315.86355289  1794.65232043
0.36500002 27041.58003837  1633.04109587
0.36600002 26776.41566171  1768.85010240
0.36700002 26518.55912013  1902.97189260
0.36800002 26269.53517948  1890.22449338
0.36900002 26028.21524498  2311.30562324
0.37000002 25794.06996832  1866.07208025
0.37100002 25567.76999674  2140.02245010
0.37200002 25349.90797352  1843.82564380
0.37300002 25139.30060780  1974.44076327
0.37400002 24936.16115456  1402.65913139
0.37500002 24740.83896898  1953.53673753
0.37600002 24553.25320888  2221.57845558
0.37700002 24372.75501958  1796.51585760
0.37800002 24199.62599137  1513.32368306
0.37900002 24034.63426684  1643.96906173
0.38000002 23875.90852997  2319.66400312
0.38100002 23723.76739897  1903.12071090
0.38200002 23579.94173246  1490.13448838
0.38300002 23442.27573559  1755.35769024
0.38400002 23311.96850975  1615.51949426
0.38500002 23187.86843722  1476.83541073
0.38600002 23071.53552579  2276.81459123
0.38700002 22960.81863379  1469.95167857
0.38800002 22856.88172834  1733.80884564
0.38900002 22759.33533380  1997.13177016
0.39000002 22668.86570791  1728.38774778
0.39100002 22583.77820197  2124.68195390
0.39200002 22505.61939241  1326.70632604
0.39300002 22433.02907346  1723.52970537
0.39400002 22367.60602910  1457.80879201
0.39500002 22306.84952124  2120.04307894
0.39600002 22252.16707919  1325.11661235
0.39700002 22202.65440778  1590.59823713
0.39800002 22160.01782982  2254.67112092
0.39900002 22121.75209870  1460.03570769
0.40000002 22089.39733612  1860.14823781
0.40100002 22061.89990342  1729.43241537
0.40200002 22040.20536278  1598.79657277
0.40300002 22023.21821852  1468.06779600
0.40400002 22011.30326879  1470.90541063
0.40500002 22003.83517571  1876.04707597
0.40600002 22002.09573195  1880.51921131
0.40700002 22004.31156815  2019.99589767
0.40800002 22011.06049486  1890.53007548
0.40900002 22021.84355677  1489.77778720
0.41000002 22037.65465978  1766.20791639
0.41100002 22057.33096237  1499.45742987
0.41200002 22080.31871221  1778.23855175
0.41300002 22108.55338151  1784.82359906
0.41400002 22139.87781245  1653.84895095
0.41500002 22174.93258037  2213.94537373
0.41600002 22212.61169832  1528.33882032
0.41700002 22255.34123420  1395.40996150
0.41800002 22301.61115269  1962.31885831
0.41900002 22349.42195870  1548.81501513
0.42000002 22400.92861105  1556.08057970
0.42100002 22456.09750364  1421.47103934
0.42200002 22513.90267564  2142.76078869
0.42300002 22573.97995053  1435.70519289
0.42400002 22636.71879620  1876.01815913
0.42500002 22702.50928921  1885.89753602
0.42600002 22769.48263902  1604.22397535
0.42700002 22839.91973762  1612.95520830
0.42800002 22911.76681632  1621.80949095
0.42900002 22986.57159807  2223.95090750
0.43000002 23063.05418541  1640.12917612
0.43100002 23139.89438747  1499.46522736
0.43200002 23219.74533020  1960.55928986
0.43300002 23300.45038398  1820.23127025
0.43400002 23383.12211397  1678.32366926
0.43500002 23466.44820278  1841.64694223
0.43600002 23551.87720067  2161.35587313
0.43700002 23637.61119782  1708.29024222
0.43800002 23723.93699928  2811.99838578
0.43900002 23812.15305927  2043.08282931
0.44000002 23900.49285136  2213.42474786
0.44100002 23989.74545866  1749.57221921
0.44200002 24079.36499473  1600.07387973
0.44300002 24169.66930158  1770.67005695
0.44400002 24260.03819561  1781.29338893
0.44500002 24350.16212985  1629.02592369
0.44600002 24440.32202519  2621.95787112
0.44700002 24531.48784139  2143.07087939
0.44800002 24621.42337829  2819.03000330
0.44900002 24711.75810199  1834.84812603
0.45000002 24802.16928241  2516.80024721
0.45100002 24891.29264349  2700.20755393
0.45200002 24980.33574565  2206.63806267
0.45300002 25068.47122406  1707.16297127
0.45400002 25156.12999186  2060.28714398
0.45500002 25243.24623231  1899.30193653
0.45600002 25329.06039430  2604.46075848
0.45700002 25414.32485324  2269.75346022
0.45800002 25498.05559211  2282.20357393
0.45900002 25580.70722887  2294.58954718
0.46000002 25662.62847179  2129.48501151
0.46100002 25742.39546900  1783.94809055
0.46200002 25821.55122427  2689.96022628
0.46300002 25899.04450831  1802.57358321
0.46400002 25974.51036175  1811.72218360
0.46500002 26049.52226207  1820.86169242
0.46600002 26121.78667605  1829.83124338
0.46700002 26192.33471463  2574.18277776
0.46800002 26261.86822074  2217.02702027
0.46900002 26328.77055117  2227.41409420
0.47000002 26393.88793400  2424.14675219
0.47100002 26457.24612934  2060.49042621
0.47200002 26518.70287773  1881.50205835
0.47300002 26577.91339483  2834.53459791
0.47400002 26634.35074157  2467.00685437
0.47500002 26689.14064402  2858.40709846
0.47600002 26742.37504647  2104.75872779
0.47700002 26791.99440601  2497.28191695
