# SAXS profile: number of points = 501, q_min = 0, q_max = 0.5, delta_q = 0.001
#    q    intensity    error
0.00000000 1664650.74656090 274.66737318
0.00100000 1664569.26968663 599.24495132
0.00200000 1664324.77277762 823.84078861
0.00300000 1663917.47875960 1597.36083651
0.00400000 1663347.27455351 1247.51050332
0.00500000 1662614.64323502 1496.35323814
0.00600000 1661719.49873281 2442.72776259
0.00700000 1660662.39431524 2192.07445160
0.00800000 1659443.17476868 3360.37257078
0.00900000 1658063.04165088 3233.22306943
0.01000000 1656521.40560145 3553.23856844
0.01100000 1654819.50945014 3872.27782071
0.01200000 1652957.28867796 3867.92022509
0.01300000 1650935.86172296 3813.66200878
0.01400000 1648755.34761423 4080.66966625
0.01500000 1646417.05969711 5136.82145499
0.01600000 1643920.46553388 5030.39684941
0.01700000 1641267.74984871 5760.85006039
0.01800000 1638458.86902960 6537.45118160
0.01900000 1635494.56427370 4906.48391421
0.02000000 1632375.98521659 6684.57996184
0.02100000 1629105.04161081 6988.86094537
0.02200000 1625680.28732202 6169.45697068
0.02300000 1622105.21132111 7007.49483188
0.02400000 1618378.95998878 7889.59778969
0.02500000 1614504.32588251 6926.22387436
0.02600000 1610481.21845129 7826.93907966
0.02700000 1606311.80381600 8770.46285053
0.02800000 1601995.78813652 9756.15479716
0.02900000 1597535.90699876 7188.91191157
0.03000000 1592933.27625656 7407.14007506
0.03100000 1588188.44799149 9147.96588136
0.03200000 1583302.69764857 9404.81845720
0.03300000 1578279.98588727 10463.99678883
0.03400000 1573118.34425221 11562.42036375
0.03500000 1567820.97170436 12699.35045724
0.03600000 1562389.15718685 11272.63829005
0.03700000 1556824.53433518 15085.63043538
0.03800000 1551128.93664497 9981.51516925
0.03900000 1545304.17657768 11126.19058661
0.04000000 1539350.15776976 12307.10508167
0.04100000 1533270.93428451 10625.56806726
0.04200000 1527067.28202998 11819.50131125
0.04300000 1520740.00958292 13047.94988788
0.04400000 1514292.84877658 11243.62492434
0.04500000 1507726.92183007 13524.31111722
0.04600000 1501042.37517787 10582.34923694
0.04700000 1494243.37186751 16137.82916671
0.04800000 1487330.48232890 16397.81933064
0.04900000 1480307.18213158 13322.76525933
0.05000000 1473173.17450470 14650.70790268
0.05100000 1465933.32941596 11434.28050210
0.05200000 1458585.43278721 15074.48115035
0.05300000 1451135.79639667 14105.04059852
0.05400000 1443584.32821721 11909.57126318
0.05500000 1435933.62739360 19298.94885245
0.05600000 1428184.58639128 13432.07666181
0.05700000 1420342.61809291 18535.47203132
0.05800000 1412406.25898036 13749.77557318
0.05900000 1404378.38136365 18959.10903391
0.06000000 1396262.89049172 12775.80604487
0.06100000 1388060.54424406 14199.86003120
0.06200000 1379774.05545020 15646.63852018
0.06300000 1371406.39931255 18431.70286854
0.06400000 1362956.36077946 15946.59016689
0.06500000 1354429.92913158 18772.39969590
0.06600000 1345828.45294071 16230.69190188
0.06700000 1337152.99353945 17730.64952411
0.06800000 1328406.96484131 15123.91400265
0.06900000 1319593.01151251 16626.87272351
0.07000000 1310711.63769299 18146.80347365
0.07100000 1301766.11531830 15464.98217433
0.07200000 1292758.61783971 15571.27828134
0.07300000 1283692.20376705 21373.47619419
0.07400000 1274568.98144315 18640.57222718
0.07500000 1265390.41643491 17310.54170822
0.07600000 1256157.83793596 20312.07319167
0.07700000 1246876.41196661 16047.30017444
0.07800000 1237546.57103654 16131.42030996
0.07900000 1228170.13475874 20633.25923172
0.08000000 1218751.22913860 16288.61094155
0.08100000 1209290.94358786 22311.41895601
0.08200000 1199790.99770575 16431.13848461
0.08300000 1190254.84419593 20996.09643701
0.08400000 1180683.92820809 16559.09287038
0.08500000 1171081.03751191 18128.33531172
0.08600000 1161447.61622024 21219.64894464
0.08700000 1151787.90525033 19764.68138220
0.08800000 1142100.92921948 15247.04812114
0.08900000 1132392.46198911 16816.02885038
0.09000000 1122662.07615565 16856.77186533
0.09100000 1112912.63078136 18429.83403159
0.09200000 1103145.95562087 23083.33020598
0.09300000 1093367.29160450 16958.12748968
0.09400000 1083573.15024576 18529.10174002
0.09500000 1073769.28506447 18554.73411804
0.09600000 1063957.12341678 17028.63456076
0.09700000 1054140.77302012 20144.63111947
0.09800000 1044320.17272701 15508.15529415
0.09900000 1034498.19153406 21724.46304375
0.10000000 1024675.24031677 24838.12899335
0.10100000 1014854.35905926 17079.99966627
0.10200000 1005038.03175609 20186.18981730
0.10300000 995227.41446785 20183.21291484
0.10400000 985425.94885173 20176.59725195
0.10500000 975635.99018336 18615.13556853
0.10600001 965854.56699799 21702.75314164
0.10700001 956089.68778596 27879.57660779
0.10800001 946339.64399782 24756.24625205
0.10900001 936608.30182414 16999.44147820
0.11000001 926895.49142980 15432.81065872
0.11100001 917204.17054425 21572.64310670
0.11200001 907536.13824892 19997.55974774
0.11300001 897892.34173713 23030.93964987
0.11400001 888275.84216251 18387.31079852
0.11500001 878687.84774748 19875.92005197
0.11600001 869129.43796828 15253.22235464
0.11700001 859603.63540450 18257.98207585
0.11800001 850109.19334842 16691.89479756
0.11900001 840649.54170167 16644.86170969
0.12000001 831225.27469586 19612.76128031
0.12100001 821841.35350047 16543.66722531
0.12200001 812495.37547062 17988.64846039
0.12300001 803191.02605702 17927.22454622
0.12400001 793927.63143797 20840.60130720
0.12500001 784707.38578778 20763.35840632
0.12600001 775533.75208509 16251.31054076
0.12700001 766405.58603821 19129.48432902
0.12800001 757324.77404696 17585.08208214
0.12900001 748293.22495799 18969.23414674
0.13000001 739312.00925072 17432.97799983
0.13100001 730381.15897308 20246.16668109
0.13200001 721503.11862868 15833.38668470
0.13300001 712678.85103357 17189.81469731
0.13400001 703908.65337069 15679.56599305
0.13500001 695195.07192091 17018.37616301
0.13600001 686538.09245789 16930.03015828
0.13700001 677939.20516492 15436.67642949
0.13800001 669397.38364565 15352.62971788
0.13900001 660917.00107480 13879.25767709
0.14000001 652496.24718033 20700.44441804
0.14100001 644138.20629106 15092.15888519
0.14200001 635841.82038061 19094.33076662
0.14300001 627609.80390069 14912.00964404
0.14400001 619438.62486163 13472.79072625
0.14500001 611334.91953958 13388.23536947
0.14600001 603295.98370452 13302.67706823
0.14700001 595324.24147858 14537.81866275
0.14800001 587416.93363993 15754.52290350
0.14900001 579578.32821708 14344.56430016
0.15000001 571806.95180351 14246.57087638
0.15100001 564104.25637984 12861.57765233
0.15200001 556471.79202813 17879.43952154
0.15300001 548908.69715826 20287.66640432
0.15400001 541413.87532715 13846.66051493
0.15500001 533991.11410903 14994.47119182
0.15600001 526637.29813765 16123.00164341
0.15700001 519357.60406848 18463.16369604
0.15800001 512146.16504313 19543.49858047
0.15900001 505009.05212840 13332.23960548
0.16000001 497941.39345349 13227.81374148
0.16100001 490948.65382661 13123.05813625
0.16200001 484027.84203736 15384.82568541
0.16300001 477179.50941310 11738.61648572
0.16400001 470404.59979880 15135.26871306
0.16500001 463701.93836402 11546.17881037
0.16600001 457072.98302902 11449.67876545
0.16700001 450516.66647928 11353.02053131
0.16800001 444033.72743017 13507.50662620
0.16900001 437625.28496992 17855.11246986
0.17000001 431288.83436628 13275.07094864
0.17100001 425026.29524096 13158.81472204
0.17200001 418836.97517912 11955.70202107
0.17300001 412720.58331474 15080.81082650
0.17400001 406678.34521296 13877.89918579
0.17500001 400707.87101209 10578.68829433
0.17600001 394809.27688818 10482.18679645
0.17700001 388986.07833028 11424.52166015
0.17800001 383233.40440074 12347.78087300
0.17900001 377553.05020412 17329.68582291
0.18000001 371945.82350082 12117.99550205
0.18100001 366410.86146977 11003.31868970
0.18200001 360945.32202753 12880.33442499
0.18300001 355551.82866321 10794.55402814
0.18400001 350229.29474620 10690.74972717
0.18500001 344977.60425727 11549.85073617
0.18600001 339796.42890757 17156.32250607
0.18700001 334684.42906149 11325.72161452
0.18800001 329640.56507119 11214.37255356
0.18900001 324669.26400610 9253.07446136
0.19000001 319762.43473280 10993.43302554
0.19100001 314926.60979074 11790.85282768
0.19200001 310156.98480168 15264.37672828
0.19300001 305456.48559493 10666.54098100
0.19400001 300821.01143844 10558.81800043
0.19500001 296252.60947205 10451.79255607
0.19600001 291749.04373849 10345.42157985
0.19700001 287312.57040188 11093.13886745
0.19800001 282939.56983459 11824.04518218
0.19900001 278631.22852861 9194.83097599
0.20000001 274385.14864094 13236.34019600
0.20100001 270203.76320439 12280.76161806
0.20200001 266083.67339233 9722.69788528
0.20300001 262026.01412467 9621.59569342
0.20400001 258029.93756704 9521.30514626
0.20500001 254093.91100291 11777.25333166
0.20600001 250217.70762108 12430.81630220
0.20700001 246401.44561319 10762.81565313
0.20800001 242643.27205959 8367.55363251
0.20900001 238945.82340281 9784.83193089
0.21000001 235302.95483173 8936.80664697
0.21100001 231718.51719184 9579.24395355
0.21200001 228188.98621505 10935.95768135
0.21300001 224715.38071521 8656.03687437
0.21400001 221296.82684696 7136.82300322
0.21500001 217933.65575187 8473.26093623
0.21600001 214622.35956497 9780.34138778
0.21700001 211364.53544300 6911.62063576
0.21800001 208159.14641196 6838.02828294
0.21900001 205004.45418759 7441.66203886
0.22000001 201900.02691562 10039.47931307
0.22100001 198847.34977593 7945.94047276
0.22200001 195843.50325811 7206.06204312
0.22300001 192888.13108384 7129.14566196
0.22400001 189980.06939917 8335.37593904
0.22500001 187121.64236007 8246.45116876
0.22600001 184307.90748618 8785.95836534
0.22700001 181541.21617306 7450.45186407
0.22800001 178819.27075415 8599.41913723
0.22900001 176141.41619648 6684.56706078
0.23000001 173508.14803761 8416.88065935
0.23100001 170919.23526500 6542.78863537
0.23200001 168371.14927893 6473.02914016
0.23300001 165866.12548044 5821.90127971
0.23400001 163401.35358181 6911.87758341
0.23500001 160977.12332927 7978.02660953
0.23600001 158593.04350878 5637.98296340
0.23700001 156248.47331609 8367.10614182
0.23800001 153941.96010797 6070.70148399
0.23900001 151673.64959946 5460.25164385
0.24000001 149442.09191678 8103.49781749
0.24100001 147248.28159554 9621.20317455
0.24200001 145090.46275398 6875.11190280
0.24300001 142967.24563063 5232.60143760
0.24400001 140879.04206225 5695.03554476
0.24500001 138824.47478778 6147.14803439
0.24600001 136803.73465678 6082.29433056
0.24700001 134816.44070720 5516.68901471
0.24800001 132861.02268817 7939.77509145
0.24900001 130936.31889204 5892.13462888
0.25000001 129044.00772885 7287.76068126
0.25100001 127181.37654816 6249.69313924
0.25200001 125350.55294645 5232.75908031
0.25300001 123547.62014317 4707.16455015
0.25400001 121774.57185157 6986.81639054
0.25500001 120028.15084278 4609.08121043
0.25600001 118311.00298204 5016.97831882
0.25700001 116620.19070985 7221.12255041
0.25800001 114956.19369945 6699.07250480
0.25900001 113319.27647233 5303.34238983
0.26000001 111707.25619552 6122.67500177
0.26100001 110119.95379442 5626.02870556
0.26200001 108558.74768520 6852.22847812
0.26300001 107020.27282955 4661.80330504
0.26400001 105506.55676835 5032.66299599
0.26500001 104016.07185238 6225.36219494
0.26600001 102547.98917123 6571.27545704
0.26700001 101102.62786181 4877.19099884
0.26800001 99679.45889679  5228.68626386
0.26900001 98277.12016719  3980.22355512
0.27000001 96896.57547707  5514.38437135
0.27100001 95536.30995484  5846.82244592
0.27200001 94196.98785796  3857.36683533
0.27300001 92877.42495496  4962.44105019
0.27400001 91576.04157512  4910.76546187
0.27500001 90295.95815436  4485.90341341
0.27600001 89032.12534502  4069.21348147
0.27700001 87788.91167932  4026.87756931
0.27800001 86562.68860267  5433.97303421
0.27900001 85354.53406489  3943.37966043
0.28000001 84163.26088139  3902.22977545
0.28100001 82989.38403914  3861.49622210
0.28200001 81832.73688516  4168.55981423
0.28300001 80692.27812801  4124.98945314
0.28400001 79567.32048622  3741.65342296
0.28500001 78458.99103625  3365.89087477
0.28600001 77365.82153887  3996.71852987
0.28700001 76288.80329264  3625.24410406
0.28800001 75225.22028060  4239.31748957
0.28900001 74178.16920327  3872.10061569
0.29000001 73144.75264326  3512.04546441
0.29100001 72126.22222151  3159.12868284
0.29200001 71121.25077818  3125.77911966
0.29300001 70130.56928421  4639.13737775
0.29400001 69152.79751937  3060.01143508
0.29500001 68189.54710850  3935.90084542
0.29600001 67238.24650819  4493.19603561
0.29700001 66300.77121888  3852.73799791
0.29800001 65376.02283921  3518.53771577
0.29900001 64464.27344853  3190.98168676
0.30000001 63564.01547766  3730.89006508
0.30100001 62677.08595582  3691.05376667
0.30200001 61801.24277034  5617.73323377
0.30300001 60938.22529945  4446.05312833
0.30400001 60086.76499366  3573.66051718
0.30500001 59247.25105402  3807.22853297
0.30600001 58418.21773431  3228.19086483
0.30700001 57601.42665662  3459.54184878
0.30800001 56795.57589735  3158.97008097
0.30900001 56000.99782626  3645.66513109
0.31000001 55217.44050443  3348.66183793
0.31100001 54444.30450770  3057.59228592
0.31200001 53682.81956095  2520.40849772
0.31300001 52931.10244393  3490.27706040
0.31400001 52191.47595178  3205.86156212
0.31500001 51460.64722988  3414.92871186
0.31600002 50741.64589872  3136.59498974
0.31700002 50032.03864179  3102.48686307
0.31800002 49332.60131722  2596.62159328
0.31900002 48644.00420467  3268.87723733
0.32000002 47965.39356403  3233.34733325
0.32100002 47296.21941526  2284.40750592
0.32200002 46638.09976744  2937.50085294
0.32300002 45988.04023347  2458.52074729
0.32400002 45349.05244580  2431.84305256
0.32500002 44719.47452517  2842.81713018
0.32600002 44099.63805120  4109.86596279
0.32700002 43489.48868443  2995.55612243
0.32800002 42889.78282038  2328.27197066
0.32900002 42297.57303567  2512.47595729
0.33000002 41716.31356183  2692.57958635
0.33100002 41143.38456645  2048.94064844
0.33200002 40581.33815075  2837.85311127
0.33300002 40027.69092709  2005.38741041
0.33400002 39483.99606394  2380.88507540
0.33500002 38949.03409596  2159.33455254
0.33600002 38423.03798186  2330.74159436
0.33700002 37906.24306384  1921.84661435
0.33800002 37399.41390807  2282.11234474
0.33900002 36900.70152093  2446.51662670
0.34000002 36411.26060341  2421.16688849
0.34100002 35930.84666054  2396.22827727
0.34200002 35460.29938566  2371.76223673
0.34300002 34997.76840231  2347.65041561
0.34400002 34545.04731596  1966.47691159
0.34500002 34100.59884848  2123.78539687
0.34600002 33665.75917842  2453.22398752
0.34700002 33238.52557035  1735.05111695
0.34800002 32820.92340429  2061.81050591
0.34900002 32411.67893446  1871.77454712
0.35000002 32011.53216875  2191.02942306
0.35100002 31620.70304162  1669.57319967
0.35200002 31236.93031427  2480.99330772
0.35300002 30863.00429880  1966.59072706
0.35400002 30497.21184868  2111.16959022
0.35500002 30140.16779411  2092.33054737
0.35600002 29791.22405413  1754.85213603
0.35700002 29450.76243566  1897.80722124
0.35800002 29119.12825300  1724.87164377
0.35900002 28796.24090370  2021.49620719
0.36000002 28481.40421562  1696.49492246
0.36100002 28174.25503980  1835.83454535
0.36200002 27876.92878531  2276.84826639
0.36300002 27586.38148646  2409.94640081
0.36400002 27304.61308414  1644.42040088
0.36500002 27030.10400931  2225.92917060
0.36600002 26764.64129085  1620.73293014
0.36700002 26506.57423762  1463.16296722
0.36800002 26257.31143560  1889.34493384
0.36900002 26015.74064424  1588.26104157
0.37000002 25781.39843545  1721.68186907
0.37100002 25554.81809857  1711.15070094
0.37200002 25336.74708345  1701.10927976
0.37300002 25125.90983263  1409.56360838
0.37400002 24922.59427168  2102.84399129
0.37500002 24727.06486427  1812.98848173
0.37600002 24539.23365499  1387.69372893
0.37700002 24358.48325813  1657.35127940
0.37800002 24185.19835419  1374.92859157
0.37900002 24019.92857219  1369.13599347
0.38000002 23861.12675754  1636.39615055
0.38100002 23708.83407524  2037.77438530
0.38200002 23564.78782526  1624.55654963
0.38300002 23426.96737621  1484.33272328
0.38400002 23296.45199236  1748.98121618
0.38500002 23172.22661768  1341.67198472
0.38600002 23055.74622798  1873.74058472
0.38700002 22944.85619870  1602.46883283
0.38800002 22840.74493717  1332.75753022
0.38900002 22743.06278949  1463.51615984
0.39000002 22652.48849897  1461.42536475
0.39100002 22567.28995486  1326.95671221
0.39200002 22489.04322788  1458.30207720
0.39300002 22416.27938816  1722.24282699
0.39400002 22350.81223482  1721.57139395
0.39500002 22289.91376583  1456.42303446
0.39600002 22235.19229914  1721.33749339
0.39700002 22185.56915496  2119.16566608
0.39800002 22142.82784090  1722.82280179
0.39900002 22104.55864973  1591.52829818
0.40000002 22072.06311001  1460.39812487
0.40100002 22044.59667765  1595.14709117
0.40200002 22022.83571951  1730.66462702
0.40300002 22005.78728587  1333.55077271
0.40400002 21993.84220078  1736.96377010
0.40500002 21986.28940257  1606.75810567
0.40600002 21984.54380890  1879.01904838
0.40700002 21986.79546567  2152.94711401
0.40800002 21993.51029039  1484.23211227
0.40900002 22004.28310288  1759.24251743
0.41000002 22020.13559041  2307.82041990
0.41100002 22039.80517589  2043.09003661
0.41200002 22062.85019904  1366.79363459
0.41300002 22091.09331791  1509.04265605
0.41400002 22122.43156601  1652.54571628
0.41500002 22157.51478874  1382.62898833
0.41600002 22195.27467896  1527.14594665
0.41700002 22238.04717932  1394.32562421
0.41800002 22284.36328137  1820.74398818
0.41900002 22332.25116317  1547.62507894
0.42000002 22383.83907440  1554.89345498
0.42100002 22439.10775418  1420.39558814
0.42200002 22496.96682881  1998.40565810
0.42300002 22557.18722507  1721.56461059
0.42400002 22619.98817965  1586.22674626
0.42500002 22685.87060769  2029.47808073
0.42600002 22752.96608636  1894.52581096
0.42700002 22823.53360307  2784.01476083
0.42800002 22895.54045778  1915.32652776
0.42900002 22970.46730062  1926.07377443
0.43000002 23047.09345441  1787.99359492
0.43100002 23124.09025692  1798.12934359
0.43200002 23204.10107284  1808.52772332
0.43300002 23284.95604209  1819.02085221
0.43400002 23367.77665586  2134.64649867
0.43500002 23451.32523458  2300.57511453
0.43600002 23536.90471442  2005.69743029
0.43700002 23622.84833231  2483.23393437
0.43800002 23709.35658360  1717.38732552
0.43900002 23797.79075120  2041.85054322
0.44000002 23886.27642240  1896.09271227
0.44100002 23975.77004463  2225.43108101
0.44200002 24065.61659218  2238.82441767
0.44300002 24156.11930747  2895.83571981
0.44400002 24246.71905115  1780.31543070
0.44500002 24337.02287393  2605.03505188
0.44600002 24427.43957084  1965.43188101
0.44700002 24518.81803251  1977.19757984
0.44800002 24609.05483191  2651.87187436
0.44900002 24699.68929347  2000.67492759
0.45000002 24790.30141301  1844.77036708
0.45100002 24879.62538422  2867.62575769
0.45200002 24968.98660224  2375.29980804
0.45300002 25057.34983631  2047.68672567
0.45400002 25145.27981778  2231.01505757
0.45500002 25232.69911574  2761.46672210
0.45600002 25318.81074938  2776.96729460
0.45700002 25404.31204743  2268.85921649
0.45800002 25488.34749822  2983.28377432
0.45900002 25571.28709754  3175.95400804
0.46000002 25653.51841886  2128.72905929
0.46100002 25733.58331896  1961.67114938
0.46200002 25813.03480557  3047.61609876
0.46300002 25890.83402029  1982.20234654
0.46400002 25966.60725457  2173.40513022
0.46500002 26041.92007971  2002.36332983
0.46600002 26114.47888112  2012.25126556
0.46700002 26185.35753871  2205.85462361
0.46800002 26255.18238433  2216.46260194
0.46900002 26322.42880715  3154.74324206
0.47000002 26387.85374017  2237.16234613
0.47100002 26451.55514405  2060.04721226
0.47200002 26513.28496375  2257.34118880
0.47300002 26572.84356655  2078.26219384
0.47400002 26629.63581727  2656.30629868
0.47500002 26684.75849437  2667.40858553
0.47600002 26738.25334755  2869.68317654
0.47700002 26788.25778921  2304.86180943
