# SAXS profile: number of points = 501, q_min = 0, q_max = 0.5, delta_q = 0.001
#    q    intensity    error
0.00000000 1664650.74656090 274.66737318
0.00100000 1664569.49203243 549.30794542
0.00200000 1664325.67113518 823.84123330
0.00300000 1663919.49761044 1198.02208096
0.00400000 1663350.85857815 1996.02110614
0.00500000 1662620.23134257 1645.99409418
0.00600000 1661727.56334606 2966.18382133
0.00700000 1660673.37026349 1992.80812714
0.00800000 1659457.49471783 2464.29448370
0.00900000 1658081.14706880 2984.54619231
0.01000000 1656543.75001585 2733.29730555
0.01100000 1654846.51070265 2978.72384896
0.01200000 1652989.37951876 4190.32826080
0.01300000 1650973.53009566 4507.15793595
0.01400000 1648798.97701869 3709.79786275
0.01500000 1646467.09273240 5532.12967792
0.01600000 1643977.23982772 5030.57057876
0.01700000 1641331.80308538 6647.39410069
0.01800000 1638530.68029209 5603.77517876
0.01900000 1635574.42540319 5397.39584737
0.02000000 1632464.29219684 5656.48902834
0.02100000 1629202.31388822 5914.00466755
0.02200000 1625786.96287497 8413.44791512
0.02300000 1622221.50989983 6423.99747161
0.02400000 1618505.39529901 6676.33506003
0.02500000 1614641.27366631 8186.23163136
0.02600000 1610629.13520234 7175.35312551
0.02700000 1606470.88753954 8096.61364403
0.02800000 1602166.59318152 7666.36749995
0.02900000 1597718.81698457 9346.65550850
0.03000000 1593128.61291225 9630.46290772
0.03100000 1588396.43270830 10674.02451895
0.03200000 1583523.90423660 12541.50989919
0.03300000 1578514.60314243 11270.59478602
0.03400000 1573366.78700386 12390.26401935
0.03500000 1568083.62240303 13548.24312319
0.03600000 1562666.21694493 9540.07769533
0.03700000 1557116.60277268 9763.12155090
0.03800000 1551436.19290315 9075.90214851
0.03900000 1545626.79648470 11128.51345005
0.04000000 1539688.60955440 12309.81100381
0.04100000 1533625.43553435 13526.57696859
0.04200000 1527438.10707368 11822.37149722
0.04300000 1521127.62223300 17067.05271367
0.04400000 1514697.21145328 11246.62731736
0.04500000 1508148.60411448 12487.47102230
0.04600000 1501481.58809324 11643.99025696
0.04700000 1494700.23834001 11838.02643821
0.04800000 1487805.37372238 10935.37000566
0.04900000 1480800.35233464 13327.20379136
0.05000000 1473684.87416177 14655.79675600
0.05100000 1466463.58265566 11438.41647756
0.05200000 1459134.51715280 13920.14394233
0.05300000 1451704.19981558 14110.56548001
0.05400000 1444172.00496573 11914.41959658
0.05500000 1436540.81279116 14480.33206843
0.05600000 1428811.48901084 14659.60656133
0.05700000 1420989.34925484 17307.65108182
0.05800000 1413072.95743985 16257.40513444
0.05900000 1405065.32826279 12645.58854499
0.06000000 1396970.10559896 16616.96018242
0.06100000 1388788.50462500 15498.88043590
0.06200000 1380522.62854218 16959.72128440
0.06300000 1372175.65046960 17124.75291853
0.06400000 1363746.64011355 15955.83643553
0.06500000 1355241.25145253 20125.33352549
0.06600000 1346660.75383708 17594.12357208
0.06700000 1338006.34405127 17741.96495243
0.06800000 1329281.66352527 13758.06586149
0.06900000 1320488.83442644 19411.18677488
0.07000000 1311628.87340044 15365.73297144
0.07100000 1302704.64367868 18289.97405391
0.07200000 1293718.83405474 16999.46627585
0.07300000 1284673.84178618 18537.84440558
0.07400000 1275572.24728908 14350.18845451
0.07500000 1266415.08263466 15880.84588061
0.07600000 1257204.03862246 18876.91952488
0.07700000 1247944.14625888 14600.94719585
0.07800000 1238635.81955757 14677.83515009
0.07900000 1229280.86935361 22127.05668621
0.08000000 1219883.43599747 19268.05977547
0.08100000 1210444.51262639 20843.85548538
0.08200000 1200965.98469997 16447.22993226
0.08300000 1191451.16252372 16513.51388759
0.08400000 1181901.49585515 16576.16925743
0.08500000 1172319.58686404 21172.09273269
0.08600000 1162707.42876010 19725.33245505
0.08700000 1153068.47026350 21308.70633108
0.08800000 1143402.65621597 24423.08188377
0.08900000 1133714.65064852 18366.17820316
0.09000000 1124004.94498492 16876.93504175
0.09100000 1114275.87065548 23065.51160621
0.09200000 1104529.61293808 18489.82658936
0.09300000 1094770.97503906 18523.52576812
0.09400000 1084996.85855404 17007.32655714
0.09500000 1075212.86988120 21676.29247565
0.09600000 1065420.31633715 17052.05296456
0.09700000 1055623.46965415 20172.96545348
0.09800000 1045822.11569829 24848.73463732
0.09900000 1036019.29469870 23310.43522684
0.10000000 1026215.14947103 21766.02434388
0.10100000 1016412.90679799 21771.56548757
0.10200000 1006614.96506339 18662.64233010
0.10300000 996822.55367560 15550.43256884
0.10400000 987038.89810911 27982.55407784
0.10500000 977266.45816797 20200.09864073
0.10600001 967502.62535882 17081.25965444
0.10700001 957754.82406949 15515.62888005
0.10800001 948021.47700025 18600.18225410
0.10900001 938306.71414605 17030.26766329
0.11000001 928610.32182593 20099.77136201
0.11100001 918934.94357027 18525.72933444
0.11200001 909282.40762440 15412.33753480
0.11300001 899654.11215675 24614.53766748
0.11400001 890052.49567635 19959.42815532
0.11500001 880479.21662915 16852.37299983
0.11600001 870935.14906071 18341.89510297
0.11700001 861423.22914493 15247.19187393
0.11800001 851942.50047992 15207.17434980
0.11900001 842496.16971447 21230.90447681
0.12000001 833084.82915236 22680.73554205
0.12100001 823713.37139002 18088.74648785
0.12200001 814379.74835266 16527.83777146
0.12300001 805087.15591813 14974.62180560
0.12400001 795835.20164697 22382.86610094
0.12500001 786625.95156959 22300.84677782
0.12600001 777463.10567901 26659.21115001
0.12700001 768345.15833347 19177.89605579
0.12800001 759274.03987337 14691.95336397
0.12900001 750251.98401729 16092.90581566
0.13000001 741279.68052699 17479.37569071
0.13100001 732357.48221063 15950.74671443
0.13200001 723487.64327736 15876.93708017
0.13300001 714671.28982519 17237.87232323
0.13400001 705908.42016144 17153.57541864
0.13500001 697201.58973329 17067.49572137
0.13600001 688550.98607838 18394.64046041
0.13700001 679958.12842407 21112.70088310
0.13800001 671421.96110626 15399.06340413
0.13900001 662946.69716455 15314.06942668
0.14000001 654530.40860647 15227.65067437
0.14100001 646176.61329220 20645.34376838
0.14200001 637884.04218337 15050.87468520
0.14300001 629655.08292036 13600.55043259
0.14400001 621486.91987360 18924.27760281
0.14500001 613385.40109217 21493.02546814
0.14600001 605348.45461070 16017.52086461
0.14700001 597378.19035418 13261.79645151
0.14800001 589471.75101444 21079.51081078
0.14900001 581633.73716834 17012.78761485
0.15000001 573862.44744670 16897.38056234
0.15100001 566159.45294806 18071.81059082
0.15200001 558525.95604252 16663.62268484
0.15300001 550961.49011947 13999.93212458
0.15400001 543464.69477659 20216.88759974
0.15500001 536039.55441348 12543.32616523
0.15600001 528682.95673472 13695.53264057
0.15700001 521399.96691109 16064.33373872
0.15800001 514184.91212997 14715.97287973
0.15900001 507043.51745419 15819.75849127
0.16000001 499971.34837544 19318.89381313
0.16100001 492973.35145161 13177.17830632
0.16200001 486046.94650046 13072.23324322
0.16300001 479192.49429465 14145.76309937
0.16400001 472410.93599233 15199.82258313
0.16500001 465701.17006915 13915.15161862
0.16600001 459064.92122227 17249.36522932
0.16700001 452500.49625317 13683.61565276
0.16800001 446009.34690897 18090.13996478
0.16900001 439592.13028813 14572.47980714
0.17000001 433246.31917095 21114.26036180
0.17100001 426973.94026191 12117.52099684
0.17200001 420774.40808154 12011.00604588
0.17300001 414647.55972095 11904.53200177
0.17400001 408594.16346390 12870.71675695
0.17500001 402612.16757457 10628.96172595
0.17600001 396701.52960558 12638.91133016
0.17700001 390866.05605930 15654.18628453
0.17800001 385100.74299528 14475.93761292
0.17900001 379407.10401279 13317.18997987
0.18000001 373786.24242895 13192.78604969
0.18100001 368237.12570248 15079.31100981
0.18200001 362757.28310288 16928.06941564
0.18300001 357348.87670014 16766.81008682
0.18400001 352011.01282836 11721.96728094
0.18500001 346743.70495990 11608.97979049
0.18600001 341546.49555821 14370.56947953
0.18700001 336418.05010894 10435.68840741
0.18800001 331357.42953217 11272.78028528
0.18900001 326368.97702042 10231.66791301
0.19000001 321444.51590417 10130.32439737
0.19100001 316590.96667614 11853.16635242
0.19200001 311802.97770471 9929.36629418
0.19300001 307083.97697448 10723.37298266
0.19400001 302429.52276685 12384.48954252
0.19500001 297842.03540068 9632.21188003
0.19600001 293318.72501332 12134.59622724
0.19700001 288862.41692990 9437.13560708
0.19800001 284469.04644570 11038.82186901
0.19900001 280140.28098246 9244.62970932
0.20000001 275873.20563370 10812.85080584
0.20100001 271670.83604016 9054.78939317
0.20200001 267529.26619082 9775.51984864
0.20300001 263449.96578850 8061.56933416
0.20400001 259431.91740443 9573.03820470
0.20500001 255473.52699896 8683.54559314
0.20600001 251574.93785853 10154.82284666
0.20700001 247735.86724690 10048.16725050
0.20800001 243954.75269066 11471.97278756
0.20900001 240233.86418916 10594.31391155
0.21000001 236567.72999575 9733.57971080
0.21100001 232959.56134957 11112.17160168
0.21200001 229406.24835356 10994.29497209
0.21300001 225908.39310222 8701.99171369
0.21400001 222465.60545275 11479.22578406
0.21500001 219077.93534950 9227.56307318
0.21600001 215741.95179825 7022.40086304
0.21700001 212459.43967633 8336.90880706
0.21800001 209228.94944420 8247.80557705
0.21900001 206049.13253448 7479.58386465
0.22000001 202919.42751225 10762.84694414
0.22100001 199841.21176504 9316.59773301
0.22200001 196811.99294794 7241.69762294
0.22300001 193830.80419432 7815.25839466
0.22400001 190896.98111128 9019.88278403
0.22500001 188012.53183392 7648.35015667
0.22600001 185173.03570044 7566.17059651
0.22700001 182380.22144135 8108.62502873
0.22800001 179632.06898467 6787.39804756
0.22900001 176927.99905192 6714.41788155
0.23000001 174268.45432245 9661.44356454
0.23100001 171653.07945783 8362.93842669
0.23200001 169078.61614236 8273.01707911
0.23300001 166547.27758168 7599.55263547
0.23400001 164056.00162809 5782.97433090
0.23500001 161605.22153240 5720.82511282
0.23600001 159194.65037346 7357.18111498
0.23700001 156823.60524751 9517.62505263
0.23800001 154490.67030478 7753.88710935
0.23900001 152195.99987431 6026.96188010
0.24000001 149937.84090139 7588.35448695
0.24100001 147717.72648017 5898.36909735
0.24200001 145533.41552448 7426.57054551
0.24300001 143384.03619893 6297.42716774
0.24400001 141269.54818964 5710.82175571
0.24500001 139188.70698727 6676.88259002
0.24600001 137141.85539843 5589.21658116
0.24700001 135128.45989281 6032.13473497
0.24800001 133147.13002221 7459.56831238
0.24900001 131196.50603842 4919.86920919
0.25000001 129278.42940570 6814.26633635
0.25100001 127390.21348807 6741.49041672
0.25200001 125533.83233936 5240.41007893
0.25300001 123705.45634953 6127.13154287
0.25400001 121907.14585844 4662.94854969
0.25500001 120135.62500673 6458.49150593
0.25600001 118393.52894061 5020.47783226
0.25700001 116677.81839420 5418.51814260
0.25800001 114989.20406598 5360.79694720
0.25900001 113327.74877557 5745.71713478
0.26000001 111691.41170536 7433.62225778
0.26100001 110080.01645874 5191.37382183
0.26200001 108494.86543340 5136.14717264
0.26300001 106932.75343675 4234.53723646
0.26400001 105395.46008912 4608.41671046
0.26500001 103881.68137857 5802.83099639
0.26600001 102390.43746330 5741.03210023
0.26700001 100922.28077287 5274.19864277
0.26800001 99476.49406655  5218.03974318
0.26900001 98051.68430629  3971.09340232
0.27000001 96648.95518740  4714.53625714
0.27100001 95266.78515807  4275.57352023
0.27200001 93905.80297494  4229.98709518
0.27300001 92564.95415236  4184.86177527
0.27400001 91242.34347332  5645.62026959
0.27500001 89941.30593842  3723.57024207
0.27600001 88657.01664449  4788.80898069
0.27700001 87393.44918400  3644.30700345
0.27800001 86147.07616703  3605.25530822
0.27900001 84919.35288214  4279.93558782
0.28000001 83708.61625328  3881.15017627
0.28100001 82515.67145865  3839.45437469
0.28200001 81340.09356916  5179.33070315
0.28300001 80181.21845598  4098.86408147
0.28400001 79038.12405347  4392.54395217
0.28500001 77911.91155476  3342.42116390
0.28600001 76801.17202670  4628.80685714
0.28700001 75706.89886328  4905.80727854
0.28800001 74626.35497531  3882.06316957
0.28900001 73562.69491816  3839.97285649
0.29000001 72513.07742067  4431.27437093
0.29100001 71478.72451434  3130.76828192
0.29200001 70458.14089745  3096.63543902
0.29300001 69452.26436220  3062.84500336
0.29400001 68459.59603292  3029.33726785
0.29500001 67481.90265003  3595.43594339
0.29600001 66516.45622782  2963.30826523
0.29700001 65565.06841474  3223.83456656
0.29800001 64626.84746111  3188.36567043
0.29900001 63702.06509862  3153.25237165
0.30000001 62789.04384060  2834.92546361
0.30100001 61889.71674764  2803.60430139
0.30200001 61001.95854557  3604.30089129
0.30300001 60127.27885572  4386.88647299
0.30400001 59264.44997815  2711.34871486
0.30500001 58414.10256315  3753.69040842
0.30600001 57574.43967072  3711.82430130
0.30700001 56747.52525747  3408.25652832
0.30800001 55931.91649765  3370.17778812
0.30900001 55127.94769203  3076.13962685
0.31000001 54335.25664876  3548.63577974
0.31100001 53553.39978332  2756.92915137
0.31200001 52783.62361451  2726.01037064
0.31300001 52023.95838910  2940.39426737
0.31400001 51276.68400715  2907.38812086
0.31500001 50538.68528235  2635.08717539
0.31600002 49812.87005882  2605.46229179
0.31700002 49096.72544151  2341.91391445
0.31800002 48391.17712279  3010.17331545
0.31900002 47696.74968378  2976.27732119
0.32000002 47012.91682347  2942.77366790
0.32100002 46338.65254071  2685.78842843
0.32200002 45675.91931232  2212.99839547
0.32300002 45021.54627421  2844.46142829
0.32400002 44378.58594960  2379.80178423
0.32500002 43745.47624540  2566.98466763
0.32600002 43122.45130517  2749.70323768
0.32700002 42509.37338094  2509.75352325
0.32800002 41907.12798363  2688.55192310
0.32900002 41312.83127760  2453.98229409
0.33000002 40729.65835705  2022.22763319
0.33100002 40155.23628860  2999.59629280
0.33200002 39592.07011967  1977.62399613
0.33300002 39037.63610101  2151.36422740
0.33400002 38493.39026342  2127.72224757
0.33500002 37958.40117616  2104.41386086
0.33600002 37432.63726912  2649.10786499
0.33700002 36916.31097470  2245.98846606
0.33800002 36410.31155530  1851.46443027
0.33900002 35912.74616519  2381.01518351
0.34000002 35424.77442906  1811.97729786
0.34100002 34946.21819899  2330.56340206
0.34200002 34477.73633521  2660.81942768
0.34300002 34017.59100402  1930.83855683
0.34400002 33567.55005844  2431.96911691
0.34500002 33126.09423663  1719.24437230
0.34600002 32694.49025304  1871.92312809
0.34700002 32270.79889475  1852.98936030
0.34800002 31857.05011137  1834.48831755
0.34900002 31451.99889463  2146.59902623
0.35000002 31056.25726768  1635.11202259
0.35100002 30670.07804921  1943.25623724
0.35200002 30291.25498123  1764.31422994
0.35300002 29922.61157189  2065.55797464
0.35400002 29562.16345103  1889.02233399
0.35500002 29210.98076285  2183.81302527
0.35600002 28867.95244903  1700.46681955
0.35700002 28533.62735871  1991.93262026
0.35800002 28208.39229098  1974.72859586
0.35900002 27892.17500877  1656.79527400
0.36000002 27584.21810451  2240.52822166
0.36100002 27284.24368723  1925.99485311
0.36200002 26994.14851354  1469.83145618
0.36300002 26711.12985211  1458.42775901
0.36400002 26437.07908471  2171.14522267
0.36500002 26170.53187908  2155.14340233
0.36600002 25913.17360625  1426.52027460
0.36700002 25663.38968433  1983.26684875
0.36800002 25422.63888751  1547.85744199
0.36900002 25189.68279702  1817.43569990
0.37000002 24964.15892000  1528.18106068
0.37100002 24746.68835289  1795.12485815
0.37200002 24537.68068957  1647.45995954
0.37300002 24336.18504768  1638.31205502
0.37400002 24142.37737730  1765.41142934
0.37500002 23956.40444706  1486.25540230
0.37600002 23778.35719833  1748.06601224
0.37700002 23607.49781895  1606.25422769
0.37800002 23444.16669780  1865.92131587
0.37900002 23289.06101202  1725.71950274
0.38000002 23140.41550033  1719.21725104
0.38100002 22998.48757860  1976.72010102
0.38200002 22864.91265230  1313.58929410
0.38300002 22737.63615377  1571.62548540
0.38400002 22617.69772591  1828.64094777
0.38500002 22504.19720110  1693.89100357
0.38600002 22398.51743472  1560.28079842
0.38700002 22298.50806696  1687.10520027
0.38800002 22205.35138892  1425.25054642
0.38900002 22118.74267647  1552.73580945
0.39000002 22039.22371656  1551.12063866
0.39100002 21965.07228286  1549.85557371
0.39200002 21897.97495067  1807.23995830
0.39300002 21836.45579888  1677.69497851
0.39400002 21782.19485424  1806.83314876
0.39500002 21732.61735433  1420.00928521
0.39600002 21689.14352430  1291.58855806
0.39700002 21650.87772577  1551.06895376
0.39800002 21619.41499623  1293.92204883
0.39900002 21592.48625420  1684.21400762
0.40000002 21571.40053247  1816.52772490
0.40100002 21555.20776084  1429.75699852
0.40200002 21544.78823354  2083.81201668
0.40300002 21539.10947036  1305.27009575
0.40400002 21538.42983698  1831.84354443
0.40500002 21542.18199871  1705.49462965
0.40600002 21551.73988582  1842.02729532
0.40700002 21565.17800533  1451.76785210
0.40800002 21583.08762045  1986.18373238
0.40900002 21605.00711249  1993.06200056
0.41000002 21631.96348121  1733.69379535
0.41100002 21662.73922931  1472.63308259
0.41200002 21696.79833751  1612.94006484
0.41300002 21736.04945849  1484.78960886
0.41400002 21778.25176947  1491.26586057
0.41500002 21824.16973440  1498.01108155
0.41600002 21872.66576885  1368.13530867
0.41700002 21926.06858732  1512.24102212
0.41800002 21983.10682465  1519.80216234
0.41900002 22041.46056340  2221.77933007
0.42000002 22103.51356022  1675.00433696
0.42100002 22169.08281112  1824.29391097
0.42200002 22237.26104858  1552.04970843
0.42300002 22307.63428646  2270.02497256
0.42400002 22380.44266978  1854.77927415
0.42500002 22456.34504923  1578.45656831
0.42600002 22533.26097856  1876.23206429
0.42700002 22613.57420410  2468.04560559
0.42800002 22695.18328285  1898.56564749
0.42900002 22779.62059477  1763.14271759
0.43000002 22865.65218070  2217.39672530
0.43100002 22951.90438469  1636.01182207
0.43200002 23041.06395295  1795.82060959
0.43300002 23130.91289020  1806.98700061
0.43400002 23222.68677883  1969.86449936
0.43500002 23314.90025392  1677.27400375
0.43600002 23409.10269214  1841.36010502
0.43700002 23503.57267501  1544.18479793
0.43800002 23598.39193242  1864.74501887
0.43900002 23695.07926503  1876.65036672
0.44000002 23791.59702362  1731.19563946
0.44100002 23888.99802993  1742.22470889
0.44200002 23986.63284814  1912.69419395
0.44300002 24084.75451523  1764.44919940
0.44400002 24182.82233908  1614.20346763
0.44500002 24280.46196122  1949.23557862
0.44600002 24378.02928710  1961.45632940
0.44700002 24476.48388820  1809.30177476
0.44800002 24573.53594711  2482.54158671
0.44900002 24670.79590994  2331.39032398
0.45000002 24768.00267759  2178.22209871
0.45100002 24863.75017471  2360.06727843
0.45200002 24959.27671416  2713.57269297
0.45300002 25053.68581716  2218.00291051
0.45400002 25147.56342900  1887.95341391
0.45500002 25240.74795542  1899.11396617
0.45600002 25332.33462913  2257.49110747
0.45700002 25423.27306894  2445.21051966
0.45800002 25512.62464802  2107.85314832
0.45900002 25600.59643544  2296.37360909
0.46000002 25687.78874755  1953.94174369
0.46100002 25772.58591474  2143.24834625
0.46200002 25856.62720528  2154.89141342
0.46300002 25938.86125466  2346.94827756
0.46400002 26018.91059428  2359.26482995
0.46500002 26098.39374797  2006.70559039
0.46600002 26174.90149318  2750.32790475
0.46700002 26249.51812341  2395.53113748
0.46800002 26323.03434560  2407.37322018
0.46900002 26393.69097698  2046.83083228
0.47000002 26462.44094934  2056.52869585
0.47100002 26529.25035457  2441.75231837
0.47200002 26594.06406433  2641.58850871
0.47300002 26656.44566115  2842.91006451
0.47400002 26715.88073314  2474.55857019
0.47500002 26773.53786624  2485.11990253
0.47600002 26829.44287352  2687.50542002
0.47700002 26881.64623738  2312.89695189
