# SAXS profile: number of points = 501, q_min = 0, q_max = 0.5, delta_q = 0.001
#    q    intensity    error
0.00000000 1646666.22097351 246.99993315
0.00100000 1646585.40995394 543.37319819
0.00200000 1646342.91364464 1037.19606844
0.00300000 1645938.95351016 987.56340729
0.00400000 1645373.42221895 1357.43312491
0.00500000 1644646.77014729 1776.21858206
0.00600000 1643758.96289097 2071.13637756
0.00700000 1642710.52048412 1971.25270651
0.00800000 1641501.28104925 2659.23218757
0.00900000 1640132.43240144 2952.23850452
0.01000000 1638603.43907066 2974.06537033
0.01100000 1636915.47854782 3241.09278864
0.01200000 1635068.49590265 3507.22207748
0.01300000 1633063.66323807 4115.32061287
0.01400000 1630901.00908227 4403.43291973
0.01500000 1628581.91089188 4690.31611222
0.01600000 1626105.75256257 4975.88382528
0.01700000 1623474.80893420 6136.73505306
0.01800000 1620689.06407170 5542.75684854
0.01900000 1617749.02918755 6309.22149852
0.02000000 1614656.05503977 5594.78348380
0.02100000 1611412.05893217 6912.95804624
0.02200000 1608015.49964951 7766.71521617
0.02300000 1604469.80628480 6931.30987865
0.02400000 1600774.19811238 9004.35527496
0.02500000 1596931.48818305 8096.44301486
0.02600000 1592941.57910225 8386.83779757
0.02700000 1588806.47136403 8007.58498243
0.02800000 1584526.11013053 8271.22667420
0.02900000 1580103.06648513 9243.60336335
0.03000000 1575538.48969676 8791.50517661
0.03100000 1570832.74603943 9801.99678631
0.03200000 1565987.42694270 9301.96574447
0.03300000 1561006.22797372 8757.24534265
0.03400000 1555887.45885290 13069.45525739
0.03500000 1550634.02661253 9210.76654341
0.03600000 1545247.15330476 10291.34651661
0.03700000 1539728.84638847 8776.45483030
0.03800000 1534080.62047323 9871.80924961
0.03900000 1528304.18441538 10086.80808426
0.04000000 1522399.76553171 9362.75899188
0.04100000 1516371.18899651 15285.02229380
0.04200000 1510219.17552590 10715.00554746
0.04300000 1503944.78197102 12903.84682828
0.04400000 1497551.29846399 11119.31890750
0.04500000 1491040.41052003 11316.99724169
0.04600000 1484411.79666630 14651.14511418
0.04700000 1477669.70015776 10639.22233594
0.04800000 1470814.81330968 11891.53831890
0.04900000 1463850.44083339 14272.54246248
0.05000000 1456776.38674329 12258.77386529
0.05100000 1449597.35596537 18090.97584520
0.05200000 1442311.28420422 12613.01276815
0.05300000 1434924.63351395 12785.17908063
0.05400000 1427436.86324708 14131.62560516
0.05500000 1419850.79082013 17890.12079889
0.05600000 1412167.29535641 13281.43403259
0.05700000 1404391.70743843 17105.49179506
0.05800000 1396522.70565208 14831.07182652
0.05900000 1388562.89092831 16246.18658265
0.06000000 1380516.31489340 15158.06984570
0.06100000 1372383.95410426 17868.43991745
0.06200000 1364168.05268471 16758.80531060
0.06300000 1355871.91200015 20826.19354206
0.06400000 1347494.20842364 15765.68297587
0.06500000 1339040.67927837 17233.45434846
0.06600000 1330512.93972390 16045.98680384
0.06700000 1321911.66006437 16180.19947640
0.06800000 1313240.88792308 14951.24820886
0.06900000 1304502.76387681 19176.19152680
0.07000000 1295697.86412175 19318.85605873
0.07100000 1286829.49433563 20846.63878465
0.07200000 1277900.05254155 19590.20872320
0.07300000 1268911.94109227 15493.41552669
0.07400000 1259868.01152373 14173.51579387
0.07500000 1250769.04952940 15684.64461628
0.07600000 1241616.84209199 15774.74271831
0.07700000 1232416.26283094 15861.19804634
0.07800000 1223167.85023615 17393.44764604
0.07900000 1213873.21280003 18936.42300787
0.08000000 1204536.91942076 16098.63668326
0.08100000 1195159.50319134 19110.60135266
0.08200000 1185742.95405855 19191.25061199
0.08300000 1176290.85601945 17785.51857772
0.08400000 1166804.21697083 19339.78080407
0.08500000 1157286.06869684 14928.99098703
0.08600000 1147737.94376178 23964.76939093
0.08700000 1138163.63294753 18028.51279247
0.08800000 1128562.84684429 16572.94618424
0.08900000 1118940.55797258 19637.40771478
0.09000000 1109296.87883681 16656.09341816
0.09100000 1099634.33441536 25797.42269738
0.09200000 1089954.93827788 15204.87210340
0.09300000 1080263.82801532 21324.40896710
0.09400000 1070557.56568652 18306.53523360
0.09500000 1060841.98136045 29024.63797426
0.09600000 1051118.15405114 22940.65479056
0.09700000 1041390.19323546 18370.12387230
0.09800000 1031658.48244854 19916.16794008
0.09900000 1021925.58448905 16861.77293695
0.10000000 1012191.79383846 26069.00087626
0.10100000 1002460.26565581 23006.46417884
0.10200000 992733.41675168 21472.82481434
0.10300000 983012.31257083 16868.49207722
0.10400000 973300.53821527 18395.38103768
0.10500000 963600.33362516 21449.74443569
0.10600001 953908.94888136 18372.28721994
0.10700001 944233.87713288 21415.22534112
0.10800001 934573.69947405 16808.30877607
0.10900001 924932.50955379 16787.52583852
0.11000001 915309.68249361 16763.89762394
0.11100001 905708.21745870 15215.89876957
0.11200001 896130.10714834 21265.16844373
0.11300001 886576.39193021 25772.77692681
0.11400001 877049.69045051 21180.75102166
0.11500001 867551.46632260 19624.01509227
0.11600001 858082.78812349 22589.03046110
0.11700001 848646.40467156 24033.66731216
0.11800001 839241.52244841 16478.50806938
0.11900001 829871.39025320 23900.29716504
0.12000001 820536.32552418 20849.82901370
0.12100001 811241.30516454 19299.43155902
0.12200001 801984.45353724 16276.27525133
0.12300001 792768.59006665 22118.24470495
0.12400001 783593.85942894 17630.86266787
0.12500001 774461.78334955 16101.06123453
0.12600001 765376.33538656 16038.46186381
0.12700001 756335.91321360 20330.31030528
0.12800001 747342.54351546 18799.40256813
0.12900001 738398.34277058 20158.27570774
0.13000001 729504.14801027 15768.23290248
0.13100001 720660.10747798 18549.79204088
0.13200001 711868.30081266 14201.77327069
0.13300001 703130.20401863 16959.50132045
0.13400001 694445.92384970 19687.54286932
0.13500001 685817.63109364 18187.88443413
0.13600001 677245.54370121 19484.35521099
0.13700001 668731.41023018 15227.01492894
0.13800001 660274.08975196 17896.73004666
0.13900001 651877.49812685 16427.31372748
0.14000001 643540.08252267 16333.04806470
0.14100001 635265.20348633 17590.49431416
0.14200001 627051.59834476 14795.28316077
0.14300001 618901.47064755 14705.09963619
0.14400001 610812.36710415 15942.20353341
0.14500001 602789.68252229 14521.20413696
0.14600001 594831.86046201 18362.46039870
0.14700001 586940.46117974 16939.10250878
0.14800001 579112.89557952 20709.07812295
0.14900001 571353.75141499 16712.09801738
0.15000001 563661.51017460 14043.62718862
0.15100001 556037.06198919 13945.41017270
0.15200001 548482.48210650 16363.97562581
0.15300001 540996.57557329 13746.72363401
0.15400001 533578.55081415 13646.27208105
0.15500001 526231.96732936 16007.97720162
0.15600001 518953.93165102 14665.63880060
0.15700001 511749.39886520 14554.15359064
0.15800001 504612.84574370 13238.51863293
0.15900001 497549.60188289 15523.54831147
0.16000001 490555.41935724 20139.75369236
0.16100001 483635.63522860 15278.05043806
0.16200001 476787.10575529 13988.93434322
0.16300001 470010.39689842 12718.48194048
0.16400001 463306.39136653 12613.51710043
0.16500001 456674.16154234 15919.66202295
0.16600001 450115.06454510 14657.99776896
0.16700001 443628.03846743 12297.36980693
0.16800001 437213.88196907 12191.70967436
0.16900001 430873.34501000 12085.99789821
0.17000001 424604.18946085 15247.53716352
0.17100001 418408.38215099 10794.93676925
0.17200001 412285.18826192 14978.32159688
0.17300001 406234.22820460 14843.79939959
0.17400001 400256.91408930 15760.11673655
0.17500001 394350.56200194 11451.94086138
0.17600001 388515.29961172 13409.60619942
0.17700001 382755.01780335 10219.55945803
0.17800001 377064.59997584 10124.18498754
0.17900001 371445.90636839 12034.84793478
0.18000001 365899.44059267 9934.17028133
0.18100001 360424.63467044 12791.47088868
0.18200001 355018.84898524 15592.42858399
0.18300001 349684.08523535 12546.66557094
0.18400001 344419.97417127 16248.01304910
0.18500001 339225.85690532 13250.16259669
0.18600001 334101.58616286 14057.32490192
0.18700001 329045.88366659 14846.55097246
0.18800001 324057.68152721 11024.44284642
0.18900001 319141.30961321 11824.18607983
0.19000001 314288.63381413 10805.24374106
0.19100001 309506.50010496 9805.16638662
0.19200001 304789.90675118 14117.86914780
0.19300001 300141.65082247 10480.94694197
0.19400001 295557.78248565 12967.59831933
0.19500001 291040.36284244 10267.90448629
0.19600001 286587.23882273 10162.38396889
0.19700001 282200.42509164 9219.48832343
0.19800001 277876.33612766 10782.99173302
0.19900001 273616.46587101 10671.04267328
0.20000001 269418.00128899 8935.24843504
0.20100001 265283.79965249 9645.71941124
0.20200001 261210.06847602 11930.77044153
0.20300001 257198.22262339 9444.31918111
0.20400001 253247.60403559 8566.10061139
0.20500001 249355.94305315 9246.11880545
0.20600001 245523.60768498 9148.21005476
0.20700001 241750.73075638 11313.93473420
0.20800001 238035.25852336 8954.88684895
0.20900001 234379.80944009 14027.63225809
0.21000001 230778.51458108 10956.21049766
0.21100001 227234.86106476 8671.28270815
0.21200001 223745.55851870 9293.27221241
0.21300001 220311.54057704 8486.40094423
0.21400001 216932.18153935 6996.06318539
0.21500001 213607.46667762 6920.88224756
0.21600001 210333.96934827 8900.28233376
0.21700001 207113.54109398 8127.13573678
0.21800001 203944.78398968 7369.54511790
0.21900001 200826.40426059 6627.27165395
0.22000001 197757.64692417 6555.66630550
0.22100001 194739.96281028 8430.29338867
0.22200001 191770.71072871 8339.14975035
0.22300001 188849.17607249 7614.39913929
0.22400001 185974.71560528 7531.97633817
0.22500001 183149.09726809 8071.38109828
0.22600001 180367.93286491 6755.68124492
0.22700001 177632.95663372 6075.04740416
0.22800001 174942.49009615 7211.12978278
0.22900001 172295.43049789 8916.28894993
0.23000001 169692.52004697 8819.76914654
0.23100001 167133.52825847 6397.87176431
0.23200001 164614.67143729 6903.93964659
0.23300001 162138.65733498 7967.49399826
0.23400001 159702.44560007 6755.41376838
0.23500001 157306.09878335 6125.49977634
0.23600001 154949.43768143 8262.67915516
0.23700001 152632.05480586 6538.75753715
0.23800001 150352.28285842 6468.15551450
0.23900001 148110.21400160 7464.75513876
0.24000001 145904.37289435 5801.88766258
0.24100001 143735.93578245 6261.13765884
0.24200001 141603.00823461 6193.71587316
0.24300001 139504.44971519 6127.03572132
0.24400001 137440.49660612 7071.31388488
0.24500001 135409.60097468 9493.56757342
0.24600001 133412.38197777 5931.51478332
0.24700001 131447.96540915 5378.85099899
0.24800001 129515.17543579 6772.34884391
0.24900001 127612.96647597 4785.48646924
0.25000001 125742.59401412 5207.62977746
0.25100001 123901.53723118 5151.82616180
0.25200001 122091.99684118 5096.73064926
0.25300001 120310.04359876 5958.95674137
0.25400001 118557.66709483 4988.31407902
0.25500001 116831.69329495 7626.77329913
0.25600001 115134.47229526 4882.27752867
0.25700001 113463.34712079 6586.54761199
0.25800001 111818.89683192 5212.99721695
0.25900001 110201.05147740 6016.97769536
0.26000001 108607.98955208 5952.80418901
0.26100001 107039.23018468 5889.29872342
0.26200001 105496.56874270 4578.02381721
0.26300001 103976.17042890 6587.93047010
0.26400001 102480.45858691 4073.59842158
0.26500001 101007.54495184 4836.24148114
0.26600001 99556.91245857  4385.97998590
0.26700001 98128.68715958  7100.59213887
0.26800001 96722.60807923  4683.30890481
0.26900001 95337.03033244  5791.72486677
0.27000001 93973.07079262  4584.00661019
0.27100001 92629.19288048  4535.12549804
0.27200001 91306.17146744  4860.68426809
0.27300001 90002.62298174  5178.75117145
0.27400001 88717.17442782  4025.54198017
0.27500001 87452.72659429  3620.54305235
0.27600001 86204.56405161  5372.69970878
0.27700001 84976.67867088  5669.64426925
0.27800001 83765.63227234  3856.15106416
0.27900001 82572.71708580  4161.66513809
0.28000001 81396.50232777  4803.20782969
0.28100001 80237.60344317  4412.26602217
0.28200001 79095.64191468  3357.61015819
0.28300001 77969.91676145  3985.82233350
0.28400001 76859.59486739  5257.19653776
0.28500001 75765.63602332  4225.44972102
0.28600001 74686.94256022  3858.32763528
0.28700001 73624.15761054  3180.56375932
0.28800001 72574.81133117  4404.56550817
0.28900001 71541.76789109  4045.68716574
0.29000001 70522.57143222  4309.63454422
0.29100001 69518.09200587  3044.89257399
0.29200001 68527.11775439  5421.18054216
0.29300001 67550.25178429  4170.55274258
0.29400001 66586.30694656  3535.73306623
0.29500001 65637.05698103  3497.14256149
0.29600001 64699.50883593  3747.07223161
0.29700001 63775.72658468  3420.93013594
0.29800001 62864.75885906  4229.22685245
0.29900001 61966.65413059  3625.04943825
0.30000001 61080.17731270  3033.54714984
0.30100001 60206.85941020  3818.31920455
0.30200001 59344.77464011  2966.94214859
0.30300001 58495.42173560  3200.86962891
0.30400001 57657.52569725  3956.74788829
0.30500001 56831.85444773  3652.01513971
0.30600001 56016.40112575  2837.51093336
0.30700001 55213.37768553  4336.45888872
0.30800001 54421.23714398  2774.66690715
0.30900001 53640.42504272  3990.84781212
0.31000001 52870.49991884  2713.04983178
0.31100001 52111.19263391  2438.80393073
0.31200001 51363.55131920  2411.51884861
0.31300001 50625.72668809  4768.94367981
0.31400001 49899.93280596  2357.77193671
0.31500001 49183.20776598  2331.28415849
0.31600002 48478.14938250  2766.16333474
0.31700002 47782.52512972  2962.99452359
0.31800002 47097.09762854  2253.59622823
0.31900002 46422.46779068  2673.93427135
0.32000002 45758.06473054  2864.22619743
0.32100002 45103.17812073  2396.33196702
0.32200002 44459.26399679  2154.05144264
0.32300002 43823.43086443  2768.76449312
0.32400002 43198.76361891  3158.90973921
0.32500002 42583.70122060  2498.81170595
0.32600002 41978.39804099  2264.94457355
0.32700002 41382.70318259  2443.23491159
0.32800002 40797.61070072  2214.69840176
0.32900002 40220.11224047  2189.98521520
0.33000002 39653.55534643  3150.07858589
0.33100002 39095.41422256  2531.03723662
0.33200002 38548.25657580  2888.22826071
0.33300002 38009.55000304  2665.98996346
0.33400002 37480.83703332  3390.14187021
0.33500002 36961.00814860  1862.83489891
0.33600002 36450.13553473  1842.55443854
0.33700002 35948.53881020  2369.36830519
0.33800002 35456.91498879  1983.28263382
0.33900002 34973.60028793  2318.74980890
0.34000002 34499.56389181  1764.65277664
0.34100002 34034.58180619  2095.16895521
0.34200002 33579.61745647  2245.97281994
0.34300002 33132.77863307  2906.40747934
0.34400002 32695.65554954  1861.20028030
0.34500002 32266.93798026  2177.05040863
0.34600002 31847.83477356  1989.21585417
0.34700002 31436.45495461  2297.37623689
0.34800002 31034.82259257  1624.67303967
0.34900002 30641.63600862  1608.68596664
0.35000002 30257.47092946  2070.97269585
0.35100002 29882.75795111  1735.59066400
0.35200002 29515.10336979  1562.82479745
0.35300002 29157.48751641  1703.08892650
0.35400002 28807.98300602  2454.44026836
0.35500002 28467.43858131  1672.17742147
0.35600002 28134.78330228  1506.61771720
0.35700002 27810.74594758  1642.78084093
0.35800002 27495.52839120  1628.69770140
0.35900002 27189.21020039  1761.86090444
0.36000002 26890.94692209  1892.98829824
0.36100002 26600.47562707  1588.84648446
0.36200002 26319.69283167  1576.41807682
0.36300002 26045.86843160  1848.73582884
0.36400002 25780.86470349  2258.40385500
0.36500002 25523.11342010  1541.34089245
0.36600002 25274.44080905  1808.76544218
0.36700002 25033.18503435  1658.19825522
0.36800002 24800.78699816  2196.35780060
0.36900002 24576.03933801  2045.95537180
0.37000002 24358.66676885  1626.67184388
0.37100002 24149.07339491  1617.02203112
0.37200002 23947.90821265  1339.88552797
0.37300002 23754.00351201  1732.37955819
0.37400002 23567.65814360  1458.24891671
0.37500002 23389.14787040  1451.06280262
0.37600002 23218.29777952  1444.29428179
0.37700002 23054.49628607  1830.06600188
0.37800002 22898.22689532  1431.94068673
0.37900002 22749.93203993  1296.74618771
0.38000002 22608.07375009  1421.25662363
0.38100002 22472.75849247  1545.22694714
0.38200002 22345.73380835  1668.89120854
0.38300002 22224.73704878  1664.18838905
0.38400002 22111.15419269  1276.91921512
0.38500002 22003.84144466  1528.82697600
0.38600002 21904.24274883  1525.84962217
0.38700002 21810.25171512  2157.90640692
0.38800002 21722.98627195  1647.79720172
0.38900002 21642.12876054  1519.27751097
0.39000002 21568.34689606  1391.48196592
0.39100002 21499.89202545  1390.61308209
0.39200002 21438.15861009  1642.91336292
0.39300002 21382.12382311  1390.05193560
0.39400002 21333.13619666  1769.58373135
0.39500002 21288.89591300  2149.75281115
0.39600002 21250.67821062  1771.66912636
0.39700002 21217.50022171  1520.02178790
0.39800002 21191.06209944  1521.94215209
0.39900002 21169.10656591  1651.19039037
0.40000002 21152.94213285  1272.34952957
0.40100002 21141.58678688  1657.28906674
0.40200002 21135.93003395  1277.66703109
0.40300002 21134.94327669  1536.93314790
0.40400002 21138.90281953  1412.60724784
0.40500002 21147.24983482  1545.44109115
0.40600002 21161.34435190  1679.47017406
0.40700002 21179.28296063  1555.40661433
0.40800002 21201.62156313  1821.00736234
0.40900002 21227.84475444  2088.82002281
0.41000002 21259.16369165  1834.87850517
0.41100002 21294.14602513  1315.97828671
0.41200002 21332.44418464  1585.85397583
0.41300002 21375.88334269  1725.67514402
0.41400002 21422.22330326  1466.88681020
0.41500002 21472.23623890  1339.86760479
0.41600002 21524.88412689  1750.29603571
0.41700002 21582.35169292  2165.14162443
0.41800002 21643.29426851  1496.30922015
0.41900002 21705.60961731  1504.19881775
0.42000002 21771.56479061  1649.84925801
0.42100002 21841.02876576  1659.04462366
0.42200002 21913.14964658  1668.46729315
0.42300002 21987.28930485  2097.58749908
0.42400002 22064.01051445  1687.89688434
0.42500002 22143.59728881  1556.47352719
0.42600002 22224.28858647  1708.15890170
0.42700002 22308.33438057  1861.85367563
0.42800002 22393.71232117  1729.24254738
0.42900002 22481.88707432  1885.10632051
0.43000002 22571.50148268  1751.09716801
0.43100002 22661.44597004  1468.46176845
0.43200002 22754.24243267  1921.25455085
0.43300002 22847.73403061  1636.12631146
0.43400002 22943.09239030  2095.85158917
0.43500002 23038.93246732  2109.44475667
0.43600002 23136.66838153  1516.60868428
0.43700002 23234.72788167  1831.82603300
0.43800002 23333.12141945  1536.48611828
0.43900002 23433.37405182  1546.60276071
0.44000002 23533.46499741  1868.08654002
0.44100002 23634.37739830  2037.04708449
0.44200002 23735.60144578  1577.23079082
0.44300002 23837.24870057  2540.09734191
0.44400002 23938.79396130  1757.70602991
0.44500002 24039.97067969  1929.92893763
0.44600002 24141.04890583  2104.25462760
0.44700002 24242.98419361  2443.69292253
0.44800002 24343.54564696  2459.30681553
0.44900002 24444.30999534  1649.99100288
0.45000002 24545.08028608  1992.56971206
0.45100002 24644.24793616  2506.32013389
0.45200002 24743.24993138  1849.43430377
0.45300002 24841.21099885  2199.19251395
0.45400002 24938.52808768  2893.49285850
0.45500002 25035.18983165  1883.64777221
0.45600002 25130.27905630  2239.48492424
0.45700002 25224.73217795  2599.40877413
0.45800002 25317.51388343  2266.04418753
0.45900002 25409.06696548  2805.16112594
0.46000002 25499.71364048  1763.30528181
0.46100002 25588.06994827  1950.57866460
0.46200002 25675.63196660  1783.17272459
0.46300002 25761.32736477  2330.88501044
0.46400002 25844.87713807  2523.75237215
0.46500002 25927.86287041  1812.35770054
0.46600002 26007.88760837  2186.22313598
0.46700002 26086.07050701  2929.98757822
0.46800002 26163.04253847  1840.57012982
0.46900002 26237.29657250  2034.70244563
0.47000002 26309.57998212  2416.40348799
0.47100002 26379.90859095  3922.16499520
0.47200002 26448.22348584  2439.45200884
0.47300002 26514.08352890  2073.66657108
0.47400002 26577.11265555  2651.06711304
0.47500002 26638.29395753  2092.17170659
0.47600002 26697.76316148  2674.31506264
0.47700002 26753.50403805  1918.22633045
