# SAXS profile: number of points = 501, q_min = 0, q_max = 0.5, delta_q = 0.001
#    q    intensity    error
0.00000000 1646666.22097350 271.69992646
0.00100000 1646585.41396709 938.55370825
0.00200000 1646342.92415323 814.93977326
0.00300000 1645938.98198725 1283.83245168
0.00400000 1645373.46585604 1851.04521942
0.00500000 1644646.84163832 1480.18221606
0.00600000 1643759.06612275 2071.13650763
0.00700000 1642710.66306181 2365.50345312
0.00800000 1641501.47216890 2880.83520529
0.00900000 1640132.68036534 2706.21903829
0.01000000 1638603.74143930 2974.06591913
0.01100000 1636915.82456252 3535.73833500
0.01200000 1635068.91452425 3826.06142774
0.01300000 1633064.16395003 4115.32187466
0.01400000 1630901.58473659 5504.29309250
0.01500000 1628582.57022641 3908.59834259
0.01600000 1626106.46047977 4975.88599151
0.01700000 1623475.63250556 4383.38440440
0.01800000 1620689.98770877 6466.55334194
0.01900000 1617750.10752138 4853.25054156
0.02000000 1614657.16899050 5594.78734364
0.02100000 1611413.29448407 6381.19693547
0.02200000 1608016.90263128 7211.95613596
0.02300000 1604471.26983231 8086.53556804
0.02400000 1600775.84528070 6603.20066287
0.02500000 1596933.22675202 8096.45182940
0.02600000 1592943.48390082 10322.27424780
0.02700000 1588808.51969234 8007.59530601
0.02800000 1584528.32639664 10339.04780388
0.02900000 1580105.41613062 9243.61710878
0.03000000 1575541.00441473 8791.51920874
0.03100000 1570835.43512027 7540.01043552
0.03200000 1565990.29588377 7751.65232165
0.03300000 1561009.23404550 11941.72119097
0.03400000 1555890.61706328 8168.42611648
0.03500000 1550637.33413447 9210.78619010
0.03600000 1545250.68402062 10291.37003118
0.03700000 1539732.60962205 11409.41916496
0.03800000 1534084.53295386 11666.71341304
0.03900000 1528308.27727937 11920.80511483
0.04000000 1522404.11167277 12171.62143684
0.04100000 1516375.70604769 12419.11760836
0.04200000 1510223.88657904 15585.51123255
0.04300000 1503949.71376701 10918.67542877
0.04400000 1497556.42656701 10108.50634879
0.04500000 1491045.73399559 10288.21604261
0.04600000 1484417.40865836 16744.22914805
0.04700000 1477675.42286664 15958.89530917
0.04800000 1470820.80187824 14053.69341584
0.04900000 1463856.64087467 14272.60291288
0.05000000 1456782.87935186 12258.82850059
0.05100000 1449603.96846026 15829.67607300
0.05200000 1442318.17632431 12613.07303974
0.05300000 1434931.72676703 13947.53703438
0.05400000 1427444.14013617 21197.54646955
0.05500000 1419858.41944548 11926.81127972
0.05600000 1412175.02863574 15696.32617574
0.05700000 1404399.68770718 13440.10563872
0.05800000 1396530.91186897 18538.94872069
0.05900000 1388571.43059670 14996.57215087
0.06000000 1380524.97772437 12631.80413632
0.06100000 1372392.97133980 25526.51045981
0.06200000 1364177.18746089 16758.91753133
0.06300000 1355881.41234822 14318.10838384
0.06400000 1347503.90855089 23648.69470104
0.06500000 1339050.56014772 19884.90174837
0.06600000 1330523.08750403 16046.10918607
0.06700000 1321922.03213467 17528.68696643
0.06800000 1313251.58884797 14951.37003889
0.06900000 1304513.47453539 16436.87054870
0.07000000 1295708.87433899 16559.16018949
0.07100000 1286840.79764384 15287.66939205
0.07200000 1277911.59869445 22389.01225798
0.07300000 1268923.77521140 16902.06547777
0.07400000 1259879.96606766 15591.01531075
0.07500000 1250781.18755087 17110.68744772
0.07600000 1241629.22918805 15774.90009637
0.07700000 1232428.85255242 17303.30190116
0.07800000 1223180.60779933 18843.09814682
0.07900000 1213886.32869371 14566.63662755
0.08000000 1204550.23539605 16098.81465128
0.08100000 1195172.99341781 19110.81706140
0.08200000 1185756.61402396 16238.93759107
0.08300000 1176304.81530955 20750.01791590
0.08400000 1166818.34921901 16364.62811593
0.08500000 1157300.38238509 20900.84588707
0.08600000 1147752.44214102 16475.98708051
0.08700000 1138178.28600231 16526.34948879
0.08800000 1128577.75212109 24106.42191743
0.08900000 1118955.66812939 18127.08267512
0.09000000 1109312.01720619 16656.32072079
0.09100000 1099649.68477818 15175.16636289
0.09200000 1089970.67625447 18246.10997782
0.09300000 1080279.62694301 22847.91518352
0.09400000 1070573.58118030 18306.80909856
0.09500000 1060858.12811426 16803.99353916
0.09600000 1051134.31441427 18352.80599240
0.09700000 1041406.80394492 16839.54881146
0.09800000 1031675.03610619 16852.41250716
0.09900000 1021942.36873180 19927.87712733
0.10000000 1012208.70832107 19935.45144789
0.10100000 1002477.23028563 19939.27304816
0.10200000 992750.49275731 19939.39458491
0.10300000 983029.71053734 18402.31704692
0.10400000 973317.96092749 24527.61376928
0.10500000 963617.68197366 21450.13060995
0.10600001 953926.54091517 18372.62604252
0.10700001 944251.64054970 18356.25275609
0.10800001 934591.49653243 18336.68602492
0.10900001 924950.37421188 19840.18646064
0.11000001 915327.59269224 21336.28718995
0.11100001 905726.37805022 24345.92618803
0.11200001 896148.18253802 18227.65489093
0.11300001 886594.45213633 18192.91901437
0.11400001 877067.84761324 19668.24740880
0.11500001 867569.61247347 16605.28316465
0.11600001 858101.11628360 16565.64282996
0.11700001 848664.65490810 19527.77462909
0.11800001 839259.91501489 16478.86920744
0.11900001 829889.66501207 16431.81614120
0.12000001 820554.73561074 16382.37606816
0.12100001 811259.74563622 14846.05404451
0.12200001 802002.87480731 26634.51672714
0.12300001 792786.94337850 19169.58919406
0.12400001 783612.19634363 17631.27524847
0.12500001 774480.26761392 20492.74884669
0.12600001 765394.73778295 18955.00157442
0.12700001 756354.44654297 20330.80848119
0.12800001 747360.81345637 15907.57566413
0.12900001 738416.72674299 21598.69027522
0.13000001 729522.31200005 14335.11410648
0.13100001 720678.32283445 14269.43146475
0.13200001 711886.40851513 24143.62868293
0.13300001 703148.27064757 18373.26517819
0.13400001 694463.90148078 16875.47360159
0.13500001 685835.52933997 15390.15000401
0.13600001 677263.31859760 22268.41896546
0.13700001 668749.16549056 15227.41921624
0.13800001 660291.77556587 13767.08416975
0.13900001 651894.88412724 16427.75185471
0.14000001 643557.42331124 16333.48817394
0.14100001 635282.47500654 18944.12429816
0.14200001 627068.66098164 14795.68575370
0.14300001 618918.37636592 14705.50131608
0.14400001 610829.24193689 18599.75129433
0.14500001 602806.47890977 14521.60876195
0.14600001 594848.40579480 14428.04876319
0.14700001 586956.82573344 14333.48636061
0.14800001 579129.05186840 15532.24190390
0.14900001 571369.78019490 19283.73099140
0.15000001 563677.29512679 16597.47873813
0.15100001 556052.78959681 19017.00630153
0.15200001 548497.83928841 18882.03900849
0.15300001 541011.82683895 12497.37378972
0.15400001 533593.56792265 17368.47145552
0.15500001 526246.66821479 16008.42440258
0.15600001 518968.55631663 13443.88108587
0.15700001 511763.77162273 16980.32274386
0.15800001 504626.93942912 13238.88838078
0.15900001 497563.48959880 17912.28647103
0.16000001 490569.08170481 15401.41704711
0.16100001 483649.01512368 12927.93878451
0.16200001 476800.25230419 11657.76671915
0.16300001 470023.29152087 11562.57351726
0.16400001 463319.08155221 13760.57737173
0.16500001 456686.52787103 14782.94360511
0.16600001 450127.03597746 13530.81934031
0.16700001 443639.71118578 16769.58187459
0.16800001 437225.47281421 15517.13276284
0.16900001 430884.71598351 18678.85331986
0.17000001 424615.18814116 14158.79411714
0.17100001 418418.92043686 12954.25038844
0.17200001 412295.58786813 12838.88521250
0.17300001 406244.22814265 11663.27234077
0.17400001 400266.61791954 11557.69913825
0.17500001 394359.92342181 12493.32296403
0.17600001 388524.33729134 12378.38597072
0.17700001 382763.81676185 15329.69158534
0.17800001 377073.06821064 12149.29483158
0.17900001 371454.06324892 12035.11221773
0.18000001 365907.30145096 14901.57555547
0.18100001 360432.08989310 11807.75582265
0.18200001 355025.99532290 9745.46403197
0.18300001 349690.93853434 10616.61739542
0.18400001 344426.33333320 10513.61432167
0.18500001 339231.97865824 11357.48718203
0.18600001 334107.29963657 10308.88121731
0.18700001 329051.21781171 12063.01821489
0.18800001 324062.77668748 12862.05221441
0.18900001 319146.03927842 10914.79505902
0.19000001 314293.02401417 14407.19290153
0.19100001 309510.54394132 15153.63694738
0.19200001 304793.48312531 10588.52610410
0.19300001 300144.85628399 11354.48044975
0.19400001 295560.68847822 11238.69571046
0.19500001 291042.93288139 11123.66142038
0.19600001 286589.36348463 9315.58770029
0.19700001 282202.22744154 8381.40655110
0.19800001 277877.67933511 9124.11403216
0.19900001 273617.57500669 10671.08592958
0.20000001 269418.66426280 10559.86504485
0.20100001 265284.20516096 10449.54533516
0.20200001 261210.00177306 10339.99840889
0.20300001 257197.87015557 10231.33175837
0.20400001 253246.87985397 11681.01288538
0.20500001 249354.82411448 8475.57087226
0.20600001 245522.22799624 7623.46553963
0.20700001 241748.90559135 10559.59269537
0.20800001 238033.04601163 8208.56997973
0.20900001 234377.22072078 8859.45936204
0.21000001 230775.58732896 8034.45245266
0.21100001 227231.53692736 10838.94482383
0.21200001 223742.15742714 8578.27472129
0.21300001 220307.66932135 8486.25182345
0.21400001 216927.92817370 11193.48162295
0.21500001 213602.75531161 9689.02143901
0.21600001 210329.00534188 8215.45133707
0.21700001 207108.24179869 8804.17177512
0.21800001 203939.11666334 9379.16041880
0.21900001 200820.43746814 8615.19717472
0.22000001 197751.38694881 6555.45878731
0.22100001 194733.37215177 9726.93239890
0.22200001 191763.78978789 8338.84879322
0.22300001 188841.94629526 6979.59866511
0.22400001 185967.13974249 6904.03038941
0.22500001 183141.18554374 6208.48648352
0.22600001 180359.74190661 7369.49940279
0.22700001 177624.51890013 8504.66236712
0.22800001 174933.63468203 8412.55888969
0.22900001 172286.36781706 7727.04396201
0.23000001 169683.18269143 5879.52255831
0.23100001 167123.92049759 7560.68652088
0.23200001 164604.74845883 6903.52347686
0.23300001 162128.43209363 7966.99152988
0.23400001 159691.91032203 6192.05411559
0.23500001 157295.27035104 5568.25283378
0.23600001 154938.38376549 6058.86578372
0.23700001 152620.81997241 5448.56353072
0.23800001 150340.77794593 5928.68885872
0.23900001 148098.45803719 5864.69921567
0.24000001 145892.42537664 5801.41256951
0.24100001 143723.72531079 6260.60577067
0.24200001 141590.57522782 6193.17205341
0.24300001 139491.81692867 7147.56103752
0.24400001 137427.57367024 7070.64899980
0.24500001 135396.53924528 6994.58554829
0.24600001 133399.01255095 5930.92037858
0.24700001 131434.47560518 5867.23526857
0.24800001 129501.55017200 4836.88312774
0.24900001 127599.18831537 5263.46676701
0.25000001 125728.54423654 5207.04790589
0.25100001 123887.36207266 5151.23675868
0.25200001 122077.64802158 6949.27044240
0.25300001 120295.58066972 6416.56657649
0.25400001 118542.97946713 4987.69609705
0.25500001 116816.91287100 4934.34663312
0.25600001 115119.61667045 4437.86143261
0.25700001 113448.30217507 7024.71920304
0.25800001 111803.77279612 8252.79587942
0.25900001 110185.76211479 6445.86738870
0.26000001 108592.66543514 6377.10457941
0.26100001 107023.75251249 5467.84377458
0.26200001 105480.98780992 4577.34768260
0.26300001 103960.50481186 6998.62151509
0.26400001 102464.67510740 4480.26813107
0.26500001 100991.77236942 5641.40067150
0.26600001 99541.13442686  4783.94714693
0.26700001 98112.86396187  4732.96478149
0.26800001 96706.66755940  4682.53706481
0.26900001 95321.10596753  5404.70696412
0.27000001 93957.09099890  4965.16270880
0.27100001 92613.17945798  3778.61790070
0.27200001 91290.12074516  3738.33062142
0.27300001 89986.69720222  5547.68014506
0.27400001 88701.08357529  5122.48781889
0.27500001 87436.77271337  5791.81209863
0.27600001 86188.58147254  5013.59002153
0.27700001 84960.69514016  4251.43338602
0.27800001 83749.64513529  3855.41509627
0.27900001 82556.83246713  5547.81940436
0.28000001 81380.68710160  4116.23534841
0.28100001 80221.75336521  5768.74655752
0.28200001 79079.95009289  5371.11046452
0.28300001 77954.20030683  4317.10381732
0.28400001 76844.03518985  3613.59092584
0.28500001 75750.21795903  4549.55830596
0.28600001 74671.54746491  3536.07129757
0.28700001 73608.82379920  3815.88160637
0.28800001 72559.59456495  4403.64200258
0.28900001 71526.63354505  3422.54957713
0.29000001 70507.59843401  4616.48522598
0.29100001 69503.23904709  3653.09041723
0.29200001 68512.41044894  3613.34469812
0.29300001 67535.71228317  3871.82256847
0.29400001 66571.89089026  3240.38694247
0.29500001 65622.81320891  3205.01834884
0.29600001 64685.38126147  4034.42742026
0.29700001 63761.81349792  3705.19915776
0.29800001 62850.93361767  3946.41030867
0.29900001 61953.12132511  3624.25776909
0.30000001 61066.73768073  4135.74500521
0.30100001 60193.66712342  3272.12789973
0.30200001 59331.76422308  3235.95457392
0.30300001 58482.60187663  3200.16812619
0.30400001 57644.95020701  2900.98225651
0.30500001 56819.44101060  3390.41620561
0.30600001 56004.20930131  3094.79275251
0.30700001 55201.37797371  3060.36453975
0.30800001 54409.52223201  3530.63406479
0.30900001 53628.92362115  3740.61759967
0.31000001 52859.29982543  3205.65238968
0.31100001 52100.17047814  3413.60333135
0.31200001 51352.83836108  4098.72698785
0.31300001 50615.26279482  3337.57058671
0.31400001 49889.63070426  2593.01367862
0.31500001 49173.22511011  3263.13537281
0.31600002 48468.40750393  3226.54204031
0.31700002 47773.06780150  2506.65298623
0.31800002 47087.86864038  2478.47008324
0.31900002 46413.54432260  3564.56037275
0.32000002 45749.51046937  2202.83903340
0.32100002 45094.87508536  2395.89082673
0.32200002 44451.22768156  3015.12691641
0.32300002 43815.76403142  2555.33547931
0.32400002 43191.29923859  2737.24871886
0.32500002 42576.53389812  2081.99260620
0.32600002 41971.57298775  2470.44690304
0.32700002 41376.16035462  2849.99006018
0.32800002 40791.35970302  2214.35906633
0.32900002 40214.17501337  2587.78228465
0.33000002 39647.95233484  2952.78138996
0.33100002 39090.10695690  2725.36238609
0.33200002 38543.23318559  2310.28150655
0.33300002 38004.86260462  2094.44807732
0.33400002 37476.48709583  2448.15163547
0.33500002 36956.99009502  1862.63238900
0.33600002 36446.43670377  2395.07770141
0.33700002 35945.06004339  2733.62194576
0.33800002 35453.86037313  2704.24332803
0.33900002 34970.83481214  2318.56645785
0.34000002 34497.07835194  1940.97820539
0.34100002 34032.48295482  2793.38633322
0.34200002 33577.78655060  2245.85035980
0.34300002 33131.30708048  2051.49063158
0.34400002 32694.53266174  2030.33057445
0.34500002 32266.11099115  1842.07236373
0.34600002 31847.31318476  2320.71382168
0.34700002 31436.26193367  2297.36213092
0.34800002 31034.93545223  1949.61473745
0.34900002 30642.05755971  1769.57890788
0.35000002 30258.23082666  2071.02470702
0.35100002 29883.83576155  1893.43992353
0.35200002 29516.51487419  1719.18949027
0.35300002 29159.20616754  1703.18931291
0.35400002 28810.02266492  1994.37391344
0.35500002 28469.76897850  2128.40002964
0.35600002 28137.50556557  1958.79254272
0.35700002 27813.71646757  1941.67563857
0.35800002 27498.84544973  2073.13805665
0.35900002 27192.78733626  1762.09270285
0.36000002 26894.79433196  1747.62381847
0.36100002 26604.63891436  2166.94794221
0.36200002 26324.11831027  1433.34830989
0.36300002 26050.64078702  1706.83806521
0.36400002 25785.83960560  1835.30722086
0.36500002 25528.45878707  1821.96618994
0.36600002 25280.02613267  1809.16515588
0.36700002 25039.05518418  1382.15591164
0.36800002 24806.94632974  1784.98390771
0.36900002 24582.50646702  1637.19500826
0.37000002 24365.35151899  2169.49100202
0.37100002 24155.99498631  1617.48550090
0.37200002 23955.02058417  2010.42519776
0.37300002 23761.40453324  1466.31634321
0.37400002 23575.37738658  1458.72654490
0.37500002 23397.05661806  2243.30989481
0.37600002 23226.46884093  1707.49393773
0.37700002 23062.89371473  1830.73258980
0.37800002 22906.87926824  1302.25614809
0.37900002 22758.79109684  1426.97626937
0.38000002 22617.16074431  1551.08495732
0.38100002 22482.03357255  1417.04264321
0.38200002 22355.21682466  1926.46090113
0.38300002 22234.47165761  1408.77619096
0.38400002 22121.03007107  1532.98745655
0.38500002 22014.01277194  1529.53367986
0.38600002 21914.49056450  1399.34986129
0.38700002 21820.71134973  1523.95855286
0.38800002 21733.59618507  1521.78647697
0.38900002 21652.95393399  1646.70722469
0.39000002 21579.28255924  1265.62498206
0.39100002 21511.02536477  1897.27252706
0.39200002 21449.44692822  1264.44495632
0.39300002 21393.54328614  1517.23016173
0.39400002 21344.70936290  1391.14149864
0.39500002 21300.55127688  1518.30336695
0.39600002 21262.50844181  1392.80068147
0.39700002 21229.41123692  1394.13550198
0.39800002 21203.05047379  1649.70342027
0.39900002 21181.22818728  1779.22325203
0.40000002 21165.14235335  1400.39171016
0.40100002 21153.91189647  1403.13904257
0.40200002 21148.39084913  1534.10434488
0.40300002 21147.44973352  1281.53551457
0.40400002 21151.45710868  1284.95108023
0.40500002 21159.86800722  1675.22682950
0.40600002 21173.99021079  1809.74102906
0.40700002 21192.02712422  1556.34254574
0.40800002 21214.38193845  1691.95311167
0.40900002 21240.65089348  1567.56011021
0.41000002 21272.00988326  1704.84531287
0.41100002 21307.00014325  1580.12720549
0.41200002 21345.33120692  1851.28066329
0.41300002 21388.78451414  1328.24358126
0.41400002 21435.11709361  1601.20332276
0.41500002 21485.10466507  1340.67059463
0.41600002 21537.78490569  2020.78276453
0.41700002 21595.19515878  1760.22444080
0.41800002 21656.15070322  1769.41587705
0.41900002 21718.43410023  1641.91369578
0.42000002 21784.39275088  1925.95825437
0.42100002 21853.77195507  1660.01259637
0.42200002 21925.78067746  1669.42901989
0.42300002 21999.91975632  1539.11445908
0.42400002 22076.57555145  2111.07263714
0.42500002 22156.08695206  2689.97064432
0.42600002 22236.66744289  1424.25861721
0.42700002 22320.67927614  1576.28644518
0.42800002 22405.93283591  1730.18621558
0.42900002 22493.99838298  1595.94926090
0.43000002 22583.53174638  1460.02539659
0.43100002 22673.34362758  1616.15601036
0.43200002 22766.06457696  1922.25275365
0.43300002 22859.43697539  1934.59424290
0.43400002 22954.64088650  2246.68558323
0.43500002 23050.38038936  1959.74343357
0.43600002 23147.96546958  1820.81905012
0.43700002 23245.91616825  1679.98244109
0.43800002 23344.10807389  1537.20958951
0.43900002 23444.21403889  2475.70911983
0.44000002 23544.11110731  2180.42023298
0.44100002 23644.89430533  2037.95353676
0.44200002 23745.90689110  2051.29026400
0.44300002 23847.35613141  1905.88079234
0.44400002 23948.76431771  1598.58009396
0.44500002 24049.73084222  2252.49789743
0.44600002 24150.64042513  1943.16062069
0.44700002 24252.35336477  2118.68569035
0.44800002 24352.76436911  1968.19050959
0.44900002 24453.30471028  2475.89721925
0.45000002 24553.83425926  1827.17366300
0.45100002 24652.78763074  2172.89680475
0.45200002 24751.52933460  2186.42644739
0.45300002 24849.28842031  2030.68394595
0.45400002 24946.38076131  2383.62679471
0.45500002 25042.81827066  2055.51462107
0.45600002 25137.68064016  2757.10094328
0.45700002 25231.86913591  2773.48718687
0.45800002 25324.45853704  1917.94795820
0.45900002 25415.73997132  2279.79198348
0.46000002 25506.15527726  2292.87593732
0.46100002 25594.27639869  2660.52515774
0.46200002 25681.52629219  2318.65671118
0.46300002 25766.97541942  1972.71973161
0.46400002 25850.25070554  2524.27710104
0.46500002 25933.01323019  1993.98948178
0.46600002 26012.70190412  2368.84681117
0.46700002 26090.62524433  2381.03057265
0.46800002 26167.33981453  2945.39590912
0.46900002 26241.25670792  2405.01129127
0.47000002 26313.33411638  2788.55571515
0.47100002 26383.35918831  2054.73611097
0.47200002 26451.37685071  2627.41538711
0.47300002 26516.98984048  1885.35806702
0.47400002 26579.75479874  2651.33066684
0.47500002 26640.65085430  2282.57107339
0.47600002 26699.77029089  2101.40552035
0.47700002 26755.26309323  1918.35245471
