# SAXS profile: number of points = 501, q_min = 0, q_max = 0.5, delta_q = 0.001
#    q    intensity    error
0.00000000 1664650.74656090 274.66737318
0.00100000 1664569.42709476 499.37083999
0.00200000 1664325.40634926 1048.52503920
0.00300000 1663918.91322691 1797.03249030
0.00400000 1663349.82055460 1746.51737795
0.00500000 1662618.60850639 1496.35680688
0.00600000 1661725.21303413 1919.29269919
0.00700000 1660670.16639037 2391.36513899
0.00800000 1659453.33512806 2688.31451641
0.00900000 1658075.87877124 3481.95949427
0.01000000 1656537.25238246 3553.27255979
0.01100000 1654838.64253759 2978.70968626
0.01200000 1652980.03860756 3545.64233827
0.01300000 1650962.57843378 4507.12803791
0.01400000 1648786.26803036 4451.72312103
0.01500000 1646452.53335217 5136.93213280
0.01600000 1643960.70643136 8384.19997760
0.01700000 1641313.14045978 5761.00938145
0.01800000 1638509.76692914 6537.65426423
0.01900000 1635551.18253271 5887.98452280
0.02000000 1632438.54314198 6170.61797221
0.02100000 1629173.98104566 8602.03900992
0.02200000 1625755.92211865 6730.62982336
0.02300000 1622187.62502637 6423.86328751
0.02400000 1618468.55472577 6676.18309266
0.02500000 1614601.40136879 8186.02947880
0.02600000 1610586.02912603 8479.73583120
0.02700000 1606424.60457646 8771.07874271
0.02800000 1602116.88976686 8363.05054811
0.02900000 1597665.53772375 9346.34382481
0.03000000 1593071.75183139 7407.78398652
0.03100000 1588335.85264965 8386.41368788
0.03200000 1583459.44736882 8621.93708803
0.03300000 1578446.29509372 11270.10706653
0.03400000 1573294.40729853 10737.73482526
0.03500000 1568007.08731379 8467.23866250
0.03600000 1562585.52687156 8672.35007492
0.03700000 1557031.56825165 10650.09641938
0.03800000 1551346.65853831 11797.99188419
0.03900000 1545532.81408881 11127.83677677
0.04000000 1539590.05058367 15149.56679976
0.04100000 1533522.24314080 10627.30963772
0.04200000 1527330.06992311 11821.53528964
0.04300000 1521014.75213780 11042.56761309
0.04400000 1514579.51323713 17379.80072155
0.04500000 1508025.77519448 14567.52966526
0.04600000 1501353.69760583 13759.90727821
0.04700000 1494567.14307314 12913.06071671
0.04800000 1487667.10513615 12027.78910466
0.04900000 1480656.71113669 11104.92585043
0.05000000 1473535.81086051 13527.05937360
0.05100000 1466309.04628722 14868.37442198
0.05200000 1458974.59069961 13918.61824390
0.05300000 1451538.61460951 12933.20965909
0.05400000 1444000.72282224 13104.30717072
0.05500000 1436363.94109496 14478.54920165
0.05600000 1428628.84199284 15879.21031974
0.05700000 1420800.92219209 13597.06546007
0.05800000 1412878.79024400 13754.37566525
0.05900000 1404865.29320907 17701.30352119
0.06000000 1396763.95656143 15336.46895955
0.06100000 1388576.40103037 16787.88947298
0.06200000 1380304.44024814 14348.26532707
0.06300000 1371951.67219963 15804.88400270
0.06400000 1363516.48658987 14623.71500258
0.06500000 1355004.90189779 16097.45898755
0.06600000 1346418.20655509 13531.50360900
0.06700000 1337757.75503212 15009.64271390
0.06800000 1329026.82484135 22008.68524958
0.06900000 1320227.79361967 15248.63173023
0.07000000 1311361.56086016 13966.00127717
0.07100000 1302431.25342979 15472.88401546
0.07200000 1293439.15219258 22661.05500801
0.07300000 1284387.86758455 18533.71779765
0.07400000 1275279.89691626 20085.65931773
0.07500000 1266116.57990411 17320.47562494
0.07600000 1256899.22526809 20324.06142539
0.07700000 1247633.00620691 23355.69097131
0.07800000 1238318.41591606 16141.48130844
0.07900000 1228957.14900042 22121.22971958
0.08000000 1219553.64677924 16299.33525382
0.08100000 1210108.40576380 16372.76749817
0.08200000 1200623.60596793 14947.76459573
0.08300000 1191102.62335793 15007.89375866
0.08400000 1181546.74483384 18077.66604450
0.08500000 1171958.66133357 21165.57441731
0.08600000 1162340.30515899 19719.10420286
0.08700000 1152695.29945939 21301.81013429
0.08800000 1143023.28595204 16785.29774251
0.08900000 1133329.42694635 24479.91677186
0.09000000 1123613.62944380 21472.25746734
0.09100000 1113878.63629401 16908.67849333
0.09200000 1104126.48899747 21563.59134332
0.09300000 1094362.01083878 21602.70710912
0.09400000 1084582.01883617 20091.88284321
0.09500000 1074792.30978806 18572.41198609
0.09600000 1064993.89192605 20144.36041272
0.09700000 1055191.60200404 20164.71246230
0.09800000 1045384.54177250 17076.35729274
0.09900000 1035576.25238901 20193.73787115
0.10000000 1025766.63789180 17094.40182437
0.10100000 1015958.81391454 20207.42175915
0.10200000 1006155.51913061 18654.12420210
0.10300000 996357.96143042 18651.82191537
0.10400000 986569.12646766 18646.15736745
0.10500000 976791.42635801 21743.37817374
0.10600001 967022.59008431 21728.99862162
0.10700001 957269.95784499 18609.32885622
0.10800001 947531.73869660 17041.35912245
0.10900001 937812.13583692 24758.24155136
0.11000001 928110.91685265 29360.79023663
0.11100001 918431.06597158 24687.42821544
0.11200001 908773.91764698 15403.71862928
0.11300001 899141.10493431 24600.50178921
0.11400001 889535.19035915 16878.93103180
0.11500001 879957.78389899 18373.51939298
0.11600001 870409.53678753 18330.82570797
0.11700001 860893.58145070 27428.07079674
0.11800001 851408.91651208 18237.17985063
0.11900001 841958.60114723 19701.83219483
0.12000001 832543.63900278 15110.66775969
0.12100001 823168.56622244 18076.78256581
0.12200001 813831.50933182 16516.71126001
0.12300001 804535.47824337 19453.66878047
0.12400001 795280.30033724 20876.10886748
0.12500001 786067.94056315 19313.69020971
0.12600001 776901.95084185 17759.97943316
0.12700001 767781.36729572 16215.54324147
0.12800001 758707.17825510 16149.08305025
0.12900001 749682.51874244 19004.45274584
0.13000001 740707.71588142 18921.37949405
0.13100001 731783.09976308 18836.09787579
0.13200001 722910.94363584 14422.07400540
0.13300001 714092.41812639 20094.56159339
0.13400001 705327.49121353 15711.17060749
0.13500001 696618.84986421 19895.43529016
0.13600001 687966.34236559 18379.02170288
0.13700001 679371.92933626 19688.19944053
0.13800001 670834.26123312 13986.89500627
0.13900001 662357.61349860 13909.51053942
0.14000001 653940.13840998 23512.41878539
0.14100001 645585.20818197 17876.25525766
0.14200001 637291.63843114 15036.89691800
0.14300001 629062.04332885 23099.15932057
0.14400001 620893.12819497 17555.75402782
0.14500001 612791.20452660 16104.15361463
0.14600001 604753.70471408 18668.74774521
0.14700001 596783.17834268 19872.88077634
0.14800001 588876.75431786 17109.81490392
0.14900001 581038.56782494 13073.36839287
0.15000001 573267.48017555 14282.95994249
0.15100001 565564.90417834 12894.88042371
0.15200001 557931.75060811 15365.44113680
0.15300001 550367.94817322 16527.55026356
0.15400001 542871.94141192 13883.95055681
0.15500001 535447.64194671 21300.10820186
0.15600001 528092.10088346 16167.54043157
0.15700001 520810.36987809 12343.20634867
0.15800001 513596.61203222 15924.06370765
0.15900001 506456.61237440 12154.95927071
0.16000001 499386.02301236 13266.19032752
0.16100001 492389.92919576 13161.58342869
0.16200001 485465.51305890 17804.44853191
0.16300001 478612.97729806 12951.26777709
0.16400001 471833.63036036 15181.24777354
0.16500001 465126.15175431 15056.13424311
0.16600001 458492.45258659 14930.80742341
0.16700001 451930.65292509 13666.38358971
0.16800001 445442.22698046 11291.96098712
0.16900001 439027.95321392 14553.77733624
0.17000001 432685.05908526 12208.20951856
0.17100001 426415.99686253 14301.99321013
0.17200001 420219.70351727 13085.64218547
0.17300001 414096.24774774 11888.70383428
0.17400001 408046.57061742 13924.58987992
0.17500001 402068.36851362 13798.98705908
0.17600001 396161.47440571 12621.70517068
0.17700001 390330.07253513 11463.99477181
0.17800001 384568.76648150 12390.80624128
0.17900001 378879.38884884 16367.59037137
0.18000001 373262.99601392 11147.49990251
0.18100001 367718.50225999 16061.94493743
0.18200001 362243.14918848 13921.00488091
0.18300001 356839.64261194 10833.65206147
0.18400001 351506.74077981 14631.46877616
0.18500001 346244.50083950 10626.24423277
0.18600001 341052.47495505 11479.82684933
0.18700001 335929.24055867 10420.52553445
0.18800001 330873.96643081 14070.41608724
0.18900001 325890.96061572 9287.89281638
0.19000001 320972.24101111 13793.78270919
0.19100001 316124.34324124 13656.57227330
0.19200001 311342.32465313 9013.36072460
0.19300001 306629.23769100 10707.49348613
0.19400001 301980.83707961 13249.40985295
0.19500001 297399.54492335 11366.61114410
0.19600001 292882.61924942 8654.68180781
0.19700001 288432.62155344 8566.44926497
0.19800001 284045.75454487 12718.14926079
0.19900001 279723.67159819 10909.22370790
0.20000001 275463.30968989 9966.26301560
0.20100001 271267.73189316 8219.41266483
0.20200001 267133.05200210 8134.20181791
0.20300001 263060.73208837 10464.55641708
0.20400001 259049.84445232 10355.51802144
0.20500001 255098.56124479 8670.80050655
0.20600001 251207.23547285 10139.98053916
0.20700001 247375.46368375 8489.92631494
0.20800001 243601.88076352 9164.30318752
0.20900001 239888.46941918 9823.43328708
0.21000001 236229.82807481 8972.00929441
0.21100001 232629.27059486 8877.13338555
0.21200001 229083.85093822 10246.92113688
0.21300001 225593.67356728 7965.71299024
0.21400001 222158.72894966 7164.61934734
0.21500001 218778.99445636 9214.97168216
0.21600001 215451.06396260 7012.93246354
0.21700001 212176.58470209 8325.80957735
0.21800001 208954.22460285 8236.97592329
0.21900001 205782.58140495 7469.90805819
0.22000001 202661.09011201 8061.85854584
0.22100001 199591.25810816 7311.02813019
0.22200001 196570.19653311 7890.32806193
0.22300001 193597.42100658 7155.36101875
0.22400001 190671.98589740 9652.76974250
0.22500001 187795.98558630 8912.79789739
0.22600001 184964.95968922 7557.66861029
0.22700001 182180.68752881 6853.63778894
0.22800001 179440.94853371 8629.31562307
0.22900001 176745.51257797 6707.49251954
0.23000001 174094.63097777 7842.09302326
0.23100001 171487.94681531 6564.55891455
0.23200001 168922.07771622 7084.59227447
0.23300001 166399.30344522 9344.98532345
0.23400001 163916.72785863 6933.67791635
0.23500001 161474.71913626 6859.44639333
0.23600001 159072.83213934 10744.57495504
0.23700001 156710.47142825 7272.93332298
0.23800001 154386.32498973 6088.22501394
0.23900001 152100.36477292 6570.73606898
0.24000001 149850.99020782 7042.24761792
0.24100001 147639.48799605 5895.24503453
0.24200001 145464.00957752 6362.59607988
0.24300001 143323.29689002 7868.44937146
0.24400001 141217.40896705 6227.68803004
0.24500001 139145.31963169 5134.46253729
0.24600001 137107.04264611 5587.79778737
0.24700001 135102.40651228 6533.55268801
0.24800001 133129.66678439 6961.35060547
0.24900001 131187.69433533 8363.21590952
0.25000001 129278.18520629 7300.98585492
0.25100001 127398.55221927 4815.66550171
0.25200001 125550.71879612 5241.11500410
0.25300001 123730.79610252 6599.80097635
0.25400001 121940.85657987 5597.08558182
0.25500001 120177.75971037 4614.82619121
0.25600001 118444.09708911 5022.62217470
0.25700001 116736.69184706 5421.25222588
0.25800001 115056.36444456 6257.91595823
0.25900001 113403.20175705 6191.81510890
0.26000001 111775.00995201 5688.78940068
0.26100001 110171.68349747 4329.74736632
0.26200001 108594.63431491 7711.30534758
0.26300001 107040.55328851 5510.44794403
0.26400001 105511.13968029 5452.28840097
0.26500001 104005.33428786 4564.79433790
0.26600001 102521.96104536 5748.40662783
0.26700001 101061.53748537 8531.61539823
0.26800001 99623.44491238  4823.76743092
0.26900001 98206.21420180  5170.55742240
0.27000001 96811.02393249  4328.90513999
0.27100001 95436.29566441  6230.08167580
0.27200001 94082.78252942  4237.95913959
0.27300001 92749.07381621  4193.18582567
0.27400001 91433.80620084  5280.30255799
0.27500001 90139.84921421  4851.32691430
0.27600001 88862.59883011  4061.46527174
0.27700001 87605.99754167  3653.17027038
0.27800001 86366.52428077  4337.32705465
0.27900001 85145.53361059  4648.94635516
0.28000001 83941.52050986  4245.76230833
0.28100001 82755.13670376  4200.65093790
0.28200001 81586.13927862  4155.99813155
0.28300001 80433.64994927  3769.12101502
0.28400001 79296.86059246  3728.93504585
0.28500001 78176.73077185  4695.29467239
0.28600001 77072.13183603  3981.54651910
0.28700001 75983.77378714  3938.99901957
0.28800001 74909.13533746  3572.04228764
0.28900001 73851.26757980  4818.79543767
0.29000001 72807.34039263  3813.64867028
0.29100001 71778.42470150  3458.28466582
0.29200001 70763.40527291  3732.06217075
0.29300001 69762.81628590  4307.15648137
0.29400001 68775.28069478  3347.63694628
0.29500001 67802.74572158  3913.57466831
0.29600001 66842.26578819  3871.17000637
0.29700001 65895.54352281  4418.29640236
0.29800001 64962.10085721  3787.61546978
0.29900001 64042.01228783  3746.45789619
0.30000001 63133.40231245  3135.52057428
0.30100001 62238.39845257  3101.33954171
0.30200001 61354.91739326  3625.15546580
0.30300001 60484.25007448  3033.89012736
0.30400001 59625.44412563  3000.65061768
0.30500001 58778.98143025  3777.13752553
0.30600001 57942.99572599  2668.27507951
0.30700001 57119.65061056  3166.71357977
0.30800001 56307.49630455  3914.77886591
0.30900001 55506.82032486  3613.49417423
0.31000001 54717.36928936  2807.82193802
0.31100001 53938.56252720  4038.91975326
0.31200001 53171.73966783  2995.69595472
0.31300001 52414.94486381  3703.11602996
0.31400001 51670.24807060  2685.56127062
0.31500001 50934.81866932  3862.89683078
0.31600002 50211.40129264  2865.06269341
0.31700002 49497.58574798  3305.44893276
0.31800002 48794.10467788  2801.75762326
0.31900002 48101.60565810  2308.87718091
0.32000002 47419.57786755  2511.57806068
0.32100002 46747.14079274  3161.04181008
0.32200002 46085.96272079  2232.86499955
0.32300002 45433.09443538  2870.46304235
0.32400002 44791.47591801  2838.65992072
0.32500002 44159.44852461  2375.33684861
0.32600002 43537.50587673  2776.16919369
0.32700002 42925.37620930  2111.92860950
0.32800002 42323.99552320  2924.16498917
0.32900002 41730.31174910  2065.65052940
0.33000002 41147.68883870  2451.57941710
0.33100002 40573.62413459  2424.67989310
0.33200002 40010.63701504  2598.09083760
0.33300002 39456.29869630  2569.78885578
0.33400002 38912.16325645  2541.93718510
0.33500002 38377.14389672  2514.47058719
0.33600002 37850.95082360  2678.71191664
0.33700002 37334.21613492  2082.12933245
0.33800002 36827.69543337  2809.03260221
0.33900002 36329.46013561  2038.08281013
0.34000002 35840.71325085  3299.85462528
0.34100002 35361.21150103  1814.03023591
0.34200002 34891.66929117  2333.72941106
0.34300002 34430.33136592  1954.26570088
0.34400002 33979.03804624  1758.41530217
0.34500002 33536.07929631  2262.67937728
0.34600002 33103.01287840  2756.81904308
0.34700002 32677.69410816  1705.77571323
0.34800002 32262.19842503  2026.71140105
0.34900002 31855.16297598  1839.63574899
0.35000002 31457.36685080  1987.47653176
0.35100002 31069.08330473  2132.58197904
0.35200002 30688.02312348  2112.41017175
0.35300002 30317.02800926  2092.78454260
0.35400002 29954.05697556  1595.05360950
0.35500002 29600.26098714  1580.65401158
0.35600002 29254.59034231  2819.85009666
0.35700002 28917.43951546  1708.15323308
0.35800002 28589.27337961  1847.43893329
0.35900002 28269.99892047  1984.55401822
0.36000002 27958.89092220  1665.37141666
0.36100002 27655.66768788  1651.87310924
0.36200002 27362.23369314  1936.83580371
0.36300002 27075.70173725  1774.00006185
0.36400002 26798.12119006  1467.19720465
0.36500002 26527.83600603  1747.65391886
0.36600002 26266.80100689  2168.98119588
0.36700002 26013.13633443  1579.51771305
0.36800002 25768.51673979  1854.17370984
0.36900002 25531.51798469  1558.69924680
0.37000002 25301.88716939  1689.66010521
0.37100002 25080.12841920  1959.25972492
0.37200002 24866.77298051  1669.55521700
0.37300002 24660.98443436  1798.52567999
0.37400002 24462.72392050  1926.43960000
0.37500002 24272.20826142  1779.63839403
0.37600002 24089.49045514  2588.29542456
0.37700002 23913.94459282  1762.69693944
0.37800002 23745.83042666  1889.93073319
0.37900002 23585.83164801  1344.39246762
0.38000002 23432.34231235  1473.07426925
0.38100002 23285.30670591  1867.94739244
0.38200002 23146.71768540  1595.73479283
0.38300002 23014.30230321  1458.18626301
0.38400002 22889.14419018  1321.84813960
0.38500002 22770.40127919  1845.76881513
0.38600002 22659.33969957  1446.91220506
0.38700002 22553.99345286  2231.49221794
0.38800002 22455.39130710  1703.35378830
0.38900002 22363.29980048  1700.72903040
0.39000002 22278.11236968  1698.59475810
0.39100002 22198.48363923  1566.32507979
0.39200002 22125.75256715  1434.74449319
0.39300002 22058.45142019  1303.65454070
0.39400002 21998.45349977  1694.43096110
0.39500002 21943.15891847  1694.45081196
0.39600002 21893.83106536  1694.91101223
0.39700002 21849.68527422  1434.86889994
0.39800002 21812.33623352  1305.46838543
0.39900002 21779.40852264  1306.76457327
0.40000002 21752.35841492  1700.92574684
0.40100002 21730.23173302  1703.43294626
0.40200002 21713.77047309  1575.11698475
0.40300002 21701.99090800  1315.14071134
0.40400002 21695.28460065  1976.98290290
0.40500002 21692.84925488  1585.31349866
0.40600002 21696.32756799  1589.47303294
0.40700002 21703.55841313  1726.73518916
0.40800002 21715.35488595  1998.35562806
0.40900002 21731.09351227  1470.10854576
0.41000002 21751.89232509  1609.20507046
0.41100002 21776.40802939  1749.51670398
0.41200002 21804.19676767  1756.00106989
0.41300002 21837.30663571  2034.14520950
0.41400002 21873.31172016  1906.25920674
0.41500002 21912.95363020  1504.10520845
0.41600002 21955.34086743  1785.29862723
0.41700002 22002.45489268  1379.55398714
0.41800002 22053.32237255  1663.26165215
0.41900002 22105.41461503  1531.90530541
0.42000002 22161.30269101  1399.48633125
0.42100002 22220.67563160  1687.88260096
0.42200002 22282.60520318  1837.98077728
0.42300002 22346.77991484  2131.88290490
0.42400002 22413.48635802  1714.63178764
0.42500002 22483.26325512  1580.34864909
0.42600002 22554.03672097  1877.96195656
0.42700002 22628.28426387  1888.55669415
0.42800002 22703.77681912  1607.08691830
0.42900002 22782.06047308  1469.44297015
0.43000002 22862.12586327  2069.25110994
0.43100002 22942.35522673  1783.99762697
0.43200002 23025.51591744  1645.05806268
0.43300002 23109.43968093  2256.63689178
0.43400002 23195.31785726  1664.84401810
0.43500002 23281.63826685  1827.14305777
0.43600002 23370.05848598  1991.47962826
0.43700002 23458.65128916  1849.48015528
0.43800002 23547.71514079  1705.67882705
0.43900002 23638.67036181  1872.18278138
0.44000002 23729.46385073  1569.70410811
0.44100002 23821.24691563  1737.28361989
0.44200002 23913.33763975  1589.04136147
0.44300002 24005.87127890  2558.06576471
0.44400002 24098.46567703  1930.28719221
0.44500002 24190.57590369  2265.68944651
0.44600002 24282.79844565  1790.97788424
0.44700002 24375.83392819  1801.86172936
0.44800002 24467.64536291  1647.89599329
0.44900002 24559.70338783  2155.11407442
0.45000002 24651.69797560  2001.22493650
0.45100002 24742.25281347  1677.52482026
0.45200002 24832.69692040  2193.59638642
0.45300002 24922.10108080  1697.19516404
0.45400002 25010.98667344  2048.39990563
0.45500002 25099.32298063  1716.79377324
0.45600002 25186.10865336  2589.76174502
0.45700002 25272.30735783  2430.69063688
0.45800002 25356.90097390  2444.15180071
0.45900002 25440.30556368  1930.91928380
0.46000002 25522.93722899  1941.40231233
0.46100002 25603.26052268  2129.16724598
0.46200002 25682.87282156  2140.41072239
0.46300002 25760.77244677  2689.42477091
0.46400002 25836.50986683  2342.72564321
0.46500002 25911.78702970  2354.60419899
0.46600002 25984.13274163  2002.20744330
0.46700002 26054.73452061  1829.04245004
0.46800002 26124.22775987  2021.62346101
0.46900002 26190.97783126  2585.04963447
0.47000002 26255.96117630  2225.98049403
0.47100002 26318.97516052  2049.72188265
0.47200002 26380.12568303  2246.00400711
0.47300002 26438.87176398  2255.76464582
0.47400002 26494.82332583  2265.30750173
0.47500002 26549.01329973  1895.59963945
0.47600002 26601.58729049  2474.34675910
0.47700002 26650.45993516  3057.34090867
