# SAXS profile: number of points = 501, q_min = 0, q_max = 0.5, delta_q = 0.001
#    q    intensity    error
0.00000000 1682732.95097188 252.40994265
0.00100000 1682651.17887765 605.75443878
0.00200000 1682405.80556325 832.79090012
0.00300000 1681997.05877813 1211.03792546
0.00400000 1681424.80226755 1765.49610947
0.00500000 1680689.53296104 1966.40683140
0.00600000 1679791.17708910 2292.91505008
0.00700000 1678730.27427671 3021.71461928
0.00800000 1677506.67789112 2944.02434400
0.00900000 1676121.56059741 3519.85542772
0.01000000 1674574.36899470 3315.65739378
0.01100000 1672866.31508932 4817.85519722
0.01200000 1670997.36536980 4561.82300747
0.01300000 1668968.65817168 4556.28463776
0.01400000 1666780.22624724 4125.28124284
0.01500000 1664433.44114564 4793.56852395
0.01600000 1661927.70095108 5085.49899225
0.01700000 1659265.36906974 6272.02337644
0.01800000 1656446.28743354 5665.04655794
0.01900000 1653471.13989572 7936.66182962
0.02000000 1650341.08003959 5718.43210101
0.02100000 1647058.20703089 7065.88002852
0.02200000 1643620.91679325 5670.49242056
0.02300000 1640032.54927293 7084.94093535
0.02400000 1636292.51884480 7363.31667055
0.02500000 1632403.61549293 9549.56158677
0.02600000 1628365.54357349 7254.36882842
0.02700000 1624180.58891029 7503.71466444
0.02800000 1619848.43812606 7750.97513189
0.02900000 1615371.87888507 10903.76068311
0.03000000 1610751.98847226 9736.99621788
0.03100000 1605989.12198101 10792.24739630
0.03200000 1601085.01571659 8717.90831211
0.03300000 1596043.23897972 11395.74925166
0.03400000 1590861.79511910 11692.83473364
0.03500000 1585544.17671821 8561.93894965
0.03600000 1580091.55943337 11400.36112817
0.03700000 1574505.61212460 9872.15064458
0.03800000 1568787.94147634 11930.63284707
0.03900000 1562940.55864797 11253.17254340
0.04000000 1556963.34170918 13405.45499331
0.04100000 1550860.35024493 10747.46272552
0.04200000 1544632.23403591 11955.45404609
0.04300000 1538280.13387117 10152.64935482
0.04400000 1531807.37901996 18611.46051944
0.04500000 1525215.20253541 11576.38392514
0.04600000 1518503.94111887 13917.08926732
0.04700000 1511677.50699366 18502.93354614
0.04800000 1504736.74176430 13271.77867987
0.04900000 1497684.93328814 12355.90127476
0.05000000 1490521.85297115 18243.98832992
0.05100000 1483252.14343110 11569.36725771
0.05200000 1475873.90057117 12906.51786196
0.05300000 1468393.49834800 17840.98183664
0.05400000 1460810.42306774 12051.68655233
0.05500000 1453127.67544325 15868.15495608
0.05600000 1445346.08902973 12357.70963787
0.05700000 1437470.86438890 15007.19652473
0.05800000 1429500.52057737 18976.62029673
0.05900000 1421438.27251946 14072.23955520
0.06000000 1413287.53963520 16811.05606935
0.06100000 1405049.79734211 16987.05284369
0.06200000 1396727.07910124 17158.79296882
0.06300000 1388322.67282872 18659.05759523
0.06400000 1379835.25007136 13453.39431737
0.06500000 1371270.93742595 20363.37437333
0.06600000 1362630.64762554 21911.10183901
0.06700000 1353916.21014672 13809.94598979
0.06800000 1345130.39117459 22275.36032054
0.06900000 1336275.97074960 14030.89834978
0.07000000 1327353.63243667 18377.21190166
0.07100000 1318366.68345651 17086.03301787
0.07200000 1309317.20759844 15770.72650433
0.07300000 1300208.11399394 14432.31074157
0.07400000 1291041.60224964 15976.64057657
0.07500000 1281819.28378770 16074.01457213
0.07600000 1272542.11761591 19107.22079176
0.07700000 1263215.72770161 14779.62470710
0.07800000 1253840.34374189 16343.80964714
0.07900000 1244417.71859742 14933.01332358
0.08000000 1234952.21497376 21006.53816214
0.08100000 1225444.65035883 24116.75185058
0.08200000 1215896.90778764 16651.70893354
0.08300000 1206312.23869982 18239.44190515
0.08400000 1196692.43284059 18309.39508188
0.08500000 1187039.66566723 15312.81240597
0.08600000 1177356.37665197 19973.85186770
0.08700000 1167645.92862958 18495.51237800
0.08800000 1157907.74528764 18549.68295067
0.08900000 1148147.36946642 27899.98238849
0.09000000 1138364.65188591 27969.62081072
0.09100000 1128562.20470499 18688.99098795
0.09200000 1118742.26682091 17167.10089099
0.09300000 1108909.25779348 25016.99403142
0.09400000 1099060.50998697 20360.09690438
0.09500000 1089201.62236819 20389.85532911
0.09600000 1079333.77097798 17274.73781655
0.09700000 1069461.41735388 18865.30028903
0.09800000 1059583.98908512 20455.26987105
0.09900000 1049704.84285064 18894.68805979
0.10000000 1039824.07696677 17328.66905757
0.10100000 1029944.59093317 20485.59887714
0.10200000 1020069.35872869 15760.07233365
0.10300000 1010199.44521198 17335.02329529
0.10400000 1000338.12622166 18906.39147504
0.10500000 990487.49881857 22048.25276106
0.10600001 980645.16599826 15739.35565486
0.10700001 970819.03583881 18872.72294481
0.10800001 961006.85576274 18854.95539741
0.10900001 951212.96798215 20403.51912352
0.11000001 941437.28820481 23512.39737963
0.11100001 931682.65824699 23478.40409303
0.11200001 921950.37791100 21877.88349778
0.11300001 912242.38560273 24958.95284518
0.11400001 902560.76295232 20239.92606219
0.11500001 892907.69750062 18643.91360172
0.11600001 883283.15379318 21702.26811069
0.11700001 873690.96769230 24742.92937031
0.11800001 864129.62995565 15424.71462119
0.11900001 854602.44442739 15382.84472425
0.12000001 845110.54234833 19940.38418600
0.12100001 835658.42838505 21409.56994379
0.12200001 826243.86666876 16768.62006403
0.12300001 816870.59251397 16713.17311027
0.12400001 807537.45685179 15141.32802939
0.12500001 798247.39140531 18104.25169015
0.12600001 789003.27643274 21042.71837407
0.12700001 779804.56464179 32938.94636276
0.12800001 770652.13214348 16403.33140575
0.12900001 761548.98929078 17820.24718931
0.13000001 752495.69247097 16265.19515942
0.13100001 743492.22626855 16193.26145144
0.13200001 734541.55208548 16119.51512039
0.13300001 725644.13403073 14585.44778162
0.13400001 716800.24892987 20321.28801522
0.13500001 708012.70005969 24553.88159574
0.13600001 699281.10324143 20118.31828885
0.13700001 690607.52137521 17154.69163986
0.13800001 681990.54349160 17063.40420280
0.13900001 673434.93665550 19798.98807136
0.14000001 664938.20031595 15469.78795991
0.14100001 656503.99056874 15381.88922448
0.14200001 648131.11247201 18073.13692371
0.14300001 639822.44744860 17966.21517178
0.14400001 631574.14089174 20605.10731853
0.14500001 623393.05195590 17748.00102640
0.14600001 615276.28257811 18993.57973920
0.14700001 607226.59830932 16176.51734211
0.14800001 599241.10767487 20089.55908260
0.14900001 591323.70704711 13304.78403629
0.15000001 583473.45023312 21145.07883413
0.15100001 575691.98077697 17063.51111537
0.15200001 567980.02185680 15642.17054004
0.15300001 560337.31242283 18121.30953888
0.15400001 552762.48043257 14136.90110420
0.15500001 545259.45674781 14034.97907904
0.15600001 537825.32613996 13932.36573119
0.15700001 530465.27626706 17600.83869724
0.15800001 523172.96452827 16220.97853081
0.15900001 515954.74900328 14859.49747267
0.16000001 508806.07676823 20889.03446773
0.16100001 501731.84725758 14630.50135665
0.16200001 494729.48413609 15724.97739558
0.16300001 487799.33666055 11999.86424834
0.16400001 480942.47036111 15474.32471441
0.16500001 474157.63000474 12987.17809897
0.16600001 467446.94313465 15222.41042188
0.16700001 460807.99407628 17418.54299850
0.16800001 454242.53045849 14969.56329807
0.16900001 447751.80929318 13701.20601132
0.17000001 441332.66599833 12452.20175913
0.17100001 434987.37355150 13467.20972109
0.17200001 428714.85922537 14462.69645894
0.17300001 422515.81780417 12130.42970201
0.17400001 416390.38539276 13116.29775930
0.17500001 410336.88237401 11916.18362691
0.17600001 404354.97751934 13956.31270822
0.17700001 398448.63399614 15957.86854525
0.17800001 392612.74864839 12649.98335894
0.17900001 386848.93280319 11489.41384694
0.18000001 381158.71186646 12418.15141918
0.18100001 375540.30808023 12302.70107384
0.18200001 369991.36280514 11171.88972764
0.18300001 364514.69328500 10060.60600992
0.18400001 359108.59803603 11958.31687952
0.18500001 353773.78489755 15792.46250390
0.18600001 348509.41681593 13685.96544493
0.18700001 343313.99456182 16458.47367687
0.18800001 338186.92903812 12463.87985857
0.18900001 333132.40321166 12342.55612215
0.19000001 328142.68835455 12221.67500522
0.19100001 323223.85764549 17686.81032606
0.19200001 318371.17396546 11060.21510617
0.19300001 313588.08808404 9125.41379445
0.19400001 308869.88897433 9034.44467941
0.19500001 304219.07943542 12521.65790127
0.19600001 299632.98584196 11510.40169506
0.19700001 295114.26242996 9641.38340921
0.19800001 290658.99903808 10411.40583757
0.19900001 286268.75768499 11164.48207735
0.20000001 281940.69467130 9350.56358069
0.20100001 277677.84499730 10937.73083139
0.20200001 273476.14587243 10825.55374601
0.20300001 269337.28830729 10714.23783527
0.20400001 265260.02441226 11419.44459070
0.20500001 261242.90120333 9686.88723449
0.20600001 257286.20578626 8787.61077400
0.20700001 253389.34940966 8696.32288281
0.20800001 249551.04841307 9388.11088508
0.20900001 245773.41704349 12386.98080454
0.21000001 242050.90390364 9959.18491191
0.21100001 238386.95217609 7580.70543757
0.21200001 234778.34205982 9751.51889845
0.21300001 231225.52125536 11875.74333311
0.21400001 227728.38278277 8813.08883035
0.21500001 224286.86442520 9446.96317622
0.21600001 220897.57924748 9347.28150778
0.21700001 217562.08497571 7114.28051507
0.21800001 214279.23034343 8446.88765951
0.21900001 211047.29396146 8357.47323603
0.22000001 207866.07829759 8268.91298565
0.22100001 204736.93020060 8863.06212746
0.22200001 201657.17877021 8769.06283346
0.22300001 198625.98213278 7341.21664676
0.22400001 195642.48941498 7923.52119598
0.22500001 192709.06504392 10452.54018225
0.22600001 189820.87965645 7109.74138374
0.22700001 186980.00828287 6394.71658567
0.22800001 184183.96357575 8224.73528242
0.22900001 181432.82629384 6259.43280315
0.23000001 178726.68713047 6812.16800214
0.23100001 176065.17469978 7352.48204318
0.23200001 173444.91726342 7274.28017405
0.23300001 170868.28557370 10195.71108238
0.23400001 168331.96624496 6527.07229985
0.23500001 165837.01986643 6457.69385902
0.23600001 163382.60730027 6389.07716066
0.23700001 160967.92388825 7470.52170099
0.23800001 158592.17859475 7959.74182016
0.23900001 156254.90641447 8437.76534548
0.24000001 153954.81284077 7235.10677168
0.24100001 151692.97453196 7158.39180676
0.24200001 149467.60403720 6537.71330983
0.24300001 147277.54992211 5929.39444034
0.24400001 145122.62637998 8533.21083479
0.24500001 143002.02826304 7915.16263878
0.24600001 140915.67716707 6265.11130322
0.24700001 138863.54142369 6715.44118093
0.24800001 136843.67030108 6644.44472580
0.24900001 134854.99926399 6068.47525396
0.25000001 132899.23535230 6004.38773727
0.25100001 130973.84192137 4950.81145885
0.25200001 129080.78685526 6858.06253007
0.25300001 127215.92764808 6785.69790178
0.25400001 125381.63312293 5275.43246323
0.25500001 123574.54258543 6168.84145772
0.25600001 121797.49819696 6573.41128870
0.25700001 120047.08002294 5110.40443837
0.25800001 118324.12770073 5516.27109441
0.25900001 116628.89678046 5458.23262758
0.26000001 114958.91460496 5850.83423565
0.26100001 113314.52036413 4898.58694712
0.26200001 111696.50735997 5728.35565100
0.26300001 110102.21869963 4796.05287349
0.26400001 108532.89093923 6039.85566656
0.26500001 106987.53122672 6403.20404691
0.26600001 105465.20518442 5913.43433451
0.26700001 103966.22124763 6687.10766708
0.26800001 102490.05986033 5789.66375548
0.26900001 101035.12700991 4091.92283754
0.27000001 99602.56100443  4453.72872607
0.27100001 98191.06802599  5208.05449456
0.27200001 96801.18047660  4360.40938092
0.27300001 95431.54899461  4706.68421915
0.27400001 94080.69511940  5433.16040027
0.27500001 92751.68274633  4607.90381691
0.27600001 91439.86168342  3799.32643275
0.27700001 90149.02119451  4511.05723407
0.27800001 88875.66867495  4091.39160109
0.27900001 87621.25545013  5152.13006431
0.28000001 86384.19572243  5461.64103304
0.28100001 85165.19554406  4683.23432462
0.28200001 83964.00078703  4277.12640253
0.28300001 82779.79805684  3879.06152054
0.28400001 81611.57951704  4884.45326528
0.28500001 80460.56299942  3796.93414766
0.28600001 79325.39935507  4097.95032465
0.28700001 78206.84556598  3716.38947720
0.28800001 77102.38916778  4010.86647435
0.28900001 76015.26565912  4298.66347649
0.29000001 74942.22397309  3598.35105439
0.29100001 73884.76310731  5825.07499911
0.29200001 72841.49083801  4481.93714342
0.29300001 71813.04199116  3166.95530172
0.29400001 70798.10049940  3446.09770493
0.29500001 69798.41590335  3718.85977537
0.29600001 68811.23365484  3985.20278577
0.29700001 67838.21768990  5155.02640628
0.29800001 66878.77961419  3299.46474846
0.29900001 65933.05565213  3263.68640928
0.30000001 64999.14111851  3228.18249647
0.30100001 64079.29280500  3193.07131163
0.30200001 63171.19320554  3732.47012725
0.30300001 62276.33344630  3407.76112751
0.30400001 61393.73338768  3651.39246610
0.30500001 60523.72867841  3889.25498900
0.30600001 59664.58315901  3846.57585837
0.30700001 58818.32804121  3260.88826099
0.30800001 57983.72287709  2956.30025085
0.30900001 57160.85318917  2923.77777905
0.31000001 56349.66024171  3943.06766210
0.31100001 55549.27195010  3899.55907552
0.31200001 54761.20566015  3085.24647297
0.31300001 53983.52163341  3559.67358504
0.31400001 53218.25334447  2514.56258958
0.31500001 52462.38785047  2486.71730185
0.31600002 51719.11386016  2705.16837854
0.31700002 50985.65566241  2675.21747927
0.31800002 50262.74755275  3126.59435956
0.31900002 49551.19287195  3805.53179275
0.32000002 48850.49285034  3763.44214739
0.32100002 48159.48542503  2791.32390740
0.32200002 47480.10990121  3220.57600709
0.32300002 46809.38158006  2957.41686826
0.32400002 46150.20042571  2249.82237729
0.32500002 45500.71518064  3559.97612430
0.32600002 44861.57017398  2420.50613335
0.32700002 44232.67556551  3481.99638540
0.32800002 43614.67330050  2367.62265223
0.32900002 43004.70120789  2128.73281059
0.33000002 42405.97881336  2737.09403212
0.33100002 41816.08821935  3123.66193790
0.33200002 41237.60612121  2265.80037563
0.33300002 40667.93539227  2444.95639156
0.33400002 40108.57191827  2217.00141777
0.33500002 39558.67326895  3190.01156347
0.33600002 39017.97804223  2366.83066013
0.33700002 38486.83266278  2341.53901009
0.33800002 37966.09202819  2509.74863238
0.33900002 37453.99439198  1910.15380445
0.34000002 36951.43085481  2835.09866660
0.34100002 36458.55897941  2431.42141349
0.34200002 35975.71839290  2406.23603867
0.34300002 35501.21259554  2381.42145369
0.34400002 35036.99927851  3082.38015751
0.34500002 34581.41455607  1974.25305051
0.34600002 34135.96618447  1954.45483646
0.34700002 33698.22186481  1934.95199112
0.34800002 33270.69857939  2090.06538375
0.34900002 32851.70064673  2069.65723877
0.35000002 32442.23160437  1878.89193236
0.35100002 32042.37201476  1691.83732251
0.35200002 31649.91378405  2178.62191851
0.35300002 31267.72439938  1826.34786867
0.35400002 30893.63811780  1974.10356923
0.35500002 30528.92484888  2119.31806339
0.35600002 30172.63103540  1777.31891532
0.35700002 29824.93728980  1921.91904999
0.35800002 29486.45452366  2064.19934670
0.35900002 29156.88213345  1731.91888076
0.36000002 28835.72633363  1717.60012042
0.36100002 28522.55157037  1858.52954836
0.36200002 28219.43374943  1843.85788853
0.36300002 27923.18605529  2439.36964934
0.36400002 27636.08802487  1664.38348014
0.36500002 27356.51444506  2102.62179984
0.36600002 27086.18616244  2087.53246642
0.36700002 26823.45149523  2220.98188901
0.36800002 26569.78311292  1764.76507796
0.36900002 26323.94904372  1899.27301347
0.37000002 26085.49437783  2322.65252942
0.37100002 25855.15700365  2019.80496080
0.37200002 25633.29562371  1577.60125389
0.37300002 25419.08994798  1568.61211500
0.37400002 25212.49097446  2269.12429519
0.37500002 25013.76122408  2116.16429980
0.37600002 24823.00763889  1544.11526332
0.37700002 24639.53021951  1397.06142963
0.37800002 24463.44712548  1807.97114546
0.37900002 24295.67039505  1661.82393375
0.38000002 24134.42143081  2206.85160018
0.38100002 23979.83335575  1374.04451638
0.38200002 23833.64592674  1643.09162803
0.38300002 23693.89554306  1501.24529273
0.38400002 23561.35662447  1496.73525048
0.38500002 23435.31695805  1899.66688262
0.38600002 23317.06066147  2030.33315328
0.38700002 23204.60022322  1890.71091576
0.38800002 23098.87028152  1617.38297374
0.38900002 22999.73875012  1345.48478063
0.39000002 22907.72048730  1746.59923130
0.39100002 22821.13301796  1610.25922204
0.39200002 22741.74354331  1876.87618355
0.39300002 22667.69073322  1473.62664438
0.39400002 22601.02413672  1606.93289225
0.39500002 22539.03261530  1338.81860078
0.39600002 22483.20770851  1606.65009897
0.39700002 22432.54040237  1607.06727057
0.39800002 22388.76403445  2277.94490461
0.39900002 22349.40899701  1743.25398436
0.40000002 22316.02069559  1745.00132097
0.40100002 22287.49266603  1343.93587144
0.40200002 22264.77232035  1749.67721569
0.40300002 22246.79332747  1482.97131347
0.40400002 22233.94087073  1485.78316908
0.40500002 22225.39397686  1894.93718025
0.40600002 22222.65866277  1492.36271321
0.40700002 22223.90870800  2176.16524380
0.40800002 22229.60766527  1636.54379386
0.40900002 22239.44414403  2598.67917136
0.41000002 22254.23266970  1646.36821091
0.41100002 22272.86785990  2064.69494844
0.41200002 22294.69498438  1933.61898761
0.41300002 22321.93579709  1663.43073442
0.41400002 22352.05233961  1947.98145370
0.41500002 22385.85843723  1396.87763267
0.41600002 22422.35089722  1402.51811508
0.41700002 22463.71473797  2253.55996930
0.41800002 22508.80212724  1414.67828073
0.41900002 22555.15020553  1563.07198331
0.42000002 22605.27238433  1998.53222620
0.42100002 22659.06657887  2008.04657537
0.42200002 22715.18409329  1873.66204872
0.42300002 22773.73613773  2027.77356179
0.42400002 22834.74537338  1601.28659519
0.42500002 22898.89462626  1463.23943595
0.42600002 22964.06661642  1765.01824378
0.42700002 23032.60577617  2070.17070526
0.42800002 23102.49084262  1783.97442740
0.42900002 23175.26049876  1793.76524761
0.43000002 23249.70686465  1803.71234403
0.43100002 23324.38679298  1813.70440297
0.43200002 23401.94095906  1671.95175105
0.43300002 23480.34488075  1681.42757659
0.43400002 23560.62092525  1998.52976469
0.43500002 23641.47683496  1546.15265828
0.43600002 23724.30255889  2021.66653836
0.43700002 23807.36314485  1564.14383274
0.43800002 23890.97380637  2045.18690961
0.43900002 23976.37995640  1898.92938254
0.44000002 24061.65786812  1591.67874341
0.44100002 24147.93710223  1761.10913632
0.44200002 24234.49900088  1932.45904191
0.44300002 24321.50682545  2591.69989014
0.44400002 24408.62473924  1792.20335641
0.44500002 24495.27898388  1802.60766585
0.44600002 24581.98772426  2307.51129703
0.44700002 24669.61592418  2155.13774927
0.44800002 24755.85777615  1667.30710024
0.44900002 24842.50514421  2012.24301204
0.45000002 24929.04546141  2023.74000647
0.45100002 25014.19216781  2543.94346403
0.45200002 25099.23044181  2387.68990509
0.45300002 25183.13707123  2229.46323058
0.45400002 25266.60921406  2069.33539270
0.45500002 25349.52172264  2254.07957841
0.45600002 25430.87248976  2091.94367015
0.45700002 25511.67488367  2804.24343612
0.45800002 25590.84283041  2114.31553485
0.45900002 25668.81407632  1948.26308073
0.46000002 25746.01263333  2492.47160116
0.46100002 25820.91852191  1968.32871221
0.46200002 25895.07655738  2158.09578257
0.46300002 25967.70214046  2349.55780103
0.46400002 26038.03986471  1816.15336664
0.46500002 26107.92583285  2189.93292265
0.46600002 26174.95733736  2200.26701806
0.46700002 26240.15275316  2210.47057269
0.46800002 26304.35906367  2035.56292262
0.46900002 26365.73499757  2416.41972706
0.47000002 26425.37771023  2613.73423320
0.47100002 26483.12777256  2812.50830275
0.47200002 26538.93154003  2259.52473841
0.47300002 26592.45273371  2079.79582688
0.47400002 26643.11592805  2277.98651982
0.47500002 26692.00006115  2096.38978417
0.47600002 26739.30263053  1913.19719390
0.47700002 26782.98819899  2304.40841387
