# SAXS profile: number of points = 501, q_min = 0, q_max = 0.5, delta_q = 0.001
#    q    intensity    error
0.00000000 1664650.74656090 274.66737318
0.00100000 1664569.41011241 549.30791838
0.00200000 1664325.33877061 748.94642616
0.00300000 1663918.75082563 1198.02154327
0.00400000 1663349.53734595 1746.51708058
0.00500000 1662618.16391572 2693.44153215
0.00600000 1661724.58140808 2617.21632227
0.00700000 1660669.30478217 2192.08357342
0.00800000 1659452.20251712 3360.39085197
0.00900000 1658074.45103630 2487.11178287
0.01000000 1656535.49513354 3826.59715899
0.01100000 1654836.53317828 3574.44706729
0.01200000 1652977.51395638 4512.62881095
0.01300000 1650959.60408966 3813.71685365
0.01400000 1648782.85501152 5193.66622353
0.01500000 1646448.58257396 5136.91980637
0.01600000 1643956.22811107 4192.08856908
0.01700000 1641308.09996400 6204.14489617
0.01800000 1638504.11494588 5136.71063149
0.01900000 1635544.88783453 6378.62535037
0.02000000 1632431.58051682 5656.37568236
0.02100000 1629166.29670246 6989.12372973
0.02200000 1625747.45801183 6169.71188346
0.02300000 1622178.42799403 6423.82686726
0.02400000 1618458.57190890 6069.21992140
0.02500000 1614590.56259882 7556.28417806
0.02600000 1610574.34748871 7175.10904624
0.02700000 1606411.95568646 12819.16799351
0.02800000 1602103.34365993 6969.14986452
0.02900000 1597650.98436174 9346.25868764
0.03000000 1593056.22526369 8148.48296677
0.03100000 1588319.34140520 8386.32650850
0.03200000 1583441.85909143 8621.84131986
0.03300000 1578427.60694395 11269.97363313
0.03400000 1573274.56655732 13215.50696885
0.03500000 1567986.11760299 10160.55051126
0.03600000 1562563.35854011 12141.11785694
0.03700000 1557008.22146904 10649.93672738
0.03800000 1551322.06934799 12705.32833596
0.03900000 1545506.94917538 10200.34633694
0.04000000 1539562.88782939 16096.13073813
0.04100000 1533493.69632684 9661.01073481
0.04200000 1527300.21706207 10836.19554278
0.04300000 1520983.51809872 14053.88835958
0.04400000 1514546.87237320 11245.51104963
0.04500000 1507991.70678511 13526.68623838
0.04600000 1501318.15055938 14818.01083486
0.04700000 1494530.16537647 12912.74122940
0.04800000 1487628.50374705 12027.47701241
0.04900000 1480616.59730690 14436.01249570
0.05000000 1473494.20312194 12399.45429667
0.05100000 1466265.91828687 12580.56216495
0.05200000 1458929.81059753 12758.34178823
0.05300000 1451492.15832084 14108.50443659
0.05400000 1443952.75198309 11912.61075939
0.05500000 1436314.25081115 15684.55235053
0.05600000 1428577.37577556 17100.07198599
0.05700000 1420747.80269240 18540.75969059
0.05800000 1412823.89596762 13753.84126944
0.05900000 1404808.67605026 15171.93440996
0.06000000 1396705.65807372 12779.85736843
0.06100000 1388516.19908758 14204.52138046
0.06200000 1380242.43098553 16956.27905725
0.06300000 1371887.76791846 18438.17246291
0.06400000 1363450.72170701 15952.37419001
0.06500000 1354937.36161279 16096.65660893
0.06600000 1346348.70542002 16236.96614707
0.06700000 1337686.37091555 15008.84178407
0.06800000 1328953.54197574 13754.66980329
0.06900000 1320152.55481852 16633.92296950
0.07000000 1311284.32655543 22344.28597085
0.07100000 1302352.08746716 15471.94352378
0.07200000 1293358.06082817 15578.49857248
0.07300000 1284304.76969844 17106.94033394
0.07400000 1275194.80360048 22953.50754051
0.07500000 1266029.42335642 17319.28332331
0.07600000 1256810.16810405 18871.00555877
0.07700000 1247541.97096060 17515.49009356
0.07800000 1238225.28711349 19074.86144252
0.07900000 1228861.96459786 14746.34426683
0.08000000 1219456.30079257 25187.87107446
0.08100000 1210009.11958813 14883.11286922
0.08200000 1200522.23542971 19430.45329221
0.08300000 1190999.21789690 18007.90901975
0.08400000 1181441.20682724 21088.72653174
0.08500000 1171851.12493658 19651.94428775
0.08600000 1162230.62182023 21233.95445762
0.08700000 1152583.50970570 16735.51334679
0.08800000 1142909.41345740 16783.62552484
0.08900000 1133213.39552723 16828.21971400
0.09000000 1123495.54013353 23003.57226484
0.09100000 1113758.39870152 18443.83994901
0.09200000 1104004.22547868 21561.20353669
0.09300000 1094237.59313192 18514.50094583
0.09400000 1084455.49539858 18544.18984285
0.09500000 1074663.69984451 18570.18960616
0.09600000 1064863.33000416 17043.13839788
0.09700000 1055058.76077157 27916.85612246
0.09800000 1045249.72021156 20178.54679743
0.09900000 1035439.25709456 21744.22542145
0.10000000 1025627.67844578 18645.91207101
0.10100000 1015817.70581548 20204.61511893
0.10200000 1006012.34284423 18651.46971363
0.10300000 996212.76813929 21757.28787964
0.10400000 986421.81459855 15536.14431083
0.10500000 976642.22550178 15528.61211609
0.10600001 966871.26284162 24829.25519808
0.10700001 957116.63553913 21707.40631553
0.10800001 947376.39526465 20136.48622901
0.10900001 937654.88544101 18565.56760553
0.11000001 927951.67198886 20085.51488561
0.11100001 918269.86152163 20055.01471969
0.11200001 908610.73304951 16941.04791524
0.11300001 898976.00517461 16909.73945346
0.11400001 889368.14798132 16875.76140253
0.11500001 879788.76716852 15308.32526957
0.11600001 870238.77074189 21381.76760403
0.11700001 860720.83794515 18281.71145893
0.11800001 851234.34410230 15194.53375786
0.11900001 841782.36513187 24243.33325770
0.12000001 832365.48326285 15107.43423286
0.12100001 822988.68607415 19578.90176403
0.12200001 813649.69639149 18014.20512678
0.12300001 804351.94396301 16457.04154885
0.12400001 795095.03168702 17889.63905587
0.12500001 785881.02835550 17823.78256297
0.12600001 776713.31224489 19235.30608418
0.12700001 767591.06605615 16211.52407910
0.12800001 758515.37827374 22015.90989199
0.12900001 749489.14743866 18999.55078306
0.13000001 740512.64452683 14551.07415082
0.13100001 731586.52458151 20279.57941733
0.13200001 722712.88955683 18743.55967423
0.13300001 713892.83064815 18654.02054424
0.13400001 705126.41651112 17134.57272904
0.13500001 696416.35334319 14206.89427803
0.13600001 687762.64182581 18373.57984270
0.13700001 679166.77130090 21088.12924327
0.13800001 670627.85233851 20973.88707093
0.13900001 662149.78703991 15295.66080194
0.14000001 653731.16275703 22122.26359100
0.14100001 645375.13534378 13746.49103115
0.14200001 637080.26530216 15031.90956879
0.14300001 628849.36963130 16299.77642966
0.14400001 620679.37853399 18899.68796786
0.14500001 612576.41085425 20123.13604581
0.14600001 604537.88525262 17329.07929825
0.14700001 596566.29742373 18541.28139864
0.14800001 588659.00033711 15787.83513389
0.14900001 580819.92676941 14375.29386578
0.15000001 573048.01702166 15575.44583754
0.15100001 565344.32588371 19334.77685753
0.15200001 557710.51123112 15359.34820407
0.15300001 550145.91095989 12708.37114287
0.15400001 542649.16613422 13878.25307881
0.15500001 535224.28252927 12524.24880224
0.15600001 527868.17625914 12431.29613760
0.15700001 520585.77744717 18506.82526171
0.15800001 513371.45717514 12243.90983152
0.15900001 506230.98990686 17009.36206372
0.16000001 499159.87284179 15671.12494758
0.16100001 492163.42838693 16743.40062408
0.16200001 485238.54974763 15423.30803180
0.16300001 478385.75962110 15298.77731490
0.16400001 471606.23945016 11672.25497743
0.16500001 464898.53479444 13891.16887548
0.16600001 458264.47479503 13775.43076272
0.16700001 451702.64000068 12521.19777200
0.16800001 445214.13449579 13543.41461083
0.16900001 438799.73955515 19021.96960790
0.17000001 432456.93700776 15529.52934125
0.17100001 426187.94400097 14294.34431679
0.17200001 419991.82618060 11988.66724446
0.17300001 413868.48058406 18363.34535071
0.17400001 407819.00587679 11775.77435082
0.17500001 401841.04077896 11669.46437534
0.17600001 395934.48564808 11563.26719947
0.17700001 390103.47925961 11457.33972699
0.17800001 384342.53823872 11351.55740304
0.17900001 378653.66810326 11246.01447386
0.18000001 373037.77223756 12153.57119357
0.18100001 367493.80559790 12039.09764007
0.18200001 362019.11586045 12918.65275973
0.18300001 356616.23022779 11811.13010309
0.18400001 351284.07420540 12672.57357562
0.18500001 346022.62054792 10619.43472630
0.18600001 340831.43106676 10516.35430239
0.18700001 335708.91785380 11360.39031689
0.18800001 330654.65357831 14061.08980775
0.18900001 325672.64053362 11138.00483249
0.19000001 320755.02000900 12865.48446044
0.19100001 315908.14078308 13647.23232666
0.19200001 311127.19580544 10808.55929300
0.19300001 306415.30000754 13375.02847733
0.19400001 301768.18914262 12357.40792933
0.19500001 297188.04415808 8737.32891113
0.19600001 292672.51795624 8648.47331430
0.19700001 288223.86743224 9416.27419400
0.19800001 283838.46984867 10167.09447046
0.19900001 279517.88518689 9224.09064710
0.20000001 275259.10287151 9958.87481256
0.20100001 271065.07574813 9855.92662002
0.20200001 266931.96248757 9753.69437029
0.20300001 262861.34537208 8043.55754856
0.20400001 258852.21432427 9551.64716003
0.20500001 254902.76548943 11027.09415629
0.20600001 251013.21994774 8573.35693256
0.20700001 247183.30050380 9254.54320832
0.20800001 243411.62805289 8394.05039019
0.20900001 239700.30106510 14346.06369690
0.21000001 236043.56334361 8964.93495958
0.21100001 232445.15544560 8870.10755112
0.21200001 228901.89562446 10238.78227532
0.21300001 225413.85086046 7959.36345017
0.21400001 221981.16729787 10738.33947571
0.21500001 218603.57491030 7791.03177814
0.21600001 215277.93579027 8408.75656952
0.21700001 212005.80164924 8319.10805004
0.21800001 208785.84632893 6858.61537618
0.21900001 205616.59902920 8820.95251542
0.22000001 202497.66912679 8726.63746364
0.22100001 199430.29286983 7305.13197323
0.22200001 196411.76798345 7883.96873964
0.22300001 193441.64433158 9099.49537963
0.22400001 190518.86271284 10288.01907298
0.22500001 187645.63663982 6997.30612118
0.22600001 184817.16449294 7551.62969828
0.22700001 182035.65603037 6225.61973064
0.22800001 179298.76720777 9854.26071175
0.22900001 176606.23888032 8530.08174132
0.23000001 173958.21283863 7233.18283190
0.23100001 171354.39451366 7155.75985331
0.23200001 168791.43529259 5899.26094247
0.23300001 166271.64849655 5836.13513825
0.23400001 163792.08352611 7505.77258257
0.23500001 161353.11164582 8567.85063362
0.23600001 158954.32326921 7346.07439733
0.23700001 156595.06000658 6708.53268798
0.23800001 154274.03294241 5530.72434258
0.23900001 151991.18947352 6018.85138784
0.24000001 149745.05899091 5954.61255243
0.24100001 147536.74499891 6962.25932582
0.24200001 145364.50580391 8477.65837949
0.24300001 143227.06271534 5766.32181768
0.24400001 141124.49810272 5704.95810567
0.24500001 139055.78163194 5131.15858494
0.24600001 137020.77865375 5584.28209820
0.24700001 135019.49278721 7534.08805393
0.24800001 133050.17558031 6460.25158092
0.24900001 131111.70516069 5408.35809373
0.25000001 129205.54058673 9242.71878313
0.25100001 127329.35947373 5775.66001897
0.25200001 125484.98728175 6667.01768969
0.25300001 123668.54422517 5654.12610947
0.25400001 121882.05949174 5128.18789574
0.25500001 120122.56164221 5535.24790236
0.25600001 118392.35204490 5020.42792599
0.25700001 116688.52805344 5419.01549919
0.25800001 115011.70943353 4915.02563519
0.25900001 113362.15715398 5747.46163965
0.26000001 111737.53719618 5249.42974586
0.26100001 110137.72780768 6492.61936147
0.26200001 108564.36437021 5139.43725247
0.26300001 107013.82729671 6356.62164220
0.26400001 105487.99987096 4612.46301261
0.26500001 103985.71389845 4563.93319896
0.26600001 102506.05598123 4926.44128358
0.26700001 101049.13210787 4874.61036355
0.26800001 99614.68268066  6431.12421819
0.26900001 98201.08842193  4772.57312315
0.27000001 96809.44492089  5509.42577117
0.27100001 95438.38806550  4672.66370081
0.27200001 94088.49468877  3852.92403984
0.27300001 92758.37616073  6099.79110500
0.27400001 91446.62633389  6035.47762366
0.27500001 90156.34986019  4105.72036694
0.27600001 88882.62141557  4062.38040405
0.27700001 87629.55749110  4750.39853641
0.27800001 86393.63902064  3615.57396413
0.27900001 85176.17173245  3935.13932028
0.28000001 83975.75188983  4247.49373161
0.28100001 82792.83386302  3852.35074197
0.28200001 81627.34926877  5544.12982474
0.28300001 80478.26530807  4456.88654371
0.28400001 79344.99068573  3391.99851236
0.28500001 78228.34422818  3691.59573886
0.28600001 77127.20276341  3652.35885973
0.28700001 76042.25869492  3942.03087733
0.28800001 74971.01428338  3249.99362302
0.28900001 73916.51821660  3858.44243354
0.29000001 72875.93137508  3817.24146611
0.29100001 71850.30904218  5349.97426452
0.29200001 70838.62857414  4358.70102249
0.29300001 69841.28805268  3388.00104381
0.29400001 68856.98930868  3351.61411325
0.29500001 67887.73860484  3918.48045776
0.29600001 66930.43651845  3279.92619685
0.29700001 65986.87851390  3539.53633104
0.29800001 65056.60371993  3209.56769646
0.29900001 64139.55879529  4040.79239539
0.30000001 63233.92675139  3140.51312078
0.30100001 62342.07108675  3671.32474010
0.30200001 61461.51894241  3631.45401863
0.30300001 60593.81240947  3039.38577435
0.30400001 59737.92915628  4646.11766008
0.30500001 58894.41638996  3514.22999236
0.30600001 58061.20317250  3743.20594574
0.30700001 57240.70314903  3173.42473282
0.30800001 56431.33357210  4184.94789584
0.30900001 55633.39384907  3363.03881740
0.31000001 54846.57909600  3837.88955395
0.31100001 54070.51161989  2783.55006998
0.31200001 53306.19972157  2752.99881496
0.31300001 52552.00049840  3217.75914287
0.31400001 51809.79739212  3916.82086829
0.31500001 51076.82641387  2663.14585531
0.31600002 50355.80273707  4070.51150698
0.31700002 49644.39215975  3078.44890358
0.31800002 48943.21907595  2576.12645804
0.31900002 48253.02619636  2779.37444051
0.32000002 47573.25079127  2519.71734747
0.32100002 46902.94837900  2945.03626816
0.32200002 46243.86702652  2688.61855623
0.32300002 45593.08669962  2658.98894223
0.32400002 44953.51492375  2848.92914319
0.32500002 44323.45573890  2600.90050592
0.32600002 43703.37957197  2572.38104341
0.32700002 43093.13315291  3392.29160243
0.32800002 42493.50025171  2306.75977040
0.32900002 41901.61014799  2488.95576065
0.33000002 41320.72955596  2461.88918352
0.33100002 40748.31890285  2840.97292844
0.33200002 40186.90316593  2208.06949901
0.33300002 39634.08988241  2779.93519600
0.33400002 39091.36655434  2160.77538862
0.33500002 38557.84803719  2914.97344965
0.33600002 38032.98189217  2691.59425597
0.33700002 37517.54012004  2092.35331158
0.33800002 37012.28290359  2258.48960973
0.33900002 36515.25078205  2420.96124150
0.34000002 36027.60894229  2027.09351314
0.34100002 35549.14562689  2553.13975984
0.34200002 35080.61790448  2887.83660266
0.34300002 34620.31292094  1965.04905446
0.34400002 34169.86586261  1768.29064214
0.34500002 33727.70433228  1750.46793775
0.34600002 33295.43075249  2079.63270329
0.34700002 32870.88865368  2059.03256278
0.34800002 32456.02163431  2378.70193824
0.34900002 32049.55679560  2019.12217375
0.35000002 31652.27262039  1833.14145563
0.35100002 31264.46370982  2145.99289068
0.35200002 30883.80154376  1635.29736919
0.35300002 30513.14637466  1944.29777908
0.35400002 30150.49660289  2087.16822619
0.35500002 29796.91637456  2386.73311465
0.35600002 29451.46545222  1734.83865463
0.35700002 29114.39307165  2188.82017480
0.35800002 28786.32452955  1705.15801427
0.35900002 28467.01790888  1844.66284787
0.36000002 28155.80379036  1677.10053221
0.36100002 27852.50304364  1663.63008560
0.36200002 27558.84517909  1650.63711019
0.36300002 27272.10258071  1786.86824573
0.36400002 26994.13606755  1477.92901970
0.36500002 26723.60819790  1760.55139147
0.36600002 26462.07424028  1602.41098152
0.36700002 26207.99575070  1591.34957736
0.36800002 25962.81903724  1724.45052214
0.36900002 25725.21789063  1570.52462662
0.37000002 25494.99808472  1986.31539487
0.37100002 25272.53001642  1974.29013840
0.37200002 25058.42384108  1542.22076835
0.37300002 24851.79923485  1394.18600312
0.37400002 24652.67474371  1941.39822803
0.37500002 24461.27944751  1517.57784881
0.37600002 24277.52995472  1784.76269917
0.37700002 24101.00358771  1503.17966497
0.37800002 23931.82677683  1768.68174173
0.37900002 23770.67944980  1490.42167211
0.38000002 23616.03708188  1484.62224148
0.38100002 23467.78588251  1479.17461425
0.38200002 23327.90833361  1474.20723698
0.38300002 23194.19546648  1603.18286659
0.38400002 23067.62297112  1465.37081866
0.38500002 22947.46605745  1860.12168674
0.38600002 22834.93515074  1723.23846279
0.38700002 22728.07192627  2248.71554292
0.38800002 22627.89496521  1320.33773377
0.38900002 22534.21689322  1845.55245099
0.39000002 22447.36423785  1843.15316489
0.39100002 22366.08760933  1446.63861511
0.39200002 22291.61673986  1708.31812979
0.39300002 22222.51092717  1444.68550382
0.39400002 22160.71402187  1706.92907840
0.39500002 22103.56379208  1575.54210174
0.39600002 22052.35194718  1707.18290687
0.39700002 22006.27020892  1445.15183309
0.39800002 21966.95563515  1709.13906417
0.39900002 21932.04730167  1579.10748054
0.40000002 21902.89540726  1317.45922117
0.40100002 21878.68391398  2110.85552403
0.40200002 21860.14689015  1321.44594212
0.40300002 21846.24633187  1588.65910852
0.40400002 21837.36839452  1989.93028923
0.40500002 21832.71485202  1595.53487698
0.40600002 21833.92638717  1999.44190364
0.40700002 21838.89946798  2004.81106615
0.40800002 21848.38552689  1474.43836714
0.40900002 21861.82247468  1613.40257508
0.41000002 21880.28520724  1753.59554102
0.41100002 21902.44442073  1488.92824227
0.41200002 21927.80778340  1901.79885917
0.41300002 21958.54684507  1636.35098843
0.41400002 21992.08021836  1505.90776431
0.41500002 22029.31284798  1787.01794290
0.41600002 22069.19508593  1656.51386164
0.41700002 22113.79468127  1802.49548988
0.41800002 22162.14365615  1950.04711271
0.41900002 22211.75318366  1399.34051688
0.42000002 22265.10185644  1687.24949863
0.42100002 22321.88665934  1412.97549249
0.42200002 22381.27982078  1704.11072630
0.42300002 22442.83179777  1570.10058697
0.42400002 22506.95605692  1578.30036828
0.42500002 22574.13813454  2163.73124273
0.42600002 22642.27356761  1595.26145980
0.42700002 22713.93647554  2041.52870716
0.42800002 22786.78973114  1759.59598642
0.42900002 22862.43617989  2506.86624592
0.43000002 22939.82488233  1779.67169870
0.43100002 23017.44220128  2237.29548798
0.43200002 23097.98036021  1800.25667458
0.43300002 23179.25226042  1659.86633303
0.43400002 23262.47886746  1821.45218164
0.43500002 23346.15448555  1832.20629085
0.43600002 23431.90220795  1689.55738877
0.43700002 23517.91566415  2163.17798530
0.43800002 23604.27141954  2176.07788529
0.43900002 23692.61225422  1720.08373117
0.44000002 23780.79796263  1730.40984575
0.44100002 23869.96041591  2215.60983080
0.44200002 23959.43548674  1592.10456354
0.44300002 24049.33181356  1922.02268963
0.44400002 24139.33348413  1933.56070371
0.44500002 24228.86689239  2755.54916226
0.44600002 24318.52315474  1793.61276028
0.44700002 24408.99915330  1968.34178500
0.44800002 24498.25728740  2639.93233040
0.44900002 24587.79781831  1825.64407453
0.45000002 24677.30296881  2003.30354995
0.45100002 24765.32690875  2014.90709279
0.45200002 24853.25565127  2026.53456185
0.45300002 24940.17438322  2038.11114719
0.45400002 25026.61625082  2391.29329610
0.45500002 25112.57298591  2748.32011783
0.45600002 25196.89876380  2245.42173975
0.45700002 25280.74202011  1910.46576500
0.45800002 25362.98870444  2095.49022607
0.45900002 25444.01369477  1931.20073096
0.46000002 25524.31022468  2471.00858996
0.46100002 25602.38445508  1774.24532683
0.46200002 25679.71407794  1961.80184996
0.46300002 25755.35778923  1971.83028580
0.46400002 25828.90650074  2161.87957657
0.46500002 25901.99643645  2172.65956406
0.46600002 25972.18848204  2547.09264516
0.46700002 26040.65820149  2193.66515086
0.46800002 26108.03532738  2020.37040957
0.46900002 26172.71178890  2398.72914914
0.47000002 26235.68743411  1853.55140507
0.47100002 26296.69293082  2234.16713729
0.47200002 26355.84278986  2243.93656148
0.47300002 26412.66146174  2441.32241462
0.47400002 26466.66816334  2074.32521562
0.47500002 26519.01643666  2461.49522232
0.47600002 26569.75532739  2281.27930054
0.47700002 26616.80764348  3626.00787714
