# SAXS profile: number of points = 501, q_min = 0, q_max = 0.5, delta_q = 0.001
#    q    intensity    error
0.00000000 1682732.95097188 378.61491397
0.00100000 1682651.16694780 504.79536207
0.00200000 1682405.76225128 1438.45697227
0.00300000 1681996.94617203 1211.03784438
0.00400000 1681424.60390445 1261.06850085
0.00500000 1680689.22535702 1663.88239896
0.00600000 1679790.74301522 2469.29249276
0.00700000 1678729.67507375 2417.37083257
0.00800000 1677505.88258423 2491.09634081
0.00900000 1676120.57159710 2765.59906136
0.01000000 1674573.14486866 3591.95955084
0.01100000 1672864.86026150 3312.27256753
0.01200000 1670995.60982121 4561.81821482
0.01300000 1668966.59863555 3504.83001171
0.01400000 1666777.86267497 5250.35050018
0.01500000 1664430.71107479 5193.02404979
0.01600000 1661924.60172905 4237.90792386
0.01700000 1659261.85648247 5376.00865616
0.01800000 1656442.38054630 7081.29149548
0.01900000 1653466.75711409 6944.56069324
0.02000000 1650336.26388700 7797.83919961
0.02100000 1647052.85960631 5435.27468313
0.02200000 1643615.05073293 7938.66105571
0.02300000 1640026.15658620 6494.50387570
0.02400000 1636285.62411700 6749.67850725
0.02500000 1632396.08588913 8912.88303601
0.02600000 1628357.45690472 7913.81760252
0.02700000 1624171.77843361 10914.43485097
0.02800000 1619839.03919682 8455.56017238
0.02900000 1615361.82406108 9449.86710464
0.03000000 1610741.21586256 10485.92579725
0.03100000 1605977.68376957 9250.43188415
0.03200000 1601072.81425681 7925.31079560
0.03300000 1596030.30548596 11395.65690651
0.03400000 1590848.07456402 12527.92916524
0.03500000 1585529.69290557 10274.23288447
0.03600000 1580076.14512044 10523.30761282
0.03700000 1574489.45336146 11666.96738898
0.03800000 1568770.96427790 11012.77267890
0.03900000 1562922.65677077 10315.29001239
0.04000000 1556944.55093660 11490.25131836
0.04100000 1550840.60216288 14655.44436996
0.04200000 1544611.56071735 10959.01953171
0.04300000 1538258.51991933 14213.50938382
0.04400000 1531784.71560120 11373.50204155
0.04500000 1525191.61674549 12628.58717344
0.04600000 1518479.33405819 11775.80778304
0.04700000 1511651.96659591 13060.67359881
0.04800000 1504710.00487767 13271.54286052
0.04900000 1497657.18912246 13478.91532951
0.05000000 1490493.06568087 14822.95422844
0.05100000 1483222.35592161 20824.44284723
0.05200000 1475842.98006025 11732.95223825
0.05300000 1468361.43049489 17840.59221220
0.05400000 1460777.34390885 12051.41364925
0.05500000 1453093.34492787 17088.37853351
0.05600000 1445310.53468459 17300.36790748
0.05700000 1437434.10875148 12505.67732988
0.05800000 1429462.55779252 16445.96749530
0.05900000 1421399.13650124 16630.37067380
0.06000000 1413247.31335143 18103.69892981
0.06100000 1405008.19031081 18293.20749271
0.06200000 1396684.31256526 21117.86779311
0.06300000 1388278.42169236 14660.22081851
0.06400000 1379789.86548426 18834.13254467
0.06500000 1371224.38228249 19005.17082746
0.06600000 1362582.68454903 15063.35228248
0.06700000 1353866.91986139 20714.16484328
0.06800000 1345079.77908252 19490.20691122
0.06900000 1336224.08556892 19642.49497750
0.07000000 1327300.42822430 14135.75022254
0.07100000 1318311.99702894 18509.10130521
0.07200000 1309261.29676931 15770.05305836
0.07300000 1300150.81144730 15874.84215160
0.07400000 1290983.01616818 14523.55961253
0.07500000 1281759.18461612 18995.67200639
0.07600000 1272480.76439974 16166.86886961
0.07700000 1263153.07705107 16256.78086390
0.07800000 1253776.24298029 17828.69901128
0.07900000 1244352.14645501 19411.89439519
0.08000000 1234885.14143799 16504.24068955
0.08100000 1225376.22274027 18086.55389624
0.08200000 1215827.10101051 19678.16255326
0.08300000 1206241.08470806 21278.09373287
0.08400000 1196619.76517768 18308.28326658
0.08500000 1186965.69473023 16843.04399892
0.08600000 1177280.89857333 16899.86809249
0.08700000 1167568.98395002 20035.48470540
0.08800000 1157829.53591708 21639.83504258
0.08900000 1148067.55458382 20148.58652932
0.09000000 1138283.48554655 18645.08436911
0.09100000 1128479.60366849 20244.92504094
0.09200000 1118658.11946380 18726.33779971
0.09300000 1108823.81779108 20324.74153521
0.09400000 1098973.54360302 20358.48585204
0.09500000 1089113.26821237 17251.55497935
0.09600000 1079244.05600640 18843.60210367
0.09700000 1069370.08530556 18863.68919162
0.09800000 1059491.36344222 15733.44748687
0.09900000 1049610.70778146 17318.57749276
0.10000000 1039728.63228713 20477.45637589
0.10100000 1029847.77965132 22059.34047762
0.10200000 1019971.15860537 25213.68822668
0.10300000 1010099.82429053 17333.31380020
0.10400000 1000236.98391286 17329.10656154
0.10500000 990385.10202124 17321.83624933
0.10600001 980541.42422116 20458.99777904
0.10700001 970713.81408860 25160.90324519
0.10800001 960900.33959743 15710.72129179
0.10900001 951105.12002970 18831.88226292
0.11000001 941328.18833726 18807.73808825
0.11100001 931572.10924650 25040.65947529
0.11200001 921838.56914505 17187.68093086
0.11300001 912129.25779222 21836.37545962
0.11400001 902446.29345702 18680.63915413
0.11500001 892791.75859687 18641.49279729
0.11600001 883166.11974945 15499.56613150
0.11700001 873572.67950420 18554.68458650
0.11800001 864010.08476904 24676.12918321
0.11900001 854481.96810676 16918.74376541
0.12000001 844988.57933489 16870.19778109
0.12100001 835535.30022593 16819.32638587
0.12200001 826119.43102319 15241.90422044
0.12300001 816745.01301747 18229.74954943
0.12400001 807410.72514525 18166.74217174
0.12500001 798119.40043818 22626.68606860
0.12600001 788874.28595460 15028.05585561
0.12700001 779674.25656614 22454.61964731
0.12800001 770521.03106776 16400.54091922
0.12900001 761416.69480413 16332.38887333
0.13000001 752362.23981580 17740.70245106
0.13100001 743357.79325377 14718.48500022
0.13200001 734406.16540743 16116.54405961
0.13300001 725507.74066834 17499.24752989
0.13400001 716662.82951767 20317.39217470
0.13500001 707874.24713860 21660.95298372
0.13600001 699141.95165655 20114.31489756
0.13700001 690467.34712480 18580.47718726
0.13800001 681849.55346526 18481.53301819
0.13900001 673293.02200624 19794.81578047
0.14000001 664795.42759317 21090.63593504
0.14100001 656360.48645735 15378.52692299
0.14200001 647986.77497857 22238.90716617
0.14300001 639677.10819940 13817.02618882
0.14400001 631428.06484141 17853.62937554
0.14500001 623246.19732968 19108.72931153
0.14600001 615128.74333202 13563.58943032
0.14700001 607078.40045129 17520.28346357
0.14800001 599092.28667735 16067.65588674
0.14900001 591174.36747051 21282.27823305
0.15000001 583323.55076050 17175.96276255
0.15100001 575541.33569923 18371.28030237
0.15200001 567828.83436767 13031.67236366
0.15300001 560185.66143304 14234.31832872
0.15400001 552610.24359329 14133.00764685
0.15500001 545106.90225441 16582.15274914
0.15600001 537672.33353571 12662.18405236
0.15700001 530311.65596496 20109.41894329
0.15800001 523019.03357345 16216.20590133
0.15900001 515800.55969787 17330.89962388
0.16000001 508651.51302262 13512.32808126
0.16100001 501577.04930802 13407.15516088
0.16200001 494574.37086600 14510.81272621
0.16300001 487643.96765492 15594.85482180
0.16400001 480786.94822232 24988.90281357
0.16500001 474001.98798688 14163.18006971
0.16600001 467291.06495362 16387.89842165
0.16700001 460652.00028526 16251.80333739
0.16800001 454086.49679433 13813.31188470
0.16900001 447595.61041358 14837.79518582
0.17000001 441176.39314970 12447.79252050
0.17100001 434831.12424441 13462.37224232
0.17200001 428558.71231458 11121.09910973
0.17300001 422359.79890507 11023.59127201
0.17400001 416234.42634439 15296.61589055
0.17500001 410181.03797632 11911.65790539
0.17600001 404199.25444759 10731.49071242
0.17700001 398293.13182269 10634.42712194
0.17800001 392457.54905059 11591.23425869
0.17900001 386693.91953698 12528.88358478
0.18000001 381003.87432394 11378.68124416
0.18100001 375385.86609556 16396.85540558
0.18200001 369837.26973008 11167.23688702
0.18300001 364360.92240075 11061.99812665
0.18400001 358955.41644323 12949.31725992
0.18500001 353620.92305850 13812.43390719
0.18600001 348357.05255249 12702.84052145
0.18700001 343162.08569989 19354.34254787
0.18800001 338035.52873445 12458.30000011
0.18900001 332981.58860439 11387.97086832
0.19000001 327992.44835624 10336.68249834
0.19100001 323074.37558938 13026.35943926
0.19200001 318222.37764834 12897.55357551
0.19300001 313439.91450340 15505.87330318
0.19400001 308722.39495328 9933.14352700
0.19500001 304072.38078066 10727.67410088
0.19600001 299487.06356567 11504.79609055
0.19700001 294969.17413118 9636.64337427
0.19800001 290514.75540880 15609.35854579
0.19900001 286125.39609822 10300.51474634
0.20000001 281798.26010581 8496.21794373
0.20100001 277536.28423210 10932.15475258
0.20200001 273335.56282609 9987.68193772
0.20300001 269197.65001583 9884.93817579
0.20400001 265121.43138993 11413.47816080
0.20500001 261105.43910831 11295.42182972
0.20600001 257149.73623859 7984.49968762
0.20700001 253253.98024020 9481.82946839
0.20800001 249416.89086575 10946.90785756
0.20900001 245640.42126254 9285.20836265
0.21000001 241919.06514840 10719.43428346
0.21100001 238256.37584292 9849.51904297
0.21200001 234648.98666733 10495.84966982
0.21300001 231097.46530958 8901.87478457
0.21400001 227601.67258584 8808.18514549
0.21500001 224161.34520382 7989.11072077
0.21600001 220773.39542874 10779.26154144
0.21700001 217439.38752423 7821.29513903
0.21800001 214157.84490272 9849.11975275
0.21900001 210927.32048996 11136.96304844
0.22000001 207747.65058540 6886.83494253
0.22100001 204619.92068545 6813.84368101
0.22200001 201541.69188622 10112.35486855
0.22300001 198512.00560759 10005.00555571
0.22400001 195530.08260320 6599.14059991
0.22500001 192598.19124834 7834.89479047
0.22600001 189711.52727276 7751.61337092
0.22700001 186872.28384430 8947.44537358
0.22800001 184077.91997265 7587.69222009
0.22900001 181328.50236073 6881.41699002
0.23000001 178623.87389744 10521.83978953
0.23100001 175963.96380034 6123.54622985
0.23200001 173345.52201083 6664.26890888
0.23300001 170770.55294271 9590.47470684
0.23400001 168236.03594532 5930.32054755
0.23500001 165742.83699571 6454.02637786
0.23600001 163290.18171701 6385.46285806
0.23700001 160877.27488287 9189.31037594
0.23800001 158503.20434079 6818.80817326
0.23900001 156167.86228993 6184.24763919
0.24000001 153869.56414680 7787.33900981
0.24100001 151609.56612139 6053.77026158
0.24200001 149386.04217870 7623.17009297
0.24300001 147197.78441966 5387.43916460
0.24400001 145044.84773341 5330.39840635
0.24500001 142926.13308852 6856.16692858
0.24600001 140841.67293534 6783.63949783
0.24700001 138791.39504654 7744.56020996
0.24800001 136773.51006305 5619.33992677
0.24900001 134786.66020606 7581.74999526
0.25000001 132832.87166887 7501.73678239
0.25100001 130909.40021221 5938.05067455
0.25200001 129018.28016471 6365.11715306
0.25300001 127155.42330513 6298.00841426
0.25400001 125323.07743227 6711.05111401
0.25500001 123517.95584656 7114.63459337
0.25600001 121742.79889752 7039.77767932
0.25700001 119994.40781394 6036.91894275
0.25800001 118273.36181108 4594.92032376
0.25900001 116580.14560186 6365.27625103
0.26000001 114912.17101136 5848.45522035
0.26100001 113269.74446089 5341.80140153
0.26200001 111653.78095676 5285.69024060
0.26300001 110061.39161608 5230.11757707
0.26400001 108494.03219920 6468.95697598
0.26500001 106950.67623984 5974.26505745
0.26600001 105430.25101620 4222.48175300
0.26700001 103933.25042516 6267.17529720
0.26800001 102459.05095071 5374.48977195
0.26900001 101006.09520338 5317.97116411
0.27000001 99575.52549136  5262.06889360
0.27100001 98166.02516588  4005.17401630
0.27200001 96778.08119070  6340.90017969
0.27300001 95410.40188873  5882.05155480
0.27400001 94061.38221302  5044.04185988
0.27500001 92734.30132886  4223.12028238
0.27600001 91424.42083555  5698.02729824
0.27700001 90135.45035942  5637.97268681
0.27800001 88863.99059733  3718.95818251
0.27900001 87611.43926416  4047.64868557
0.28000001 86376.31659049  4004.83810826
0.28100001 85159.14715207  3602.23209502
0.28200001 83959.74600820  4276.90966408
0.28300001 82777.38235814  4584.21165197
0.28400001 81610.97574840  3837.75631621
0.28500001 80461.78781491  3796.99194670
0.28600001 79328.43586138  3756.59825802
0.28700001 78211.71004150  5068.11905058
0.28800001 77109.01658865  4011.21123280
0.28900001 76023.58455412  4960.53912696
0.29000001 74952.26028396  3925.99957951
0.29100001 73896.51684842  3236.66759117
0.29200001 72854.93744958  3522.17211772
0.29300001 71828.19594122  3801.14830914
0.29400001 70814.87604584  3760.27009603
0.29500001 69816.87607768  3409.85638905
0.29600001 68831.31736924  3986.36593414
0.29700001 67859.84334782  3943.33568361
0.29800001 66902.06870376  4500.83688511
0.29900001 65957.85160411  4452.15519404
0.30000001 65025.40643494  2935.89723952
0.30100001 64107.09656267  3775.26709530
0.30200001 63200.46478351  4021.44576455
0.30300001 62307.12088572  3693.56630096
0.30400001 61425.88037859  3653.30440847
0.30500001 60557.39768182  3057.54315371
0.30600001 59699.51452381  2749.16277397
0.30700001 58854.75235222  3806.72556236
0.30800001 58021.46346834  2689.29495908
0.30900001 57199.96240983  2659.79837798
0.31000001 56390.00428333  3945.89073654
0.31100001 55590.96018148  3121.98847160
0.31200001 54804.04489268  3344.96503839
0.31300001 54027.52111655  3053.63563809
0.31400001 53263.52594851  2768.37189225
0.31500001 52508.83871664  2986.70288761
0.31600002 51766.60553743  3446.10309379
0.31700002 51034.27876263  2921.20225469
0.31800002 50312.48263177  3370.43337109
0.31900002 49601.95494132  2618.98334491
0.32000002 48902.27549000  3061.03807923
0.32100002 48212.23912137  3492.97688974
0.32200002 47533.82700683  2763.61683304
0.32300002 46864.01048334  2505.35011907
0.32400002 46205.76584472  2477.78431075
0.32500002 45557.14392225  2896.06777627
0.32600002 44918.84314646  2864.25016886
0.32700002 44290.75222513  2832.83664646
0.32800002 43673.52280921  2370.81729796
0.32900002 43064.29240823  2344.85083267
0.33000002 42466.29676333  2740.98725439
0.33100002 41877.06712637  3753.86047497
0.33200002 41299.27017740  3300.63782888
0.33300002 40730.21567842  3060.87585318
0.33400002 40171.45563003  2018.61574100
0.33500002 39622.17837144  1996.95788449
0.33600002 39081.97529960  2568.27212844
0.33700002 38551.37311206  2345.46565121
0.33800002 38031.06330315  2127.26762660
0.33900002 37519.42400925  2678.88700113
0.34000002 37017.32378596  2272.12344159
0.34100002 36524.80385219  2061.09477899
0.34200002 36042.22888879  2410.68459339
0.34300002 35568.18876102  2752.97794048
0.34400002 35104.19389236  2724.96317995
0.34500002 34648.91454640  2157.93450015
0.34600002 34203.61073077  1958.32782514
0.34700002 33766.14727268  1938.85226822
0.34800002 33338.75030881  2443.39712586
0.34900002 32919.96283546  2592.44719608
0.35000002 32510.58889871  3081.02865586
0.35100002 32110.81707959  2373.63171094
0.35200002 31718.38185725  1679.48839889
0.35300002 31336.23680597  1996.74510385
0.35400002 30962.18434521  1813.61003392
0.35500002 30597.46296070  1960.68551939
0.35600002 30241.09711878  2105.23407564
0.35700002 29893.25318602  1926.32132655
0.35800002 29554.69753084  2387.28080613
0.35900002 29225.04443800  1735.96772184
0.36000002 28903.66879976  2504.21398343
0.36100002 28590.38053329  1862.94928379
0.36200002 28286.94350497  1694.24656148
0.36300002 27990.49268211  1681.10907012
0.36400002 27703.09463906  1668.41895367
0.36500002 27423.29410387  1656.09280938
0.36600002 27152.58906390  1494.75009877
0.36700002 26889.57005202  1632.73477090
0.36800002 26635.53296830  1916.55986552
0.36900002 26389.20849733  1611.06125508
0.37000002 26150.43596056  1746.32619617
0.37100002 25919.67956524  2169.47728238
0.37200002 25697.40084890  1581.54661016
0.37300002 25482.70445238  1715.49574500
0.37400002 25275.55476103  1706.10002719
0.37500002 25076.37266692  1697.16898249
0.37600002 24884.98852435  2251.59386834
0.37700002 24700.99626129  1680.65586523
0.37800002 24524.33596055  1533.62942194
0.37900002 24355.98463047  1943.60766559
0.38000002 24194.13361315  1659.23376179
0.38100002 24038.90221422  1790.65791077
0.38200002 23892.09206411  1647.12090493
0.38300002 23751.61820812  1368.09327360
0.38400002 23618.43364009  1909.55045026
0.38500002 23491.62086299  1360.16491240
0.38600002 23372.70991886  1899.50022509
0.38700002 23259.50740175  1489.07373440
0.38800002 23153.06194208  1621.17747399
0.38900002 23053.20343248  1753.19620410
0.39000002 22960.38083682  1615.95167985
0.39100002 22873.01968573  1479.42698336
0.39200002 22792.82768181  1612.36470660
0.39300002 22717.97015863  2148.21135998
0.39400002 22650.50603433  1342.04254612
0.39500002 22587.74274128  1744.22557712
0.39600002 22530.99543439  1475.89292585
0.39700002 22479.54129381  1476.23154671
0.39800002 22434.92690160  1745.54957028
0.39900002 22394.77602927  1478.05528796
0.40000002 22360.47697340  1613.97930441
0.40100002 22331.03749632  1615.87394979
0.40200002 22307.44636797  1348.48519683
0.40300002 22288.62411765  2161.10509684
0.40400002 22274.86676691  1353.19822020
0.40500002 22265.46562658  2033.95038136
0.40600002 22261.86238690  1630.90411574
0.40700002 22262.14392632  1362.44327284
0.40800002 22266.94557709  1639.29261106
0.40900002 22275.87128597  1506.96276390
0.41000002 22289.74328177  1648.99528612
0.41100002 22307.54062880  1516.46668380
0.41200002 22328.43969249  1659.89628539
0.41300002 22354.82309516  2082.35186998
0.41400002 22383.97985912  1672.08337470
0.41500002 22416.97378067  1538.70115321
0.41600002 22452.51360853  2106.60718914
0.41700002 22493.02086197  1974.43746482
0.41800002 22537.22402038  1699.75751616
0.41900002 22582.69950078  1707.25216316
0.42000002 22631.90595564  2143.80739323
0.42100002 22684.83376556  1723.14005448
0.42200002 22740.15313788  1875.72162046
0.42300002 22797.80550763  2029.91669859
0.42400002 22857.95349885  1748.63352552
0.42500002 22921.26676701  1611.13591740
0.42600002 22985.58910473  1619.44975711
0.42700002 23053.32010797  1628.02554317
0.42800002 23122.34998321  2083.09260870
0.42900002 23194.32769925  1944.84446974
0.43000002 23267.96057980  1654.70109504
0.43100002 23341.89122634  1815.06554777
0.43200002 23418.64737635  1673.14534109
0.43300002 23496.26317696  2141.44952743
0.43400002 23575.82826933  1692.15515422
0.43500002 23655.90121133  2165.93441755
0.43600002 23738.00397088  2178.43672764
0.43700002 23820.39007230  2190.99958268
0.43800002 23903.22228781  2203.63816714
0.43900002 23987.96165958  1741.52609902
0.44000002 24072.59424521  1910.88262174
0.44100002 24158.17305980  1601.68694977
0.44200002 24244.13946031  1772.12545783
0.44300002 24330.51905776  2268.57770445
0.44400002 24416.97030357  2444.74926750
0.44500002 24503.07527034  1967.10697593
0.44600002 24589.17932211  1813.57500685
0.44700002 24676.25060079  1824.06853086
0.44800002 24761.95488292  1834.48951444
0.44900002 24848.04800596  2851.31364381
0.45000002 24934.10442345  2698.86759070
0.45100002 25018.73832756  2205.15170070
0.45200002 25103.28289145  2729.22904530
0.45300002 25186.71096681  2229.77962757
0.45400002 25269.74067694  2414.52383611
0.45500002 25352.29481114  2254.32616145
0.45600002 25433.16751542  2266.47683055
0.45700002 25513.57266225  2103.33902996
0.45800002 25592.38723238  1938.23953890
0.45900002 25670.00613455  2125.47660868
0.46000002 25746.88552213  1958.43694006
0.46100002 25821.52324471  2326.26113937
0.46200002 25895.39473291  2517.80934921
0.46300002 25967.68128093  2711.02605422
0.46400002 26037.83663840  1997.75311077
0.46500002 26107.48695477  2554.87879448
0.46600002 26174.29646444  2566.91337593
0.46700002 26239.34786021  2210.40276851
0.46800002 26303.37522181  2405.57529493
0.46900002 26364.62528124  2044.57678747
0.47000002 26424.08747081  2053.54805513
0.47100002 26481.73106540  2062.39731312
0.47200002 26537.47741140  1882.83411158
0.47300002 26590.93194463  2268.73842105
0.47400002 26641.48441730  3037.12936752
0.47500002 26690.37043097  2096.26179301
0.47600002 26737.67832329  2487.00526712
0.47700002 26781.38348367  2496.29287283
