# SAXS profile: number of points = 501, q_min = 0, q_max = 0.5, delta_q = 0.001
#    q    intensity    error
0.00000000 1664650.74656090 449.45570157
0.00100000 1664569.40611334 699.11916717
0.00200000 1664325.32834541 823.84106362
0.00300000 1663918.72325263 1098.18639647
0.00400000 1663349.49259817 1621.76581691
0.00500000 1662618.09246107 2094.89887942
0.00600000 1661724.47758370 2268.25400425
0.00700000 1660669.16218782 2391.36369294
0.00800000 1659452.00723550 3360.39045653
0.00900000 1658074.20284078 3730.66711587
0.01000000 1656535.18828420 4373.25308591
0.01100000 1654836.18504065 5063.79894670
0.01200000 1652977.08548514 3867.96654962
0.01300000 1650959.09323890 3467.01424871
0.01400000 1648782.26872894 4451.71232292
0.01500000 1646447.91557672 4346.62269067
0.01600000 1643955.50963887 4611.29541068
0.01700000 1641307.26383584 4874.68279226
0.01800000 1638503.17726820 6537.62797148
0.01900000 1635543.79209381 6869.28423675
0.02000000 1632430.44693495 6170.58736854
0.02100000 1629165.04023334 6451.49385182
0.02200000 1625746.04034821 7291.47132223
0.02300000 1622176.94052332 5839.83725170
0.02400000 1618456.90830653 6676.13505118
0.02500000 1614588.79638626 7556.27591219
0.02600000 1610572.42154387 8479.66418727
0.02700000 1606409.87985404 6746.92180440
0.02800000 1602101.09190650 7666.05407633
0.02900000 1597648.61482607 9346.24482586
0.03000000 1593053.67291745 10370.77988739
0.03100000 1588316.61395195 8386.31210755
0.03200000 1583438.95300606 10189.43013190
0.03300000 1578424.55982737 9659.95875147
0.03400000 1573271.36616227 8259.67505346
0.03500000 1567982.76866820 10160.52881016
0.03600000 1562559.77547950 12141.09001656
0.03700000 1557004.39533230 10649.91055660
0.03800000 1551318.10023143 11797.77469826
0.03900000 1545502.79126128 10200.31889470
0.04000000 1539558.48964955 14202.42772514
0.04100000 1533489.10948199 9660.98183768
0.04200000 1527295.45102626 12806.37295098
0.04300000 1520978.51995996 10038.45869770
0.04400000 1514541.66224503 12267.78803392
0.04500000 1507986.31505908 14567.14848033
0.04600000 1501312.47281974 13759.52945303
0.04700000 1494524.36643795 10760.57593881
0.04800000 1487622.43329387 10934.02539345
0.04900000 1480610.31237767 12215.03564570
0.05000000 1473487.62169677 18035.48932941
0.05100000 1466259.20809030 12580.50459147
0.05200000 1458922.80304625 16237.81155461
0.05300000 1451484.98518196 12932.73182087
0.05400000 1443945.36219032 17868.82469040
0.05500000 1436306.49629879 13271.47264491
0.05600000 1428569.54508496 13435.69719849
0.05700000 1420739.70402832 14832.52320242
0.05800000 1412815.56250474 15004.10197438
0.05900000 1404799.98953760 12643.20049635
0.06000000 1396696.85843577 16613.70990727
0.06100000 1388507.01428141 19369.67375440
0.06200000 1380233.13516386 16956.16485808
0.06300000 1371878.13014993 14487.03373173
0.06400000 1363440.87190675 14622.90403507
0.06500000 1354927.32931988 18779.29366283
0.06600000 1346338.40771713 18942.98228289
0.06700000 1337675.83914640 16373.15303740
0.06800000 1328942.65247850 13754.55709699
0.06900000 1320141.67266012 15247.63703310
0.07000000 1311273.13688923 13965.05956183
0.07100000 1302340.60133542 16878.33498385
0.07200000 1293346.32126826 21243.21432201
0.07300000 1284292.77372401 15681.21550192
0.07400000 1275182.65583714 15780.38610552
0.07500000 1266017.06257146 15875.85470879
0.07600000 1256797.54076468 17419.21473162
0.07700000 1247529.14881196 17515.31007059
0.07800000 1238212.28209252 17607.37947708
0.07900000 1228848.62896820 17695.42108712
0.08000000 1219442.74731450 19261.09909739
0.08100000 1209995.40595083 19347.82744892
0.08200000 1200508.33040403 16440.96235638
0.08300000 1190985.02022713 21008.97674280
0.08400000 1181426.77732530 16569.51132974
0.08500000 1171836.54829498 16628.36140093
0.08600000 1162215.87275626 21233.68499221
0.08700000 1152568.61368619 18256.68769808
0.08800000 1142894.22027434 19834.93012438
0.08900000 1133198.02460808 24477.07848122
0.09000000 1123480.11206239 23003.25637507
0.09100000 1113742.74599335 15369.65061679
0.09200000 1103988.20711479 23100.95431932
0.09300000 1094221.51274597 18514.22886569
0.09400000 1084439.14197253 16998.58434931
0.09500000 1074647.23614672 21664.88929903
0.09600000 1064846.83118910 17042.87433433
0.09700000 1055041.79102618 20161.84957437
0.09800000 1045232.78966902 26386.90301585
0.09900000 1035422.13153332 17084.46597365
0.10000000 1025610.41990855 17091.79845155
0.10100000 1015800.37467016 21758.44504877
0.10200000 1005994.86239565 21759.66989711
0.10300000 996194.98498380 15540.64249679
0.10400000 986404.00497597 18643.03657111
0.10500000 976624.45347886 18633.99544909
0.10600001 966853.27458960 18621.59494481
0.10700001 957098.47003475 15504.99594419
0.10800001 947358.19024320 15489.30713943
0.10900001 937636.57343721 23206.50628480
0.11000001 927933.31775808 20085.11760827
0.11100001 918251.26400512 16969.28415762
0.11200001 908592.23589227 24641.02259743
0.11300001 898957.52345480 19983.82668725
0.11400001 889349.53120544 16875.40814919
0.11500001 879770.15804650 18369.60176500
0.11600001 870219.98271467 15272.36141584
0.11700001 860702.08734297 27421.96979418
0.11800001 851215.46080794 16713.61636015
0.11900001 841763.56575735 21212.44285623
0.12000001 832346.53757125 19639.21747910
0.12100001 822969.75802278 22590.52092192
0.12200001 813630.73822850 21016.08295854
0.12300001 804333.07759256 16456.65554289
0.12400001 795076.16067493 20870.75020109
0.12500001 785862.03265279 26735.02761062
0.12600001 776694.36721874 16275.63123203
0.12700001 767571.97998971 14737.38271032
0.12800001 758496.54904871 19079.98159055
0.12900001 749470.19755641 17537.60344940
0.13000001 740493.89961184 14550.70581322
0.13100001 731567.73776869 17382.05026873
0.13200001 722694.16319273 17301.29908242
0.13300001 713874.14660924 14348.87102329
0.13400001 705107.85998265 17134.12180538
0.13500001 696397.84920032 18468.47183155
0.13600001 687744.22242305 19786.40221205
0.13700001 679148.38970427 21087.55849466
0.13800001 670609.55368799 18176.87280986
0.13900001 662131.73387880 15295.24377390
0.14000001 653713.12483614 17973.84321503
0.14100001 645357.17054521 19244.55173329
0.14200001 637062.52246289 13664.99175134
0.14300001 628831.78138725 17657.59725422
0.14400001 620661.85104790 17549.21466617
0.14500001 612558.90405574 20122.56094746
0.14600001 604520.62015406 15995.61636386
0.14700001 596549.25335545 19865.09107390
0.14800001 588642.11863705 14471.76716945
0.14900001 580803.16352719 15681.68615511
0.15000001 573031.45108892 20766.66076729
0.15100001 565327.87462329 18045.26660944
0.15200001 557694.43638693 12799.08791903
0.15300001 550129.88910104 13978.80114170
0.15400001 542633.38944373 15139.47227993
0.15500001 535208.77260207 16281.05163091
0.15600001 527852.74363861 14917.11923924
0.15700001 520570.60017830 14805.02856782
0.15800001 513356.51704314 14692.26421123
0.15900001 506216.31577680 15793.94979772
0.16000001 499145.38543993 12054.36162737
0.16100001 492149.22893206 15546.99487585
0.16200001 485224.53698239 13050.11453819
0.16300001 478372.01240896 15298.33767904
0.16400001 471592.67498003 12839.11118246
0.16500001 464885.29196212 13890.77317963
0.16600001 458251.59655311 12627.12333919
0.16700001 451690.02599319 12520.84811170
0.16800001 445201.69218981 13543.03611587
0.16900001 438787.48756425 11189.08146122
0.17000001 432445.01924627 12201.43679418
0.17100001 426176.46636282 13194.42402165
0.17200001 419980.46617115 16347.74041770
0.17300001 413857.54375839 15122.35536308
0.17400001 407808.37081001 11775.46726325
0.17500001 401830.72712684 11669.16486687
0.17600001 395924.45912158 12614.15386337
0.17700001 390093.66694310 13540.15181910
0.17800001 384333.09627438 13415.14735908
0.17900001 378644.54362894 11245.74347696
0.18000001 373028.89746076 14178.82906222
0.18100001 367485.32027487 13042.05463262
0.18200001 362010.94810751 11924.64119396
0.18300001 356608.33695989 9842.39056504
0.18400001 351276.63533816 12672.30521847
0.18500001 346015.44212210 10619.21442040
0.18600001 340824.65327512 10516.14517362
0.18700001 335702.51121574 14200.21689531
0.18800001 330648.48726008 13123.43907938
0.18900001 325666.81719925 11137.80567445
0.19000001 320749.56382434 14703.16070041
0.19100001 315903.00139772 10007.80755715
0.19200001 311122.44439797 10808.39422910
0.19300001 306410.93604205 10699.87039219
0.19400001 301764.10560143 10591.92060712
0.19500001 297184.36129137 11358.38682530
0.19600001 292669.24957445 11242.88975370
0.19700001 288220.97431921 12840.24501272
0.19800001 283835.96353872 12708.75586805
0.19900001 279515.61125371 11739.65622747
0.20000001 275257.23723058 13278.40975156
0.20100001 271063.50919614 13141.15954691
0.20200001 266930.84051935 10566.45782137
0.20300001 262860.49737094 8847.88475970
0.20400001 258851.71671379 8755.65973169
0.20500001 254902.67135092 10239.44079215
0.20600001 251013.33641923 10911.55024991
0.20700001 247183.90604356 10796.99352635
0.20800001 243412.59896023 8394.08387193
0.20900001 239701.61405425 10570.84167949
0.21000001 236045.22096898 7470.83159683
0.21100001 232447.20889548 8131.00375154
0.21200001 228903.97927473 8776.17898028
0.21300001 225416.43613527 10130.21511883
0.21400001 221984.08748478 9306.68330779
0.21500001 218606.95246158 7791.15215408
0.21600001 215281.59058120 9109.64093613
0.21700001 212009.78505787 8319.26435900
0.21800001 208790.11931607 7544.63131820
0.21900001 205621.23538644 7464.05119744
0.22000001 202502.60455424 8055.55399005
0.22100001 199435.55336199 6641.20424097
0.22200001 196417.34129520 8541.20849009
0.22300001 193447.47258129 7149.81892469
0.22400001 190525.01245512 7716.26336931
0.22500001 187652.13434518 6997.54842063
0.22600001 184823.94297562 6922.58111151
0.22700001 182042.70772043 6225.86089845
0.22800001 179306.17258262 6775.08405143
0.22900001 176613.83655867 6702.49541437
0.23000001 173966.09114903 6630.71787772
0.23100001 171362.56139665 8348.78438608
0.23200001 168799.93651935 7079.46967244
0.23300001 166280.42413491 6420.08747948
0.23400001 163801.08907896 7506.18526205
0.23500001 161362.44056001 6854.67679919
0.23600001 158963.86865144 6781.39895741
0.23700001 156604.80077038 6149.87081713
0.23800001 154284.07176444 6084.19265781
0.23900001 152001.47569270 7113.66939889
0.24000001 149755.51639316 7579.12704315
0.24100001 147547.41415779 6427.16566473
0.24200001 145375.36520356 5828.82554355
0.24300001 143238.12847510 8388.02520028
0.24400001 141135.88227267 5705.41831076
0.24500001 139067.28520960 7697.37460047
0.24600001 137032.60156874 6092.46975395
0.24700001 135031.38941192 6027.80150850
0.24800001 133062.26842224 5466.86355675
0.24900001 131123.85225838 5900.57363077
0.25000001 129217.93838829 7297.58341571
0.25100001 127341.89987700 4813.52404307
0.25200001 125497.65909885 5715.16366574
0.25300001 123681.35109321 5654.71163951
0.25400001 121895.08506502 5594.98466919
0.25500001 120135.71029529 6919.81724040
0.25600001 118405.58805737 6390.34988980
0.25700001 116701.92626265 4516.36476005
0.25800001 115025.22779118 5362.47637335
0.25900001 113375.71460736 4863.81838679
0.26000001 111751.13915043 4375.05730475
0.26100001 110151.53229081 4761.85096624
0.26200001 108578.26666984 5568.43666964
0.26300001 107027.75569864 5933.61905670
0.26400001 105502.05218217 5871.18948175
0.26500001 103999.75263040 4149.59032631
0.26600001 102520.05284457 4516.52114179
0.26700001 101063.25906376 5687.84048926
0.26800001 99628.85492073  4422.02693491
0.26900001 98215.27882404  5171.03467479
0.27000001 96823.68424683  5116.64783615
0.27100001 95452.65529815  4283.91537251
0.27200001 94102.78304274  4624.21097755
0.27300001 92772.56208613  5719.42872328
0.27400001 91460.91591280  4150.03925594
0.27500001 90170.53703982  5226.28457416
0.27600001 88896.80245372  4063.02854843
0.27700001 87643.76330878  4020.21961324
0.27800001 86407.79573938  4701.01634969
0.27900001 85190.27353397  4651.38915509
0.28000001 83989.74471787  4956.23507037
0.28100001 82806.83743967  3502.72938948
0.28200001 81641.18897974  3465.66863622
0.28300001 80492.15233849  4114.75902230
0.28400001 79358.69930224  3731.84301132
0.28500001 78241.93948819  3692.23729921
0.28600001 77140.76229267  4317.18296605
0.28700001 76055.73621287  4271.29034789
0.28800001 74984.32036764  3575.62748598
0.28900001 73929.73657078  3537.53806236
0.29000001 72888.96907677  4136.08474604
0.29100001 71863.29134956  4406.65723414
0.29200001 70851.39288288  3113.91886460
0.29300001 69853.94367971  3388.61496831
0.29400001 68869.49234695  5180.70780704
0.29500001 67900.06049038  4823.62052557
0.29600001 66942.62040520  4175.21143232
0.29700001 65998.88424815  2950.15026555
0.29800001 65068.45477140  3210.15236811
0.29900001 64151.13919232  4330.20210047
0.30000001 63245.38669636  3426.63521342
0.30100001 62353.30031739  3954.44649333
0.30200001 61472.53724980  3073.31964530
0.30300001 60604.70779330  3592.64724807
0.30400001 59748.51627283  3280.19369867
0.30500001 58904.85283982  3514.85273535
0.30600001 58071.39978494  3743.86332138
0.30700001 57250.69857263  2909.48063921
0.30800001 56441.05973768  5232.08648539
0.30900001 55642.90151250  3622.35305996
0.31000001 54855.79358761  3582.63204883
0.31100001 54079.51960404  2530.92163730
0.31200001 53314.94355722  3003.76406223
0.31300001 52560.42744416  3218.27512478
0.31400001 51818.09160624  2938.08593318
0.31500001 51084.78482592  2421.41891540
0.31600002 50363.52492996  3113.22144095
0.31700002 49651.78130532  2605.22908844
0.31800002 48950.39465993  2576.50414492
0.31900002 48259.87703810  2548.12162826
0.32000002 47579.79678580  2749.16078845
0.32100002 46909.19541901  2492.28567062
0.32200002 46249.85136948  2464.88594545
0.32300002 45598.71288813  2437.70730643
0.32400002 44958.86338123  2410.91916298
0.32500002 44328.54523302  3034.73235035
0.32600002 43708.15424788  2787.05058759
0.32700002 43097.62496739  3180.60487320
0.32800002 42497.71265090  2936.16710609
0.32900002 41905.45301407  2281.75202467
0.33000002 41324.22089849  2462.09719772
0.33100002 40751.53277645  2029.42642837
0.33200002 40189.85728893  2208.23181331
0.33300002 39636.69684881  2978.69790925
0.33400002 39093.63479128  2357.34628955
0.33500002 38559.72189796  2332.09209083
0.33600002 38034.58185743  1922.64820394
0.33700002 37518.88873231  2092.42852369
0.33800002 37013.23320776  1882.12299775
0.33900002 36515.88470109  1862.31020795
0.34000002 36027.98029158  2395.68066294
0.34100002 35549.13331117  2006.03768775
0.34200002 35080.28915300  1804.88096240
0.34300002 34619.64567294  2858.19808212
0.34400002 34168.87022421  1768.23911785
0.34500002 33726.43499169  1750.40205897
0.34600002 33293.81493189  2426.12040899
0.34700002 32868.94177244  2402.06237849
0.34800002 32453.69538678  2038.74124076
0.34900002 32046.99381928  2355.45415728
0.35000002 31649.39452051  1832.97477047
0.35100002 31261.21296925  2310.82897213
0.35200002 30880.26825320  1635.11028145
0.35300002 30509.25543499  2268.05815646
0.35400002 30146.32238666  1765.82091743
0.35500002 29792.39509414  2545.46235741
0.35600002 29446.58013442  1734.55088497
0.35700002 29109.24001971  2032.11614203
0.35800002 28780.85728866  2324.77385760
0.35900002 28461.27483270  2151.67247927
0.36000002 28149.74881549  1676.73986762
0.36100002 27846.17407835  1965.66152130
0.36200002 27552.21287129  2100.30528666
0.36300002 27265.16559265  2084.14935662
0.36400002 26986.98117029  2216.30593359
0.36500002 26716.10584700  1613.38570852
0.36600002 26454.29581753  2330.09448598
0.36700002 26199.95264019  1590.86119967
0.36800002 25954.47739982  1723.89647055
0.36900002 25716.54308017  2426.35595455
0.37000002 25486.12266519  1560.13307285
0.37100002 25263.43028379  1973.57926726
0.37200002 25049.12937623  1541.64874049
0.37300002 24842.23088385  1533.01414046
0.37400002 24642.74074385  2217.84677201
0.37500002 24451.16386132  1654.85484853
0.37600002 24267.16500181  2332.92401796
0.37700002 24090.39399621  1775.70302558
0.37800002 23920.99232078  1495.89932564
0.37900002 23759.65967800  1760.59086554
0.38000002 23604.75280805  1483.91285557
0.38100002 23456.34336008  2150.47766113
0.38200002 23316.26597032  1607.42345214
0.38300002 23182.27661624  1602.35903562
0.38400002 23055.56769122  1464.60500697
0.38500002 22935.13158912  1726.32743650
0.38600002 22822.52708010  1987.27163965
0.38700002 22715.41221874  1454.24075914
0.38800002 22615.08358506  1979.38528456
0.38900002 22521.19018633  1449.23865715
0.39000002 22434.26666397  1710.50074283
0.39100002 22352.74577255  1971.51227054
0.39200002 22278.12692658  1575.95477345
0.39300002 22208.92990172  1443.80260131
0.39400002 22147.00304473  1574.65199108
0.39500002 22089.71298044  1443.34191452
0.39600002 22038.34219637  1443.62167397
0.39700002 21992.16940507  1312.93257569
0.39800002 21952.75747884  1576.64711683
0.39900002 21917.76492973  1578.07914971
0.40000002 21888.54513055  1448.25565718
0.40100002 21864.18113002  2109.45629537
0.40200002 21845.52765640  1452.61843034
0.40300002 21831.58734741  1984.49138390
0.40400002 21822.62134223  1590.86917122
0.40500002 21817.93691590  1727.32614747
0.40600002 21819.11158249  1465.26250775
0.40700002 21823.98090325  1602.75323347
0.40800002 21833.49004387  1607.38161319
0.40900002 21846.86422924  1746.65687789
0.41000002 21865.26946771  1752.39210452
0.41100002 21887.44766020  1352.64432949
0.41200002 21912.79124104  1764.74672622
0.41300002 21943.53169816  1771.50139793
0.41400002 21977.03683862  1504.87766883
0.41500002 22014.31041071  2060.53955208
0.41600002 22054.13334398  1655.38332724
0.41700002 22098.82306546  1662.71552623
0.41800002 22147.14193024  2227.11669804
0.41900002 22196.83984214  1398.40097632
0.42000002 22250.17497001  2669.68737028
0.42100002 22307.04041100  1412.03572493
0.42200002 22366.52212103  1986.81825416
0.42300002 22428.12560941  1569.07174199
0.42400002 22492.28649696  1864.04833177
0.42500002 22559.51102701  1585.70810523
0.42600002 22627.77127397  1739.17058253
0.42700002 22699.48780468  1748.76862334
0.42800002 22772.46109432  2051.57111720
0.42900002 22848.23964457  1768.45383229
0.43000002 22925.72198327  1778.57759574
0.43100002 23003.47170970  1788.75004491
0.43200002 23084.09371110  1649.24315334
0.43300002 23165.47775320  1658.87994052
0.43400002 23248.84533051  1516.98722970
0.43500002 23332.65059578  1831.14650553
0.43600002 23418.54254388  1842.10264380
0.43700002 23504.71129796  1698.68556600
0.43800002 23591.24031650  1553.48324846
0.43900002 23679.73799692  2188.00789460
0.44000002 23768.10467020  1729.48621829
0.44100002 23857.41187309  2214.44507500
0.44200002 23947.07866136  1750.41179770
0.44300002 24037.17430009  1921.05106110
0.44400002 24127.35431034  2415.75146481
0.44500002 24217.08431003  1620.12301712
0.44600002 24306.92040784  1629.77909058
0.44700002 24397.63758967  1967.42558847
0.44800002 24487.06986578  1814.12465698
0.44900002 24576.80214067  2156.61449005
0.45000002 24666.52552144  2503.03579591
0.45100002 24754.78531325  1846.21197616
0.45200002 24842.98327564  1856.88887294
0.45300002 24930.13574050  2037.29078927
0.45400002 25016.81974386  1707.39802844
0.45500002 25103.02128154  2232.16075814
0.45600002 25187.55489761  2417.24975809
0.45700002 25271.63757676  1736.16158381
0.45800002 25354.10855757  1920.19350261
0.45900002 25435.40381746  1755.04294658
0.46000002 25515.99410036  2117.31729080
0.46100002 25594.28221969  1951.05222608
0.46200002 25671.91249808  2139.49728899
0.46300002 25747.79981774  2508.86573315
0.46400002 25821.61396373  2341.37495713
0.46500002 25894.96917488  2534.08180356
0.46600002 25965.49937890  2000.77164947
0.46700002 26034.23789165  3289.68645591
0.46800002 26101.90774650  2754.40394550
0.46900002 26166.90918023  2029.24390311
0.47000002 26230.07552414  2038.47041597
0.47100002 26291.38891086  2233.71650774
0.47200002 26350.84951289  1869.59286155
0.47300002 26407.94219576  2065.36525702
0.47400002 26462.22756456  2451.06394434
0.47500002 26514.84995970  2082.47641454
0.47600002 26565.93964810  3041.26891506
0.47700002 26613.29102426  2098.99036257
