# SAXS profile: number of points = 501, q_min = 0, q_max = 0.5, delta_q = 0.001
#    q    intensity    error
0.00000000 1646666.22097350 321.09991309
0.00100000 1646585.40467732 642.16832307
0.00200000 1646342.88853039 740.85432330
0.00300000 1645938.89938245 1185.07604977
0.00400000 1645373.32091308 1480.83604509
0.00500000 1644646.62819191 1924.23663115
0.00600000 1643758.73922854 2243.73077039
0.00700000 1642710.21221077 1971.25233658
0.00800000 1641500.89569304 4210.44997522
0.00900000 1640131.95490607 2706.21784128
0.01000000 1638602.83683009 2974.06427727
0.01100000 1636914.73875605 3830.38065546
0.01200000 1635067.63837365 4144.89664501
0.01300000 1633062.64012824 3429.43169552
0.01400000 1630899.83221754 4403.42974220
0.01500000 1628580.55971923 5081.17157258
0.01600000 1626104.20927282 4975.87910281
0.01700000 1623473.08591949 5260.05303434
0.01800000 1620687.09462562 5542.75011303
0.01900000 1617746.87223679 6794.53716998
0.02000000 1614653.66067812 6103.39111345
0.02100000 1611409.39875432 6912.94663408
0.02200000 1608012.57876514 8321.46547317
0.02300000 1604466.63457549 6353.68816213
0.02400000 1600770.77126654 7803.75786576
0.02500000 1596927.78979993 8096.42426405
0.02600000 1592937.54812025 8386.81657445
0.02700000 1588802.19923592 7340.26649666
0.02800000 1584521.54623048 7581.93594642
0.02900000 1580098.10542083 7821.48598095
0.03000000 1575533.20762628 8791.47570266
0.03100000 1570827.16540422 10555.95903723
0.03200000 1565981.44296353 10077.09104960
0.03300000 1560999.97609999 9553.32029414
0.03400000 1555880.74786535 8985.21173350
0.03500000 1550626.96342143 10885.40178589
0.03600000 1545239.77167733 9433.68924206
0.03700000 1539721.04453692 10531.69243170
0.03800000 1534072.37080820 13461.48567683
0.03900000 1528295.53221100 10086.75097971
0.04000000 1522390.74530877 14980.32562801
0.04100000 1516361.75728014 11463.69541657
0.04200000 1510209.29415429 10714.93543912
0.04300000 1503934.42896686 12903.75799950
0.04400000 1497540.65457946 11119.23987665
0.04500000 1491029.22036862 11316.91230844
0.04600000 1484400.17678625 12558.02607939
0.04700000 1477657.57617634 14894.78906058
0.04800000 1470802.36603927 10810.39789338
0.04900000 1463837.41523637 17566.04980049
0.05000000 1456762.90720467 15601.93146268
0.05100000 1449583.38390479 12437.42601329
0.05200000 1442296.97965998 11466.26152264
0.05300000 1434909.66685284 12785.04572767
0.05400000 1427421.45582266 15309.09582762
0.05500000 1419835.01551113 13119.27615533
0.05600000 1412150.91152738 15696.05811407
0.05700000 1404374.85191345 18327.09267295
0.05800000 1396505.40722672 13594.98077413
0.05900000 1388545.13823575 17495.66955892
0.06000000 1380498.02629175 18947.33629605
0.06100000 1372365.21190397 12762.99706714
0.06200000 1364148.67361813 16758.56723875
0.06300000 1355852.16746084 18222.65398268
0.06400000 1347473.99584279 17079.23369605
0.06500000 1339019.87752517 14581.92714836
0.06600000 1330491.55239466 13371.44072720
0.06700000 1321889.91843828 16179.93335889
0.06800000 1313218.61385502 13591.81328962
0.06900000 1304479.95613400 15066.74419876
0.07000000 1295674.57487453 22078.29578975
0.07100000 1286805.83740997 16677.00443395
0.07200000 1277875.90636529 18190.56437928
0.07300000 1268887.33853757 16901.58014125
0.07400000 1259842.72207581 15590.55441633
0.07500000 1250743.39087033 24239.40805123
0.07600000 1241590.70195312 21510.55991977
0.07700000 1232389.58438126 14418.95881334
0.07800000 1223140.71352367 17393.06176198
0.07900000 1213845.65373341 14566.14852801
0.08000000 1204508.94920482 19025.21974518
0.08100000 1195130.99734033 19110.14554409
0.08200000 1185713.96875317 16238.35356406
0.08300000 1176261.52410325 16302.98548920
0.08400000 1166774.34182178 16364.01091216
0.08500000 1157255.86851238 20900.04196649
0.08600000 1147707.16702987 14977.57923296
0.08700000 1138132.49329079 15023.34961690
0.08800000 1128531.24887661 16572.48216806
0.08900000 1118908.67899122 22657.90181381
0.09000000 1109264.46380766 19683.89883493
0.09100000 1099601.57087863 16691.95263015
0.09200000 1089921.84406138 16724.85148297
0.09300000 1080230.46490337 22846.87540633
0.09400000 1070523.72553453 19831.45294756
0.09500000 1060807.78800095 32078.82901694
0.09600000 1051083.40081159 19881.24346092
0.09700000 1041355.44311853 15307.92573351
0.09800000 1031623.22998194 21447.44795973
0.09900000 1021890.01429408 18394.02112223
0.10000000 1012155.94494610 23001.24493058
0.10100000 1002424.02912437 18404.50604032
0.10200000 992696.94729635 16870.88541285
0.10300000 982975.63124460 15334.42056876
0.10400000 973263.52247487 21460.46168018
0.10500000 963562.92005262 16852.71626463
0.10600001 953871.41348985 18371.56428826
0.10700001 944196.11040124 18355.17324995
0.10800001 934535.83601909 19863.56012940
0.10900001 924894.19201674 18312.90586384
0.11000001 915271.05874874 16763.19023002
0.11100001 905669.69589962 19779.82708955
0.11200001 896091.19181087 22783.11962435
0.11300001 886537.21347358 16675.76577055
0.11400001 877010.38836088 16641.27290269
0.11500001 867511.94811853 22642.06291206
0.11600001 858043.27095513 21082.12416016
0.11700001 848606.82857116 18024.40988771
0.11800001 839201.81358792 14979.75307807
0.11900001 829831.45221765 16430.66352782
0.12000001 820496.34212149 20848.81303539
0.12100001 811201.26329800 26720.97087181
0.12200001 801944.31974741 17755.04807567
0.12300001 792728.37388536 16219.22329385
0.12400001 783553.60257025 17629.95688851
0.12500001 774421.59389345 20491.19633998
0.12600001 765336.05463139 17495.58303333
0.12700001 756295.81812682 20329.23254929
0.12800001 747302.24989241 14460.29921692
0.12900001 738358.06437615 23036.77269431
0.13000001 729463.80330107 17200.75729259
0.13100001 720620.10563612 18548.76239342
0.13200001 711828.25307406 15621.07175009
0.13300001 703090.23311233 19784.96009250
0.13400001 694405.96906014 19686.41015098
0.13500001 685777.76000830 15388.85366014
0.13600001 677205.76492783 15308.23703799
0.13700001 668691.82609544 17994.49788873
0.13800001 660234.57797159 20648.83739977
0.13900001 651838.17063774 15057.46245181
0.14000001 643500.86391810 21776.07026196
0.14100001 635226.20814956 16236.38264606
0.14200001 627012.67239081 14794.36470284
0.14300001 618862.95107707 14704.18441115
0.14400001 610773.93289136 14612.76703371
0.14500001 602751.66171293 15840.31441704
0.14600001 594793.93246179 13115.20682948
0.14700001 586902.72935257 14332.16532693
0.14800001 579075.46091541 15530.80459447
0.14900001 571316.54123650 19281.93417647
0.15000001 563624.45628170 19149.14180568
0.15100001 556000.50845694 13944.49341007
0.15200001 548446.08304994 16362.88965991
0.15300001 540960.57779724 14995.42792416
0.15400001 533542.81586622 17366.81947600
0.15500001 526196.62179893 17238.20214366
0.15600001 518918.99246442 18330.81427393
0.15700001 511714.64976164 16978.69288043
0.15800001 504578.38953284 15644.45370586
0.15900001 497515.56473069 15522.48635227
0.16000001 490521.80620850 14215.32261492
0.16100001 483602.34799115 15276.99889418
0.16200001 476754.42856830 11656.64632876
0.16300001 469978.07307436 13873.75337211
0.16400001 463274.47245656 17199.06560191
0.16500001 456642.71885089 12507.44465982
0.16600001 450084.00043855 12402.06521762
0.16700001 443597.43524226 12296.52148549
0.16800001 437183.77117829 15515.65277171
0.16900001 430843.69316666 15381.12057232
0.17000001 424574.87800486 13068.41536208
0.17100001 418379.54456353 12953.03131135
0.17200001 412256.97720226 14977.29668903
0.17300001 406206.37539668 10601.98689853
0.17400001 400229.58900691 11556.62992835
0.17500001 394323.69046638 11451.16051195
0.17600001 388489.00799848 13408.69874435
0.17700001 382729.30411334 10218.87290247
0.17800001 377039.42090083 12148.21071521
0.17900001 371421.18703253 12034.04702826
0.18000001 365875.29084376 9933.51461562
0.18100001 360401.08710900 10822.84515712
0.18200001 354995.73192136 10719.09663171
0.18300001 349661.58990929 17371.18860730
0.18400001 344397.94877274 10512.74788292
0.18500001 339204.46261272 10410.18544938
0.18600001 334080.68733163 11245.15646684
0.18700001 329025.59258544 11134.22657913
0.18800001 324037.94609442 11942.41906754
0.18900001 319122.07525977 10004.47753208
0.19000001 314270.03240167 11704.98790985
0.19100001 309488.43673871 10695.92087907
0.19200001 304772.47467198 12352.42898212
0.19300001 300124.73983098 13973.80854683
0.19400001 295541.41304595 11237.96276211
0.19500001 291024.62878369 13689.79918490
0.19600001 286572.02666466 9315.02416693
0.19700001 282185.85869488 9219.01243923
0.19800001 277862.27920663 10782.44625418
0.19900001 273602.98149414 11491.32576583
0.20000001 269405.08306497 8934.82000212
0.20100001 265271.50861708 11252.81792737
0.20200001 261198.32413229 9544.18721489
0.20300001 257187.02966702 7869.92347978
0.20400001 253236.96182587 9344.44433305
0.20500001 249345.93938045 10786.70584745
0.20600001 245514.16805568 7623.21527846
0.20700001 241741.85929418 8296.58100315
0.20800001 238026.92635425 8208.35894334
0.20900001 234372.05574537 10335.80814696
0.21000001 230771.31322194 9495.08613137
0.21100001 227228.15072676 7948.44108817
0.21200001 223739.59391449 9293.02447256
0.21300001 220306.05964743 9900.55478861
0.21400001 216927.20344143 7695.49290590
0.21500001 213602.90489877 8304.88133510
0.21600001 210330.07388652 7530.86865156
0.21700001 207110.14745144 8804.25278442
0.21800001 203941.91211990 7369.44134288
0.21900001 200824.07469634 7289.91425616
0.22000001 197755.81368855 7211.16608711
0.22100001 194738.74903941 7781.76077956
0.22200001 191769.88485521 10904.99501793
0.22300001 188848.84955028 11421.57896088
0.22400001 185974.90871152 7531.98415898
0.22500001 183149.71738784 6829.65328435
0.22600001 180369.00391070 7369.87784830
0.22700001 177634.59403419 12150.20680651
0.22800001 174944.48870434 6009.34347118
0.22900001 172297.90224304 7727.56128104
0.23000001 169695.43843435 6467.94194181
0.23100001 167136.89408948 6398.00060832
0.23200001 164618.53112162 6904.10152176
0.23300001 162142.84748222 7967.69990210
0.23400001 159707.05261452 6755.60864510
0.23500001 157311.12093623 6682.57673343
0.23600001 154954.83932117 6610.37375809
0.23700001 152637.82661706 5994.08773476
0.23800001 150358.45770161 9163.59663805
0.23900001 148116.76993539 9064.74674880
0.24000001 145911.30101328 6329.63253735
0.24100001 143743.19805036 6261.45400325
0.24200001 141610.62876392 5677.87842886
0.24300001 139512.37375343 6127.38374509
0.24400001 137448.61039330 5051.23667090
0.24500001 135418.16865974 8994.47518786
0.24600001 133421.16667266 6920.55624269
0.24700001 131457.15415648 5379.22700255
0.24800001 129524.63386105 6289.06889464
0.24900001 127622.61306804 6221.60268140
0.25000001 125752.47402740 5208.03895823
0.25100001 123911.72589854 6089.02249872
0.25200001 122102.37794185 5560.54255454
0.25300001 120320.68284459 4584.21823326
0.25400001 118568.51222040 4535.24580700
0.25500001 116842.70263263 4935.43599271
0.25600001 115145.71542818 4438.86753977
0.25700001 113474.78331541 5708.91661871
0.25800001 111830.49977677 5213.53814627
0.25900001 110212.81065075 6877.27971000
0.26000001 108619.87817414 5528.20896124
0.26100001 107051.31587426 4207.11691292
0.26200001 105508.70236297 5827.24590723
0.26300001 103988.38815172 4941.52843879
0.26400001 102492.79969913 4074.08898082
0.26500001 101020.03083546 4433.76936317
0.26600001 99569.48728816  6380.41304734
0.26700001 98141.37499315  7496.03857669
0.26800001 96735.24261317  5074.24739139
0.26900001 95349.76589724  5020.16541205
0.27000001 93985.94043862  4202.58152559
0.27100001 92642.03930544  3779.79538253
0.27200001 91319.04566149  5609.27264521
0.27300001 90015.52020510  4069.60186106
0.27400001 88730.04275326  5490.17165518
0.27500001 87465.59155414  3621.07566171
0.27600001 86217.36883956  5373.49776723
0.27700001 84989.50066431  4252.87481452
0.27800001 83778.43639960  3856.74050218
0.27900001 82585.44179900  4856.02420761
0.28000001 81409.16339436  4803.95495926
0.28100001 80250.16457572  3394.58212222
0.28200001 79108.19037573  3693.95712443
0.28300001 77982.35256410  3654.25321411
0.28400001 76871.91868567  3286.27467935
0.28500001 75777.87310730  5526.48054729
0.28600001 74699.03873850  4823.69065485
0.28700001 73636.14855361  3817.29812170
0.28800001 72586.65862029  4405.28452018
0.28900001 71553.49561847  4668.86581010
0.29000001 70534.14466428  3078.81556033
0.29100001 69529.47829063  3045.39129328
0.29200001 68538.36933432  3012.26147483
0.29300001 67561.36101193  2979.45616166
0.29400001 66597.24962669  3536.31412257
0.29500001 65647.75190745  4080.66445173
0.29600001 64710.01251135  3459.39743262
0.29700001 63786.01005736  3421.48174144
0.29800001 62874.81415735  3101.92910329
0.29900001 61976.55270245  3346.73400436
0.30000001 61089.82972568  4688.95010257
0.30100001 60216.28575385  3273.35744854
0.30200001 59353.98018669  4046.45779079
0.30300001 58504.34003102  2934.57783488
0.30400001 57666.24745656  2902.05404064
0.30500001 56840.25403798  3130.76134063
0.30600001 56024.61446019  3611.90706525
0.30700001 55221.29782427  3571.71371237
0.30800001 54428.91171314  2775.05819508
0.30900001 53647.82552253  3243.01120637
0.31000001 52877.68153457  2713.41835641
0.31100001 52117.98068453  2439.12161152
0.31200001 51370.08301251  2411.82551163
0.31300001 50631.98094789  3577.14962333
0.31400001 49905.84155808  3301.27157537
0.31500001 49188.88339564  3497.32977502
0.31600002 48483.47161137  2997.00593956
0.31700002 47787.57781036  3419.20135422
0.31800002 47101.84042726  2479.20548828
0.31900002 46426.90718593  3342.73747566
0.32000002 45762.18657499  2423.79432671
0.32100002 45106.98319951  3050.13434837
0.32200002 44462.78034085  2585.06617142
0.32300002 43826.68590388  2768.97014652
0.32400002 43201.62485384  3159.11896703
0.32500002 42586.22894805  2082.46669417
0.32600002 41980.64851249  2265.06599775
0.32700002 41384.64055091  2850.57417613
0.32800002 40799.24580912  2416.13145123
0.32900002 40221.38282883  2190.05439874
0.33000002 39654.52248555  1968.84713464
0.33100002 39096.03208532  2336.37898806
0.33200002 38548.53440186  2310.59926147
0.33300002 38009.54633581  2475.56187008
0.33400002 37480.59829610  1883.40015357
0.33500002 36960.42089278  2235.36636145
0.33600002 36449.19494128  2211.00826984
0.33700002 35947.27326070  2551.53757688
0.33800002 35455.36894841  3064.93951389
0.33900002 34971.66424181  2496.97694512
0.34000002 34497.37261259  3529.08138540
0.34100002 34032.11720073  1920.43246459
0.34200002 33576.76944907  1900.27735697
0.34300002 33129.67460107  2222.33867749
0.34400002 32692.29327832  2876.10463737
0.34500002 32263.27817488  2009.35705990
0.34600002 31843.84820528  1988.96685310
0.34700002 31432.22319662  1804.83834143
0.34800002 31030.30135806  1949.32362364
0.34900002 30636.80278655  1930.11866697
0.35000002 30252.35561300  2229.90123785
0.35100002 29877.41178924  1577.52741719
0.35200002 29509.51013660  1875.03436289
0.35300002 29151.62989232  2012.33710678
0.35400002 28801.87986679  1993.81022821
0.35500002 28461.05448214  1671.80241946
0.35600002 28128.17249980  2259.39556306
0.35700002 27803.91646766  2090.29853904
0.35800002 27488.46121302  1776.30444772
0.35900002 27181.92119847  1614.60619567
0.36000002 26883.44964095  1455.73886701
0.36100002 26592.71198427  1588.38276206
0.36200002 26311.73781921  1432.67419212
0.36300002 26037.75064903  2416.82412972
0.36400002 25772.49291725  1834.35727027
0.36500002 25514.56900256  1400.74990459
0.36600002 25265.72895644  1947.22982291
0.36700002 25024.28537130  1519.47467972
0.36800002 24791.72575601  1921.11091983
0.36900002 24566.86943932  1772.49971401
0.37000002 24349.29946467  1355.03857940
0.37100002 24139.52284017  1346.98543829
0.37200002 23938.16543397  1607.20850337
0.37300002 23744.19737466  1731.66439656
0.37400002 23557.75201499  1590.14833634
0.37500002 23379.11080898  1582.29829451
0.37600002 23208.12701416  1574.90357379
0.37700002 23044.21675044  1437.26786681
0.37800002 22887.85358899  2081.87926108
0.37900002 22739.51246798  1684.99795370
0.38000002 22597.55610328  1678.88551023
0.38100002 22462.14275248  1415.78892476
0.38200002 22335.07243228  1411.46496922
0.38300002 22214.01281915  1919.29079850
0.38400002 22100.40032088  1659.18763269
0.38500002 21993.09264380  1782.76017416
0.38600002 21893.37619171  1525.09265777
0.38700002 21799.38920274  1395.59696288
0.38800002 21712.09881241  1900.35153859
0.38900002 21631.26703418  1771.60085403
0.39000002 21557.42818646  1770.08051225
0.39100002 21488.98009401  1642.61771621
0.39200002 21427.32926931  2021.02579243
0.39300002 21371.27570852  1515.65094505
0.39400002 21322.34016821  1895.02307223
0.39500002 21278.09801269  1516.70289820
0.39600002 21239.94275727  1517.80638134
0.39700002 21206.78491075  1392.64963107
0.39800002 21180.41680347  1647.94240747
0.39900002 21158.54495452  1396.46403316
0.40000002 21142.40776229  1398.88747587
0.40100002 21131.19506950  2166.15890921
0.40200002 21125.66127150  1532.45554124
0.40300002 21124.70688512  1408.17302768
0.40400002 21128.77991813  1540.28812901
0.40500002 21137.27507270  1287.26011292
0.40600002 21151.43570152  1678.68377399
0.40700002 21169.51619744  1554.68934320
0.40800002 21192.00087512  1430.14224682
0.40900002 21218.34966694  1435.42142298
0.41000002 21249.81618489  1834.07172182
0.41100002 21284.95030254  1710.03298833
0.41200002 21323.41191101  1849.37960267
0.41300002 21367.00483214  1459.58016924
0.41400002 21413.54303578  1332.99311714
0.41500002 21463.68468970  1473.26738691
0.41600002 21516.56811298  1884.20595893
0.41700002 21574.22368159  1623.24466672
0.41800002 21635.34826241  1495.75987300
0.41900002 21697.88334384  2050.45007315
0.42000002 21764.06209159  2611.36111380
0.42100002 21833.74019240  1520.28340164
0.42200002 21905.97065725  2223.89424650
0.42300002 21980.40467252  1537.74918376
0.42400002 22057.35629621  2249.85044882
0.42500002 22137.15651224  2263.30298906
0.42600002 22218.08611163  1992.29587604
0.42700002 22302.40785597  1574.99611742
0.42800002 22387.99665794  1584.73441853
0.42900002 22476.39670895  2029.61871900
0.43000002 22566.29190400  1458.91084073
0.43100002 22656.45560377  2055.39374977
0.43200002 22749.55695329  2216.37569120
0.43300002 22843.32652846  2230.65094121
0.43400002 22938.89265653  2544.49678850
0.43500002 23035.03730041  1807.78981300
0.43600002 23133.11587416  1971.28856263
0.43700002 23231.36472389  1526.30073469
0.43800002 23330.06550208  1689.91337473
0.43900002 23430.56489774  1546.41735653
0.44000002 23530.91422570  1712.22705477
0.44100002 23632.14213278  1880.17331719
0.44200002 23733.62779461  2050.22953420
0.44300002 23835.54716932  2063.68177172
0.44400002 23937.43886686  1917.38894410
0.44500002 24038.85633124  1769.01952125
0.44600002 24140.25293188  1942.32484295
0.44700002 24242.47407100  1792.00376825
0.44800002 24343.36872999  2131.38375016
0.44900002 24444.42126310  1814.99836480
0.45000002 24545.42562371  1992.59774657
0.45100002 24644.88840524  2339.29291829
0.45200002 24744.19378010  2185.77846115
0.45300002 24842.44586862  1860.94770821
0.45400002 24940.05209653  2553.23795439
0.45500002 25036.99792314  1712.53073911
0.45600002 25132.42552887  1895.11063682
0.45700002 25227.14128642  1906.41515737
0.45800002 25320.20235095  2266.28481883
0.45900002 25412.05995769  1753.43222018
0.46000002 25503.00137279  2292.59241706
0.46100002 25591.65446483  2482.90243385
0.46200002 25679.48016448  2140.12797834
0.46300002 25765.46431291  2331.25932152
0.46400002 25849.28318313  2163.58510497
0.46500002 25932.55524095  2175.22283671
0.46600002 26012.80994208  2004.41716509
0.46700002 26091.28514413  2381.09079511
0.46800002 26168.53060069  2025.05183651
0.46900002 26243.03423291  2405.17420144
0.47000002 26315.60559945  2416.95691084
0.47100002 26386.21491809  2241.77292569
0.47200002 26454.75970609  2252.35834813
0.47300002 26520.85326061  1885.63275620
0.47400002 26584.18891550  2462.36061501
0.47500002 26645.60417574  2853.74434248
0.47600002 26705.25215986  2866.14132391
0.47700002 26761.25792297  2110.66051243
