# SAXS profile: number of points = 501, q_min = 0, q_max = 0.5, delta_q = 0.001
#    q    intensity    error
0.00000000 1664650.74656090 249.69761198
0.00100000 1664569.47761392 948.80462477
0.00200000 1664325.60834347 748.94654747
0.00300000 1663919.36215159 1297.85714871
0.00400000 1663350.61832763 1497.01561338
0.00500000 1662619.86639682 1496.35793898
0.00600000 1661727.01642157 2442.73881359
0.00700000 1660672.62793390 2590.64940724
0.00800000 1659456.54156238 2464.29306826
0.00900000 1658079.93681553 2984.54401385
0.01000000 1656542.25005884 4646.60121205
0.01100000 1654844.69678608 3276.59264230
0.01200000 1652987.24462334 4190.32284884
0.01300000 1650970.99343270 4853.85493477
0.01400000 1648796.05176496 4822.72866521
0.01500000 1646463.72392557 6322.42098140
0.01600000 1643973.45754357 5868.98550579
0.01700000 1641327.54751130 5317.90149249
0.01800000 1638525.84611299 4669.79887155
0.01900000 1635569.06051866 6378.71962385
0.02000000 1632458.40305017 6684.91746289
0.02100000 1629195.81018741 5376.34641737
0.02200000 1625779.76469704 6730.72853164
0.02300000 1622213.75134565 6423.96674774
0.02400000 1618496.89468796 6069.36363183
0.02500000 1614632.15151858 6926.77224636
0.02600000 1610619.20732453 8479.91051442
0.02700000 1606460.28655659 8096.56021508
0.02800000 1602155.20537803 6969.37546301
0.02900000 1597706.50876366 10784.51942932
0.03000000 1593115.52428483 9630.38378697
0.03100000 1588382.52176283 8386.66010080
0.03200000 1583509.06887161 11757.55537790
0.03300000 1578498.95072356 9660.41402378
0.03400000 1573350.11985451 8260.08851036
0.03500000 1568066.01771197 10161.06826399
0.03600000 1562647.76947960 13009.04328211
0.03700000 1557097.02635841 13313.18019107
0.03800000 1551415.55220304 10890.93768049
0.03900000 1545605.19625414 14837.81057118
0.04000000 1539665.94643387 13256.52441309
0.04100000 1533601.69324261 9661.69111541
0.04200000 1527413.29856387 13792.54272591
0.04300000 1521101.63623970 10039.27126518
0.04400000 1514670.31317698 12268.83010652
0.04500000 1508120.41904858 14568.44392493
0.04600000 1501452.18351399 14819.33374019
0.04700000 1494669.67354923 11837.78436506
0.04800000 1487773.72532253 12028.65112890
0.04900000 1480767.33101821 11105.75549958
0.05000000 1473650.59936168 15782.79865411
0.05100000 1466428.13273895 12581.95396502
0.05200000 1459097.87938091 16239.76015430
0.05300000 1451666.13689259 15286.04513408
0.05400000 1444132.69235954 17871.14290135
0.05500000 1436500.23040902 15686.58324783
0.05600000 1428769.64538390 14659.17724570
0.05700000 1420946.26254224 19779.57289787
0.05800000 1413028.56313877 12505.30336768
0.05900000 1405019.51666986 13909.69386470
0.06000000 1396922.98240862 12781.84588619
0.06100000 1388739.95078975 15498.33857507
0.06200000 1380472.59120501 18263.65323535
0.06300000 1372124.44471200 13172.39528511
0.06400000 1363693.97687831 13296.01689637
0.06500000 1355187.15065206 20124.53012856
0.06600000 1346605.18803824 20300.07415949
0.06700000 1337949.53671646 21835.33746108
0.06800000 1329223.30392487 13757.46183960
0.06900000 1320429.23346910 20796.76140082
0.07000000 1311567.73434946 15365.01672742
0.07100000 1302642.28249664 19695.95223386
0.07200000 1293654.98861276 18415.17962559
0.07300000 1284608.55492145 17110.98675330
0.07400000 1275505.32539528 18654.26625812
0.07500000 1266346.96883449 18767.26295780
0.07600000 1257134.48164091 23231.84630985
0.07700000 1247873.08744463 20440.16213075
0.07800000 1238563.38523109 16144.67448361
0.07900000 1229207.00373545 20650.67863135
0.08000000 1219808.16759119 22231.00489723
0.08100000 1210367.87338425 17865.03064935
0.08200000 1200887.91613997 19436.37183478
0.08300000 1191371.65280585 18013.54023584
0.08400000 1181820.60143413 19588.67738824
0.08500000 1172237.40916953 15121.86328819
0.08600000 1162623.73126761 18206.68848648
0.08700000 1152983.54466860 22829.07525644
0.08800000 1143316.10212577 19842.25188426
0.08900000 1133626.95597157 15303.96462444
0.09000000 1123915.86381552 19943.88794028
0.09100000 1114185.46796260 18450.91221631
0.09200000 1104437.89297839 21569.67306336
0.09300000 1094677.95992979 18521.95195240
0.09400000 1084902.45432171 17005.84677072
0.09500000 1075117.19768460 18578.02604921
0.09600000 1065323.35980143 20150.59229788
0.09700000 1055525.26980414 27929.19995205
0.09800000 1045722.70300020 18634.77944363
0.09900000 1035918.58858654 21754.29138326
0.10000000 1026113.30837929 26427.54950012
0.10100000 1016309.65947531 20214.40007768
0.10200000 1006510.59479730 17105.64836317
0.10300000 996716.97595473 23323.17833448
0.10400000 986932.24207981 17098.60189844
0.10500000 977158.69142136 18644.18870952
0.10600001 967393.63325010 18632.00225310
0.10700001 957644.80389321 21719.38517436
0.10800001 947910.52508984 21697.67294044
0.10900001 938194.55331120 24768.33737315
0.11000001 928496.97655927 24735.16061981
0.11100001 918820.76463975 20067.04644436
0.11200001 909167.13681353 23115.57554170
0.11300001 899537.86164828 18458.51779006
0.11400001 889935.29343282 19956.79989489
0.11500001 880361.23521389 19913.77207824
0.11600001 870816.19878904 27509.08501519
0.11700001 861303.45793566 16769.57911577
0.11800001 851821.74141477 16725.52068042
0.11900001 842374.44028296 18195.28876714
0.12000001 832962.36586355 21165.57471360
0.12100001 823590.12992643 16578.87009642
0.12200001 814255.67875895 16525.31977894
0.12300001 804962.41609017 16469.53180916
0.12400001 795709.69604405 16411.51325418
0.12500001 786499.88551687 16351.33339038
0.12600001 777336.17321483 19250.73123683
0.12700001 768217.83262534 16224.76138966
0.12800001 759145.92663888 14689.47437277
0.12900001 750123.31174341 24866.58895631
0.13000001 741150.41631026 16019.96700365
0.13100001 732227.85065645 18847.54576433
0.13200001 723357.46054755 21646.47302731
0.13300001 714540.55821748 17234.71907670
0.13400001 705777.25535705 17150.38811374
0.13500001 697070.05921565 15642.25286630
0.13600001 688419.00957108 14147.01131373
0.13700001 679825.79196237 16886.87346862
0.13800001 671289.22290349 19594.93334057
0.13900001 662813.81913022 18094.81811557
0.14000001 654397.27107233 20760.75440386
0.14100001 646043.25272533 22017.15509127
0.14200001 637750.41041823 16415.69633842
0.14300001 629521.47569828 14957.43096810
0.14400001 621353.04898349 13514.42945286
0.14500001 613251.59423353 14773.23160197
0.14600001 605214.47252565 13344.97974873
0.14700001 597244.13936090 17236.46667511
0.14800001 589337.78781170 17123.21023272
0.14900001 581499.52443633 15700.48790054
0.15000001 573728.24740102 16893.42904180
0.15100001 566025.38338986 16776.99315530
0.15200001 558392.18457979 16659.63161306
0.15300001 550827.75702124 16541.35832392
0.15400001 543331.15481902 20211.91991309
0.15500001 535906.25706444 15048.24840854
0.15600001 528549.91473505 18671.02661919
0.15700001 521267.17907129 14824.83927247
0.15800001 514052.33038161 14712.17838992
0.15900001 506911.25801372 14599.04491988
0.16000001 499839.45372343 15692.46039037
0.16100001 492841.79536743 15568.87305057
0.16200001 485915.90311213 13068.70883112
0.16300001 479061.90760353 15320.40052840
0.16400001 472280.83500526 15195.63658367
0.16500001 465571.54187934 12752.00513411
0.16600001 458935.93913032 17244.51872699
0.16700001 452372.07632947 12539.75454791
0.16800001 445881.40352596 11303.09411307
0.16900001 439464.80939992 15688.89443638
0.17000001 433119.59187627 13331.42166746
0.17100001 426848.10926207 16519.02260849
0.17200001 420649.23473023 13099.01778807
0.17300001 414523.05404712 15146.67311018
0.17400001 408470.45372886 13939.05489178
0.17500001 402489.27036927 12750.86068749
0.17600001 396579.58621761 22111.29587386
0.17700001 390744.94047934 13562.75752462
0.17800001 384980.45921345 14471.41614535
0.17900001 379287.74101172 12288.92338923
0.18000001 373667.93422464 12174.10187208
0.18100001 368119.79030183 10049.67074995
0.18200001 362640.83149063 11945.38955358
0.18300001 357233.53817703 13803.50456723
0.18400001 351896.70694471 10741.64748693
0.18500001 346630.54998307 12572.29064183
0.18600001 341434.47935520 13408.13263772
0.18700001 336307.06408732 12329.01755192
0.18800001 331247.59955167 12208.13085826
0.18900001 326260.22003372 13947.62506543
0.19000001 321337.22576656 13809.46792980
0.19100001 316484.62692410 16406.56383496
0.19200001 311698.01123327 13535.48677737
0.19300001 306980.26711144 15186.31453160
0.19400001 302327.10407887 9727.37503339
0.19500001 297740.84503420 8753.58125766
0.19600001 293218.99042544 9531.08373418
0.19700001 288764.03161836 12006.80900210
0.19800001 284372.07569144 9337.35754660
0.19900001 280044.62924744 9241.47320192
0.20000001 275779.03404430 9977.68592328
0.20100001 271578.13311568 12343.22673348
0.20200001 267438.04406328 12215.23323992
0.20300001 263360.17905378 11282.35060392
0.20400001 259343.60239832 9569.77938082
0.20500001 255386.79519259 8680.59757890
0.20600001 251489.73956717 9370.50813920
0.20700001 247652.23423340 10817.45010265
0.20800001 243872.65508306 8409.94890808
0.20900001 240153.42403083 10590.76650040
0.21000001 236488.78519049 8233.35744562
0.21100001 232882.22244034 8146.22052606
0.21200001 229330.60766227 7327.11326119
0.21300001 225834.36349923 8699.14009325
0.21400001 222393.22328443 10041.05450600
0.21500001 219007.20969125 8515.00071536
0.21600001 215673.07536149 12636.28608286
0.21700001 212392.06259210 10417.83116269
0.21800001 209163.29643662 7558.11607409
0.21900001 205985.22544414 8836.76658937
0.22000001 202857.23259363 8069.66109413
0.22100001 199780.88295033 9979.05557521
0.22200001 196753.22082761 8555.81421225
0.22300001 193773.84262128 9115.12198792
0.22400001 190841.84535768 7729.09510247
0.22500001 187959.23817033 8920.54586539
0.22600001 185121.38617978 7564.06019700
0.22700001 182330.41689036 7482.84066304
0.22800001 179584.00154042 7402.45289356
0.22900001 176881.69972400 6712.66082197
0.23000001 174224.03368597 7244.23566326
0.23100001 171610.53829629 8360.86582120
0.23200001 169037.86590470 5907.87369277
0.23300001 166508.28691679 6428.88526191
0.23400001 164018.75314709 9250.65811501
0.23500001 161569.89641175 10295.23428628
0.23600001 159161.14826211 6223.99699717
0.23700001 156791.84339162 5597.46907383
0.23800001 154460.83224216 8859.87375647
0.23900001 152167.89381180 6573.65332360
0.24000001 149911.66192520 7045.09888541
0.24100001 147693.29895871 5897.39370637
0.24200001 145510.90966469 5834.26019898
0.24300001 143363.27608319 6296.51538342
0.24400001 141250.48887162 7267.33799622
0.24500001 139171.60377339 5135.43242217
0.24600001 137126.46901566 5080.53591737
0.24700001 135114.96785411 5026.27704195
0.24800001 133135.46395364 5469.87079530
0.24900001 131186.63075903 6887.29844067
0.25000001 129270.30703772 6327.13547729
0.25100001 127383.95276510 7222.67046348
0.25200001 125529.30792074 4763.83746097
0.25300001 123702.66579104 6598.30050546
0.25400001 121906.15020888 6994.36569915
0.25500001 120136.40643199 8303.82880545
0.25600001 118396.04566292 5477.00133150
0.25700001 116682.12909199 5418.71833141
0.25800001 114995.23829115 5361.07826279
0.25900001 113335.59809691 4420.08853491
0.26000001 111700.82226029 4810.39613825
0.26100001 110091.29629258 5624.56459372
0.26200001 108507.76886354 5564.82118948
0.26300001 106947.33803858 6352.67218008
0.26400001 105411.64394611 4609.12434964
0.26500001 103899.48773339 5803.82565942
0.26600001 102410.00272728 4511.67288364
0.26700001 100943.53423060 4869.51632171
0.26800001 99499.31110428  5620.71635026
0.26900001 98076.14965001  6355.33479806
0.27000001 96675.00426015  6287.74257463
0.27100001 95294.38940051  4276.81239869
0.27200001 93935.05169178  4615.96865858
0.27300001 92595.61745858  3805.68005765
0.27400001 91274.65422909  6024.12746421
0.27500001 89975.07342315  4469.96185920
0.27600001 88692.29356870  4422.19796662
0.27700001 87430.26194376  4739.59472428
0.27800001 86185.41259369  3606.85968775
0.27900001 84959.00022785  3568.27817845
0.28000001 83749.76480432  3530.05275357
0.28100001 82558.27054341  4190.65801112
0.28200001 81384.09505482  4836.65699803
0.28300001 80226.60398523  4101.18418983
0.28400001 79084.81899191  3718.96378912
0.28500001 77959.95199364  3678.93030871
0.28600001 76850.62746175  3639.26163570
0.28700001 75757.55383185  4254.54442458
0.28800001 74678.35382935  4532.22950843
0.28900001 73615.96498593  3842.75355416
0.29000001 72567.51139467  5068.11523570
0.29100001 71534.36035943  5326.44872449
0.29200001 70515.07004538  3409.05122271
0.29300001 69510.35448583  3678.48813351
0.29400001 68518.87471911  3638.35241981
0.29500001 67542.25263338  2998.87615888
0.29600001 66577.95739771  3262.65295672
0.29700001 65627.61746261  3813.62103128
0.29800001 64690.50953654  4352.05423509
0.29900001 63766.75640984  3443.40500914
0.30000001 62854.72001258  2837.89074291
0.30100001 61956.39883826  3648.61250031
0.30200001 61069.63640441  3053.17661658
0.30300001 60195.80099627  3568.40725199
0.30400001 59333.95609072  3800.34006753
0.30500001 58484.56936456  5100.43953575
0.30600001 57645.79857189  4512.80155485
0.30700001 56819.69756391  3150.08418208
0.30800001 56004.88794156  3634.15735058
0.30900001 55201.72076613  3593.63219201
0.31000001 54409.88283916  2538.22115462
0.31100001 53628.76701781  3513.75698137
0.31200001 52859.65718225  2978.11322665
0.31300001 52100.78365550  2944.73643163
0.31400001 51354.12852240  3397.07576260
0.31500001 50616.83566463  2879.08574892
0.31600002 49891.62880742  2846.81647454
0.31700002 49176.20099734  3987.69832768
0.31800002 48471.09185754  6030.28882352
0.31900002 47777.20113589  3210.62806835
0.32000002 47093.82202220  2721.08116528
0.32100002 46420.14588420  3363.13972855
0.32200002 45757.86317533  2882.05914856
0.32300002 45104.02810327  2849.67263050
0.32400002 44461.47714632  3467.99538163
0.32500002 43828.66170263  2786.18815637
0.32600002 43206.02113296  2543.10652431
0.32700002 42593.35257268  2514.71165497
0.32800002 41991.47725542  2279.50745075
0.32900002 41397.42163723  2459.00696169
0.33000002 40814.55858841  2229.08722286
0.33100002 40240.31630134  2805.55498539
0.33200002 39677.38240438  3369.20508642
0.33300002 39123.15682458  1960.07024973
0.33400002 38579.12696072  2132.46134374
0.33500002 38044.29281735  3067.89191807
0.33600002 37518.55154284  1896.56287031
0.33700002 37002.33544736  2814.02774404
0.33800002 36496.37760112  1855.84088890
0.33900002 35998.86453603  2019.53639611
0.34000002 35510.90461284  3087.85085684
0.34100002 35032.31318922  2156.58930206
0.34200002 34563.75402039  2133.96627428
0.34300002 34103.56264699  2287.66709070
0.34400002 33653.43476508  2960.66106367
0.34500002 33211.85651369  2068.43452163
0.34600002 32780.15222072  2047.44840467
0.34700002 32356.32865677  2702.40069740
0.34800002 31942.39069057  1839.40265503
0.34900002 31537.08575284  1821.26678848
0.35000002 31141.04706198  1639.57620547
0.35100002 30754.65959880  1623.84610373
0.35200002 30375.52699707  2573.41476908
0.35300002 30006.55707446  2071.35273296
0.35400002 29645.81126374  1578.63952456
0.35500002 29294.19289200  2659.32695669
0.35600002 28950.82552647  1705.34845841
0.35700002 28616.15391985  1844.02504594
0.35800002 28290.50428175  1980.47684605
0.35900002 27973.81009943  2265.87872538
0.36000002 27665.33180565  1647.88556706
0.36100002 27364.83381608  2674.63898387
0.36200002 27074.28977482  1916.45369249
0.36300002 26790.64362434  2194.15381676
0.36400002 26516.04749738  1887.27977002
0.36500002 26248.87250236  1873.38211923
0.36600002 25990.90142719  1860.03894874
0.36700002 25740.51227588  1562.96397943
0.36800002 25499.12310137  1693.65183662
0.36900002 25265.51430353  1402.23611027
0.37000002 25039.27001588  2368.84025206
0.37100002 24820.99556428  1523.51277990
0.37200002 24611.26913592  1514.70063072
0.37300002 24409.11889379  1643.22196177
0.37400002 24214.40206836  1634.47221704
0.37500002 24027.73986626  1626.19751118
0.37600002 23848.79456269  1753.24421533
0.37700002 23677.12790767  1342.49321596
0.37800002 23512.90840393  1470.37979669
0.37900002 23356.89054930  1464.47710682
0.38000002 23207.43626204  1724.19655877
0.38100002 23064.53906154  1453.75796592
0.38200002 22930.02360298  1712.52889392
0.38300002 22801.77842661  1707.39724947
0.38400002 22680.87776350  1440.80282818
0.38500002 22566.38966034  1829.23163253
0.38600002 22459.66714763  1955.67560953
0.38700002 22358.67478736  1821.78490798
0.38800002 22264.42181742  1558.95488951
0.38900002 22176.76598998  1427.07495906
0.39000002 22096.09332253  1425.52952824
0.39100002 22020.91349127  1424.31275209
0.39200002 21952.79165382  2199.99911982
0.39300002 21890.08605077  1552.44497627
0.39400002 21834.65998958  1681.81476538
0.39500002 21783.93674759  1940.94885617
0.39600002 21739.33658120  1424.03531022
0.39700002 21699.84741917  1813.67333322
0.39800002 21667.18310278  1426.45906715
0.39900002 21639.06369993  1947.51582526
0.40000002 21616.69784187  1430.26888047
0.40100002 21599.28425554  1432.68059255
0.40200002 21587.64461812  1435.47049689
0.40300002 21580.67860062  1700.12594071
0.40400002 21578.71969163  1835.27019673
0.40500002 21581.21985655  1840.01489215
0.40600002 21589.41888270  1581.64090229
0.40700002 21601.53424193  1322.01395824
0.40800002 21618.12313861  1856.78068435
0.40900002 21638.69677417  1596.93589760
0.41000002 21664.34232703  2003.41015162
0.41100002 21693.75367303  1340.67404052
0.41200002 21726.39802942  1884.33059038
0.41300002 21764.31654120  1621.87694550
0.41400002 21805.15546194  1493.10809100
0.41500002 21849.62406566  1772.44158819
0.41600002 21896.77838607  1506.60790824
0.41700002 21948.78984122  1926.66486356
0.41800002 22004.33838887  1659.56727993
0.41900002 22061.30318636  1667.83459992
0.42000002 22121.92647843  1536.69969564
0.42100002 22186.12353766  1825.69619242
0.42200002 22252.71643777  1976.70889483
0.42300002 22321.70313149  1561.62642508
0.42400002 22393.11625122  1855.82959726
0.42500002 22467.51948918  1435.67456339
0.42600002 22542.94936368  1877.03876771
0.42700002 22621.80012000  1597.55160018
0.42800002 22701.91324128  2337.38909808
0.42900002 22784.85813220  1910.51044492
0.43000002 22869.37231844  1626.35548949
0.43100002 22954.15301074  2082.40085981
0.43200002 23041.83286491  2244.85067324
0.43300002 23130.22555837  1957.51108177
0.43400002 23220.42173272  1969.67236682
0.43500002 23311.21279608  1829.46406693
0.43600002 23403.96701373  1534.13011045
0.43700002 23496.84271960  1698.11690382
0.43800002 23590.18247715  2019.43766666
0.43900002 23685.35353107  2188.52676998
0.44000002 23780.35092359  2202.29840340
0.44100002 23876.26236718  1582.99626996
0.44200002 23972.41809795  2230.15416134
0.44300002 24069.00879033  2244.19448596
0.44400002 24165.58343797  2258.27387930
0.44500002 24261.66373902  3083.90022402
0.44600002 24357.76334518  1633.18810969
0.44700002 24454.71107221  1807.69232813
0.44800002 24550.32120378  1653.46421143
0.44900002 24646.12243931  1996.33601219
0.45000002 24741.82808180  2175.92017378
0.45100002 24836.01755462  1852.27027701
0.45200002 24930.07866584  2540.99838844
0.45300002 25023.03452763  2044.88247851
0.45400002 25115.38192931  2228.36236729
0.45500002 25207.14813798  1724.16901435
0.45600002 25297.31230223  1907.54392455
0.45700002 25386.78293933  1744.07207059
0.45800002 25474.61388271  2280.10542364
0.45900002 25561.20682336  2292.84036072
0.46000002 25646.98731395  1773.48925681
0.46100002 25730.37934270  2318.04998485
0.46200002 25812.99018290  2330.52592912
0.46300002 25893.79117238  1982.42874612
0.46400002 25972.42854243  1992.73467436
0.46500002 26050.50511104  2003.02343292
0.46600002 26125.59146550  2013.10754579
0.46700002 26198.89798026  1839.16272538
0.46800002 26271.01152036  2217.79889766
0.46900002 26340.33222632  2971.18961595
0.47000002 26407.74985808  2052.27837749
0.47100002 26473.25827324  2624.02948441
0.47200002 26536.70324012  2824.16877619
0.47300002 26597.74061632  2080.20939220
0.47400002 26655.92906222  1899.23503570
0.47500002 26712.24314410  2097.97967598
0.47600002 26766.85211841  2489.71886780
0.47700002 26817.80110001  2884.25464501
