# SAXS profile: number of points = 501, q_min = 0, q_max = 0.5, delta_q = 0.001
#    q    intensity    error
0.00000000 1664650.74656090 274.66737318
0.00100000 1664569.48323901 649.18211388
0.00200000 1664325.63551849 973.63052761
0.00300000 1663919.41705316 1098.18685438
0.00400000 1663350.71514354 1996.02093402
0.00500000 1662620.02114022 2094.90130956
0.00600000 1661727.23998351 2791.70187683
0.00700000 1660672.92421086 2590.64986944
0.00800000 1659456.92807187 3136.37372647
0.00900000 1658080.43439051 2984.54490949
0.01000000 1656542.86004225 3279.95500451
0.01100000 1654845.44196624 3574.46631028
0.01200000 1652988.12095260 4190.32507033
0.01300000 1650972.02200351 3813.74553903
0.01400000 1648797.25529345 4822.73218553
0.01500000 1646465.10965711 5136.97137087
0.01600000 1643975.02154487 4611.35014158
0.01700000 1641329.29539936 4874.74822601
0.01800000 1638527.82570120 4669.80451338
0.01900000 1635571.24547226 5888.05674938
0.02000000 1632460.83637923 5656.47705393
0.02100000 1629198.47449317 5913.99073054
0.02200000 1625782.70973397 5608.95060341
0.02300000 1622216.94432755 7591.97564503
0.02400000 1618500.41200264 6676.31450393
0.02500000 1614635.92086539 6926.78841686
0.02600000 1610623.29930724 7175.32712660
0.02700000 1606464.65964830 9446.01263137
0.02800000 1602159.91636265 7666.33555137
0.02900000 1597711.61656605 9346.61338605
0.03000000 1593120.94134468 8889.61526132
0.03100000 1588388.28959136 10673.96979720
0.03200000 1583515.20051054 9406.08072426
0.03300000 1578505.51041218 8855.41632165
0.03400000 1573357.08375123 9086.13757790
0.03500000 1568073.40962559 11007.87584389
0.03600000 1562655.47174510 10407.28592278
0.03700000 1557105.22159059 9763.05019089
0.03800000 1551424.20931301 13613.74806676
0.03900000 1545614.24670409 12055.79168260
0.04000000 1539675.48519119 13256.60654179
0.04100000 1533611.71456655 11594.10509970
0.04200000 1527423.75595146 13792.63715612
0.04300000 1521112.61619884 14055.08122609
0.04400000 1514681.72065595 10224.10208925
0.04500000 1508132.36739794 11446.72520042
0.04600000 1501464.65431481 12702.39156600
0.04700000 1494682.69215525 12914.05906083
0.04800000 1487787.24716072 13122.28413051
0.04900000 1480781.42884351 13327.03347993
0.05000000 1473665.23875573 16910.30940217
0.05100000 1466443.35587541 12582.08457954
0.05200000 1459113.70497439 11599.95449512
0.05300000 1451682.52440962 12934.49189547
0.05400000 1444149.69341184 14297.08263151
0.05500000 1436517.81638984 18100.12533087
0.05600000 1428787.79093620 14659.36341907
0.05700000 1420964.98293550 18543.59389290
0.05800000 1413047.90371179 15006.56943811
0.05900000 1405039.53137593 15174.42764759
0.06000000 1396943.62260963 14060.23821844
0.06100000 1388761.24921674 14207.02824340
0.06200000 1380494.62760814 13045.67484070
0.06300000 1372146.95052744 14489.87247505
0.06400000 1363717.26186766 15955.49271004
0.06500000 1355211.13042171 17441.56806441
0.06600000 1346629.82065364 13533.63033079
0.06700000 1337974.81479514 13647.34374959
0.06800000 1329249.32825501 15133.50431057
0.06900000 1320455.99370382 15251.26744133
0.07000000 1311595.22934448 16762.18781597
0.07100000 1302670.35174687 16882.60854938
0.07200000 1293683.83478215 19832.17411628
0.07300000 1284638.11744661 22815.17403487
0.07400000 1275535.71384039 17219.73294383
0.07500000 1266378.03403255 21655.06539698
0.07600000 1257166.26536798 17424.32525486
0.07700000 1247905.65987258 16060.54659562
0.07800000 1238596.73802473 22016.05805086
0.07900000 1229241.01814750 17701.07149157
0.08000000 1219842.98540534 17785.31156154
0.08100000 1210403.39475724 17865.55494484
0.08200000 1200924.20044944 19436.95909636
0.08300000 1191408.79860610 16512.92672367
0.08400000 1181858.40041343 24109.91250012
0.08500000 1172276.00607497 16634.59730712
0.08600000 1162663.11463790 18207.30523009
0.08700000 1153023.67528748 15219.91322849
0.08800000 1143357.14867191 21369.34611226
0.08900000 1133668.66494308 18365.43323470
0.09000000 1123958.44597132 21478.84691149
0.09100000 1114228.81774504 24602.17345165
0.09200000 1104481.89346446 16948.27545156
0.09300000 1094722.92526131 23153.39095730
0.09400000 1084948.16190299 17006.56323709
0.09500000 1075163.69947188 18578.82960013
0.09600000 1065370.61097310 23251.71467750
0.09700000 1055573.34275657 20172.00752842
0.09800000 1045771.53495553 17082.67882669
0.09900000 1035968.22063828 18647.42884834
0.10000000 1026163.69551876 17101.01879003
0.10100000 1016360.98661842 18660.38859195
0.10200000 1006562.74648129 23327.09274692
0.10300000 996769.81415364 20214.49278194
0.10400000 986985.87845992 20208.53681218
0.10500000 977213.09634419 24860.30234066
0.10600001 967448.91862109 15527.55587450
0.10700001 957700.72998812 15514.75255590
0.10800001 947967.29016110 24798.82547769
0.10900001 938252.05031510 20125.50742648
0.11000001 928555.29990318 26282.75900088
0.11100001 918879.81900310 21612.05436031
0.11200001 909226.99777465 16952.53817159
0.11300001 899598.50497674 24613.01625496
0.11400001 889996.63764730 15352.44272228
0.11500001 880423.25734333 26042.92117852
0.11600001 870879.05855469 19869.10665659
0.11700001 861367.08229577 15246.19807465
0.11800001 851886.13645987 18247.40190239
0.11900001 842439.67305153 15163.91482917
0.12000001 833028.26197993 24191.14186742
0.12100001 823656.72782434 21102.08636094
0.12200001 814323.02475863 16526.68656607
0.12300001 805030.46888347 16470.92416937
0.12400001 795778.44319008 22381.26976927
0.12500001 786569.20066400 16352.77445236
0.12600001 777406.36355767 17771.51030838
0.12700001 768288.53870472 19176.48282979
0.12800001 759217.47576905 16159.94473335
0.12900001 750195.39811482 16091.69204800
0.13000001 741223.22553686 23304.05930931
0.13100001 732301.30436595 14499.56650992
0.13200001 723431.62617503 18762.20010931
0.13300001 714615.37496689 15800.14668538
0.13400001 705852.68577168 18581.57282898
0.13500001 697146.00730776 14221.77921961
0.13600001 688495.61868912 19808.01988365
0.13700001 679903.03909230 16888.79228741
0.13800001 671367.05162327 16797.60442372
0.13900001 662892.27312664 25057.32910584
0.14000001 654476.19639270 16610.60664781
0.14100001 646122.73085940 13762.41481638
0.14200001 637830.43213153 15049.60975596
0.14300001 629601.99205811 17679.22477088
0.14400001 621434.11360215 17571.05039093
0.14500001 613333.11575012 20147.99380281
0.14600001 605296.47247409 21354.86055629
0.14700001 597326.60303721 14586.71633432
0.14800001 589420.73107549 15808.26475326
0.14900001 581583.04862462 14394.18113259
0.15000001 573812.17597589 18195.58495872
0.15100001 566109.82494436 14198.03507954
0.15200001 558476.88970568 16662.15879061
0.15300001 550912.96298509 15271.30805458
0.15400001 543416.64979741 17688.21278563
0.15500001 535992.23870057 12542.21897750
0.15600001 528636.20099326 16184.19805722
0.15700001 521353.70446624 14827.30005482
0.15800001 514139.21070163 18393.33113099
0.15900001 506998.48076431 19468.74258029
0.16000001 499926.97623807 15695.20815985
0.16100001 492929.62740625 13176.00956253
0.16200001 486004.04414904 16635.91921654
0.16300001 479150.26732963 17680.64569913
0.16400001 472369.37329315 11691.14254094
0.16500001 465660.35920755 16232.92088835
0.16600001 459024.91878372 11498.57475841
0.16700001 452461.23945531 11402.02377262
0.16800001 445970.79989512 13566.43237337
0.16900001 439554.34053172 16812.95431921
0.17000001 433209.24803136 14445.36305771
0.17100001 426937.75636000 14319.49302450
0.17200001 420739.00262014 12009.99539694
0.17300001 414612.94234430 14067.81779809
0.17400001 408560.40480389 13942.12447236
0.17500001 402579.27632646 12753.71207635
0.17600001 396669.54968102 13691.05015386
0.17700001 390834.92804617 13565.88099321
0.17800001 385070.48930023 10339.14312605
0.17900001 379377.68072102 13316.15722228
0.18000001 373757.70312205 10147.52211908
0.18100001 368209.54723606 20104.24222874
0.18200001 362730.52678607 14935.43014593
0.18300001 357323.07769677 11834.54089237
0.18400001 351986.15117852 12697.90100362
0.18500001 346719.80822132 13542.87634892
0.18600001 341523.56650235 11495.68379157
0.18700001 336396.02752026 9486.36842425
0.18800001 331336.30812938 10332.72325720
0.18900001 326348.71376215 13021.31429433
0.19000001 321425.28935231 10129.71847255
0.19100001 316572.62425873 10029.02121039
0.19200001 311785.67035035 11734.05425809
0.19300001 307067.64189873 13403.50320223
0.19400001 302414.09389280 13268.41899653
0.19500001 297827.57564137 11382.97047892
0.19600001 293305.30050100 12134.04085514
0.19700001 288849.92515930 11152.49613744
0.19800001 284457.55074128 11038.37577818
0.19900001 280129.71263660 9244.28095389
0.20000001 275863.61201659 8317.28829538
0.20100001 271662.15646744 9054.50010300
0.20200001 267521.63262656 8146.03409849
0.20300001 263443.22550819 8061.36308157
0.20400001 259426.12432634 11168.29518013
0.20500001 255468.78748103 7893.98590629
0.20600001 251571.07826889 10154.66705431
0.20700001 247732.99769214 9275.12387202
0.20800001 243952.78977586 8412.71235309
0.20900001 240232.92234283 9837.53863497
0.21000001 236567.65198681 9733.57650113
0.21100001 232960.36389580 8148.95391430
0.21200001 229408.12026629 7329.58978901
0.21300001 225911.07542140 8702.09503663
0.21400001 222469.24835843 7892.09695863
0.21500001 219082.38013235 7808.09639706
0.21600001 215747.48490895 7724.83906238
0.21700001 212465.72614135 6947.62957330
0.21800001 209236.16482602 9622.77167532
0.21900001 206057.23330603 8159.86682473
0.22000001 202928.37349349 14126.85938870
0.22100001 199851.12706530 8651.55569973
0.22200001 196822.59279518 7242.08764434
0.22300001 193842.26650565 8467.03060133
0.22400001 190909.38448513 7087.51123415
0.22500001 188025.69667412 8923.69998613
0.22600001 185186.96419105 9458.42464333
0.22700001 182394.95888130 8733.07104422
0.22800001 179647.54264790 6170.89338178
0.22900001 176944.24360882 6715.03436251
0.23000001 174285.47358634 10266.28630712
0.23100001 171670.85883998 6571.56078718
0.23200001 169097.17347981 9455.91438820
0.23300001 166566.48648982 6431.13234753
0.23400001 164075.89761209 5783.67566437
0.23500001 161625.86669699 5721.55595168
0.23600001 159215.93371923 7358.16472485
0.23700001 156845.51097211 6159.32350720
0.23800001 154513.25686769 6093.23057278
0.23900001 152219.15720846 7671.84588618
0.24000001 149961.66165888 5963.22575793
0.24100001 147742.11902928 5899.34309189
0.24200001 145558.47911488 7958.41022205
0.24300001 143409.59530117 6298.54972357
0.24400001 141295.57215247 6750.39627890
0.24500001 139215.37529353 6678.16186874
0.24600001 137168.94561406 6606.74257803
0.24700001 135156.13490365 5530.58930189
0.24800001 133175.24840803 5968.91491602
0.24900001 131225.12150329 5413.03651809
0.25000001 129307.44033125 5842.11043055
0.25100001 127419.69521233 6261.40411895
0.25200001 125563.74998525 6194.68789859
0.25300001 123735.69745998 6128.62938514
0.25400001 121937.75968330 6063.35538712
0.25500001 120166.58475644 4614.39707296
0.25600001 118424.88565327 7304.44729269
0.25700001 116709.52277858 5419.99049428
0.25800001 115021.17540374 6702.85931379
0.25900001 113360.10513991 5305.25317156
0.26000001 111723.93186831 4811.39135356
0.26100001 110112.86655077 4760.17944622
0.26200001 108527.86567858 4709.56695396
0.26300001 106965.97418782 5083.02333392
0.26400001 105428.87762243 6286.19712569
0.26500001 103915.21635278 4975.46079440
0.26600001 102424.19796639 5332.71611946
0.26700001 100956.19009448 4058.43903384
0.26800001 99510.49750392  4818.29851715
0.26900001 98085.77489215  5164.21629245
0.27000001 96683.18457215  5109.22313049
0.27100001 95301.01646688  4277.10982144
0.27200001 93940.15364204  4231.53442106
0.27300001 92599.25569300  5328.16142473
0.27400001 91276.73978877  4894.71540281
0.27500001 89975.61991939  4842.48809323
0.27600001 88691.29942130  3685.12366536
0.27700001 87427.73806076  6562.32632941
0.27800001 86181.32843667  3967.35764235
0.27900001 84953.42503338  4638.45722635
0.28000001 83742.62955955  5647.60320479
0.28100001 82549.59591315  3491.84807239
0.28200001 81373.89460198  4836.05078508
0.28300001 80214.86531710  3417.15342424
0.28400001 79071.57962566  3380.31018899
0.28500001 77945.18214300  4012.61816664
0.28600001 76834.25918411  5292.34402310
0.28700001 75739.74566195  3599.15288421
0.28800001 74659.00807095  3560.11496837
0.28900001 73595.11546232  3841.66520897
0.29000001 72545.18052163  4433.23619152
0.29100001 71510.56962732  3445.37940773
0.29200001 70489.73608184  3407.82645219
0.29300001 69483.52328829  3677.06822647
0.29400001 68490.56900950  3636.84938656
0.29500001 67512.52357668  3297.31180757
0.29600001 66546.72681806  2964.65682008
0.29700001 65594.92299260  4104.93047520
0.29800001 64656.38731667  3479.80693011
0.29900001 63731.19749313  4301.85603443
0.30000001 62817.73696864  3687.08724592
0.30100001 61918.00917219  3926.84032760
0.30200001 61029.78978403  3051.18448470
0.30300001 60154.66782015  2743.05298246
0.30400001 59291.41383457  4068.87346702
0.30500001 58440.66993053  2950.66956448
0.30600001 57600.53673205  2652.50484209
0.30700001 56773.06228003  3147.49872182
0.30800001 55956.96563005  2852.96602772
0.30900001 55152.47495799  3846.88531045
0.31000001 54359.33185612  3550.20813161
0.31100001 53576.89303996  2758.13858428
0.31200001 52806.56902490  2479.26853310
0.31300001 52046.40902938  2451.38598135
0.31400001 51298.54125604  3393.39866475
0.31500001 50560.06031951  2875.85636714
0.31600002 49833.61848550  2843.50640542
0.31700002 49116.98065599  3280.03212351
0.31800002 48410.74436255  2316.45422743
0.31900002 47715.69226553  3206.49467207
0.32000002 47031.28559250  2491.01215935
0.32100002 46356.44758892  2686.81982947
0.32200002 45693.11044299  2435.21443637
0.32300002 45038.20500722  3283.28530049
0.32400002 44394.59774249  3246.35511364
0.32500002 43760.74421485  2781.87064146
0.32600002 43137.13924668  2539.05213629
0.32700002 42523.53308214  2301.37371938
0.32800002 41920.61855540  3723.80872261
0.32900002 41325.66040813  2045.62028707
0.33000002 40741.93550218  2022.83719347
0.33100002 40166.79165096  2400.36758273
0.33200002 39602.99366566  2373.80355273
0.33300002 39047.89647995  3130.07953006
0.33400002 38503.12735118  3482.60803384
0.33500002 37967.47327932  2487.62896707
0.33600002 37440.99676972  2271.17097161
0.33700002 36924.02939927  2620.86773088
0.33800002 36417.39710745  2037.00720367
0.33900002 35919.19752873  2381.44290893
0.34000002 35430.56729849  1812.27360314
0.34100002 34951.39772672  2330.90882478
0.34200002 34482.21366338  2306.34297010
0.34300002 34021.46663704  2282.16009009
0.34400002 33570.83445116  2084.74891815
0.34500002 33128.76939095  1891.32153410
0.34600002 32696.53309906  2212.41101693
0.34700002 32272.22230714  1853.07109264
0.34800002 31857.93754345  2168.09204220
0.34900002 31452.17414016  1816.36314262
0.35000002 31055.80192116  1798.59685345
0.35100002 30669.08561797  2105.12613652
0.35200002 30289.66142070  2405.75647228
0.35300002 29920.40843069  1747.65113921
0.35400002 29559.36479163  2518.45799953
0.35500002 29207.65314507  2495.50200291
0.35600002 28864.05850975  2163.93856897
0.35700002 28529.26371743  1685.22368761
0.35800002 28203.38343674  2278.12840501
0.35900002 27886.60894884  1656.46465002
0.36000002 27578.16117972  1792.02899834
0.36100002 27277.64744039  1629.29395879
0.36200002 26987.05883810  1910.27905034
0.36300002 26703.50162956  2041.21576125
0.36400002 26428.96983932  2604.57510104
0.36500002 26161.88638766  2298.06020915
0.36600002 25904.05757073  1568.62028050
0.36700002 25653.82754153  1699.30961684
0.36800002 25412.62748827  1547.24789791
0.36900002 25179.25711979  1956.42837088
0.37000002 24953.28733131  1527.51555634
0.37100002 24735.34652099  1518.25564138
0.37200002 24525.85284811  1921.11014460
0.37300002 24324.07278064  2319.78693098
0.37400002 24129.84500605  1764.49499965
0.37500002 23943.54565836  2025.62405865
0.37600002 23765.02485695  1478.30344126
0.37700002 23593.84367973  1471.54810001
0.37800002 23430.15121917  1598.40499189
0.37900002 23274.71915596  1857.32267663
0.38000002 23125.79197332  1321.63907389
0.38100002 22983.57179372  1712.04634402
0.38200002 22849.69880646  1706.52983620
0.38300002 22722.08734220  1701.42998079
0.38400002 22601.90026917  1957.88970357
0.38500002 22488.15956063  1692.68385032
0.38600002 22382.17190038  1299.28514037
0.38700002 22282.00974509  1296.81302860
0.38800002 22188.62434002  1424.17692074
0.38900002 22101.81869108  1422.25210015
0.39000002 22022.05841704  1937.39068102
0.39100002 21947.76670949  1419.58161802
0.39200002 21880.56332324  1289.85926901
0.39300002 21818.84390469  1418.44310945
0.39400002 21764.43887343  1676.40598365
0.39500002 21714.78163332  1547.82970816
0.39600002 21671.20860980  1806.72874740
0.39700002 21632.81311222  1291.47900399
0.39800002 21601.27355296  1809.97079676
0.39900002 21574.28560439  1682.79435687
0.40000002 21553.11440111  1555.70387118
0.40100002 21536.93706396  1428.54510314
0.40200002 21526.50771925  1691.66068927
0.40300002 21520.77198953  1434.57472879
0.40400002 21520.14892708  1699.55384204
0.40500002 21523.89832019  1704.04711075
0.40600002 21533.45762799  1840.46471067
0.40700002 21546.95332897  1582.40832746
0.40800002 21564.91889700  1455.30862072
0.40900002 21586.94208154  1460.35670101
0.41000002 21613.96886348  1465.75136793
0.41100002 21644.83432156  1337.65082445
0.41200002 21679.00066496  1343.01415483
0.41300002 21718.36476469  1618.45261895
0.41400002 21760.74040926  1490.06677013
0.41500002 21806.75724098  1632.89005958
0.41600002 21855.49647739  1367.06136944
0.41700002 21909.05608676  2335.28639894
0.41800002 21966.25603205  1380.57925703
0.41900002 22024.81111168  1387.56316578
0.42000002 22087.07768111  1534.27892382
0.42100002 22152.92107584  1542.50796760
0.42200002 22221.22934493  1832.91818937
0.42300002 22291.89875001  1701.31779322
0.42400002 22364.99186981  1853.49878904
0.42500002 22441.14055081  1864.18563389
0.42600002 22518.31823095  2307.67736166
0.42700002 22598.97030848  2031.19554758
0.42800002 22680.84452613  1459.51241442
0.42900002 22765.57176340  1615.21739315
0.43000002 22851.92610403  1625.11480190
0.43100002 22938.52384656  1932.34134040
0.43200002 23028.03103370  2093.93896112
0.43300002 23118.23997269  1655.49724290
0.43400002 23210.30401666  1817.36689063
0.43500002 23302.96692673  1981.21834200
0.43600002 23397.59137909  1687.08340634
0.43700002 23492.34406531  1543.44707823
0.43800002 23587.61994262  1863.89381619
0.43900002 23684.64625939  2188.46141808
0.44000002 23781.55181987  2674.35453664
0.44100002 23879.38639465  1583.20339299
0.44200002 23977.48325433  1752.63422153
0.44300002 24076.01755299  1924.15541402
0.44400002 24174.52656170  1936.37966936
0.44500002 24272.54839764  1948.60027771
0.44600002 24370.59467940  2451.07267604
0.44700002 24469.47502710  2137.65343967
0.44800002 24567.02938281  1985.50740881
0.44900002 24664.83996925  1831.36445451
0.45000002 24762.43593093  1842.69675713
0.45100002 24858.58481693  1685.41213046
0.45200002 24954.66749611  2543.50460508
0.45300002 25049.51186641  2217.63339063
0.45400002 25143.81306999  1887.67185569
0.45500002 25237.54011466  2761.99652105
0.45600002 25329.64443590  1736.34720837
0.45700002 25421.07567753  1921.07078000
0.45800002 25510.84665147  2107.70625024
0.45900002 25599.36893833  2296.26350260
0.46000002 25687.07535487  2842.01815196
0.46100002 25772.39157223  2321.83486678
0.46200002 25856.89896790  1975.33789027
0.46300002 25939.67532300  1985.94163685
0.46400002 26020.19880648  2540.87253388
0.46500002 26100.13852418  2189.27972317
0.46600002 26177.14174379  2200.45063927
0.46700002 26252.31877912  2764.36929846
0.46800002 26326.29038399  1852.05461629
0.46900002 26397.45348955  2047.12261514
0.47000002 26466.71748070  2056.86104650
0.47100002 26534.09836463  3005.78280521
0.47200002 26599.35056141  2453.39121532
0.47300002 26662.18546689  2085.24962420
0.47400002 26722.18398926  2665.53797927
0.47500002 26780.29507971  2485.74710712
0.47600002 26836.63700117  2688.22605582
0.47700002 26889.33756525  2313.55871377
