# SAXS profile: number of points = 501, q_min = 0, q_max = 0.5, delta_q = 0.001
#    q    intensity    error
0.00000000 1646666.22097351 345.79990640
0.00100000 1646585.39176268 740.96344389
0.00200000 1646342.82289896 1037.19601127
0.00300000 1645938.76189333 1382.58860924
0.00400000 1645373.07023921 1357.43283453
0.00500000 1644646.23502407 3404.41784125
0.00600000 1643758.16454213 2588.91921455
0.00700000 1642709.46147068 3154.00229710
0.00800000 1641499.87677461 2659.22991265
0.00900000 1640130.67689727 2460.19612051
0.01000000 1638601.24612909 2703.69217286
0.01100000 1636912.83531996 3241.08755505
0.01200000 1635065.37360529 3826.05314199
0.01300000 1633060.02333961 3429.42620027
0.01400000 1630896.79056329 4770.37332387
0.01500000 1628577.04655069 5081.16061150
0.01600000 1626100.20659602 5390.52242584
0.01700000 1623468.57648766 4383.36535315
0.01800000 1620682.03654520 4618.94401200
0.01900000 1617741.31612548 8250.48108452
0.02000000 1614647.42933176 6611.98152221
0.02100000 1611402.52660350 5317.62857888
0.02200000 1608005.15579769 6102.37984350
0.02300000 1604458.40400246 9241.68082772
0.02400000 1600761.94309429 9604.57209651
0.02500000 1596918.05103329 9341.97102520
0.02600000 1592927.04173270 8386.76125832
0.02700000 1588790.93412649 8007.50667475
0.02800000 1584509.38108385 8271.13934857
0.02900000 1580085.10141068 8532.45993938
0.03000000 1575519.35124247 9524.01491603
0.03100000 1570812.47970831 7539.90024953
0.03200000 1565965.93359640 9301.83807399
0.03300000 1560983.14121211 10349.31870334
0.03400000 1555863.07349321 10618.76596655
0.03500000 1550608.19144413 13397.25539274
0.03600000 1545219.93723691 11148.76236239
0.03700000 1539700.24410725 11409.17933648
0.03800000 1534050.35672445 10769.03400259
0.03900000 1528272.57468802 14671.41739644
0.04000000 1522366.56897103 10298.81031633
0.04100000 1516336.45216316 12418.79611903
0.04200000 1510182.79666653 9740.67949040
0.04300000 1503906.72027655 13896.09874038
0.04400000 1497511.45020376 12129.84330998
0.04500000 1490998.92501431 11316.68236669
0.04600000 1484368.56891292 11511.27878704
0.04700000 1477624.64327578 12766.67751165
0.04800000 1470767.86578483 14053.18761144
0.04900000 1463801.75704985 15369.91916445
0.05000000 1456726.04761539 13372.74573983
0.05100000 1449544.89996923 14698.38597040
0.05200000 1442257.12816092 12612.53917353
0.05300000 1434868.41171025 20920.38241800
0.05400000 1427378.67723613 22374.16180907
0.05500000 1419790.72543780 11926.24265003
0.05600000 1412105.23543127 14488.20039160
0.05700000 1404327.54422034 13439.41522552
0.05800000 1396456.53263595 16066.23315815
0.05900000 1388494.75129787 12496.45334534
0.06000000 1380445.97976732 16420.40569647
0.06100000 1372311.53562718 17867.49702884
0.06200000 1364093.51200546 14179.75272011
0.06300000 1355795.26687882 14317.19868765
0.06400000 1347415.25790935 18392.21913061
0.06500000 1338959.71457289 14581.27197378
0.06600000 1330429.93210627 16044.98573192
0.06700000 1321826.36070100 17527.41836316
0.06800000 1313153.43330640 17668.48027218
0.06900000 1304412.83393927 16435.60247713
0.07000000 1295605.90320532 23456.94597599
0.07100000 1286735.24611700 19455.43783254
0.07200000 1277803.62930561 26584.70575311
0.07300000 1268813.44946357 14083.82994895
0.07400000 1259767.07395929 18424.09432008
0.07500000 1250665.70847080 15683.34871934
0.07600000 1241511.28570755 20075.23843103
0.07700000 1232308.44606808 17301.61139404
0.07800000 1223057.34970253 17391.87632838
0.07900000 1213760.71468596 18934.66803721
0.08000000 1204422.04954628 16097.10144732
0.08100000 1195042.33236908 16168.92351557
0.08200000 1185623.35637617 14761.01147955
0.08300000 1176169.06975695 16301.70407190
0.08400000 1166680.11136452 14875.17211812
0.08500000 1157159.64752565 34332.92835385
0.08600000 1147609.09677385 17971.55929927
0.08700000 1138032.52277481 21030.84200844
0.08800000 1128429.26673299 16570.98456021
0.08900000 1118805.02656946 16614.25542492
0.09000000 1109158.36605746 16654.01364868
0.09100000 1099493.62660798 15173.01276004
0.09200000 1089812.28309804 18243.45847626
0.09300000 1080118.81018829 16752.64353326
0.09400000 1070410.21252063 19829.35011887
0.09500000 1060692.34716040 18328.76462043
0.09600000 1050966.08691122 16820.71301172
0.09700000 1041236.22370132 22959.25981199
0.09800000 1031502.02003269 15317.80571769
0.09900000 1021766.50747961 16859.14816617
0.10000000 1012030.84140479 19931.94835881
0.10100000 1002296.62608311 23002.70865047
0.10200000 992567.71787284 15335.17196245
0.10300000 982844.50607648 18398.85001925
0.10400000 973130.31094461 19924.84405396
0.10500000 963427.76082092 18382.20254133
0.10600001 953734.34547592 15307.43696516
0.10700001 944057.02221945 15293.72447964
0.10800001 934394.62198820 16805.08806733
0.10900001 924751.33553863 16784.23752999
0.11000001 915126.33444010 24378.96669699
0.11100001 905522.73985215 18255.33929476
0.11200001 895942.36890271 21260.71341495
0.11300001 886386.51462739 18188.65213649
0.11400001 876857.74919276 15125.79688576
0.11500001 867357.36955793 15092.01894096
0.11600001 857886.73838283 15055.91296762
0.11700001 848448.34337669 18021.04366202
0.11800001 839041.54524356 16474.58151678
0.11900001 829669.09037143 14934.04433010
0.12000001 820332.37709852 20844.64668396
0.12100001 811035.35840238 17810.33730953
0.12200001 801776.13896982 22189.15569135
0.12300001 792558.62355083 19164.06842036
0.12400001 783381.81273078 19094.93258502
0.12500001 774248.15638971 17559.94901435
0.12600001 765160.58434063 14576.30981858
0.12700001 756118.50653280 18872.71881246
0.12800001 747123.23031392 23130.93630066
0.12900001 738177.28303383 15833.90346736
0.13000001 729281.21264342 17196.45180468
0.13100001 720435.47108271 15691.08529982
0.13200001 711641.84719128 19876.15772902
0.13300001 702901.90199777 16953.99467545
0.13400001 694215.92084033 18275.23497772
0.13500001 685585.99624594 13985.95498283
0.13600001 677012.36934419 15303.86533061
0.13700001 668496.78558862 13837.88411419
0.13800001 660038.03385730 16514.15238585
0.13900001 651639.44794162 16421.31486253
0.14000001 643300.81092238 19048.13790973
0.14100001 635024.28095379 14878.61960447
0.14200001 626809.23410835 16134.07044692
0.14300001 618657.51433537 13363.00293994
0.14400001 610566.97878067 21247.73186382
0.14500001 602543.05733738 17154.40165160
0.14600001 594583.81411747 13110.57371977
0.14700001 586691.14397560 18234.36161500
0.14800001 578862.16878063 12937.57008262
0.14900001 571102.01496140 19274.69391434
0.15000001 563408.34309575 15313.43948787
0.15100001 555782.78789756 19007.77224298
0.15200001 548226.78976472 20130.88867008
0.15300001 540739.85513167 16238.41861588
0.15400001 533320.72650392 13639.67822401
0.15500001 525973.02309136 14769.32318541
0.15600001 518694.07324563 15879.81980186
0.15700001 511488.42962047 14546.73162497
0.15800001 504350.86603609 14434.52246724
0.15900001 497286.63735471 13128.36784583
0.16000001 490291.54390624 17760.81201636
0.16100001 483370.73773445 22317.22801467
0.16200001 476521.31340367 13981.13599526
0.16300001 469743.92678366 16177.98160216
0.16400001 463039.07090384 12606.23930049
0.16500001 456405.91104211 14773.86003793
0.16600001 449846.07118133 11268.64461512
0.16700001 443358.17106224 11172.62643828
0.16800001 436943.66338090 12184.17462867
0.16900001 430602.45475761 14274.47204923
0.17000001 424332.77087566 11972.54969560
0.17100001 418136.15610208 12945.49600422
0.17200001 412012.57708978 13899.24494449
0.17300001 405960.90394526 12714.69611201
0.17400001 399983.15965041 10499.55843668
0.17500001 394076.32642365 11443.97705981
0.17600001 388240.65265763 11338.56879638
0.17700001 382479.96247508 11233.43702846
0.17800001 376789.29252852 12140.15157867
0.17900001 371170.27833552 14030.23718378
0.18000001 365623.56794430 9926.68033857
0.18100001 360148.37729512 13764.87163042
0.18200001 354742.32518085 9737.67728620
0.18300001 349407.53388592 10608.01322989
0.18400001 344143.10261690 13369.96016827
0.18500001 338948.86931317 15130.67824094
0.18600001 333824.39532394 10300.15220433
0.18700001 328768.75571812 11125.53521912
0.18800001 323780.65597378 11015.01843664
0.18900001 318864.20370802 9996.39325855
0.19000001 314011.60166508 9896.07609405
0.19100001 309229.64237606 10686.97694548
0.19200001 304513.03997270 9697.21821614
0.19300001 299864.83793464 13089.10079434
0.19400001 295281.27459746 10364.37322813
0.19500001 290763.90327192 9403.30507617
0.19600001 286311.06856830 10998.64021881
0.19700001 281924.51209254 10047.79008581
0.19800001 277600.70991173 13258.21053195
0.19900001 273341.35163463 11480.33731121
0.20000001 269143.19300747 12172.00147903
0.20100001 265009.37427708 10438.71974613
0.20200001 260936.10874153 8740.05537538
0.20300001 256924.66289069 8648.08456165
0.20400001 252974.59091405 9334.76284594
0.20500001 249083.42671135 10005.68172393
0.20600001 245251.78269229 8376.57503380
0.20700001 241479.42731762 8287.57433729
0.20800001 237764.60383618 9690.09688740
0.20900001 234109.92390789 8111.90924687
0.21000001 230509.22343472 8754.74071991
0.21100001 226966.15227072 10104.53357677
0.21200001 223477.81098778 10710.17459791
0.21300001 220044.57257845 7769.77422507
0.21400001 216666.06957441 11179.96971859
0.21500001 213342.10606537 8985.96993231
0.21600001 210069.57543553 10940.42400593
0.21700001 206850.23049550 7440.40314270
0.21800001 203682.31101468 9367.34992646
0.21900001 200564.89695438 7942.37029492
0.22000001 197497.25187138 9820.55131364
0.22100001 194480.51716169 11009.54259709
0.22200001 191512.47064244 7687.31093508
0.22300001 188592.06936694 9505.04074554
0.22400001 185718.75256645 10028.81311281
0.22500001 182894.32602929 8060.15332925
0.22600001 180114.31254853 7359.47115875
0.22700001 177380.64955993 8492.98590256
0.22800001 174691.21268036 6600.70778328
0.22900001 172045.81062951 8309.81304638
0.23000001 169444.09884976 7632.60979365
0.23100001 166886.44599507 5807.64859529
0.23200001 164368.97851603 6319.16567790
0.23300001 161894.41890949 8523.74155871
0.23400001 159459.62520057 6183.04725958
0.23500001 157064.73370595 6116.10101978
0.23600001 154709.54049636 6049.91686725
0.23700001 152393.85465157 7072.59912890
0.23800001 150115.60266996 5381.64461026
0.23900001 147875.06430458 6920.55333679
0.24000001 145670.99801497 6845.80887552
0.24100001 143504.13659711 5730.12044536
0.24200001 141373.00461327 6183.65551428
0.24300001 139276.03444827 5607.25341213
0.24400001 137213.80703042 7563.91147035
0.24500001 135184.73095292 5487.14848895
0.24600001 133189.20255891 6415.05824472
0.24700001 131226.57734478 7322.44336223
0.24800001 129295.81828381 5795.03884962
0.24900001 127395.34899574 5732.79097601
0.25000001 125526.80955373 7561.73536525
0.25100001 123687.66865090 5610.47291543
0.25200001 121880.11915242 5550.42088879
0.25300001 120100.27631425 5490.98489287
0.25400001 118349.70498361 5432.25171575
0.25500001 116625.74702269 4478.42889755
0.25600001 114930.62844100 4873.63352963
0.25700001 113261.45735241 4821.54046762
0.25800001 111619.13368519 4336.40354884
0.25900001 110003.40652370 6435.19958612
0.26000001 108412.52857516 6366.52604181
0.26100001 106845.89900774 4618.94843266
0.26200001 105305.30133538 7062.30036822
0.26300001 103787.14090932 4931.96516938
0.26400001 102293.60124112 5286.02209426
0.26500001 100822.89059314 4022.83352502
0.26600001 99374.50952113  4775.93915358
0.26700001 97948.72246134  3937.53882927
0.26800001 96544.79807676  4285.14106541
0.26900001 95161.52919635  5010.25474928
0.27000001 93799.85757894  5338.15014743
0.27100001 92458.27995865  5281.21720116
0.27200001 91137.67037649  4478.50533424
0.27300001 89836.43777363  4430.73332068
0.27400001 88553.34972938  3652.82584921
0.27500001 87291.26919595  4698.01633046
0.27600001 86045.51405821  5005.26778965
0.27700001 84820.20359090  4951.80371999
0.27800001 83611.50813739  4198.97013739
0.27900001 82421.01495543  4500.18762955
0.28000001 81247.30734900  4794.40383358
0.28100001 80090.84408427  4065.41143813
0.28200001 78951.33631663  4021.78126232
0.28300001 77828.13101484  3315.47853815
0.28400001 76720.21894853  3935.74741834
0.28500001 75628.83833574  3568.92504999
0.28600001 74552.52143878  4493.28067979
0.28700001 73492.28544366  3492.35356958
0.28800001 72445.49782060  4710.76871876
0.28900001 71415.02400794  4349.17516795
0.29000001 70398.28892423  3072.88545700
0.29100001 69396.37476431  3039.56135855
0.29200001 68408.07028748  3607.84179774
0.29300001 67433.74203654  3271.21098104
0.29400001 66472.25934376  4117.95666128
0.29500001 65525.51171064  3782.13271497
0.29600001 64590.66408240  2877.51422109
0.29700001 63669.16203714  3984.41634890
0.29800001 62760.91572978  3659.27536485
0.29900001 61865.49566113  3897.52641116
0.30000001 60981.46027646  3028.64436801
0.30100001 60110.67631573  2995.31514261
0.30200001 59251.13509066  3770.14990430
0.30300001 58404.35645363  3195.88653644
0.30400001 57569.04770844  3950.67608602
0.30500001 56745.84067616  3125.56105241
0.30600001 55933.01234054  3090.85840827
0.30700001 55132.43066403  2547.11841727
0.30800001 54342.78939980  3274.42493031
0.30900001 53564.47743984  3487.04764643
0.31000001 52797.27730359  3201.89103367
0.31100001 52040.27409770  3166.13042601
0.31200001 51295.17208467  2649.13928774
0.31300001 50559.76102421  2857.63782839
0.31400001 49836.39428058  2590.24671537
0.31500001 49122.23133320  2794.07265052
0.31600002 48419.50093460  3223.28632983
0.31700002 47726.33108142  3187.16454052
0.31800002 47043.29864320  2476.12414133
0.31900002 46371.05252526  2670.97275192
0.32000002 45708.97157032  2861.15321092
0.32100002 45056.50009841  2176.22905780
0.32200002 44414.84913629  2582.27945106
0.32300002 43781.37725463  2553.33004239
0.32400002 43159.15263384  2524.81054863
0.32500002 42546.17189039  2288.55869435
0.32600002 41943.17619155  2468.77546754
0.32700002 41349.83825871  2848.17699413
0.32800002 40766.93962966  2414.21827919
0.32900002 40191.62993041  2785.28008607
0.33000002 39627.31107663  2951.24413218
0.33100002 39071.27906671  1945.74978966
0.33200002 38526.01869155  2309.24966973
0.33300002 37989.50439960  2474.25653871
0.33400002 37462.99848597  2447.27049199
0.33500002 36945.20330906  2420.64983544
0.33600002 36436.23830744  2210.22232040
0.33700002 35936.65548206  2004.18737115
0.33800002 35447.00818113  1982.72849651
0.33900002 34965.58758798  1961.56955658
0.34000002 34493.41708341  1764.33836737
0.34100002 34030.46170846  2094.91532199
0.34200002 33577.17868449  1900.30051765
0.34300002 33132.18245543  1880.58276523
0.34400002 32696.87262299  2199.68220989
0.34500002 32269.87509612  2344.72923553
0.34600002 31852.55569348  1989.51072284
0.34700002 31442.78033386  1641.31321116
0.34800002 31042.79432703  1950.10843198
0.34900002 30651.17683362  2091.94291797
0.35000002 30268.55178480  1912.36719234
0.35100002 29895.40555845  1736.32523707
0.35200002 29529.26471773  1563.57464086
0.35300002 29173.13376511  2633.45890971
0.35400002 28825.04556752  1688.42712409
0.35500002 28485.78977656  1825.36949534
0.35600002 28154.46519695  1809.20601925
0.35700002 27831.89879968  1644.03033997
0.35800002 27517.87098831  1481.83742291
0.35900002 27212.72184700  1763.38445921
0.36000002 26915.61629807  2186.22103736
0.36100002 26626.28415425  2313.29167689
0.36200002 26346.65138878  2008.40533050
0.36300002 26073.85644838  1423.63262951
0.36400002 25809.90717878  1837.02023046
0.36500002 25553.05147320  1543.14885156
0.36600002 25305.37730508  1393.06108663
0.36700002 25065.03973289  1521.94928467
0.36800002 24833.52969907  1374.53593395
0.36900002 24609.65389636  1502.41944154
0.37000002 24393.00002310  1493.21756715
0.37100002 24184.04155196  1754.31045728
0.37200002 23983.44022144  1610.24825275
0.37300002 23790.28811004  1334.63522620
0.37400002 23604.53657167  1460.53076956
0.37500002 23426.54571970  1717.63441353
0.37600002 23256.16485154  1578.16342159
0.37700002 23092.85465664  1440.30141316
0.37800002 22937.10454909  1695.16679200
0.37900002 22789.06349627  1428.87434891
0.38000002 22647.54726090  1812.03034219
0.38100002 22512.48578068  1676.95514525
0.38200002 22385.75022423  1286.06141131
0.38300002 22264.92857883  1923.68992034
0.38400002 22151.53564751  1663.02661752
0.38500002 22044.30982540  2169.82151891
0.38600002 21944.72553011  1401.28051511
0.38700002 21850.76283453  1271.71445722
0.38800002 21763.55591266  1650.87461197
0.38900002 21682.58998264  1522.11788889
0.39000002 21608.59454482  1520.81295611
0.39100002 21540.06317725  1646.52250728
0.39200002 21478.16970703  1266.13816421
0.39300002 21421.90164390  1392.63789185
0.39400002 21372.60199400  1899.49009221
0.39500002 21328.11504476  1646.95712178
0.39600002 21289.51494801  1901.68601283
0.39700002 21255.91771591  1649.67185209
0.39800002 21229.06024203  1397.61524725
0.39900002 21206.63022420  1526.87744848
0.40000002 21189.90372510  1656.94460029
0.40100002 21177.96807302  1532.43784237
0.40200002 21171.77717030  1407.81738964
0.40300002 21170.15626271  1667.78498940
0.40400002 21173.45798476  1414.91639687
0.40500002 21181.13658170  1676.91066263
0.40600002 21194.34269702  1552.69761955
0.40700002 21211.54880222  1557.77621784
0.40800002 21233.07151204  1563.17879878
0.40900002 21258.55726073  1307.40133348
0.41000002 21288.93497317  1574.95548394
0.41100002 21322.99084051  1317.76089638
0.41200002 21360.29455706  1455.59734156
0.41300002 21402.66042708  1594.92633060
0.41400002 21448.09131064  1869.20124629
0.41500002 21497.02363926  1341.41433865
0.41600002 21548.74849082  1752.23656656
0.41700002 21605.03248569  1490.09916114
0.41800002 21664.92799499  1633.96894681
0.41900002 21726.05801723  1779.36423593
0.42000002 21790.80819872  1376.08960295
0.42100002 21859.08003506  1798.78378132
0.42200002 21929.87194984  1948.03061761
0.42300002 22002.81952273  1679.25526555
0.42400002 22078.25002316  1688.98620681
0.42500002 22156.52803788  1982.12309219
0.42600002 22235.82724860  1566.62528304
0.42700002 22318.61639603  1576.14076458
0.42800002 22402.54647869  1441.60393422
0.42900002 22489.35703425  2030.78903643
0.43000002 22577.66050406  1605.61040283
0.43100002 22666.12168312  1762.51770560
0.43200002 22757.50188126  1478.09981723
0.43300002 22849.54233399  1785.00633172
0.43400002 22943.39869420  1646.76251931
0.43500002 23037.91221363  2410.68724827
0.43600002 23134.07217700  1668.08235337
0.43700002 23230.66210215  1678.88002968
0.43800002 23327.44676618  2611.39115199
0.43900002 23426.14780806  2937.63907434
0.44000002 23524.64755742  1711.77106064
0.44100002 23624.13541770  2192.79235339
0.44200002 23723.80068736  1891.73595646
0.44300002 23823.92453591  1745.34079421
0.44400002 23923.90236861  2075.99672642
0.44500002 24023.44054834  2089.31872350
0.44600002 24123.06613049  1779.19682677
0.44700002 24223.28865740  1953.36608991
0.44800002 24322.39663406  1801.92484003
0.44900002 24421.67436257  2472.69464640
0.45000002 24520.84687336  2156.48598048
0.45100002 24618.28873159  2169.85607164
0.45200002 24715.83561899  2687.10577585
0.45300002 24812.21675684  1689.71204122
0.45400002 24908.00562362  2039.96575725
0.45500002 25003.12585886  2223.27805674
0.45600002 25096.72483617  3612.79919501
0.45700002 25189.60247652  1730.52577215
0.45800002 25280.83523348  2436.81982365
0.45900002 25370.91872145  2275.77151717
0.46000002 25460.19950226  2816.91660644
0.46100002 25547.09457504  2655.62060694
0.46200002 25633.04053850  2314.27917470
0.46300002 25717.31168353  2863.87996481
0.46400002 25799.40411386  1799.50852223
0.46500002 25880.95260396  1989.98654004
0.46600002 25959.54354787  2182.15933406
0.46700002 26036.46482026  1827.75991701
0.46800002 26112.05539707  2020.68150267
0.46900002 26184.80749952  2584.44062270
0.47000002 26255.88507946  2040.47620566
0.47100002 26324.92132190  2050.18496972
0.47200002 26391.91777042  2621.50931639
0.47300002 26456.48520552  2069.16180600
0.47400002 26518.35097997  2078.37585656
0.47500002 26578.25319167  2846.53105175
0.47600002 26636.48172561  2096.42439358
0.47700002 26691.07691124  2487.87539682
