# SAXS profile: number of points = 501, q_min = 0, q_max = 0.5, delta_q = 0.001
#    q    intensity    error
0.00000000 1682732.95097189 277.65093691
0.00100000 1682651.15369846 605.75442972
0.00200000 1682405.69753866 1059.91562301
0.00300000 1681996.81188708 1513.79718462
0.00400000 1681424.35896871 1513.28198057
0.00500000 1680688.86093434 1966.40604513
0.00600000 1679790.19323472 1763.77977470
0.00700000 1678728.93908601 2820.26473488
0.00800000 1677504.91665216 4076.33711957
0.00900000 1676119.35723141 3519.85080065
0.01000000 1674571.61956489 3039.34762075
0.01100000 1672863.03215029 4516.73038346
0.01200000 1670993.44381083 4235.96856578
0.01300000 1668964.06992340 3504.82470142
0.01400000 1666774.93125838 4875.31689006
0.01500000 1664427.32901829 5991.93865128
0.01600000 1661920.79024739 4661.68802504
0.01700000 1659257.54365613 5823.99423949
0.01800000 1656437.53309505 6137.10133627
0.01900000 1653461.43229030 4960.38452070
0.02000000 1650330.27808379 5718.39467224
0.02100000 1647046.29026033 5435.25300429
0.02200000 1643607.90143112 6237.49226932
0.02300000 1640018.34233889 7084.87956140
0.02400000 1636277.16902699 6136.03966364
0.02500000 1632386.84500945 7002.93988492
0.02600000 1628347.41325736 7913.76879039
0.02700000 1624161.06865348 7503.62448085
0.02800000 1619827.52390241 7046.25005211
0.02900000 1615349.41363397 7269.07269511
0.03000000 1610728.06339273 8238.87442296
0.03100000 1605963.73581025 8479.48891525
0.03200000 1601058.00730844 11095.33250168
0.03300000 1596014.42630768 10581.57613424
0.03400000 1590831.32067141 9187.05130077
0.03500000 1585512.00673998 10274.11827811
0.03600000 1580057.47775105 9646.25134746
0.03700000 1574469.84647072 10769.37424792
0.03800000 1568750.19699039 12848.06470795
0.03900000 1562901.04484323 11252.88804399
0.04000000 1556921.84870786 9575.06981325
0.04100000 1550816.84409445 14655.21985620
0.04200000 1544586.70449660 10958.84317682
0.04300000 1538232.50994073 15228.50255529
0.04400000 1531757.56833202 11373.30047306
0.04500000 1525163.35288534 14733.07867344
0.04600000 1518449.91717545 14987.10137923
0.04700000 1511621.27828883 11972.04108084
0.04800000 1504678.06036593 11059.38425826
0.04900000 1497624.12410352 16848.27218041
0.05000000 1490458.86529577 12542.21193551
0.05100000 1483186.68348816 13882.62800416
0.05200000 1475806.19885918 12905.92581046
0.05300000 1468323.30123603 11893.41929446
0.05400000 1460737.91556624 13256.19720195
0.05500000 1453052.70363562 15867.33626390
0.05600000 1445268.55667964 18535.57010436
0.05700000 1437390.75751400 13755.83019151
0.05800000 1429417.98248337 15180.41968278
0.05900000 1421353.21185727 15350.61540502
0.06000000 1413199.81182345 14223.85677052
0.06100000 1404959.32815916 16985.95907122
0.06200000 1396634.17757378 18477.47103300
0.06300000 1388226.98889053 13326.97971646
0.06400000 1379736.89486430 14797.67888946
0.06500000 1371169.99103201 21719.33367393
0.06600000 1362527.08758378 15062.73765800
0.06700000 1353809.93486837 23475.06536923
0.06800000 1345021.31981636 16705.16557407
0.06900000 1336164.14684193 15432.69661857
0.07000000 1327239.05298094 16962.11589141
0.07100000 1318249.24098926 14237.09246952
0.07200000 1309197.07426391 18636.42122520
0.07300000 1300085.16800181 23089.51366559
0.07400000 1290915.82515054 15975.08408490
0.07500000 1281690.60890034 23378.03780213
0.07600000 1272410.71669058 14696.34446675
0.07700000 1263081.57840171 19211.47170829
0.07800000 1253703.14724457 14856.38299156
0.07900000 1244277.79578832 14931.33424980
0.08000000 1234809.21044974 18003.51913292
0.08100000 1225299.00334248 15071.17844823
0.08200000 1215748.27976328 22704.10018997
0.08300000 1206160.83968296 21276.67821056
0.08400000 1196538.20270296 18307.03536066
0.08500000 1186882.60286881 18372.94355493
0.08600000 1177196.32891615 15362.41281364
0.08700000 1167483.07265293 15410.77728267
0.08800000 1157742.03909332 17001.44264254
0.08900000 1147978.95285939 17047.48825068
0.09000000 1138193.07759282 26411.77160625
0.09100000 1128387.74813771 17128.92682147
0.09200000 1118565.12480054 15603.98422415
0.09300000 1108729.43253459 17196.39430671
0.09400000 1098877.78991253 18790.81109062
0.09500000 1089016.08120292 15681.83230641
0.09600000 1079145.42557691 20412.03668431
0.09700000 1069270.38795033 18861.93053020
0.09800000 1059390.14905194 17305.13889841
0.09900000 1049507.86057278 20465.40424350
0.10000000 1039624.70146834 22050.44095511
0.10100000 1029742.25077093 22057.08004890
0.10200000 1019864.39418345 18908.28675754
0.10300000 1009991.76819793 18907.04679007
0.10400000 1000127.46120781 20477.61073160
0.10500000 990274.42111177 17319.90044014
0.10600001 980429.37736359 17309.48147183
0.10700001 970600.51611837 18868.47492125
0.10800001 960785.62052912 17279.73019843
0.10900001 950989.30113290 17260.45662794
0.11000001 941211.05448581 18805.39775379
0.11100001 931453.82448477 20342.95248436
0.11200001 921718.97204813 26559.33342990
0.11300001 912008.31726020 17154.87725533
0.11400001 902324.35691076 20234.62465646
0.11500001 892668.56555628 18638.92052648
0.11600001 883041.60235906 15497.38085120
0.11700001 873447.14506023 23190.02279348
0.11800001 863883.44217403 16962.35218599
0.11900001 854353.81132070 18454.04319374
0.12000001 844859.71998048 19934.46603195
0.12100001 835405.20388911 19874.29073676
0.12200001 825988.04735944 16763.42821091
0.12300001 816612.58875662 16707.89435314
0.12400001 807277.38255078 18163.74196322
0.12500001 797985.03271571 15081.91782899
0.12600001 788738.64343643 18030.56623862
0.12700001 779537.62434290 17960.54771128
0.12800001 770383.23175242 17888.29948435
0.12900001 761277.98897087 14844.92148460
0.13000001 752222.55476399 14781.17389782
0.13100001 743217.17074067 27959.83128122
0.13200001 734264.40054555 16113.43302956
0.13300001 725364.95815425 16037.81998086
0.13400001 716519.03085341 15960.46216473
0.13500001 707729.53545406 20212.75648556
0.13600001 698996.38686579 15800.81407012
0.13700001 690320.99571282 17147.57434207
0.13800001 681702.25549304 15634.84196701
0.13900001 673144.61015468 15549.64122787
0.14000001 664646.35059350 16868.72517360
0.14100001 656210.44057805 23761.38117399
0.14200001 647835.96312581 16675.29847735
0.14300001 639525.53439490 17957.87785284
0.14400001 631275.50776521 16476.29152986
0.14500001 623092.88233152 17739.45519679
0.14600001 614974.65094479 14916.21086233
0.14700001 606923.56295757 16168.44447996
0.14800001 598936.63322543 14724.85782255
0.14900001 591017.98434362 18617.06738519
0.15000001 583166.40412976 15850.46361212
0.15100001 575383.34006653 15742.48892703
0.15200001 567670.05885439 20844.84554474
0.15300001 560026.24191352 14230.26747853
0.15400001 552450.13462744 17982.25273072
0.15500001 544946.19311015 14026.91567263
0.15600001 537510.86208960 18987.57209943
0.15700001 530149.53687677 15077.45354038
0.15800001 522856.37818363 17458.17529155
0.15900001 515637.05729367 14850.34795100
0.16000001 508487.50036130 18419.96057005
0.16100001 501412.29133319 17058.04695637
0.16200001 494409.11218971 12088.30336368
0.16300001 487478.05032166 17987.94090604
0.16400001 480620.45545440 14274.42820089
0.16500001 473834.88837957 15338.03606098
0.16600001 467123.34286410 11701.44029121
0.16700001 460483.72822660 12764.60954912
0.16800001 453917.73548333 13808.17816538
0.16900001 447426.23614298 13691.24347245
0.17000001 441006.53684520 12443.00002464
0.17100001 434660.80740221 16821.37404079
0.17200001 428387.94254774 17786.66821452
0.17300001 422188.35136275 16528.67473641
0.17400001 416062.52433475 14198.13431345
0.17500001 410008.71371074 11906.65360848
0.17600001 404026.34201254 17163.03981929
0.17700001 398119.86328831 13818.74110740
0.17800001 392283.83557254 12639.38577913
0.17900001 386519.62907763 11479.63352583
0.18000001 380829.24891746 16543.22335439
0.18100001 375210.90758320 16389.21321740
0.18200001 369661.66082633 12176.65568282
0.18300001 364184.94527167 10051.50496432
0.18400001 358778.99749648 15929.78824138
0.18500001 353444.14715827 10847.20138873
0.18600001 348179.78638702 14649.66520433
0.18700001 342984.54915190 12573.81416596
0.18800001 337857.66498673 9578.26525491
0.18900001 332803.42104419 15175.83671663
0.19000001 327813.81290512 11270.23942018
0.19100001 322895.38886619 14879.02022199
0.19200001 318043.09442688 11969.55242433
0.19300001 313260.11807464 11850.63082674
0.19400001 308542.50608430 9927.35560237
0.19500001 303891.99624975 11614.75264552
0.19600001 299306.28797992 10613.40147332
0.19700001 294788.08918148 10506.24799493
0.19800001 290333.59801024 9533.10414119
0.19900001 285943.88077555 11151.81187728
0.20000001 281616.39086406 9339.80804442
0.20100001 277354.20028451 9244.21593239
0.20200001 273153.23442543 14971.52948646
0.20300001 269014.96273710 8231.85824883
0.20400001 264938.51942694 9776.23182894
0.20500001 260922.31136417 12093.74970336
0.20600001 256966.38549124 7978.80664665
0.20700001 253070.40715167 9474.95649163
0.20800001 249233.11284480 10157.49599414
0.20900001 245456.47082953 12371.00671460
0.21000001 241734.74774541 10711.26717895
0.21100001 238071.89684998 10598.96134881
0.21200001 234464.18568215 10487.58352136
0.21300001 230912.57513689 8153.52341355
0.21400001 227416.66587832 10267.86294983
0.21500001 223976.22435623 8708.19601467
0.21600001 220588.01068110 8616.16810456
0.21700001 217253.92883418 8525.04457051
0.21800001 213972.31994678 12652.18387666
0.21900001 210741.51112682 7649.91721560
0.22000001 207561.70180242 6880.67074009
0.22100001 204433.89005237 9530.70840489
0.22200001 201355.48918539 9429.47800442
0.22300001 198325.77329567 9329.24481697
0.22400001 195343.67590730 7911.41924835
0.22500001 192411.86077798 9131.86734434
0.22600001 189525.06987138 8389.32761457
0.22700001 186685.81710065 7023.12077144
0.22800001 183891.31236115 6316.66687832
0.22900001 181141.97520376 9999.03750411
0.23000001 178437.24158868 6182.85071345
0.23100001 175777.36278017 7952.16826825
0.23200001 173158.89078353 8472.66492674
0.23300001 170583.89265567 8382.49288155
0.23400001 168049.46317947 8293.24140014
0.23500001 165556.16571382 7032.82625215
0.23600001 163103.61124121 5798.33365387
0.23700001 160690.90670858 6883.99876899
0.23800001 158316.81713162 7378.35561141
0.23900001 155981.47191256 6176.86657990
0.24000001 153683.30094444 8889.04254708
0.24100001 151423.41336186 7695.33823105
0.24200001 149200.01234543 5982.17477796
0.24300001 147011.88590688 5918.69880658
0.24400001 144859.09054554 8517.71492700
0.24500001 142740.46397366 6847.26038072
0.24600001 140656.16782042 6253.57351712
0.24700001 138606.05349377 8249.83269422
0.24800001 136588.42770068 5611.73581756
0.24900001 134601.78000901 6057.08038695
0.25000001 132648.17068033 5993.04463486
0.25100001 130724.95572460 6917.96498423
0.25200001 128834.10759088 6356.03099870
0.25300001 126971.61070892 6772.66603563
0.25400001 125139.40807428 4786.58258530
0.25500001 123334.54573255 7577.67484832
0.25600001 121559.67781590 4686.12580152
0.25700001 119811.65810851 4636.71138818
0.25800001 118090.92475568 5964.18243698
0.25900001 116398.00464677 5901.37911481
0.26000001 114730.46186796 6288.37691252
0.26100001 113088.45981613 5777.68968538
0.26200001 111472.85425679 6156.64603192
0.26300001 109880.86944179 4351.28263579
0.26400001 108314.06399434 5597.12952175
0.26500001 106771.07078097 5112.19911090
0.26600001 105251.10910155 4636.83783088
0.26700001 103754.59573542 5839.30892431
0.26800001 102280.96008421 4127.03693469
0.26900001 100828.43966532 4900.26239962
0.27000001 99398.37334979  4444.59847466
0.27100001 97989.43659667  4797.56304281
0.27200001 96602.04387536  5142.61004907
0.27300001 95234.89723433  4305.56990772
0.27400001 93886.66201374  5809.23748702
0.27500001 92560.14386820  4598.38816499
0.27600001 91250.84148710  4170.61990755
0.27700001 89962.64930544  4876.87544965
0.27800001 88691.82831018  4825.27914758
0.27900001 87440.06290165  4406.97937882
0.28000001 86205.53654579  4360.27624485
0.28100001 84989.16509477  3954.54603902
0.28200001 83790.44669834  5335.35694604
0.28300001 82608.89353768  3519.13903127
0.28400001 81443.17861431  3829.86565561
0.28500001 80294.88644116  3444.65079137
0.28600001 79162.27942291  4430.31717760
0.28700001 78046.37725004  3371.60365679
0.28800001 76944.52866865  4002.65457080
0.28900001 75860.06429115  3629.90424815
0.29000001 74789.66022209  3591.02570554
0.29100001 73734.70061472  3875.49604776
0.29200001 72694.16139020  3194.90854433
0.29300001 71668.35725990  3792.68964572
0.29400001 70655.93843534  3126.52542376
0.29500001 69658.84992862  3402.13839156
0.29600001 68674.36831500  3671.33190391
0.29700001 67703.77099953  3631.63044833
0.29800001 66747.08289276  3891.68885229
0.29900001 65803.92096269  3553.41190020
0.30000001 64872.68470163  3221.90203823
0.30100001 63955.33788240  3186.89463755
0.30200001 63049.81931716  3438.73730835
0.30300001 62157.56620506  3684.70069907
0.30400001 61277.50076352  3083.79037192
0.30500001 60410.00396745  3327.38317605
0.30600001 59553.47815313  3565.16913842
0.30700001 58709.76783352  3526.10882302
0.30800001 57877.56852717  4023.93814236
0.30900001 57057.29780729  3714.43026311
0.31000001 56248.65027545  2886.39962554
0.31100001 55450.70492958  4152.14898171
0.31200001 54665.14162493  3849.79278121
0.31300001 53889.79090312  2792.03019888
0.31400001 53127.05721926  2510.25357246
0.31500001 52373.64694766  2482.51098286
0.31600002 51632.71084698  3191.67617212
0.31700002 50901.62510007  4370.41373802
0.31800002 50181.24291487  2881.40710460
0.31900002 49471.99820837  2612.12162908
0.32000002 48773.52425454  3052.97889527
0.32100002 48084.92374464  3019.25250489
0.32200002 47407.78879091  2526.59822325
0.32300002 46739.30133515  3180.14221343
0.32400002 46082.51832270  2471.17516207
0.32500002 45435.21720614  3332.67333988
0.32600002 44798.26836542  2856.56171759
0.32700002 44171.67280121  2173.24640473
0.32800002 43555.75898217  3439.16289209
0.32900002 42947.97192462  2763.70212422
0.33000002 42351.34012211  2523.29296396
0.33100002 41763.57763848  2287.80889137
0.33200002 41187.00525731  3497.39471704
0.33300002 40619.45538053  2442.04177312
0.33400002 40062.11851855  2415.74586107
0.33500002 39514.23786497  2190.66945098
0.33600002 38975.47290895  1970.21024885
0.33700002 38446.31127136  1949.22807377
0.33800002 37927.43338448  2121.47108683
0.33900002 37417.21733980  2289.93380964
0.34000002 36916.53474641  2454.76509422
0.34100002 36425.45754155  2242.35127245
0.34200002 35944.35520322  2958.93946046
0.34300002 35471.63616195  2196.40381517
0.34400002 35009.14438251  1992.89563836
0.34500002 34555.19104440  1793.41450014
0.34600002 34111.46426842  2663.25269889
0.34700002 33675.32820251  2109.42265851
0.34800002 33249.34912287  1914.66385992
0.34900002 32831.91887264  2068.41098694
0.35000002 32423.96497347  2048.54620405
0.35100002 32025.60376112  2705.52313388
0.35200002 31634.55948742  2010.06000503
0.35300002 31253.83476468  1825.53657507
0.35400002 30881.08133166  2466.62648819
0.35500002 30517.69545881  1792.60951616
0.35600002 30162.63608349  1776.73016265
0.35700002 29816.27732237  1761.24758485
0.35800002 29478.95269890  2222.41834924
0.35900002 29150.61055304  2046.37295775
0.36000002 28830.61382129  1873.41337484
0.36100002 28518.48332678  1548.55371799
0.36200002 28216.53382674  1690.02937360
0.36300002 27921.26003971  1981.85113149
0.36400002 27635.20505156  1664.33030307
0.36500002 27356.53868298  2102.62366277
0.36600002 27087.21102950  1491.15103781
0.36700002 26825.27489205  1924.98181744
0.36800002 26572.51470948  2059.10426238
0.36900002 26327.48264429  2045.64549836
0.37000002 26089.84990526  2177.85032400
0.37100002 25860.13608827  1442.99566208
0.37200002 25638.99572179  1434.50187859
0.37300002 25425.39192802  2139.54683209
0.37400002 25219.43885469  1418.59350278
0.37500002 25021.27386857  1411.19991304
0.37600002 24831.00147028  1544.61251963
0.37700002 24648.02760333  1677.05187758
0.37800002 24472.40732836  1530.38206478
0.37900002 24305.02869881  1939.54138205
0.38000002 24144.12639057  1931.77164402
0.38100002 23989.89088664  2199.39330068
0.38200002 23844.00062490  1506.82169087
0.38300002 23704.45832964  1638.45223736
0.38400002 23572.23381123  2041.94485063
0.38500002 23446.26636651  1629.04666432
0.38600002 23328.21117971  1354.20272314
0.38700002 23215.82721679  1621.39344963
0.38800002 23110.18674726  1618.17535270
0.38900002 23011.06216505  1615.37664052
0.39000002 22919.03062908  1613.04145209
0.39100002 22832.38451571  1611.05312775
0.39200002 22752.92537292  1609.54201713
0.39300002 22678.73879230  1340.31352612
0.39400002 22611.92715214  1875.65944613
0.39500002 22549.77352043  1607.34793269
0.39600002 22493.65064349  1607.39635114
0.39700002 22442.74149840  1875.76442331
0.39800002 22398.75725683  1608.67882240
0.39900002 22359.04634574  1744.00569760
0.40000002 22325.24518146  1477.14991742
0.40100002 22296.33694634  1344.46918156
0.40200002 22273.18543069  2019.62118462
0.40300002 22254.75052912  2022.95691894
0.40400002 22241.47653937  2026.75464568
0.40500002 22232.38837757  1760.13827125
0.40600002 22229.07198145  1899.91887227
0.40700002 22229.70356367  1496.50371481
0.40800002 22234.79705640  2046.15729606
0.40900002 22244.04306500  1778.41132731
0.41000002 22258.15909600  1646.65868794
0.41100002 22276.07647349  1927.32622781
0.41200002 22297.16108693  1519.44011426
0.41300002 22323.56744967  1524.92296474
0.41400002 22353.02646760  1948.06634896
0.41500002 22386.02675027  1536.57694895
0.41600002 22421.72599956  2384.21434714
0.41700002 22462.28509270  1549.22387625
0.41800002 22506.51420276  1697.44138160
0.41900002 22551.96935395  2131.16120493
0.42000002 22601.18457667  1855.44433574
0.42100002 22653.99186464  1577.39752828
0.42200002 22709.25248923  2449.53363582
0.42300002 22766.80498777  1592.76575242
0.42400002 22826.82530655  1600.73120047
0.42500002 22889.98397600  1901.47105899
0.42600002 22954.13966715  1617.23398688
0.42700002 23021.65308723  2216.98529736
0.42800002 23090.51225028  1783.04944046
0.42900002 23162.22803862  2091.54929100
0.43000002 23235.66866845  1952.84186578
0.43100002 23309.21816976  2114.61237257
0.43200002 23385.70013143  1822.68155462
0.43300002 23463.00738696  1680.18603860
0.43400002 23542.21377681  2457.80723477
0.43500002 23621.97686290  1853.85283205
0.43600002 23703.63423232  1709.15062732
0.43700002 23785.62156718  1875.25849322
0.43800002 23868.03368958  1728.88110224
0.43900002 23952.30425798  1580.85215594
0.44000002 24036.46207126  2067.01565377
0.44100002 24121.60336775  1919.11485489
0.44200002 24207.00399329  2734.54433569
0.44300002 24292.92625184  2426.86344757
0.44400002 24378.87801550  1790.01920312
0.44500002 24464.38042190  2291.33397890
0.44600002 24549.97456139  2304.50622129
0.44700002 24636.41293947  2152.23713639
0.44800002 24721.55845546  1997.99644906
0.44900002 24807.06411607  2511.71536079
0.45000002 24892.54801252  2525.97142928
0.45100002 24976.49907742  1862.74738947
0.45200002 25060.44840251  2043.42905958
0.45300002 25143.23508717  2054.70526870
0.45400002 25225.69978432  2926.81195619
0.45500002 25307.44196371  1731.02911236
0.45600002 25387.72781887  2436.46035425
0.45700002 25467.48270799  2274.50098845
0.45800002 25545.58064786  1934.69464206
0.45900002 25622.53709203  2121.54617177
0.46000002 25698.76595318  2665.60462483
0.46100002 25772.65387479  3214.88099671
0.46200002 25845.84596771  2333.49231379
0.46300002 25917.42061295  2164.62307219
0.46400002 25986.86733576  2356.35930735
0.46500002 26055.80504298  3096.21146000
0.46600002 26121.90658730  2378.79153612
0.46700002 26186.28994674  2389.76093380
0.46800002 26249.57288961  2585.32055643
0.46900002 26310.03716489  2040.34347884
0.47000002 26368.90754641  2235.55608774
0.47100002 26425.82475863  2619.32787422
0.47200002 26480.86429999  3006.10785781
0.47300002 26533.63632967  2452.50412219
0.47400002 26583.54301680  2083.48528269
0.47500002 26631.72446635  2281.80626043
0.47600002 26678.35110976  1908.83611238
0.47700002 26721.33242459  1915.91962565
