# SAXS profile: number of points = 501, q_min = 0, q_max = 0.5, delta_q = 0.001
#    q    intensity    error
0.00000000 1664650.74656090 399.51617917
0.00100000 1664569.38837478 649.18207688
0.00200000 1664325.23722525 898.73565656
0.00300000 1663918.53114025 1098.18626967
0.00400000 1663349.14092470 1372.26309341
0.00500000 1662617.54556662 1945.26260531
0.00600000 1661723.67361311 1744.80992833
0.00700000 1660668.10478690 2590.64235114
0.00800000 1659450.59700572 2688.31008065
0.00900000 1658072.44504750 2487.10877389
0.01000000 1656532.99765758 2733.27956416
0.01100000 1654833.52995737 3276.57053198
0.01200000 1652973.97501688 3223.29939260
0.01300000 1650955.45679616 3467.00661218
0.01400000 1648778.06315571 4080.72588721
0.01500000 1646443.03649825 6717.48788803
0.01600000 1643949.95457383 4611.27982872
0.01700000 1641301.02722470 5317.81556676
0.01800000 1638496.12700112 6537.59984091
0.01900000 1635536.07073745 5397.26927697
0.02000000 1632421.80749884 6170.55471147
0.02100000 1629155.49533033 8064.32006751
0.02200000 1625735.68922209 5608.78838264
0.02300000 1622165.50933706 7591.73492926
0.02400000 1618444.60391315 7889.91780384
0.02500000 1614575.33290426 6296.84408591
0.02600000 1610557.88230046 7827.31166599
0.02700000 1606394.30103559 8770.91328537
0.02800000 1602084.31905838 9059.78723975
0.02900000 1597630.60469648 7908.27185635
0.03000000 1593034.48695455 8148.37177531
0.03100000 1588296.33816920 8386.20505141
0.03200000 1583417.42307393 8621.70826574
0.03300000 1578401.38531461 8854.83217983
0.03400000 1573246.97187678 9085.50168180
0.03500000 1567956.86632076 8466.96746912
0.03600000 1562532.53512215 11273.67276190
0.03700000 1556975.77535012 11537.19102891
0.03800000 1551287.76970832 11797.54403462
0.03900000 1545471.11517247 11127.39254455
0.04000000 1539525.20412438 9468.08044411
0.04100000 1533454.33084856 11592.91527874
0.04200000 1527259.00322546 10835.90313059
0.04300000 1520940.33380271 17064.95133739
0.04400000 1514501.69025106 11245.17557236
0.04500000 1507944.70106572 13526.26459706
0.04600000 1501269.13455136 14817.52704684
0.04700000 1494479.17337012 12912.30065844
0.04800000 1487575.40359127 13120.41567014
0.04900000 1480561.54750637 14435.47576012
0.05000000 1473437.15094112 16907.69209438
0.05100000 1466206.65442422 11436.41243726
0.05200000 1458868.51198662 22036.20990047
0.05300000 1451428.55555026 14107.88621763
0.05400000 1443887.03487639 13103.27545256
0.05500000 1436246.31495920 14477.36353015
0.05600000 1428507.29486505 19541.98070566
0.05700000 1420675.33939145 17303.82644151
0.05800000 1412749.11336528 16253.67930819
0.05900000 1404731.68814300 15171.10294052
0.06000000 1396626.29461041 21724.52302761
0.06100000 1388434.47020891 16786.17352927
0.06200000 1380158.40202774 14346.74725970
0.06300000 1371801.21913337 14486.22155136
0.06400000 1363361.69347276 19939.16569953
0.06500000 1354846.03958624 14754.27406127
0.06600000 1346255.15248766 14882.85140710
0.06700000 1337590.23963813 20465.13162421
0.06800000 1328854.97924595 13753.64967899
0.06900000 1320051.41267648 18018.70262665
0.07000000 1311180.93100513 13964.07756912
0.07100000 1302245.99863148 16877.10893275
0.07200000 1293249.50188763 21241.62406361
0.07300000 1284193.91651406 14254.55314121
0.07400000 1275081.30313289 15779.13186575
0.07500000 1265913.30423985 17317.69481372
0.07600000 1256691.62702496 14514.78897260
0.07700000 1247420.87385835 18973.27238101
0.07800000 1238101.42428702 16138.65282242
0.07900000 1228735.71149445 16219.31215247
0.08000000 1219327.46962582 19259.27828621
0.08100000 1209877.75004214 20834.09583322
0.08200000 1200388.28154665 14944.83480655
0.08300000 1190862.80744407 25508.28253261
0.08400000 1181302.16657367 18073.92399694
0.08500000 1171709.51531824 15115.05345718
0.08600000 1162086.46061811 19714.79773003
0.08700000 1152436.92495280 18254.60174845
0.08800000 1142760.10903836 15255.84817213
0.08900000 1133061.86746227 16825.96952213
0.09000000 1123340.95509181 18400.32570877
0.09100000 1113601.44440109 19978.01085115
0.09200000 1103844.93501732 18478.36508043
0.09300000 1094075.79735098 21597.05725460
0.09400000 1084291.05958304 21631.60765531
0.09500000 1074496.85488896 24756.40870026
0.09600000 1064694.01748893 17040.42855094
0.09700000 1054887.08724058 23260.26136718
0.09800000 1045075.52846682 18623.24679290
0.09900000 1035262.17657151 27952.08008181
0.10000000 1025448.51458226 18642.65487182
0.10100000 1015635.92509589 21754.92253873
0.10200000 1005828.40483718 18648.05950282
0.10300000 996026.23149043 17091.81093639
0.10400000 986232.76713877 23299.75021979
0.10500000 976450.88888683 23288.35479565
0.10600001 966677.67911928 27927.31946384
0.10700001 956920.65912423 20152.75002950
0.10800001 947178.08273962 21680.90733425
0.10900001 937454.35070257 18561.59701752
0.11000001 927748.86247566 16991.72121603
0.11100001 918064.62085163 21592.88089888
0.11200001 908403.25779326 15397.43594446
0.11300001 898766.31757913 23053.35713128
0.11400001 889156.29969635 19939.33095952
0.11500001 879574.71711327 21426.44111781
0.11600001 870022.58539020 18322.67651116
0.11700001 860502.61854153 19800.16618513
0.11800001 851014.12254499 16709.66308317
0.11900001 841559.84665276 19692.50133922
0.12000001 832141.13608108 16613.69856445
0.12100001 822762.34165860 18067.86187397
0.12200001 813420.95199342 16508.37899844
0.12300001 804121.47709814 19443.65823231
0.12400001 794862.53083138 14903.67315531
0.12500001 785646.70144100 17818.46802830
0.12600001 776476.94771932 17750.26386132
0.12700001 767352.82908117 14733.17501268
0.12800001 758275.37881432 16139.89219872
0.12900001 749247.24207457 20454.45067270
0.13000001 740269.17505358 17455.54797053
0.13100001 731341.19487882 18824.72324353
0.13200001 722465.77838521 15854.51225405
0.13300001 713643.88812425 24385.21280680
0.13400001 704875.65395029 15701.10593198
0.13500001 696164.10414618 21302.62259125
0.13600001 687508.92393672 19779.63267428
0.13700001 678911.56782747 15458.81712837
0.13800001 670371.23146415 15374.96491865
0.13900001 661891.41967074 18069.63660914
0.14000001 653471.47662159 16585.10685882
0.14100001 645113.86604636 15115.01859434
0.14200001 636817.57683578 16391.68520087
0.14300001 628585.32230321 20366.16540325
0.14400001 620413.90048597 14843.40326929
0.14500001 612309.67065040 14750.54066178
0.14600001 604269.90192046 13324.15196590
0.14700001 596297.17985887 18532.91722433
0.14800001 588388.57102604 14465.53370114
0.14900001 580548.64778897 15674.81422985
0.15000001 572775.41463377 15568.03650429
0.15100001 565070.69774824 16748.69627154
0.15200001 557435.70626646 12793.15006249
0.15300001 549870.08692704 12701.99960741
0.15400001 542372.41049058 12610.15913899
0.15500001 534946.69481391 15021.30389927
0.15600001 527589.55857459 16152.15509806
0.15700001 520306.30501109 22196.26801937
0.15800001 513091.23964382 15908.39463601
0.15900001 505949.81854625 15785.63508373
0.16000001 498878.02103827 16867.06668747
0.16100001 491880.76484869 11952.70315004
0.16200001 484955.12169873 17785.72992790
0.16300001 478101.73786764 18818.08529083
0.16400001 471321.49479986 13998.24905641
0.16500001 464613.19224838 13882.64283980
0.16600001 457978.66202462 12619.60262790
0.16700001 451416.20090445 12513.25767988
0.16800001 444927.32281202 14662.58061558
0.16900001 438512.50137126 12300.27624426
0.17000001 432169.42772368 13302.17561346
0.17100001 425899.86967267 10988.21715643
0.17200001 419703.53502567 16336.96087235
0.17300001 413579.82472913 17271.09429631
0.17400001 407530.04549415 12837.19703932
0.17500001 401551.86643444 11661.06675198
0.17600001 395645.14420063 14706.13070449
0.17700001 389813.92043690 11448.83538397
0.17800001 384052.95062757 15467.73331710
0.17900001 378363.90170427 13280.57357711
0.18000001 372748.09520565 11132.12238914
0.18100001 367203.95272483 15037.00257438
0.18200001 361729.25590278 12908.30910665
0.18300001 356326.57507086 10818.07533019
0.18400001 350994.37529908 12662.12268708
0.18500001 345733.06453501 12539.73884309
0.18600001 340541.84512231 13373.07888974
0.18700001 335419.77713759 10404.72197838
0.18800001 330365.74842338 9365.86941030
0.18900001 325383.95543845 12055.47611859
0.19000001 320466.64351187 10099.50674747
0.19100001 315620.19448134 9089.86203056
0.19200001 310839.61314796 10798.56867101
0.19300001 306128.05321320 11580.82480028
0.19400001 301481.49368937 11463.83433925
0.19500001 296901.59281765 10474.68868959
0.19600001 292386.66071074 12960.03934845
0.19700001 287938.57531498 12827.66413649
0.19800001 283553.78986365 13542.52964389
0.19900001 279233.76913819 9214.71481705
0.20000001 274975.68001972 9119.56885886
0.20100001 270782.22098393 8204.70168359
0.20200001 266649.88966293 8119.48952399
0.20300001 262579.85965767 11248.92171941
0.20400001 258571.55178147 8746.18315240
0.20500001 254622.87857288 10228.20151573
0.20600001 250734.22466060 8563.82784808
0.20700001 246905.18851242 9244.13069487
0.20800001 243134.42201681 8384.49093959
0.20900001 239424.04739735 10558.60098934
0.21000001 235768.25811318 8208.27229423
0.21100001 232170.72121551 8121.33221204
0.21200001 228628.31253970 10957.01239645
0.21300001 225141.43449496 7949.74442785
0.21400001 221709.84927449 7150.14297714
0.21500001 218333.43313293 7781.40392474
0.21600001 215008.83459044 6998.53789680
0.21700001 211738.00878490 11078.13314340
0.21800001 208519.22958439 9589.79982200
0.21900001 205351.09929740 8131.90391667
0.22000001 202233.36431634 10726.45815051
0.22100001 199167.20833228 9948.40252659
0.22200001 196150.11010706 8529.58794132
0.22300001 193181.29849057 10385.42709793
0.22400001 190259.84119523 7063.39693838
0.22500001 187388.06357348 9528.68348330
0.22600001 184560.95012179 8169.59084347
0.22700001 181780.90624043 9325.36093112
0.22800001 179045.33815752 7995.26995352
0.22900001 176354.48997899 7909.49924961
0.23000001 173707.86080396 6620.87542766
0.23100001 171105.54390787 5954.47320960
0.23200001 168544.14859729 5890.61827206
0.23300001 166026.01931274 8158.51897488
0.23400001 163548.14185126 7494.59395479
0.23500001 161110.71482242 6273.65153191
0.23600001 158713.49643983 5642.26506530
0.23700001 156356.01201725 6698.29187163
0.23800001 154036.67281753 6626.65797804
0.23900001 151755.52446919 6555.83896716
0.24000001 149511.22862920 7026.28052178
0.24100001 147304.68231656 5347.16022102
0.24200001 145134.25912640 7935.21599309
0.24300001 142998.52165047 5233.74613998
0.24400001 140897.84576713 6731.39489994
0.24500001 138830.91359915 6147.43314497
0.24600001 136797.85427238 5068.36074055
0.24700001 134798.36106329 6017.39912252
0.24800001 132831.01231376 7937.98167139
0.24900001 130894.39601003 6381.10210736
0.25000001 128990.18821573 5342.12889768
0.25100001 127115.93265406 6246.47722613
0.25200001 125273.60630713 5704.96030113
0.25300001 123459.28160366 5644.55862197
0.25400001 121674.69923636 7911.89769217
0.25500001 119917.14498886 6907.22787815
0.25600001 118189.03347299 6378.66243833
0.25700001 116487.20544382 4958.86057036
0.25800001 114812.50030821 6244.65218722
0.25900001 113165.02325459 6620.15417362
0.26000001 111542.60228471 4366.89308607
0.26100001 109944.93403650 4752.91972329
0.26200001 108373.59879847 4702.87254238
0.26300001 106825.27991084 5076.33754156
0.26400001 105301.68589448 5022.89065484
0.26500001 103801.45640966 4970.01396807
0.26600001 102323.92165086 4507.88058164
0.26700001 100869.30909979 4460.44105946
0.26800001 99437.06433065  4413.51430917
0.26900001 98025.63711933  5161.05003856
0.27000001 96636.18337761  5106.73935225
0.27100001 95267.35211595  5830.36222541
0.27200001 93919.75550619  4615.21700398
0.27300001 92591.81021044  3805.52357974
0.27400001 91282.37425658  5648.09717442
0.27500001 89994.27525388  4470.91580620
0.27600001 88722.87709859  4423.72286149
0.27700001 87472.26038813  4012.35277389
0.27800001 86238.55405268  4330.90038950
0.27900001 85023.39010892  3928.08080894
0.28000001 83825.22041089  4593.20316980
0.28100001 82644.66194833  3845.45630246
0.28200001 81481.34461317  4496.54821530
0.28300001 80334.69877618  4106.70999581
0.28400001 79203.62332072  4063.14606866
0.28500001 78089.29207168  4690.04310381
0.28600001 76990.34915189  3645.87815665
0.28700001 75907.77468407  3935.05922588
0.28800001 74838.87275660  4217.54487383
0.28900001 73786.74131048  3530.69573883
0.29000001 72748.36905255  4445.65304323
0.29100001 71725.16685832  3769.87494852
0.29200001 70715.80953556  4040.34796907
0.29300001 69720.67433826  3997.08644902
0.29400001 68738.66910247  4258.36075247
0.29500001 67771.64767892  4513.59194908
0.29600001 66816.78863568  4167.36330448
0.29700001 65875.27272646  3533.54979632
0.29800001 64947.50530787  3495.47490114
0.29900001 64032.68381532  4610.35345295
0.30000001 63129.35767200  2850.29063382
0.30100001 62239.66434783  3383.34831412
0.30200001 61361.39304060  3346.65053487
0.30300001 60495.97511223  3034.47825529
0.30400001 59642.34618828  3820.09245421
0.30500001 58800.96838614  2698.96457670
0.30600001 57970.10469815  3203.42813728
0.30700001 57151.76088275  3432.53492113
0.30800001 56344.49770341  3133.88111063
0.30900001 55548.74452995  2583.01674293
0.31000001 54764.30209108  3321.18125755
0.31100001 53990.17232187  3032.08822115
0.31200001 53228.05370254  3498.68013552
0.31300001 52475.92037971  2718.77756360
0.31400001 51735.89806935  3177.87768937
0.31500001 51005.03884039  2901.16674660
0.31600002 50286.05560559  2869.32246871
0.31700002 49576.67689124  2364.80759968
0.31800002 48877.64765952  3274.31377175
0.31900002 48189.42798059  3469.63897889
0.32000002 47511.51900327  2516.44772316
0.32100002 46843.29522409  2262.53126645
0.32200002 46186.16930556  2685.26401057
0.32300002 45537.24013930  3983.59795601
0.32400002 44899.81365913  3283.29902929
0.32500002 44271.51368010  2381.36483361
0.32600002 43653.29206278  3211.79111560
0.32700002 43045.04448812  2117.81628910
0.32800002 42447.21358361  2723.20111641
0.32900002 41857.11495932  2486.31274632
0.33000002 41278.08415514  2459.34837042
0.33100002 40707.38387608  2432.67337563
0.33200002 40147.55089686  3409.12944585
0.33300002 39596.54224816  2182.16554663
0.33400002 39055.53676177  2747.55714130
0.33500002 38523.63361715  2524.06859413
0.33600002 38000.36419191  2113.01035096
0.33700002 37486.57477822  2280.68331751
0.33800002 36982.87814038  2444.75327525
0.33900002 36487.35420338  2233.02618300
0.34000002 36001.19890247  1841.46141107
0.34100002 35524.37276259  2915.84065444
0.34200002 35057.24675287  2164.43451703
0.34300002 34598.30771194  2142.32731498
0.34400002 34149.23692754  1767.22309470
0.34500002 33708.48101715  2449.25834670
0.34600002 33277.59962647  2251.72888537
0.34700002 32854.21901029  1714.99031356
0.34800002 32440.69001763  1868.09722314
0.34900002 32035.41036379  1850.04503613
0.35000002 31639.27594653  2665.29273197
0.35100002 31252.67296507  2805.24005821
0.35200002 30873.11739299  2125.15113640
0.35300002 30503.59518324  1781.71507904
0.35400002 30141.99362466  1765.56736019
0.35500002 29789.38275973  1590.75311471
0.35600002 29444.80355195  1734.44623538
0.35700002 29108.90041795  2188.40723708
0.35800002 28781.58941873  1549.88866361
0.35900002 28463.15816048  1844.41273616
0.36000002 28152.86018783  1676.92519652
0.36100002 27850.29897028  1814.72556686
0.36200002 27557.48499286  1500.50512894
0.36300002 27271.44038952  1637.92278738
0.36400002 26994.27128628  1625.73006522
0.36500002 26724.25524538  1760.59401896
0.36600002 26463.48084890  2039.54056563
0.36700002 26209.93650623  2025.50398915
0.36800002 25965.30807015  1437.17986976
0.36900002 25728.27303511  1713.50306531
0.37000002 25498.47399098  1418.99014481
0.37100002 25276.42569867  2538.76431743
0.37200002 25062.70013104  1542.48395263
0.37300002 24856.40343862  1952.22201855
0.37400002 24657.61312008  1525.68988408
0.37500002 24466.47695652  1793.88217543
0.37600002 24282.96506953  1510.52191371
0.37700002 24106.61938985  1640.21446099
0.37800002 23937.73388984  1496.94625971
0.37900002 23776.62886459  1626.32149138
0.38000002 23622.02336442  2024.99804884
0.38100002 23473.85183076  1479.55695098
0.38200002 23334.02226841  1608.64757139
0.38300002 23200.25323919  1336.33464988
0.38400002 23073.72527801  1599.00923752
0.38500002 22953.33317048  1727.69746959
0.38600002 22840.71177891  1723.67439605
0.38700002 22733.70386311  1455.41179027
0.38800002 22633.39104778  1452.72427322
0.38900002 22539.39686959  1977.83216901
0.39000002 22452.26465952  1975.23807700
0.39100002 22370.67142482  1710.01420473
0.39200002 22295.85559922  1577.20889981
0.39300002 22226.43892798  1444.94086316
0.39400002 22164.18907531  1707.19674441
0.39500002 22106.61758867  1444.44646168
0.39600002 22054.91725764  2101.39261587
0.39700002 22008.33103057  1839.45639469
0.39800002 21968.50157085  1709.25934570
0.39900002 21932.97598379  1579.17434565
0.40000002 21903.23870788  1580.97584484
0.40100002 21878.32602254  2242.74730683
0.40200002 21859.12876375  1321.38439638
0.40300002 21844.57382065  2250.42810163
0.40400002 21834.95221169  1724.41543262
0.40500002 21829.59628439  1861.19146739
0.40600002 21829.91463263  1865.80289205
0.40700002 21834.12281520  1603.49805552
0.40800002 21842.78077790  1608.06559706
0.40900002 21855.44037794  1881.75350570
0.41000002 21872.94054172  2292.39364209
0.41100002 21894.19177628  1623.67333906
0.41200002 21918.57523684  1629.42696031
0.41300002 21948.24467146  2180.77769389
0.41400002 21980.91738997  2326.13069301
0.41500002 22017.07019512  1786.02481886
0.41600002 22056.01861593  1517.56443278
0.41700002 22099.55738913  1662.77077675
0.41800002 22146.89189211  1670.31866565
0.41900002 22195.33276881  1677.96723683
0.42000002 22247.53628761  1685.91837976
0.42100002 22303.22371309  1552.97354073
0.42200002 22361.45994696  1560.71817095
0.42300002 22421.87437243  1996.44378872
0.42400002 22484.80704186  1576.74716853
0.42500002 22550.76950079  2017.39193514
0.42600002 22617.72448577  2172.99798294
0.42700002 22688.12471877  1602.23544356
0.42800002 22759.77306347  1611.05061264
0.42900002 22834.21046961  1767.36797410
0.43000002 22910.37997810  2073.61859008
0.43100002 22986.66753300  1936.39696474
0.43200002 23065.96663361  2097.38844539
0.43300002 23145.92676699  2260.19985590
0.43400002 23227.84570266  2728.11060706
0.43500002 23310.33643413  1676.94568254
0.43600002 23394.70339678  1686.87516836
0.43700002 23479.37614606  1696.85459449
0.43800002 23564.44892081  2017.23474546
0.43900002 23651.45270854  1560.99595274
0.44000002 23738.26953238  2041.37258518
0.44100002 23826.18603105  2211.54669221
0.44200002 23914.35624479  1906.93085733
0.44300002 24002.97201581  1598.59801201
0.44400002 24091.63990514  1768.92874387
0.44500002 24179.79588685  1941.15410579
0.44600002 24268.19720618  2440.77404968
0.44700002 24357.33829614  2127.85717439
0.44800002 24445.28419390  2140.30695903
0.44900002 24533.58068249  1987.22012946
0.45000002 24621.85531187  1832.23544987
0.45100002 24708.46267604  1842.75723371
0.45200002 24795.25185744  1853.32118792
0.45300002 24880.84597180  1863.82426008
0.45400002 24966.12485691  2555.90715336
0.45500002 25050.74308033  1884.81799869
0.45600002 25133.89289121  1895.22128328
0.45700002 25216.49581161  1905.61067880
0.45800002 25297.46910508  2090.07699652
0.45900002 25377.37266322  2451.45431545
0.46000002 25456.55256892  2112.38483228
0.46100002 25533.48458005  2300.31173484
0.46200002 25609.59381552  2667.87956218
0.46300002 25684.14715794  1787.61672692
0.46400002 25756.59050717  2335.47895493
0.46500002 25828.59345571  2527.58627537
0.46600002 25897.73579291  2358.37742176
0.46700002 25965.24676460  2734.14061390
0.46800002 26031.58521619  2014.45431743
0.46900002 26095.17164918  2207.65162616
0.47000002 26157.22997452  2217.61006235
0.47100002 26217.32337093  2041.80524090
0.47200002 26275.54159269  2050.67474080
0.47300002 26331.40539665  2246.59561492
0.47400002 26384.60408802  2255.88375645
0.47500002 26436.07560581  2265.04306526
0.47600002 26486.00141877  2842.61023700
0.47700002 26532.25714409  2092.59922014
