# SAXS profile: number of points = 501, q_min = 0, q_max = 0.5, delta_q = 0.001
#    q    intensity    error
0.00000000 1682732.95097188 302.89193117
0.00100000 1682651.13763292 757.19302992
0.00200000 1682405.63047298 908.49906922
0.00300000 1681996.65672612 1311.95743898
0.00400000 1681424.08639710 1513.28173526
0.00500000 1680688.42567235 1815.14357157
0.00600000 1679789.57009215 2292.91285653
0.00700000 1678728.10458457 2215.92119015
0.00800000 1677503.80940584 2264.63023831
0.00900000 1676117.96619179 4022.68329082
0.01000000 1674569.90140754 3868.25663928
0.01100000 1672860.95252372 3613.37981478
0.01200000 1670990.98893585 3584.27582842
0.01300000 1668961.18241545 3855.30050142
0.01400000 1666771.60170448 4500.28352410
0.01500000 1664423.48496887 4793.53985016
0.01600000 1661916.41857539 5509.25317386
0.01700000 1659252.62020286 4927.98050307
0.01800000 1656431.98223492 6609.16390651
0.01900000 1653455.27697790 6944.51247666
0.02000000 1650323.48209679 8837.48264640
0.02100000 1647038.78704194 6522.27389240
0.02200000 1643599.65729630 8505.62861294
0.02300000 1640009.34178338 10036.85762858
0.02400000 1636267.39493596 9204.00451619
0.02500000 1632376.25918980 7002.89447175
0.02600000 1628336.00491028 8573.18945798
0.02700000 1624148.74552525 8867.85255673
0.02800000 1619814.26169987 7046.19236153
0.02900000 1615335.17575549 8722.81034958
0.03000000 1610712.84362611 8238.79657385
0.03100000 1605947.60245731 8479.40373114
0.03200000 1601040.82411346 8717.66768882
0.03300000 1595996.09209889 8953.53848944
0.03400000 1590811.97165843 12527.64485484
0.03500000 1585491.47342610 8561.65435186
0.03600000 1580035.88699184 10523.03949367
0.03700000 1574447.00247843 9871.78316209
0.03800000 1568726.12608391 10094.75308853
0.03900000 1562875.76133511 11252.70600273
0.04000000 1556895.27135162 14362.35954376
0.04100000 1550788.98770004 10746.96818306
0.04200000 1544557.52276401 11954.87578081
0.04300000 1538201.95477622 13197.77338459
0.04400000 1531725.59038900 11373.06303683
0.04500000 1525130.02489667 12628.07719291
0.04600000 1518415.09787056 14986.75771267
0.04700000 1511585.06225121 11971.75424981
0.04800000 1504640.35182001 19906.39278079
0.04900000 1497584.87737242 14601.45323404
0.05000000 1490418.14431227 12541.86926841
0.05100000 1483144.45313780 16195.93818274
0.05200000 1475762.35869694 11732.31129838
0.05300000 1468277.81000696 15460.96606013
0.05400000 1460690.85808483 12050.70014117
0.05500000 1453003.95919591 15866.80397459
0.05600000 1445218.21391013 13592.27793610
0.05700000 1437338.73614450 16256.30186461
0.05800000 1429364.13125742 15179.84778274
0.05900000 1421297.73801679 24304.19245523
0.06000000 1413142.66411861 15516.30717693
0.06100000 1404900.39230688 15678.68911083
0.06200000 1396573.40138654 14517.38118601
0.06300000 1388164.33760041 14659.01609045
0.06400000 1379672.41472148 13451.80667263
0.06500000 1371103.73096431 16288.71308581
0.06600000 1362458.95188069 15061.98441777
0.06700000 1353739.88624034 15188.96223444
0.06800000 1344949.40922001 25056.40866664
0.06900000 1336090.34578729 19640.52900262
0.07000000 1327163.33552622 18374.57724081
0.07100000 1318171.51926444 22778.00491976
0.07200000 1309117.43381100 18635.28754330
0.07300000 1300003.68580045 17316.04990622
0.07400000 1290832.28677278 20330.60946945
0.07500000 1281605.07303170 17532.35822086
0.07600000 1272323.30714986 16164.86837516
0.07700000 1262992.12284791 17732.41023623
0.07800000 1253611.63607335 16340.82844254
0.07900000 1244184.29410657 19409.27589843
0.08000000 1234713.64507641 21002.48008800
0.08100000 1225201.47310501 22604.96823937
0.08200000 1215648.63541679 16648.30884326
0.08300000 1206059.24571696 16715.98193015
0.08400000 1196434.40947319 15254.53943681
0.08500000 1186776.76762658 16840.36312319
0.08600000 1177088.38849817 16897.10461024
0.08700000 1167373.14858130 20032.12417032
0.08800000 1157630.05014407 16999.79808474
0.08900000 1147864.83236870 17045.79356131
0.09000000 1138076.79181394 15534.74893801
0.09100000 1128269.52267080 15570.12014436
0.09200000 1118444.83455745 15602.30617518
0.09300000 1108606.96454346 20320.76661500
0.09400000 1098753.20260235 17222.95726023
0.09500000 1088889.42880306 15680.00851177
0.09600000 1079016.73951284 17269.66372771
0.09700000 1069139.49110408 17287.98638391
0.09800000 1059257.29552234 18875.96589371
0.09900000 1049372.72521150 18888.70994200
0.10000000 1039487.66643545 20472.71055322
0.10100000 1029603.13454928 22054.10017929
0.10200000 1019723.27761856 18905.67045630
0.10300000 1009848.48043475 18904.36444301
0.10400000 999981.99279971 23624.57569131
0.10500000 990127.12718561 18891.62647554
0.10600001 980280.00073273 20453.54317770
0.10700001 970449.20295210 28298.30008973
0.10800001 960632.28396634 20418.24015662
0.10900001 950833.95047963 21964.26528984
0.11000001 941053.66315787 23502.81634363
0.11100001 931294.49246205 15645.74820986
0.11200001 921557.61770106 21868.56329756
0.11300001 911844.99663488 21829.57024719
0.11400001 902159.04368703 17118.46865997
0.11500001 892501.37793690 24847.23953177
0.11600001 882872.64778268 24791.06511719
0.11700001 873276.22404356 18548.38787222
0.11800001 863710.66395958 16958.95968558
0.11900001 854179.21963662 16912.74934542
0.12000001 844683.24398218 16864.10176049
0.12100001 835227.01721138 16813.12064850
0.12200001 825807.84947084 22854.23331080
0.12300001 816430.68759090 19741.29495605
0.12400001 807093.65538578 16646.30742666
0.12500001 797799.65571393 19601.93846454
0.12600001 788551.42866314 16524.09596631
0.12700001 779348.78814714 17956.19692512
0.12800001 770192.75869143 14903.23058306
0.12900001 761085.94465799 19293.52960642
0.13000001 752028.92368748 14777.36904699
0.13100001 743021.89566908 19125.38449605
0.13200001 734067.55536103 17573.57810377
0.13300001 725166.57087331 14575.84876170
0.13400001 716318.94520131 17406.55118903
0.13500001 707528.07976996 17320.28820939
0.13600001 698793.65302687 24412.35741955
0.13700001 690116.70946759 17142.49987150
0.13800001 681496.65694553 15630.12656410
0.13900001 672937.60462031 16958.02843614
0.14000001 664438.00264904 19674.01018628
0.14100001 656000.86741703 19561.94678898
0.14200001 647625.03157343 13891.55758245
0.14300001 639313.30198109 16571.00156896
0.14400001 631062.15734485 19215.84359756
0.14500001 622878.37743452 15005.14082022
0.14600001 614758.96200925 20333.15362766
0.14700001 606706.78101555 14815.78029136
0.14800001 598718.90400467 16057.64176298
0.14900001 590799.20316552 19939.47404760
0.15000001 582946.67579193 18485.23996155
0.15100001 575162.62041956 15736.45003720
0.15200001 567448.50904406 14325.23828678
0.15300001 559803.75795363 14224.61416085
0.15400001 552226.90087970 16691.05886676
0.15500001 544722.23145560 14021.15089937
0.15600001 537286.10277180 13918.39714918
0.15700001 529923.99673839 18838.79897318
0.15800001 522630.32717013 12464.73389133
0.15900001 515410.28356419 16080.80160623
0.16000001 508260.17250994 15956.82886915
0.16100001 501184.51234266 13396.66264730
0.16200001 494180.69577939 16915.80601506
0.16300001 487249.19526691 15582.23000024
0.16400001 480391.28056139 17834.52713280
0.16500001 473605.37342654 14151.32922609
0.16600001 466893.45838761 15204.38619024
0.16700001 460253.62214698 17397.58773858
0.16800001 453687.38655171 11500.97579212
0.16900001 447195.70791949 13684.18930848
0.17000001 440775.88741871 13567.08245538
0.17100001 434430.02434172 11208.29515729
0.17200001 428157.20584364 11110.68001632
0.17300001 421957.62185459 12114.40389554
0.17400001 415831.81578686 15281.81995187
0.17500001 409778.10775719 14063.58532242
0.17600001 403795.93647532 16081.17392963
0.17700001 397889.64210554 11686.01934058
0.17800001 392053.85521860 13684.64046276
0.17900001 386289.94063568 15644.74333470
0.18000001 380599.91936887 14466.60361854
0.18100001 374981.91070544 10237.00664582
0.18200001 369433.11578925 12169.12740894
0.18300001 363956.98073558 13058.77708568
0.18400001 358551.49511570 10944.78490545
0.18500001 353217.30153672 9854.76317843
0.18600001 347953.53491257 12688.12625002
0.18700001 342758.92875345 10632.38247226
0.18800001 337632.83907075 10529.08058388
0.18900001 332579.35900248 10426.36339735
0.19000001 327590.64961924 12201.11432156
0.19100001 322673.16839456 12080.88399551
0.19200001 317821.75633556 9200.94028067
0.19300001 313039.76167347 10931.34899417
0.19400001 308323.17802998 9018.45338353
0.19500001 303673.70741019 9820.80816173
0.19600001 299089.17663075 8838.08558709
0.19700001 294572.17500478 8748.79401109
0.19800001 290118.88069710 10392.05879769
0.19900001 285730.39366278 12000.67710099
0.20000001 281404.33659490 10181.20937918
0.20100001 277143.43176756 10076.93565533
0.20200001 272943.89111805 9973.37025283
0.20300001 268807.10234513 12338.24658080
0.20400001 264732.12493634 13024.82116250
0.20500001 260717.55660050 8056.17287975
0.20600001 256763.16366104 11161.49525193
0.20700001 252868.89674650 9467.41194170
0.20800001 249033.33403945 8587.91493030
0.20900001 245258.44051367 9270.76948966
0.21000001 241538.51979981 12231.51122087
0.21100001 237877.45692026 8320.95383643
0.21200001 234271.64153206 9730.47309104
0.21300001 230722.01802652 8146.79484166
0.21400001 227228.06996948 8060.91616326
0.21500001 223789.61648169 7975.86230849
0.21600001 220403.50625812 8608.96136146
0.21700001 217071.53748016 10647.35941680
0.21800001 213792.03186574 9832.29601038
0.21900001 210563.45227169 9033.17252956
0.22000001 207385.93019053 9624.78147523
0.22100001 204260.31284876 10882.98998317
0.22200001 201184.20230378 10767.37901643
0.22300001 198156.86132244 8655.49211184
0.22400001 195177.15578003 10539.56691050
0.22500001 192247.82582084 7820.64192421
0.22600001 189363.51087093 10961.30734510
0.22700001 186526.72815731 6379.21440465
0.22800001 183734.71903463 8204.67426649
0.22900001 180988.05575358 8117.31468442
0.23000001 178285.89645589 6795.36726478
0.23100001 175628.68035962 7334.25403867
0.23200001 173012.84416038 9070.19878407
0.23300001 170440.58205157 8375.45059813
0.23400001 167908.90523073 6510.66810825
0.23500001 165418.42277021 6441.39368733
0.23600001 162968.61085307 6952.24126781
0.23700001 160558.79680261 8597.92397544
0.23800001 158187.64159580 6805.23266333
0.23900001 155855.10049787 6732.94065997
0.24000001 153559.93394250 6106.31106205
0.24100001 151303.03644062 7689.22067562
0.24200001 149082.58656791 5977.46659119
0.24300001 146897.43546791 5914.09103169
0.24400001 144747.68101679 6383.37303480
0.24500001 142632.16468309 5789.43983835
0.24600001 140550.86273640 6248.89165287
0.24700001 138503.87735225 6698.04782561
0.24800001 136489.37639643 5607.66629453
0.24900001 134505.90924924 5548.36901901
0.25000001 132555.42593804 7486.06803400
0.25100001 130635.39372634 5431.81992811
0.25200001 128747.80377996 6840.37113845
0.25300001 126888.46423464 6768.23100248
0.25400001 125059.50497929 4783.52629177
0.25500001 123257.87769374 6153.03354558
0.25600001 121486.26156654 7024.94340745
0.25700001 119741.49951859 6024.19512581
0.25800001 118024.04130330 7336.37475453
0.25900001 116334.44319007 4537.04349908
0.26000001 114670.21531813 4938.27305633
0.26100001 113031.56177647 6218.99682320
0.26200001 111419.28697850 4835.04018721
0.26300001 109830.60561299 4349.29218807
0.26400001 108267.10666478 5164.34123228
0.26500001 106727.45124593 4684.26805684
0.26600001 105210.84019767 4213.69434931
0.26700001 103717.70010984 4586.39691589
0.26800001 102247.41173250 4950.81991037
0.26900001 100798.23787332 5307.02747517
0.27000001 99371.53467081  4847.34369063
0.27100001 97965.93778281  5595.81463096
0.27200001 96581.86544401  5537.03860794
0.27300001 95218.11121720  5087.50392310
0.27400001 93873.08083249  4259.49124435
0.27500001 92549.93022621  4597.88075123
0.27600001 91243.97218659  6445.01828042
0.27700001 89959.14047464  6377.20377006
0.27800001 88691.57910291  4825.26558946
0.27900001 87443.09512561  3672.61016909
0.28000001 86211.86804705  4360.59649220
0.28100001 84998.77822202  3595.44848896
0.28200001 83803.31968707  3913.19619800
0.28300001 82625.02439437  3519.82620579
0.28400001 81462.54008599  4875.53325491
0.28500001 80317.41518388  5512.98763916
0.28600001 79187.98131168  6136.27696228
0.28700001 78075.29332043  4384.70868041
0.28800001 76976.61322750  4004.32360963
0.28900001 75895.26241737  3631.58847857
0.29000001 74827.94219783  3592.86381469
0.29100001 73776.14593783  4523.95348305
0.29200001 72738.68800191  3516.55203791
0.29300001 71715.87101207  3795.20407361
0.29400001 70706.51857608  4067.39267362
0.29500001 69712.39398123  3095.23043929
0.29600001 68730.94966342  4286.74953343
0.29700001 67763.17964751  3937.71855572
0.29800001 66809.55064558  3296.04933713
0.29900001 65869.20881818  3260.52599085
0.30000001 64940.69830170  3811.69446726
0.30100001 64026.23736092  3190.42755873
0.30200001 63123.49285351  4303.44432902
0.30300001 62234.08818786  3689.23692243
0.30400001 61356.64997702  3368.48024321
0.30500001 60491.90606334  3331.89434371
0.30600001 59638.00287634  2746.33016247
0.30700001 58796.88214991  3259.69930072
0.30800001 57967.22479601  3492.81529545
0.30900001 57149.53994959  3454.68985351
0.31000001 56343.45379881  3942.63336623
0.31100001 55547.86804175  4419.38859064
0.31200001 54764.76979491  3342.56788269
0.31300001 53991.77295110  3305.91641432
0.31400001 53231.32879979  2766.69844536
0.31500001 52480.30715141  2985.08001211
0.31600002 51741.51897810  2952.37121268
0.31700002 51012.69851928  3406.62816842
0.31800002 50294.43717134  2647.24782586
0.31900002 49587.27159301  3332.26480883
0.32000002 48890.82080763  2824.91176002
0.32100002 48204.27639301  2793.91999203
0.32200002 47529.08321243  2763.34102882
0.32300002 46862.50996179  2733.02171038
0.32400002 46207.65229725  2477.88547177
0.32500002 45562.05556012  2450.78308463
0.32600002 44926.88397214  2644.39651582
0.32700002 44302.06818116  2397.62804350
0.32800002 43687.82527801  2802.79256343
0.32900002 43081.61839414  2132.54021149
0.33000002 42486.59349306  2953.24325355
0.33100002 41900.31181061  2086.63562698
0.33200002 41325.15761368  2064.19172055
0.33300002 40759.03500513  2654.63607559
0.33400002 40203.07753323  3030.30711257
0.33500002 39656.52034527  2598.29533607
0.33600002 39118.89213197  2175.20610001
0.33700002 38590.92912547  2347.87223918
0.33800002 38073.23219665  2129.62634377
0.33900002 37564.04906151  2490.49657072
0.34000002 37064.40227975  1895.84426639
0.34100002 36574.33540401  2063.88984459
0.34200002 36094.06128972  2042.74349543
0.34300002 35622.24238513  2021.91857354
0.34400002 35160.51450636  2001.51238307
0.34500002 34707.33068232  1801.31054772
0.34600002 34264.26083512  2140.14583312
0.34700002 33828.73115302  2119.03181978
0.34800002 33403.36038211  2273.26579847
0.34900002 32986.44502432  1904.96729038
0.35000002 32578.87677543  2572.91691520
0.35100002 32180.92486502  1869.06820468
0.35200002 31790.22265287  2188.28007995
0.35300002 31409.74957919  2668.57245064
0.35400002 31037.28620775  2479.10335326
0.35500002 30674.04316530  1801.79338087
0.35600002 30319.10618157  2435.38231939
0.35700002 29972.87618383  2253.36093823
0.35800002 29635.44846287  2553.39036050
0.35900002 29307.07154406  1582.58193834
0.36000002 28986.95438566  1726.60801976
0.36100002 28674.68264526  1712.73887553
0.36200002 28372.44809445  1853.85584630
0.36300002 28076.99339462  1839.60469435
0.36400002 27790.54741296  1521.53254293
0.36500002 27511.47846198  2567.64640648
0.36600002 27241.73825990  1649.62353847
0.36700002 26979.32031412  2084.96197264
0.36800002 26726.00554260  1627.21292454
0.36900002 26480.36621336  1910.55851280
0.37000002 26242.07216085  1606.40852342
0.37100002 26011.64140869  2032.02952310
0.37200002 25789.78085511  1442.93830720
0.37300002 25575.32123474  2295.64094278
0.37400002 25368.50782942  1426.97863300
0.37500002 25169.45918231  1703.46907815
0.37600002 24978.12011605  1412.51275948
0.37700002 24794.14979158  1546.41119576
0.37800002 24617.54669563  1679.40911513
0.37900002 24448.97665381  2229.74677646
0.38000002 24286.93079585  1943.19742503
0.38100002 24131.50526999  2074.10297621
0.38200002 23984.40004757  1653.48461761
0.38300002 23843.47332467  1510.72254142
0.38400002 23709.92115161  1369.24801137
0.38500002 23582.53190791  2048.14299323
0.38600002 23463.01851728  2315.44809207
0.38700002 23349.20368117  1766.60083421
0.38800002 23242.02690848  1491.78956779
0.38900002 23141.36807194  1759.90112525
0.39000002 23047.68417141  1757.27076290
0.39100002 22959.45377462  2160.02551345
0.39200002 22878.26226669  1618.40834942
0.39300002 22802.37520815  1482.38248251
0.39400002 22733.79059621  1616.37258797
0.39500002 22669.78430677  1481.24377678
0.39600002 22611.89189663  1750.49969411
0.39700002 22559.07915792  1885.48792535
0.39800002 22513.17914590  1886.37937001
0.39900002 22471.54825176  1752.78084668
0.40000002 22435.75962516  1619.41320647
0.40100002 22404.81491234  1486.11144355
0.40200002 22379.64808097  1893.98970683
0.40300002 22359.16893022  1625.95884164
0.40400002 22343.69639790  1357.37962049
0.40500002 22332.54904443  1632.06276149
0.40600002 22327.01027996  1635.67685061
0.40700002 22325.51144371  1776.21777462
0.40800002 22328.36498251  1506.82978224
0.40900002 22335.35109651  1373.62415752
0.41000002 22347.26013330  1377.70865250
0.41100002 22362.87073853  1658.43057255
0.41200002 22381.64335705  1941.16002033
0.41300002 22405.74297101  1530.53637487
0.41400002 22432.89189189  1815.38186237
0.41500002 22463.46304624  1822.23620865
0.41600002 22496.85329568  1688.61388839
0.41700002 22534.99118055  1695.53281677
0.41800002 22576.87477752  1702.74797640
0.41900002 22619.84648335  1567.55543557
0.42000002 22666.62584059  2576.51548139
0.42100002 22716.99722372  1581.78459164
0.42200002 22769.75144229  1878.16303671
0.42300002 22824.88047374  1596.82871361
0.42400002 22882.43637837  1458.75538825
0.42500002 22943.05505327  1759.27354485
0.42600002 23004.72529227  1473.45272479
0.42700002 23069.70736051  1629.18281100
0.42800002 23136.08409277  1935.44920650
0.42900002 23205.26849751  3292.82775583
0.43000002 23276.18473513  1655.28595588
0.43100002 23347.18066195  1664.18711645
0.43200002 23421.21573215  1825.44964067
0.43300002 23495.94922310  1988.46227698
0.43400002 23572.59171359  1538.11168220
0.43500002 23649.91779223  1856.04563629
0.43600002 23729.01878443  1710.98098053
0.43700002 23808.48849506  2502.74842920
0.43800002 23888.36597196  2359.57346070
0.43900002 23970.15950308  1740.23366239
0.44000002 24051.75780587  2227.43339596
0.44100002 24134.44331930  1760.12503469
0.44200002 24217.39832710  1770.17081461
0.44300002 24300.82435170  1942.12197423
0.44400002 24384.28771032  1790.41640998
0.44500002 24467.31268499  2291.60861468
0.44600002 24550.43819589  2633.77113447
0.44700002 24634.51563839  1820.98348229
0.44800002 24717.21410691  2164.11578369
0.44900002 24800.38911918  2008.83161386
0.45000002 24883.49206139  2188.37881305
0.45100002 24965.01231575  2538.94187284
0.45200002 25046.62190529  2552.87705868
0.45300002 25127.02450120  1882.26549459
0.45400002 25207.21934134  1720.39280158
0.45500002 25286.66597100  1729.60803439
0.45600002 25364.67774414  1912.62361594
0.45700002 25442.12761090  2447.02394959
0.45800002 25517.99983779  2108.29724652
0.45900002 25592.74309538  2648.84903591
0.46000002 25666.81831594  2839.77691307
0.46100002 25738.59870735  2497.15896494
0.46200002 25809.60528114  1792.47717173
0.46300002 25879.06260671  2701.77426419
0.46400002 25946.43575437  2352.69317353
0.46500002 26013.34643645  2363.83290271
0.46600002 26077.38440982  2192.06503738
0.46700002 26139.79656305  2385.51794741
0.46800002 26201.10140722  2580.54659991
0.46900002 26259.60152750  2962.08319269
0.47000002 26316.62616629  2045.19669945
0.47100002 26371.65318305  2800.66970078
0.47200002 26424.84451194  1874.84280698
0.47300002 26475.74885401  2635.39616584
0.47400002 26523.93951691  2834.74617023
0.47500002 26570.36458372  2276.54894544
0.47600002 26615.23968261  2285.18458746
0.47700002 26656.57185277  2866.91443865
