# SAXS profile: number of points = 501, q_min = 0, q_max = 0.5, delta_q = 0.001
#    q    intensity    error
0.00000000 1664650.74656090 274.66737318
0.00100000 1664569.26609837 549.30787086
0.00200000 1664324.75767631 823.84078114
0.00300000 1663917.45478265 1098.18555928
0.00400000 1663347.22438584 1247.51046569
0.00500000 1662614.57631491 1496.35317791
0.00600000 1661719.39368819 1919.28597785
0.00700000 1660662.26221860 2989.19219623
0.00800000 1659443.00091080 2688.29777498
0.00900000 1658062.81615407 3233.22262971
0.01000000 1656521.11889760 3006.58596062
0.01100000 1654819.16625702 2978.67462895
0.01200000 1652956.85513799 3545.59260972
0.01300000 1650935.40846985 5200.44676604
0.01400000 1648754.80317100 3709.69847159
0.01500000 1646416.44137847 4741.67956231
0.01600000 1643919.73925876 5449.59417926
0.01700000 1641266.91369546 5760.84712550
0.01800000 1638457.99514535 5136.56604591
0.01900000 1635493.60966918 5397.12915544
0.02000000 1632374.83984818 5141.98097812
0.02100000 1629103.82903277 5376.04287955
0.02200000 1625679.03836850 6169.45223090
0.02300000 1622103.79105952 7591.44608771
0.02400000 1618377.47357724 7282.69896317
0.02500000 1614502.63409528 6296.56056054
0.02600000 1610479.35643350 8479.17419945
0.02700000 1606309.85262788 8770.45219704
0.02800000 1601993.74268523 10453.00965039
0.02900000 1597533.65645335 9345.57231935
0.03000000 1592930.95715200 8888.55514947
0.03100000 1588185.94791603 11434.93935115
0.03200000 1583300.18146177 7837.33625921
0.03300000 1578277.19846563 8049.21408325
0.03400000 1573115.38906234 16517.71234729
0.03500000 1567817.91087145 11852.70395352
0.03600000 1562385.83614068 12139.73850784
0.03700000 1556821.24809717 9761.26967700
0.03800000 1551125.43483942 17240.76000614
0.03900000 1545300.61550182 12053.34535910
0.04000000 1539346.40848229 16093.86744646
0.04100000 1533267.03858640 9659.58279098
0.04200000 1527063.16549469 16744.24838646
0.04300000 1520735.79921003 13047.91376288
0.04400000 1514288.30000690 12265.73579970
0.04500000 1507722.35492118 17685.58404498
0.04600000 1501037.68584880 11640.54779489
0.04700000 1494238.47679368 10758.51753327
0.04800000 1487325.36845991 17490.94714691
0.04900000 1480301.96990307 15543.17140748
0.05000000 1473167.92610466 18031.57625518
0.05100000 1465927.72108963 11434.23675715
0.05200000 1458579.72889868 12755.28032363
0.05300000 1451130.01530684 21157.47660949
0.05400000 1443578.33646022 16673.33056366
0.05500000 1435927.52000818 14474.15007689
0.05600000 1428178.35374509 14653.11059320
0.05700000 1420336.20421716 13592.61810884
0.05800000 1412399.80152087 19999.58212336
0.05900000 1404371.76485371 17695.08506362
0.06000000 1396255.98489044 16608.46571620
0.06100000 1388053.53730288 16781.56805022
0.06200000 1379767.07089111 15646.55931528
0.06300000 1371399.32285480 14481.97752646
0.06400000 1362949.07129427 13288.75406659
0.06500000 1354422.72769798 16090.54275773
0.06600000 1345821.09009992 17583.15336485
0.06700000 1337145.45008030 17730.54949784
0.06800000 1328399.28523496 16498.71989491
0.06900000 1319585.20550378 24940.16155169
0.07000000 1310703.69641555 19542.59302871
0.07100000 1301758.02802041 18276.68356945
0.07200000 1292750.61051307 15571.18183309
0.07300000 1283684.06582818 15673.78317817
0.07400000 1274560.78551189 20074.33331258
0.07500000 1265382.21596864 17310.42952583
0.07600000 1256149.51662529 18861.08587635
0.07700000 1246868.06684636 18964.86418597
0.07800000 1237537.94082259 16131.30781512
0.07900000 1228161.56085699 20633.11519017
0.08000000 1218742.62269379 17769.26827245
0.08100000 1209282.40395398 19336.42654645
0.08200000 1199782.35053322 20912.20735110
0.08300000 1190246.17032706 17996.52293996
0.08400000 1180675.43574374 22580.41876849
0.08500000 1171072.38883551 28702.98559782
0.08600000 1161439.02879674 21219.49205240
0.08700000 1151779.06281844 19764.52964606
0.08800000 1142092.28879815 16771.62604866
0.08900000 1132383.87816754 18344.61968796
0.09000000 1122653.18208177 24518.74664845
0.09100000 1112903.84449177 19965.49590818
0.09200000 1103137.20639389 18466.51770271
0.09300000 1093358.59204169 18499.62824668
0.09400000 1083564.54596418 23161.19325850
0.09500000 1073760.79341963 18554.58738241
0.09600000 1063948.52758223 20124.58734523
0.09700000 1054132.28368891 20144.46888834
0.09800000 1044311.76389130 18609.63650752
0.09900000 1034489.66079561 20172.54933408
0.10000000 1024666.93890932 15523.70485451
0.10100000 1014845.90173705 23290.71454027
0.10200000 1005029.66477442 17080.47995624
0.10300000 995219.26972271 18630.50560560
0.10400000 985417.79748737 23280.49656087
0.10500000 975627.83841112 20166.22836877
0.10600001 965846.51511265 18602.20475637
0.10700001 956081.71936203 24781.63933203
0.10800001 946331.52691658 18567.02543190
0.10900001 936600.48296940 20090.08130525
0.11000001 926887.85123510 18519.22013937
0.11100001 917196.40489265 16949.79036030
0.11200001 907528.48827529 24612.17376070
0.11300001 897884.73738687 19959.97865184
0.11400001 888268.29718166 18387.15461741
0.11500001 878680.35481213 16817.94278303
0.11600001 869122.02690896 16778.40151960
0.11700001 859596.30228483 16736.34079368
0.11800001 850101.88092988 15174.31928928
0.11900001 840642.27632308 15131.56168654
0.12000001 831218.24764156 24138.57904856
0.12100001 821834.07325915 18047.47709895
0.12200001 812488.18856069 19487.53012071
0.12300001 803184.04860100 20914.91361096
0.12400001 793920.62836908 16374.61373164
0.12500001 784700.46514102 14830.83949000
0.12600001 775526.75816772 22160.67815893
0.12700001 766398.66697054 20600.79713901
0.12800001 757317.86325559 17584.92161356
0.12900001 748286.38862298 14591.58526588
0.13000001 739305.10938219 18885.54990934
0.13100001 730374.22378588 17353.69237516
0.13200001 721496.18753938 17272.61954393
0.13300001 712671.93325393 15757.17718708
0.13400001 703901.84901687 15679.41442607
0.13500001 695188.05806508 15600.02075849
0.13600001 686531.12364944 14108.21525621
0.13700001 677932.18964331 16839.83638479
0.13800001 669390.37221525 15352.46891071
0.13900001 660909.76870464 16654.92695677
0.14000001 652489.03816879 19320.20133133
0.14100001 644130.83853965 16463.98500956
0.14200001 635834.51913449 17730.24640232
0.14300001 627602.06805055 17623.06690210
0.14400001 619430.91118591 14819.88524918
0.14500001 611326.88209841 14726.86528445
0.14600001 603287.89759180 14632.74864638
0.14700001 595316.09767775 14537.61979113
0.14800001 587408.49661552 14441.43857062
0.14900001 579569.67679948 23472.57301783
0.15000001 571798.26991307 14246.35456707
0.15100001 564095.24630637 12861.37222265
0.15200001 556462.55654197 14047.89790278
0.15300001 548899.19394121 13947.52917622
0.15400001 541404.11010574 17622.70461558
0.15500001 533980.92197436 12495.15416388
0.15600001 526626.92393205 13642.27110831
0.15700001 519346.88730565 13539.37399107
0.15800001 512135.24406998 13435.86876233
0.15900001 504997.67284593 18179.91708056
0.16000001 497929.70291124 13227.50318221
0.16100001 490936.47112040 16701.65953591
0.16200001 484015.23777074 20118.09430764
0.16300001 477166.44103246 17607.44250531
0.16400001 470391.11863582 12806.39880945
0.16500001 463687.91048691 21937.07608081
0.16600001 457058.52799230 13739.18000012
0.16700001 450501.61242888 14758.43351999
0.16800001 444018.25721002 15758.20869243
0.16900001 437609.20490730 12274.93877725
0.17000001 431272.10721308 12168.34307960
0.17100001 425009.04999358 15351.32761068
0.17200001 418819.04234411 13042.02559448
0.17300001 412702.05204500 12925.82888047
0.17400001 406659.10944971 12809.76255262
0.17500001 400687.98626413 15867.24500543
0.17600001 394788.59911034 11529.80158156
0.17700001 388964.72241965 10385.35857911
0.17800001 383211.35487649 11318.14790086
0.17900001 377530.16014146 13251.30924687
0.18000001 371922.06751236 14136.75845389
0.18100001 366386.40306542 11002.58420378
0.18200001 360919.94502400 11888.70355069
0.18300001 355525.48211996 11775.00452406
0.18400001 350202.20598560 16520.78984782
0.18500001 344949.51728486 11548.91038429
0.18600001 339767.41186324 9530.47635302
0.18700001 334654.40358603 12268.43101508
0.18800001 329609.63543106 12147.76368775
0.18900001 324637.24294880 12027.81041954
0.19000001 319729.40226684 11908.32215008
0.19100001 314892.65016802 10882.69050401
0.19200001 310121.86961992 11671.43711464
0.19300001 305420.19276226 13331.59204403
0.19400001 300783.67058537 9677.71505839
0.19500001 296214.01616453 8708.69248677
0.19600001 291709.34590749 11206.01505259
0.19700001 287271.60108802 9385.16365107
0.19800001 282897.46530771 10133.38768621
0.19900001 278587.95760970 13372.22259724
0.20000001 274340.50546946 10752.77662006
0.20100001 270157.93846298 9822.94310677
0.20200001 266036.57261372 11341.13962654
0.20300001 261977.57850096 8016.51428103
0.20400001 257980.21501019 9519.47038382
0.20500001 254042.73285170 7849.92081616
0.20600001 250165.23728605 11651.44647734
0.20700001 246347.50529912 10760.45954010
0.20800001 242588.10244726 10647.19231971
0.20900001 238889.10113962 8277.50774578
0.21000001 235244.81254486 8190.04853591
0.21100001 231658.91734903 7366.75391995
0.21200001 228127.87068768 8017.55439434
0.21300001 224652.72763067 8653.62347744
0.21400001 221232.75013035 7848.23218191
0.21500001 217868.09499273 7764.81927264
0.21600001 214555.18253091 6983.77152156
0.21700001 211296.01010112 7600.31784268
0.21800001 208088.92545296 8202.86582919
0.21900001 204932.65185348 7439.05561401
0.22000001 201826.63243710 8028.66381796
0.22100001 198772.29818003 7942.94141084
0.22200001 195766.95505756 7203.24545194
0.22300001 192809.90367226 7126.25437669
0.22400001 189900.24915371 6409.13371200
0.22500001 187040.20950962 8876.92876309
0.22600001 184224.85755738 7527.42803575
0.22700001 181456.51571292 7446.97575702
0.22800001 178732.86180818 9823.15854952
0.22900001 176053.45392104 6681.22889227
0.23000001 173418.37246471 6609.84157908
0.23100001 170827.85201844 8322.73334394
0.23200001 168277.97816829 9410.10498421
0.23300001 165771.32284825 6982.28844859
0.23400001 163304.91580067 6332.14840965
0.23500001 160878.91327323 6264.62517915
0.23600001 158493.20195091 9015.09375335
0.23700001 156147.02605975 6131.89400339
0.23800001 153838.76254362 9375.70382668
0.23900001 151568.77728074 6002.12386421
0.24000001 149335.59621857 6478.17847038
0.24100001 147140.10404789 9080.01625029
0.24200001 144980.66430506 6341.45455667
0.24300001 142855.74182846 5751.37243807
0.24400001 140765.93580002 5690.46322390
0.24500001 138709.62371771 6653.90096450
0.24600001 136687.22123944 6583.54032243
0.24700001 134698.23504862 6012.92949702
0.24800001 132741.29178593 5949.46497929
0.24900001 130814.92906519 5886.67208642
0.25000001 128921.02204635 5824.65205161
0.25100001 127056.80760930 5283.02231033
0.25200001 125224.39640262 10454.98535028
0.25300001 123419.87997694 6112.98694447
0.25400001 121645.17971575 5583.51401312
0.25500001 119897.31320933 5985.27415858
0.25600001 118178.57026348 7744.83296865
0.25700001 116486.18483645 6311.22179304
0.25800001 114820.69654278 4460.78427174
0.25900001 113182.35925749 4855.52344188
0.26000001 111568.80886389 6115.08670317
0.26100001 109980.12750147 4754.44113685
0.26200001 108417.45913850 5987.89655155
0.26300001 106877.59340149 6348.52934845
0.26400001 105362.47766653 4606.97455396
0.26500001 103870.62446856 5802.21335737
0.26600001 102401.19806435 4511.28499420
0.26700001 100954.55841744 5681.72281659
0.26800001 99530.13101295  4016.04097642
0.26900001 98126.43647348  4768.94503829
0.27000001 96744.60141701  4719.20188044
0.27100001 95383.10108272  5448.28299167
0.27200001 94042.66626695  3851.04736588
0.27300001 92721.91902974  6097.39368395
0.27400001 91419.39068305  4902.36505738
0.27500001 90138.05233533  4851.23020627
0.27600001 88873.37514026  3692.68891184
0.27700001 87629.00811263  4384.95577348
0.27800001 86401.66979652  5062.27407296
0.27900001 85192.52413138  4651.51203772
0.28000001 84000.38194622  3894.67789327
0.28100001 82825.63141611  3503.52437472
0.28200001 81667.98828769  3813.48689358
0.28300001 80526.74839308  4459.57153708
0.28400001 79400.91638451  4412.70613693
0.28500001 78291.76030149  4030.46001109
0.28600001 77197.88334209  4652.71664925
0.28700001 76120.04188136  4274.90175440
0.28800001 75055.81994408  4555.13792801
0.28900001 74008.07139690  3541.28638396
0.29000001 72974.01303007  4777.97372931
0.29100001 71954.85823706  3466.78523396
0.29200001 70949.50034511  3118.23068777
0.29300001 69958.28496171  4319.22471799
0.29400001 68979.88528371  3052.36006829
0.29500001 68016.25549986  3019.92188715
0.29600001 67064.62950141  3884.04820144
0.29700001 66126.55307772  3842.61418125
0.29800001 65201.60821303  3801.57994682
0.29900001 64289.60564335  4339.54858636
0.30000001 63389.02838991  3148.21624402
0.30100001 62501.80294133  3397.59816873
0.30200001 61625.88568292  3080.98630057
0.30300001 60762.63088267  4156.16414913
0.30400001 59911.01221665  3289.11472641
0.30500001 59071.51443901  2982.52090522
0.30600001 58242.36821168  3754.88565637
0.30700001 57425.64260496  2918.37129535
0.30800001 56619.75182159  2886.75818329
0.30900001 55825.35291840  3115.05484033
0.31000001 55041.97669889  3851.56250186
0.31100001 54268.92028288  2793.76414843
0.31200001 53507.60436418  2512.18214384
0.31300001 52756.04459462  2733.29079986
0.31400001 52016.68832198  2949.34636750
0.31500001 51286.28297499  3646.45489217
0.31600002 50567.54456868  3125.83291551
0.31700002 49858.35260332  2853.89223814
0.31800002 49159.26042823  4704.54144574
0.31900002 48471.01243756  2791.93044860
0.32000002 47792.80481293  3451.83549106
0.32100002 47124.27765451  2731.32326218
0.32200002 46466.65852030  2926.70262548
0.32300002 45817.14398436  2449.38463338
0.32400002 45178.90320096  2422.71879887
0.32500002 44549.82866519  3049.88141484
0.32600002 43930.70206388  2154.80103827
0.32700002 43321.24857785  2131.40553096
0.32800002 42722.31180593  2319.18080621
0.32900002 42130.91076522  2085.48018163
0.33000002 41550.38182026  2681.86952159
0.33100002 40978.18863134  2856.99944667
0.33200002 40416.93213308  2220.70844121
0.33300002 39864.20459504  2196.91641927
0.33400002 39321.47206001  2173.49447104
0.33500002 38787.49836943  2932.33501559
0.33600002 38262.40728869  2901.24717006
0.33700002 37746.60227424  1913.75282593
0.33800002 37240.63996136  2083.05529489
0.33900002 36743.08176296  3560.40479144
0.34000002 36254.66370793  2596.19659108
0.34100002 35775.39846842  1835.27802835
0.34200002 35305.87674639  2179.78493355
0.34300002 34844.49192242  2517.16621569
0.34400002 34392.82161299  2135.79432332
0.34500002 33949.50136783  2290.57296577
0.34600002 33515.90035676  2093.40323543
0.34700002 33089.77588507  2590.92957451
0.34800002 32673.42291649  2736.72603310
0.34900002 32265.45669687  2032.72386818
0.35000002 31866.52954826  2013.32743221
0.35100002 31476.94660964  1994.37943165
0.35200002 31094.31750469  1975.73302782
0.35300002 30721.82583071  2610.12644620
0.35400002 30357.24398583  2263.13264633
0.35500002 30001.56367517  2403.12536420
0.35600002 29653.88841322  2064.35553966
0.35700002 29314.78359949  1889.04474463
0.35800002 28984.44206539  2341.21841872
0.35900002 28662.88096726  1547.79564554
0.36000002 28349.34916620  1688.62906307
0.36100002 28043.54406854  2131.87032107
0.36200002 27747.57220441  1964.11199152
0.36300002 27458.28749295  1948.98933857
0.36400002 27177.89855099  1785.58801938
0.36500002 26904.73435337  1772.48398316
0.36600002 26640.62983951  1759.88009056
0.36700002 26383.94498856  1456.39383236
0.36800002 26136.04307237  1880.61906836
0.36900002 25895.80090788  1580.93872031
0.37000002 25662.75290272  1856.57194669
0.37100002 25437.50691699  1561.35424853
0.37200002 25220.80272618  1552.21437731
0.37300002 25011.30388655  2245.01474320
0.37400002 24809.24881358  1953.72843662
0.37500002 24615.07728646  1943.60659461
0.37600002 24428.56077781  1657.72221291
0.37700002 24249.15244205  1649.91241032
0.37800002 24077.13464308  1916.29923702
0.37900002 23913.06839610  1635.65395578
0.38000002 23755.55352053  1900.68192722
0.38100002 23604.45329171  1623.04228523
0.38200002 23461.68038933  1347.87360222
0.38300002 23324.99247616  1612.22355633
0.38400002 23195.75168314  1473.51019548
0.38500002 23072.64206383  1335.90603878
0.38600002 22957.33979588  1332.67363829
0.38700002 22847.70120699  1728.65715522
0.38800002 22744.71205758  1592.58481372
0.38900002 22648.17313813  1457.41001048
0.39000002 22558.59888340  1455.36807591
0.39100002 22474.52626821  1850.10309005
0.39200002 22397.33321307  1716.41971210
0.39300002 22325.56087781  1715.27292351
0.39400002 22261.02223055  1714.65531854
0.39500002 22201.21033855  1450.62715225
0.39600002 22147.42815431  1714.54323180
0.39700002 22098.78941273  1319.29779045
0.39800002 22056.96268143  1584.13113483
0.39900002 22019.56292932  1321.17383835
0.40000002 21987.94056318  1587.08962504
0.40100002 21961.23387312  1456.68871182
0.40200002 21940.28897872  1458.91958476
0.40300002 21924.04486280  1727.17633613
0.40400002 21912.88464002  1730.57014644
0.40500002 21906.09745056  1467.48953774
0.40600002 21905.02466939  1471.03200137
0.40700002 21907.90560137  1474.84027496
0.40800002 21915.20096172  1747.84693552
0.40900002 21926.60358769  1483.33480299
0.41000002 21943.04351448  1488.06756644
0.41100002 21963.29495578  1764.53120036
0.41200002 21986.75640461  1634.49554856
0.41300002 22015.53304291  1640.59760009
0.41400002 22047.36851516  2333.16288367
0.41500002 22082.90898388  1791.36566165
0.41600002 22121.10979720  1798.77812839
0.41700002 22164.21205057  1806.60500985
0.41800002 22210.90060524  1395.95516919
0.41900002 22259.03654731  1682.78324271
0.42000002 22310.87943671  1549.82531351
0.42100002 22366.45110475  1557.37606422
0.42200002 22424.51530955  1849.68623296
0.42300002 22484.90257784  1573.04385888
0.42400002 22547.90060794  1868.65735143
0.42500002 22613.92463506  1445.02985265
0.42600002 22681.04850891  1597.99334842
0.42700002 22751.64572837  1752.78686997
0.42800002 22823.67033479  1909.31423233
0.42900002 22898.61696350  2067.74520979
0.43000002 22975.17491818  2376.55220615
0.43100002 23052.10419137  1792.53170686
0.43200002 23132.01137212  1502.42420982
0.43300002 23212.73507528  2720.06842502
0.43400002 23295.47841287  1520.03003847
0.43500002 23378.84808636  1834.77208477
0.43600002 23464.16197836  1691.88347963
0.43700002 23549.88880792  1547.22776800
0.43800002 23636.04954525  2023.36411721
0.43900002 23724.25350849  2192.12112807
0.44000002 23812.41996263  2047.74915173
0.44100002 23901.56799247  2060.07624290
0.44200002 23991.07219015  2072.46886936
0.44300002 24081.20169831  2245.33135276
0.44400002 24171.28573414  1613.43339922
0.44500002 24261.21583307  2109.99804100
0.44600002 24351.12871380  2285.84056069
0.44700002 24442.01936868  1971.00453530
0.44800002 24531.72159882  1982.65383358
0.44900002 24621.80164797  1661.97169000
0.45000002 24711.98075005  2507.64836545
0.45100002 24800.65058015  1849.63260793
0.45200002 24889.35713783  3044.21741580
0.45300002 24977.10415647  1871.03496103
0.45400002 25064.37504623  2052.77241357
0.45500002 25151.14966373  2752.54194965
0.45600002 25236.54643659  2594.94801033
0.45700002 25321.36636264  2609.36692734
0.45800002 25404.68487244  2623.66895455
0.45900002 25486.94594433  1934.45928886
0.46000002 25568.39842980  2298.47128578
0.46100002 25647.77518884  1955.12999531
0.46200002 25726.42287714  2144.04018420
0.46300002 25803.40401961  1795.91700488
0.46400002 25878.43057608  1805.02061823
0.46500002 25952.91777347  1995.51994218
0.46600002 26024.63647781  2552.23622034
0.46700002 26094.77443674  2015.03857751
0.46800002 26163.78065260  2208.74646738
0.46900002 26230.14250409  2219.07016102
0.47000002 26294.76365422  2415.04268229
0.47100002 26357.55828588  1866.11521509
0.47200002 26418.49715402  2061.83170811
0.47300002 26477.19463491  2447.28721610
0.47400002 26533.08145056  2457.62678584
0.47500002 26587.30560565  2847.50056533
0.47600002 26639.98980449  1906.09136086
0.47700002 26689.10315196  2104.96966537
