# SAXS profile: number of points = 501, q_min = 0, q_max = 0.5, delta_q = 0.001
#    q    intensity    error
0.00000000 1682732.95097188 277.65093691
0.00100000 1682650.95709195 656.23388885
0.00200000 1682404.91134904 1135.62335112
0.00300000 1681995.04845109 1211.03647803
0.00400000 1681421.22130382 1261.06596390
0.00500000 1680683.96849646 1966.40032097
0.00600000 1679783.15192677 2116.52685760
0.00700000 1678719.35205031 2820.24862865
0.00800000 1677492.41365789 2717.53782486
0.00900000 1676103.54587125 2765.57096891
0.01000000 1674552.12625669 2763.01112763
0.01100000 1672839.45599434 4215.55561265
0.01200000 1670965.37803539 3910.05915603
0.01300000 1668931.16860613 3504.75560865
0.01400000 1666736.80276791 4125.17376972
0.01500000 1664383.64662977 5192.87720872
0.01600000 1661871.19170905 5085.32607396
0.01700000 1659201.56763004 5823.79776363
0.01800000 1656374.85766408 5664.80226811
0.01900000 1653391.69397730 5952.21036690
0.02000000 1650253.14184355 6237.95715835
0.02100000 1646961.36098320 5434.97273766
0.02200000 1643514.83464067 5670.12643712
0.02300000 1639916.84347971 7084.44108630
0.02400000 1636166.81680201 6749.18842705
0.02500000 1632267.30743256 6365.84278972
0.02600000 1628218.36378784 7253.71314245
0.02700000 1624022.21435954 8867.16169653
0.02800000 1619678.51319763 9863.84259773
0.02900000 1615189.95242168 7995.19063158
0.03000000 1610557.73564989 8986.91257801
0.03100000 1605782.27966668 10020.08188618
0.03200000 1600865.12038744 9509.13925307
0.03300000 1595809.95209724 9766.35735707
0.03400000 1590614.76777868 10855.94629099
0.03500000 1585283.10362492 9416.58207037
0.03600000 1579815.90127103 10521.57438871
0.03700000 1574215.37017492 9870.33082748
0.03800000 1568482.60322327 10093.18601885
0.03900000 1562620.01440948 10313.29257271
0.04000000 1556627.10424226 10530.58284818
0.04100000 1550508.16309205 14652.30282060
0.04200000 1544263.81740034 11952.60250119
0.04300000 1537895.15514297 18270.19529116
0.04400000 1531405.49812172 14471.78262935
0.04500000 1524796.39520161 10521.09561575
0.04600000 1518067.80283719 10702.37850752
0.04700000 1511223.87706349 16321.21863135
0.04800000 1504265.09746921 13267.61877700
0.04900000 1497195.38808125 13474.75911995
0.05000000 1490013.99209995 15958.05059850
0.05100000 1482725.85794957 12721.78845384
0.05200000 1475328.94485367 15247.52535562
0.05300000 1467829.56473776 16645.18804009
0.05400000 1460227.41277149 14456.25206059
0.05500000 1452525.34715560 12201.21348528
0.05600000 1444724.18226737 17293.34926872
0.05700000 1436829.32360796 15000.49883867
0.05800000 1428839.27745118 21496.88793299
0.05900000 1420757.11176145 14065.49606338
0.06000000 1412586.23219239 18095.23047977
0.06100000 1404328.06626118 20896.40260248
0.06200000 1395985.17899826 14511.26661399
0.06300000 1387560.17673342 13320.57831945
0.06400000 1379052.10287934 16134.91035827
0.06500000 1370467.22356962 21708.20183680
0.06600000 1361806.23431124 13686.15329518
0.06700000 1353070.90933771 13801.32392113
0.06800000 1344264.10473850 15304.44754883
0.06900000 1335388.87753794 25238.85096712
0.07000000 1326445.48876907 15539.30962861
0.07100000 1317437.35790151 19919.65378446
0.07200000 1308366.79472869 15759.27878078
0.07300000 1299236.44527888 14421.52521832
0.07400000 1290048.89341758 15964.35580420
0.07500000 1280805.39898440 21901.77334922
0.07600000 1271507.11876828 17623.08949231
0.07700000 1262159.73407198 26581.08524590
0.07800000 1252763.01295673 19298.81511964
0.07900000 1243319.29140662 16411.81541634
0.08000000 1233832.72709818 20987.49567249
0.08100000 1224304.26896862 27106.09778673
0.08200000 1214735.49373068 21172.84064927
0.08300000 1205130.00120355 18221.56647337
0.08400000 1195489.45278749 18290.98948620
0.08500000 1185816.08517299 15297.02821685
0.08600000 1176112.07431593 16883.08961949
0.08700000 1166381.03629100 21554.72256282
0.08800000 1156622.50801491 15440.91120716
0.08900000 1146841.99673423 18578.84121974
0.09000000 1137038.92700118 17072.64029092
0.09100000 1127216.55269775 23333.38373707
0.09200000 1117376.56977733 24939.84620927
0.09300000 1107524.27807078 15616.09305463
0.09400000 1097655.99785483 18769.91844546
0.09500000 1087777.73985609 18796.80022821
0.09600000 1077890.60902747 23524.96364788
0.09700000 1067999.28170366 21979.42625078
0.09800000 1058103.06589037 17284.11439398
0.09900000 1048205.16833067 15723.07826430
0.10000000 1038306.13168220 18876.40636169
0.10100000 1028408.62780059 17308.11801992
0.10200000 1018515.50957973 15736.06536317
0.10300000 1008627.97083249 17308.05679367
0.10400000 998749.23947657 17303.33138797
0.10500000 988881.49217706 18867.85975846
0.10600001 979022.18870171 28283.95236245
0.10700001 969179.35424114 18840.84753305
0.10800001 959350.72252870 18822.46206183
0.10900001 949540.95196149 25067.88231162
0.11000001 939749.64028903 20340.88192149
0.11100001 929979.24056821 28122.57355861
0.11200001 920232.15430951 15597.93574985
0.11300001 910509.01311101 15569.70485723
0.11400001 900812.98946659 18646.82975993
0.11500001 891145.44442925 18607.11775585
0.11600001 881507.15547739 21658.63183002
0.11700001 871901.51851080 21605.72064622
0.11800001 862326.97425495 23088.80582312
0.11900001 852787.02785299 16885.18394681
0.12000001 843282.67062037 18366.69743127
0.12100001 833818.14168891 16784.75998290
0.12200001 824391.73081243 22815.04222508
0.12300001 815007.14123712 15159.13354122
0.12400001 805663.05617382 16616.80131653
0.12500001 796362.08904994 15051.24419227
0.12600001 787107.78743602 22491.60608587
0.12700001 777898.99357138 16429.22751848
0.12800001 768737.32820871 23800.10880302
0.12900001 759625.04991012 16293.95808854
0.13000001 750562.97815358 17698.27585907
0.13100001 741551.16385554 20555.79923103
0.13200001 732592.62465968 21922.83532639
0.13300001 723687.61836495 18909.95835935
0.13400001 714836.77118623 15922.98982887
0.13500001 706042.40253733 15843.59225993
0.13600001 697304.85897708 20061.46173868
0.13700001 688625.42781743 14254.54702797
0.13800001 680002.96943848 14178.06258137
0.13900001 671442.23347071 15510.31632461
0.14000001 662941.25679689 18227.57071525
0.14100001 654502.89784922 19517.27733436
0.14200001 646126.34338908 19403.17500713
0.14300001 637814.31702965 13776.78989766
0.14400001 629563.16858543 24647.39921273
0.14500001 621379.71667693 16329.85972458
0.14600001 613260.99716342 17579.12731297
0.14700001 605209.88211406 17466.35802181
0.14800001 597223.34568302 18687.11936806
0.14900001 589305.45928068 13259.37345940
0.15000001 581455.00700277 15803.94783601
0.15100001 573673.65097553 14387.73584535
0.15200001 565962.52886970 12988.84065046
0.15300001 558321.01240784 14186.93759475
0.15400001 550747.75468126 14085.37449068
0.15500001 543246.97081040 19067.96957532
0.15600001 535815.23992015 13880.29444521
0.15700001 528458.10897751 13776.90355127
0.15800001 521169.20206068 14915.86326699
0.15900001 513954.78870507 14801.89861336
0.16000001 506810.29127575 17135.25675686
0.16100001 499740.80237444 19429.92331349
0.16200001 492743.57770774 15661.85535677
0.16300001 485818.91994476 14341.37519379
0.16400001 478968.16428611 15410.80141344
0.16500001 472189.88538566 15284.78731155
0.16600001 465485.79413683 12826.46166302
0.16700001 458854.17189430 11563.12567769
0.16800001 452296.49893572 12612.28846833
0.16900001 445813.63967911 17052.37252291
0.17000001 439403.00071623 15778.96250080
0.17100001 433066.69063004 20111.61806256
0.17200001 426803.53492708 14398.21793069
0.17300001 420614.12876099 10978.02927909
0.17400001 414498.83210331 13056.71382787
0.17500001 408455.92419022 11861.56059868
0.17600001 402484.97450703 11754.57423564
0.17700001 396590.02183201 13765.64030795
0.17800001 390765.76670026 10492.06133146
0.17900001 385014.04190216 15593.06943355
0.18000001 379336.00719358 12358.76769813
0.18100001 373730.76947848 12243.42058645
0.18200001 368194.81652075 12128.33782911
0.18300001 362731.66477177 13014.81274682
0.18400001 357339.62663705 11899.41012915
0.18500001 352019.00211550 9821.33062300
0.18600001 346769.19321362 13617.62686084
0.18700001 341588.80478172 9632.80474994
0.18800001 336476.98713911 11446.94764330
0.18900001 331438.24819340 10390.58957179
0.19000001 326464.41777707 11223.84721349
0.19100001 321561.91906042 10187.08207717
0.19200001 316725.87835300 11003.05753389
0.19300001 311959.47968357 10893.62554530
0.19400001 307258.62034736 14379.70411175
0.19500001 302625.16961550 9786.89844785
0.19600001 298056.85727203 12330.61276804
0.19700001 293556.02508180 9590.47579264
0.19800001 289119.33192250 8630.21246574
0.19900001 284747.64350292 9396.67267968
0.20000001 280438.52211463 10146.26620963
0.20100001 276194.65652290 9205.56833698
0.20200001 272012.45193708 9111.05750825
0.20300001 267893.08671039 9837.03460895
0.20400001 263835.58807667 8924.23918850
0.20500001 259838.77745655 8831.92046321
0.20600001 255902.31397969 8740.34394711
0.20700001 252025.98677127 8649.53227485
0.20800001 248208.38618919 11671.99991228
0.20900001 244451.71423460 11550.34404358
0.21000001 240750.21471331 10667.64251823
0.21100001 237107.61740779 7540.02259001
0.21200001 233520.34537761 8207.07292628
0.21300001 229989.40732865 9597.45842155
0.21400001 226514.00742824 8766.09250190
0.21500001 223094.44598985 10119.56454853
0.21600001 219727.32906431 7152.12489919
0.21700001 216414.08643961 9199.76324951
0.21800001 213153.57021075 8402.51413498
0.21900001 209944.11993377 8313.78754247
0.22000001 206785.55199816 11653.40033386
0.22100001 203679.20607372 8817.27324784
0.22200001 200622.19305142 6710.81267489
0.22300001 197614.06313509 7303.81611884
0.22400001 194653.51518249 7226.51209287
0.22500001 191743.36936020 9100.14074016
0.22600001 188878.20907448 7074.43365542
0.22700001 186060.61673773 8908.58275068
0.22800001 183287.92482096 10703.09887607
0.22900001 180560.21478450 6229.32770466
0.23000001 177877.23401173 7396.13573998
0.23100001 175239.30212266 6098.32800228
0.23200001 172642.36901449 6637.23619066
0.23300001 170089.16117145 6567.14282342
0.23400001 167576.55549311 6497.78124656
0.23500001 165104.92945457 9936.01512451
0.23600001 162674.09898876 6939.67739109
0.23700001 160283.02669642 7438.73562082
0.23800001 157930.55358782 6794.17273670
0.23900001 155616.64233235 8403.29908342
0.24000001 153340.05677995 6651.89197775
0.24100001 151101.60648165 7130.48514715
0.24200001 148899.52991408 7055.60455872
0.24300001 146732.68101652 6444.49965509
0.24400001 144601.06396701 7439.72509303
0.24500001 142503.53311110 5258.38062054
0.24600001 140440.22228630 6243.97257822
0.24700001 138411.00448769 7723.33441577
0.24800001 136414.05646800 6114.07830013
0.24900001 134448.17754141 7058.52965485
0.25000001 132515.09301198 5488.11283672
0.25100001 130612.27669639 5430.85872196
0.25200001 128741.68139606 5862.89644815
0.25300001 126899.20775788 5801.83205318
0.25400001 125086.96006673 5263.03409381
0.25500001 123302.02379623 5681.75752535
0.25600001 121546.75093710 5154.19021735
0.25700001 119818.27887746 5564.36113434
0.25800001 118116.82608219 6883.25836561
0.25900001 116443.06665500 7266.04770306
0.26000001 114794.45025616 7640.14499830
0.26100001 113171.25198070 5781.91953727
0.26200001 111574.16739125 5722.08144541
0.26300001 110000.53863323 4791.62368959
0.26400001 108451.87773832 6466.44351613
0.26500001 106926.85160066 5119.65789690
0.26600001 105424.73157530 4222.26069939
0.26700001 103945.68486317 5432.20174800
0.26800001 102489.28066833 4548.98693773
0.26900001 101053.89243055 5320.48768824
0.27000001 99640.69162151  5265.51259791
0.27100001 98248.29555656  5211.08984292
0.27200001 96877.20161086  5553.97023118
0.27300001 95526.43342599  3926.13659961
0.27400001 94193.86819938  3885.49724710
0.27500001 92883.06698993  5768.03873305
0.27600001 91589.17587906  3805.53043788
0.27700001 90315.96328438  4142.79343192
0.27800001 89060.03596976  4845.31148625
0.27900001 87822.72463762  4795.12099216
0.28000001 86602.61518363  5110.42056385
0.28100001 85400.27863551  5057.40474016
0.28200001 84215.43219444  5719.91242537
0.28300001 83047.20509986  4245.37332564
0.28400001 81894.79105876  3501.00248347
0.28500001 80759.39684816  3811.03611765
0.28600001 79639.47618672  4457.02349575
0.28700001 78535.83544079  3732.02307679
0.28800001 77446.10812048  4028.74673512
0.28900001 76373.37662046  3322.24204024
0.29000001 75314.42436960  4931.21216901
0.29100001 74270.72152557  3578.36353248
0.29200001 73241.00619267  3218.94237454
0.29300001 72225.80333053  4140.70550094
0.29400001 71223.66059589  3151.64713056
0.29500001 70236.54981717  3118.50295950
0.29600001 69261.71285575  4319.85323530
0.29700001 68300.67243474  4274.25628330
0.29800001 67353.01393663  3322.86109986
0.29900001 66418.56119887  2988.83539544
0.30000001 65495.75802205  3548.56033762
0.30100001 64586.68330781  4681.24302776
0.30200001 63689.00639853  3184.13202563
0.30300001 62804.35930446  3436.65470384
0.30400001 61931.47229151  3400.03798977
0.30500001 61070.94449546  3363.78778206
0.30600001 60221.05942794  4159.76987692
0.30700001 59383.67844172  3840.93650345
0.30800001 58557.44034088  3528.37873479
0.30900001 57742.99203862  3222.05910830
0.31000001 56939.83706643  3187.49222989
0.31100001 56146.91630379  3153.21096891
0.31200001 55366.19757604  2859.38740919
0.31300001 54595.28613954  3600.01333849
0.31400001 53836.77198459  2543.78759671
0.31500001 53087.44159521  3271.24830598
0.31600002 52350.01547355  3982.78936580
0.31700002 51622.30135169  2462.38389106
0.31800002 50904.87517462  3410.11774941
0.31900002 50198.40781150  4096.19027137
0.32000002 49502.35991812  4052.01586296
0.32100002 48815.97002211  3536.71719557
0.32200002 48140.75282353  3032.14546016
0.32300002 47473.87327502  2768.67642050
0.32400002 46818.34432685  2738.87327281
0.32500002 46172.01442601  2935.15509605
0.32600002 45535.88783406  2456.88894443
0.32700002 44909.74361077  2209.55949028
0.32800002 44294.00684067  2623.09120932
0.32900002 43686.16740798  2594.95846691
0.33000002 43089.25405435  2567.25787813
0.33100002 42500.84700637  2328.19650926
0.33200002 41923.52850914  2512.89641784
0.33300002 41354.83949939  2279.06531274
0.33400002 40796.21048666  3075.01451105
0.33500002 40246.60743420  3245.48657719
0.33600002 39706.05956403  2408.56968722
0.33700002 39174.65071353  2184.77037376
0.33800002 38653.51830098  2162.08464856
0.33900002 38140.74900048  1945.17829114
0.34000002 37637.30107818  2695.20725785
0.34100002 37143.15218308  2095.98817695
0.34200002 36658.78511996  2263.31350049
0.34300002 36182.59825929  2053.72437446
0.34400002 35716.32023804  2217.98359183
0.34500002 35258.55266185  2378.89466076
0.34600002 34810.67141586  2717.84329951
0.34700002 34370.14031217  2332.35783205
0.34800002 33939.68943772  2132.09139146
0.34900002 33517.58764743  2639.51015225
0.35000002 33104.70251748  1742.96267010
0.35100002 32701.15836460  1899.28336777
0.35200002 32304.77646600  1881.59179438
0.35300002 31918.55945770  2372.82582247
0.35400002 31540.24544289  2351.32540913
0.35500002 31170.97909520  1830.98339877
0.35600002 30810.01714374  2474.81474429
0.35700002 30457.48559464  1962.68046468
0.35800002 30113.83473253  2108.11910030
0.35900002 29778.99355464  2090.48544655
0.36000002 29452.42256051  1594.84875719
0.36100002 29133.57476776  1898.34382178
0.36200002 28824.60313163  1569.49971486
0.36300002 28522.45390431  2024.52387402
0.36400002 28229.09817317  1700.09751801
0.36500002 27943.29630323  1687.49574368
0.36600002 27666.44820457  1979.94945955
0.36700002 27397.07054240  2117.24571181
0.36800002 27136.67233362  1652.21637330
0.36900002 26883.92210586  1641.26352231
0.37000002 26638.39570292  1778.91214931
0.37100002 26400.72774602  1915.10888141
0.37200002 26171.76609379  2489.32764993
0.37300002 25949.93030692  1455.79115918
0.37400002 25735.80290640  1447.63898206
0.37500002 25529.41085355  1727.83060842
0.37600002 25330.79289183  1718.94768707
0.37700002 25139.34641663  1567.94111028
0.37800002 24955.28656730  1986.19135198
0.37900002 24779.30382251  1977.38853871
0.38000002 24609.91231394  2250.33048859
0.38100002 24447.05470003  2101.22445101
0.38200002 24292.47080272  1535.16276510
0.38300002 24144.11699615  1668.84144583
0.38400002 24003.16063853  1524.80085180
0.38500002 23868.44630773  1520.18141736
0.38600002 23741.52298593  2205.11275940
0.38700002 23620.41354921  1512.17894706
0.38800002 23505.84586702  1920.19263985
0.38900002 23397.90533740  1779.41078521
0.39000002 23296.99968546  1503.00600591
0.39100002 23201.54655917  1773.52630301
0.39200002 23113.14105681  2180.03156776
0.39300002 23030.07313910  1361.07738700
0.39400002 22954.39430149  1632.05751216
0.39500002 22883.25418487  1631.11843558
0.39600002 22818.43906375  2445.90859913
0.39700002 22758.68992279  1766.30200859
0.39800002 22705.86641839  2174.31387124
0.39900002 22657.49345962  1495.39463918
0.40000002 22614.89692626  1360.28611456
0.40100002 22577.28658387  2586.67984647
0.40200002 22545.49529925  2180.60040866
0.40300002 22518.45448264  1774.00392819
0.40400002 22496.47813553  2186.65777838
0.40500002 22479.00361048  1642.76566169
0.40600002 22467.17959587  1645.94565518
0.40700002 22459.48518323  1511.97261417
0.40800002 22456.12374698  1515.45158287
0.40900002 22457.03534184  1933.55083455
0.41000002 22463.01729534  1523.32959006
0.41100002 22472.79093186  1527.70039993
0.41200002 22485.85618065  1392.99885640
0.41300002 22504.27925095  1677.01896924
0.41400002 22525.78335644  2243.56812861
0.41500002 22550.91828872  1547.89510468
0.41600002 22578.91778818  1836.00478694
0.41700002 22611.76972450  1417.75802891
0.41800002 22648.41269408  1565.79808580
0.41900002 22686.35296664  1715.08836555
0.42000002 22728.20579441  2152.92939589
0.42100002 22773.85024238  1441.58478865
0.42200002 22821.80496357  2027.26103098
0.42300002 22872.39673490  2036.55830178
0.42400002 22925.47001554  1461.49878274
0.42500002 22981.64925996  2496.49667741
0.42600002 23039.07875458  1623.21837057
0.42700002 23099.86759149  1927.91504054
0.42800002 23162.29532950  1937.64190761
0.42900002 23227.57330079  2097.44996845
0.43000002 23294.62722154  1656.59749336
0.43100002 23361.98844882  1665.24261554
0.43200002 23432.46578667  1978.52034246
0.43300002 23503.76266640  1683.10452430
0.43400002 23577.12744525  1692.24840258
0.43500002 23651.26246956  1546.79263881
0.43600002 23727.32581766  2177.45679347
0.43700002 23803.84592471  2502.26040219
0.43800002 23880.93202190  1572.55944816
0.43900002 23960.02554856  1739.49793726
0.44000002 24039.11045197  1590.18723176
0.44100002 24119.31219622  2078.84361671
0.44200002 24199.91246550  1929.70111145
0.44300002 24281.11151900  1778.83431418
0.44400002 24362.49570479  1951.43599843
0.44500002 24443.66591084  1798.80945963
0.44600002 24524.88858059  1973.27262871
0.44700002 24607.25938844  2315.05107298
0.44800002 24688.33745679  2161.58748847
0.44900002 24769.99954512  1839.17255339
0.45000002 24851.74865552  2017.46505147
0.45100002 24932.04921782  2197.51092220
0.45200002 25012.49768911  1699.59929852
0.45300002 25091.95947564  1708.76252127
0.45400002 25171.12085512  1889.72198776
0.45500002 25249.81068981  2072.50455964
0.45600002 25327.19354898  2257.03296009
0.45700002 25404.03782602  1919.78322950
0.45800002 25479.50346806  2105.11667630
0.45900002 25553.90505075  2115.86343848
0.46000002 25627.58513510  2126.57711530
0.46100002 25699.28055818  2493.34431793
0.46200002 25770.30471380  1968.72252192
0.46300002 25839.82937238  2337.98787242
0.46400002 25907.35407402  1987.74183554
0.46500002 25974.50258101  2360.30316140
0.46600002 26038.90883571  2006.42821543
0.46700002 26101.72549587  3481.44831165
0.46800002 26163.63328091  3129.03987053
0.46900002 26222.81773635  2033.57961184
0.47000002 26280.46397182  2785.07230142
0.47100002 26336.33172415  2610.45732423
0.47200002 26390.40503084  2059.63925825
0.47300002 26442.35203659  2256.06158269
0.47400002 26491.56729758  1887.52425942
0.47500002 26539.13920341  2273.87355472
0.47600002 26585.21741825  2663.04135501
0.47700002 26627.97921321  2100.14882009
