# SAXS profile: number of points = 501, q_min = 0, q_max = 0.5, delta_q = 0.001
#    q    intensity    error
0.00000000 1700912.83420643 280.65061764
0.00100000 1700830.39585037 561.27404396
0.00200000 1700583.01965648 841.78862139
0.00300000 1700170.94566654 1224.12312449
0.00400000 1699594.00593865 1402.16510818
0.00500000 1698852.75745801 2446.34806757
0.00600000 1697947.06003449 2495.98227987
0.00700000 1696877.51201747 2443.50371886
0.00800000 1695643.91342894 3204.76713169
0.00900000 1694247.52467302 3049.64567478
0.01000000 1692687.67433354 2792.93478325
0.01100000 1690965.70878377 3956.85993083
0.01200000 1689081.48164591 4611.19264707
0.01300000 1687036.22873553 3897.05386026
0.01400000 1684829.91455637 6065.38796129
0.01500000 1682463.93039133 5249.28769657
0.01600000 1679937.76170355 6425.76222577
0.01700000 1677253.62570356 5887.16049031
0.01800000 1674411.47374554 5249.28020640
0.01900000 1671412.02626375 6017.08356606
0.02000000 1668256.31993812 5780.50841007
0.02100000 1664946.52496104 7692.05329407
0.02200000 1661481.14732051 5732.11021868
0.02300000 1657863.32226439 5968.30823182
0.02400000 1654092.72097819 8063.70238245
0.02500000 1650171.78912678 7722.80432582
0.02600000 1646100.55349448 6666.70754658
0.02700000 1641881.22249718 8964.67188543
0.02800000 1637513.50901225 9972.45772722
0.02900000 1633000.14508461 9553.05128737
0.03000000 1628342.28472629 9086.15036642
0.03100000 1623540.24368570 9351.59223393
0.03200000 1618595.85137861 8813.25481668
0.03300000 1613512.48875318 13166.26251520
0.03400000 1608288.25794684 9287.86511819
0.03500000 1602926.74930080 9521.38533053
0.03600000 1597428.97596808 9752.30434898
0.03700000 1591797.04413989 14517.18971394
0.03800000 1586031.99560980 10206.11636408
0.03900000 1580136.33516158 11376.98214003
0.04000000 1574109.54020809 10648.85153296
0.04100000 1567956.03230392 12841.56049999
0.04200000 1561676.23387580 17123.78069887
0.04300000 1555271.37806759 12317.74988606
0.04400000 1548744.69487377 10454.02717590
0.04500000 1542097.78840524 12768.57028129
0.04600000 1535330.67958019 16236.12269133
0.04700000 1528447.47618321 12105.30457436
0.04800000 1521448.53368701 17892.23558865
0.04900000 1514338.05802313 19307.81113853
0.05000000 1507115.13583518 14988.26072383
0.05100000 1499784.66560494 11698.32093667
0.05200000 1492344.66487931 15423.38283028
0.05300000 1484801.52150215 14432.27146180
0.05400000 1477154.82860163 13405.18069470
0.05500000 1469407.51909132 14811.62848339
0.05600000 1461560.49954512 16245.24571051
0.05700000 1453618.91602027 16440.43070760
0.05800000 1445581.40330820 12793.39601663
0.05900000 1437451.20563729 19405.59218246
0.06000000 1429231.58313887 17000.71047569
0.06100000 1420924.03297699 13214.59412422
0.06200000 1412531.04645993 16018.10281560
0.06300000 1404055.11358525 18870.50160888
0.06400000 1395495.64487607 14966.69149124
0.06500000 1386858.71290472 15102.89209001
0.06600000 1378144.87706824 20775.53499386
0.06700000 1369356.23460688 15364.17767132
0.06800000 1360495.44384084 15489.24135317
0.06900000 1351565.31941345 14191.43651827
0.07000000 1342566.78900977 15728.17066978
0.07100000 1333502.58946585 18722.37723301
0.07200000 1324375.47486850 17402.29455501
0.07300000 1315188.13358101 16058.44786345
0.07400000 1305942.80365256 23506.97156738
0.07500000 1296640.96557771 14781.70770044
0.07600000 1287283.67226742 14868.12711172
0.07700000 1277876.89845957 16446.27645432
0.07800000 1268420.15175917 16533.85745356
0.07900000 1258915.78238098 16617.68910686
0.08000000 1249368.13957674 16697.80596875
0.08100000 1239777.85560127 19824.04884117
0.08200000 1230146.97491995 18378.39666771
0.08300000 1220478.65911127 19991.44137448
0.08400000 1210774.90652703 16981.11886111
0.08500000 1201037.58469800 15493.38556994
0.08600000 1191269.26129402 23319.09688470
0.08700000 1181473.52058172 18714.54144481
0.08800000 1171649.83502103 21898.13644496
0.08900000 1161803.42198349 18821.21632016
0.09000000 1151934.16690605 18868.68254029
0.09100000 1142044.97932019 25216.35432808
0.09200000 1132137.95483174 22110.65529677
0.09300000 1122217.91135913 15823.27329373
0.09400000 1112281.55587398 17435.01420773
0.09500000 1102334.92121806 20635.71069514
0.09600000 1092378.89223016 17483.52499201
0.09700000 1082418.34662761 25458.48070956
0.09800000 1072452.37783534 19111.10227159
0.09900000 1062484.41512546 20718.44706918
0.10000000 1052514.90814669 20729.28209079
0.10100000 1042546.46531519 22331.34633733
0.10200000 1032582.00332663 15953.39270179
0.10300000 1022622.76234376 27119.95693310
0.10400000 1012672.14868140 15949.58709208
0.10500000 1002731.97212582 19132.12692831
0.10600001 992800.05989872 15934.44171115
0.10700001 982884.22559723 22291.81528555
0.10800001 972982.35332779 20680.74089325
0.10900001 963098.81889770 19069.35751169
0.11000001 953233.55879835 23807.00925157
0.11100001 943389.17442579 20603.62053934
0.11200001 933567.32876556 17406.36366428
0.11300001 923769.58377916 18955.75275160
0.11400001 913998.38899637 22073.06213356
0.11500001 904255.57448942 18880.85728440
0.11600001 894541.65798002 26688.65162264
0.11700001 884860.27009842 18794.43302201
0.11800001 875209.68976647 20309.24180756
0.11900001 865593.33651868 18696.81694945
0.12000001 856012.42789187 18643.95155771
0.12100001 846471.40115099 23235.64105618
0.12200001 836967.96538982 21618.88356451
0.12300001 827506.49385046 18469.94581294
0.12400001 818084.94911121 19940.82157415
0.12500001 808706.56472873 18341.46575231
0.12600001 799374.69559766 15228.08866874
0.12700001 790088.13064862 21237.56995268
0.12800001 780848.45889220 21153.18574832
0.12900001 771657.97050795 15047.33113412
0.13000001 762517.81903969 17980.17102045
0.13100001 753427.41197981 14917.86346039
0.13200001 744390.73153393 23760.95327066
0.13300001 735407.07421573 16259.85117745
0.13400001 726477.52454036 19124.52173516
0.13500001 717604.54205427 16103.04668293
0.13600001 708787.99747813 16022.15343845
0.13700001 700029.76243353 17388.74011878
0.13800001 691328.21290952 18738.45209454
0.13900001 682688.73863337 17203.75702486
0.14000001 674108.41614339 19960.35114335
0.14100001 665591.10229414 18430.21849175
0.14200001 657135.28203937 19733.77345039
0.14300001 648744.20136439 23821.88819772
0.14400001 640413.78336980 19500.60062345
0.14500001 632151.21038614 15228.52337656
0.14600001 623953.18135613 20637.25244690
0.14700001 615822.96389751 17772.65157653
0.14800001 607757.39908373 14941.71636140
0.14900001 599760.32619261 17542.99036883
0.15000001 591830.73937979 13404.96687944
0.15100001 583970.53516827 13314.52883008
0.15200001 576180.19901164 15868.00342954
0.15300001 568459.90001373 17070.85160297
0.15400001 560807.54610209 18254.28648706
0.15500001 553227.92911058 14240.08756734
0.15600001 545717.43051815 16707.13992381
0.15700001 538281.71063505 15308.73257298
0.15800001 530914.21703257 17727.22654342
0.15900001 523621.18360476 17593.67259955
0.16000001 516398.49522248 14965.22909794
0.16100001 509250.68061104 17324.70897219
0.16200001 502175.20813354 13506.00286032
0.16300001 495172.58899000 13399.37089062
0.16400001 488243.92124198 15709.24890759
0.16500001 481387.90712910 15582.52728944
0.16600001 474606.53892188 17833.34154196
0.16700001 467897.26085105 11791.01153016
0.16800001 461262.20166113 15200.89657347
0.16900001 454702.53249879 12754.40663883
0.17000001 448215.10452917 18394.74875847
0.17100001 441802.05693507 12538.34296789
0.17200001 435462.25418256 11300.24602967
0.17300001 429196.69297038 17923.25474486
0.17400001 423005.19058550 13324.66413271
0.17500001 416886.32486066 14307.53934493
0.17600001 410839.65414259 11998.57266592
0.17700001 404869.25095394 11891.01046214
0.17800001 398969.84727420 12854.80908633
0.17900001 393142.89690330 11676.34458954
0.18000001 387390.39596167 12621.17969659
0.18100001 381710.50228135 16673.11552723
0.18200001 376100.32721174 13421.14081054
0.18300001 370563.30736548 11250.30254307
0.18400001 365097.34863641 10131.45190328
0.18500001 359703.30612759 11039.29498657
0.18600001 354380.28529067 16898.62470244
0.18700001 349126.85937176 12798.99126925
0.18800001 343942.38285696 10725.84371615
0.18900001 338831.25158901 10622.36023920
0.19000001 333785.39203736 12431.83751382
0.19100001 328811.12920307 9469.76096850
0.19200001 323903.60212386 11252.41166947
0.19300001 319066.16052124 12998.75599386
0.19400001 314294.49207168 10112.42576026
0.19500001 309590.59866178 10012.16043385
0.19600001 304952.07471799 10813.60108051
0.19700001 300381.55345779 12489.86558302
0.19800001 295875.23856452 10598.25154624
0.19900001 291434.40557489 10491.63909653
0.20000001 287056.49340687 12982.13052788
0.20100001 282744.14331349 11137.29233149
0.20200001 278493.73001001 10176.16137553
0.20300001 274306.69376012 10072.54227095
0.20400001 270181.79762802 11631.32693765
0.20500001 266117.86329634 9045.34660099
0.20600001 262114.80266813 8952.53150830
0.20700001 258172.09038745 8860.46656092
0.20800001 254288.64464178 9566.33926363
0.20900001 250466.43384813 7889.69303917
0.21000001 246699.80069214 10150.46377931
0.21100001 242992.34060733 10818.01951524
0.21200001 239340.75451363 8411.63121504
0.21300001 235745.73527097 9080.92615194
0.21400001 232206.94997129 8986.40938874
0.21500001 228723.97511078 8892.78857274
0.21600001 225294.12162505 8799.98880673
0.21700001 221918.56170066 10885.10596606
0.21800001 218596.13467410 8617.06003627
0.21900001 215324.87953796 10658.58204108
0.22000001 212105.33962495 7734.42157513
0.22100001 208938.13376904 8349.16822019
0.22200001 205820.94473159 8261.65311217
0.22300001 202752.87447063 7493.74659478
0.22400001 199732.75870508 8763.27520257
0.22500001 196763.61865063 6670.28698768
0.22600001 193839.78004580 10560.39171628
0.22700001 190964.04793132 8490.26197252
0.22800001 188133.42983747 9047.33706873
0.22900001 185348.60381047 6394.52713386
0.23000001 182608.72313969 8858.34957843
0.23100001 179914.33577102 6887.12109903
0.23200001 177261.36166774 6814.81337161
0.23300001 174652.67725503 9808.49481853
0.23400001 172084.73742177 9098.98092152
0.23500001 169558.53035907 6602.60948446
0.23600001 167073.49403766 8315.24819154
0.23700001 164628.38177309 7640.40355946
0.23800001 162222.65310909 8141.95534465
0.23900001 159855.87677791 7481.25538707
0.24000001 157526.86888273 10250.27384304
0.24100001 155236.37485219 9016.12907789
0.24200001 152982.70466334 6133.84183362
0.24300001 150764.78975918 6621.58987944
0.24400001 148582.37270026 6552.48294604
0.24500001 146434.60966031 5943.78108728
0.24600001 144321.51369683 5347.11233541
0.24700001 142243.09879078 6349.73223040
0.24800001 140197.32242349 5760.00726426
0.24900001 138182.90335830 7254.60276951
0.25000001 136201.89878013 5128.00173167
0.25100001 134251.51892294 6597.11995198
0.25200001 132334.01049934 7030.90631046
0.25300001 130444.83762533 5466.94340352
0.25400001 128586.50445785 5410.27743103
0.25500001 126755.77315335 6814.39068713
0.25600001 124955.32147322 4817.02787070
0.25700001 123182.05894345 6674.00426933
0.25800001 121436.19208875 4717.79628587
0.25900001 119718.67922193 5602.83445268
0.26000001 118026.56129665 5544.88811208
0.26100001 116360.47312423 6402.15353422
0.26200001 114720.69328054 7241.17050250
0.26300001 113105.01524263 4926.85469710
0.26400001 111514.71435042 5319.25212621
0.26500001 109948.46115013 5703.02694972
0.26600001 108405.58728833 4775.80837398
0.26700001 106886.24650379 5585.87550661
0.26800001 105389.97618393 4677.73431428
0.26900001 103915.11666733 5891.98739386
0.27000001 102462.86828626 5414.65053082
0.27100001 101031.99622286 4122.10564096
0.27200001 99622.81607586  6119.33176705
0.27300001 98234.36601448  5652.40568797
0.27400001 96864.42899417  5194.35525063
0.27500001 95516.87395521  6327.03803022
0.27600001 94186.68549338  5478.83975444
0.27700001 92877.60109470  3872.99614894
0.27800001 91586.10465440  4599.45439342
0.27900001 90313.62447638  4551.80688904
0.28000001 89058.84944933  5255.36295473
0.28100001 87822.16864475  4829.34128234
0.28200001 86603.55629265  4043.95325248
0.28300001 85401.96554068  3638.12390423
0.28400001 84216.52315919  3960.28218900
0.28500001 83048.53130416  5344.17324237
0.28600001 81896.46953831  3878.20749855
0.28700001 80761.09971332  3837.76764003
0.28800001 79639.92867459  3452.39107146
0.28900001 78536.37188978  4441.23204059
0.29000001 77446.77747763  3380.55199691
0.29100001 76372.92618294  4348.67462270
0.29200001 75313.50529906  3972.03445749
0.29300001 74268.94406268  3275.26058820
0.29400001 73237.85697101  5185.24051900
0.29500001 72222.09218097  6413.32208926
0.29600001 71219.14153912  3490.09419634
0.29700001 70230.23129413  3139.29148746
0.29800001 69255.19007586  3416.70496413
0.29900001 68293.69544468  3687.85972859
0.30000001 67344.14535181  3648.70596789
0.30100001 66408.87281446  3309.15428900
0.30200001 65485.18807475  3273.93213279
0.30300001 64575.05791550  3239.08505838
0.30400001 63677.01373805  3787.19057136
0.30500001 62791.68460164  4034.99384353
0.30600001 61917.20416075  3991.80234123
0.30700001 61055.69414146  3384.92784346
0.30800001 60205.82169698  3069.59396455
0.30900001 59367.93226939  3036.66987935
0.31000001 58541.80954388  3004.07309897
0.31100001 57726.10991055  3241.89848607
0.31200001 56922.98087253  2939.78748635
0.31300001 56130.03800179  2643.72491505
0.31400001 55349.79093254  3138.33329446
0.31500001 54578.98497649  3104.45281245
0.31600002 53820.54210016  2815.08358784
0.31700002 53072.18321458  4556.77786656
0.31800002 52334.31225103  2754.61665576
0.31900002 51607.73023657  2724.88828551
0.32000002 50892.05210016  3185.58815205
0.32100002 50186.10005013  3878.38199551
0.32200002 49491.72184310  2637.66144052
0.32300002 48806.04762437  3320.76363760
0.32400002 48132.09958867  3285.01595248
0.32500002 47467.43625673  2553.27351715
0.32600002 46813.33051838  2985.05216185
0.32700002 46169.52453022  2498.69478590
0.32800002 45536.45185052  2471.94640576
0.32900002 44911.58500927  2445.43591955
0.33000002 44297.80661335  2859.20206325
0.33100002 43692.85103398  2828.67530989
0.33200002 43099.26782508  2368.08938279
0.33300002 42514.61410655  2768.97694789
0.33400002 41940.18371148  2528.99319756
0.33500002 41375.16605628  2293.83931479
0.33600002 40819.43972177  2888.79188591
0.33700002 40273.10479047  2450.21581149
0.33800002 39737.27301785  2626.83255724
0.33900002 39210.09361771  2599.62932997
0.34000002 38692.43351190  2572.85348822
0.34100002 38184.49558393  2742.41060271
0.34200002 37686.29158320  2908.43969067
0.34300002 37196.62524017  1919.34595329
0.34400002 36717.03826904  2280.12818449
0.34500002 36246.39647145  2069.30687256
0.34600002 35785.72021362  2048.91150787
0.34700002 35332.61919725  2028.79909039
0.34800002 34889.82604244  2557.07547176
0.34900002 34455.58723059  1989.81025681
0.35000002 34030.78553421  2687.58141485
0.35100002 33615.55124174  1952.39130859
0.35200002 33207.70494358  2461.68728406
0.35300002 32810.17916312  1916.44265569
0.35400002 32420.68308035  2071.68174696
0.35500002 32040.49808686  1882.05894676
0.35600002 31668.89523591  2543.80413031
0.35700002 31305.75095957  2689.79024985
0.35800002 30951.86140626  2000.10937881
0.35900002 30606.85225604  1652.77010011
0.36000002 30270.32303245  2294.79329779
0.36100002 29941.70392696  1951.00152029
0.36200002 29623.11839306  1774.27676019
0.36300002 29311.52340332  2080.53202972
0.36400002 29008.83613521  1747.05723900
0.36500002 28713.97687710  1734.03714575
0.36600002 28428.11631478  2034.45824044
0.36700002 28149.96334134  2641.59268508
0.36800002 27880.89862535  1543.20781201
0.36900002 27619.59374911  1686.17627826
0.37000002 27365.68710628  2588.93095133
0.37100002 27119.85354028  1967.27426900
0.37200002 26882.76305005  1654.49973029
0.37300002 26653.01052403  1794.28075347
0.37400002 26431.12751315  1784.10119165
0.37500002 26216.98733414  1478.63815569
0.37600002 26010.87394205  1912.18948843
0.37700002 25812.10002507  2341.67382520
0.37800002 25620.60896716  1747.83802654
0.37900002 25437.54365319  1594.93406261
0.38000002 25261.03226757  1876.76848123
0.38100002 25091.21430922  1581.49931283
0.38200002 24929.82474530  2005.10589925
0.38300002 24774.87373685  1569.73607433
0.38400002 24627.30517135  1848.89502333
0.38500002 24486.06787441  2126.61509564
0.38600002 24352.72611305  1837.77856319
0.38700002 24225.33504126  1550.90602282
0.38800002 24104.49054698  1687.79650806
0.38900002 23990.47947217  2526.19760810
0.39000002 23883.54548309  1540.84700984
0.39100002 23782.12048110  1957.74425075
0.39200002 23687.97872833  1536.04705341
0.39300002 23599.12802742  1673.65023900
0.39400002 23517.78677623  1950.80050551
0.39500002 23441.02281009  2227.83491342
0.39600002 23370.65655096  1670.06719626
0.39700002 23305.48116282  1391.33729134
0.39800002 23247.31034629  1947.89222620
0.39900002 23193.55116800  1669.93576322
0.40000002 23145.80180371  1392.22004446
0.40100002 23102.96934815  1532.42002947
0.40200002 23065.98275825  1533.77259618
0.40300002 23033.97133391  2093.78809346
0.40400002 23007.02058770  1816.97953700
0.40500002 22984.63816879  1539.74098388
0.40600002 22967.88054136  1963.06484288
0.40700002 22955.42628334  1545.35937062
0.40800002 22947.23775921  1548.59441355
0.40900002 22943.46788649  1834.33034444
0.41000002 22944.76928244  1555.99960261
0.41100002 22949.96740657  1701.96966351
0.41200002 22958.37446623  1564.49850213
0.41300002 22972.29293737  1711.89535081
0.41400002 22989.27540080  2146.62369226
0.41500002 23009.91636328  1722.98261892
0.41600002 23033.44666689  1872.96480447
0.41700002 23061.89973467  1590.57930007
0.41800002 23094.25970743  2032.06400794
0.41900002 23127.84682051  2185.58162810
0.42000002 23165.36472742  1755.47142223
0.42100002 23206.84242661  2056.59047330
0.42200002 23250.46986077  1770.29085908
0.42300002 23296.84811354  1926.18349330
0.42400002 23345.69934345  2232.43260550
0.42500002 23397.77235172  2242.67658618
0.42600002 23451.08698613  1502.04219264
0.42700002 23507.70792576  2263.79238052
0.42800002 23565.97598724  1668.11768930
0.42900002 23627.21196396  1828.74629267
0.43000002 23690.28601822  1531.57706366
0.43100002 23753.57413431  2462.77068295
0.43200002 23819.94844430  1701.81629725
0.43300002 23887.28316571  2177.08709089
0.43400002 23956.56656228  1719.48264649
0.43500002 24026.78440483  2671.29801672
0.43600002 24098.76481328  1579.67410837
0.43700002 24171.33921930  2223.27988675
0.43800002 24244.48213354  1596.49922415
0.43900002 24319.61045659  1765.60380282
0.44000002 24394.70907047  1613.71008149
0.44100002 24470.94569262  2595.87804209
0.44200002 24547.62807954  2773.02293742
0.44300002 24624.83948202  2788.02445828
0.44400002 24702.31463869  2143.54345436
0.44500002 24779.57688475  1823.52914937
0.44600002 24856.84193087  1833.31646349
0.44700002 24935.31553096  2178.34926802
0.44800002 25012.38110977  1853.04234234
0.44900002 25090.19742090  2540.38260926
0.45000002 25168.02236237  2043.14015221
0.45100002 25244.42727841  2225.04392577
0.45200002 25320.98942061  2064.67357521
0.45300002 25396.45694163  1902.44867966
0.45400002 25471.71736193  2259.97823004
0.45500002 25546.51166978  2096.85777723
0.45600002 25619.93943873  2283.12101129
0.45700002 25692.87649706  2118.12083880
0.45800002 25764.41913891  2306.04444432
0.45900002 25834.80662301  1960.86191562
0.46000002 25904.58598877  1970.43242662
0.46100002 25972.30313244  2519.83296934
0.46200002 26039.32018870  2350.96013466
0.46300002 26104.99919866  1998.59883337
0.46400002 26168.53827043  2190.30675705
0.46500002 26231.72126275  1833.59740317
0.46600002 26292.19871510  2946.82977166
0.46700002 26350.99832986  2219.80820452
0.46800002 26408.98232125  2415.23359266
0.46900002 26464.08286826  2052.28972371
0.47000002 26517.82934580  2248.18167849
0.47100002 26569.74079472  2445.47905865
0.47200002 26619.78351009  2644.14322138
0.47300002 26667.77883942  2654.51083149
0.47400002 26713.00731562  2664.62260603
0.47500002 26756.51332359  2674.58119860
0.47600002 26798.59518937  2876.15936502
0.47700002 26837.36434195  2693.93476033
