# SAXS profile: number of points = 501, q_min = 0, q_max = 0.5, delta_q = 0.001
#    q    intensity    error
0.00000000 1700912.83420644 255.13692513
0.00100000 1700830.37208364 714.34877324
0.00200000 1700582.92570380 918.31480896
0.00300000 1700170.72370938 1428.14345879
0.00400000 1699593.62084348 1657.10384329
0.00500000 1698852.14952101 2293.45049263
0.00600000 1697946.18926582 2317.69664271
0.00700000 1696876.32883747 3461.62785469
0.00800000 1695642.36984904 2975.85248473
0.00900000 1694245.56912300 2795.50530855
0.01000000 1692685.25301853 4189.39618212
0.01100000 1690962.77395784 3348.10643821
0.01200000 1689078.00889419 4281.81294028
0.01300000 1687032.14611534 3897.04442940
0.01400000 1684825.22123721 5686.28537375
0.01500000 1682458.51711205 6864.43105548
0.01600000 1679931.56821483 4712.20825949
0.01700000 1677246.66890891 5887.13607196
0.01800000 1674403.65216339 7158.07593509
0.01900000 1671403.35933792 5014.21030427
0.02000000 1668246.70133747 6305.97281631
0.02100000 1664935.93618774 6043.71772237
0.02200000 1661469.47679169 8024.89793749
0.02300000 1657850.65112293 7758.74140042
0.02400000 1654078.94259283 9304.19447633
0.02500000 1650156.87613668 7722.73453302
0.02600000 1646084.43896233 8666.63496753
0.02700000 1641863.85551023 7585.41135988
0.02800000 1637494.81047225 9972.34385310
0.02900000 1632980.00875567 11022.61556520
0.03000000 1628320.79449644 7571.69204244
0.03100000 1623517.44709888 8572.17251511
0.03200000 1618571.59114181 11216.70164323
0.03300000 1613486.60311837 12343.17308288
0.03400000 1608260.87259824 8443.36997072
0.03500000 1602897.78862418 8655.64845827
0.03600000 1597398.50359645 8865.56210467
0.03700000 1591764.79564184 10887.67170572
0.03800000 1585998.01533644 11133.70658292
0.03900000 1580100.62910068 11376.72505638
0.04000000 1574072.05515351 10648.59794656
0.04100000 1567916.62218787 16792.38780224
0.04200000 1561635.04083795 14101.56507298
0.04300000 1555228.22144421 11290.95741179
0.04400000 1548699.61994031 12544.46750411
0.04500000 1542050.73288427 14896.21077181
0.04600000 1535281.51029994 12988.48218093
0.04700000 1528396.25408271 17607.12566590
0.04800000 1521395.24542709 14536.93224643
0.04900000 1514282.56281435 18171.39159961
0.05000000 1507057.62031368 16140.58786516
0.05100000 1499724.84264712 16376.99604461
0.05200000 1492282.66389766 13050.01250393
0.05300000 1484737.15712288 12026.37153334
0.05400000 1477088.24718221 15841.77218979
0.05500000 1469338.59367435 12342.44476263
0.05600000 1461489.26224378 14994.88053034
0.05700000 1453545.27533034 15175.01338280
0.05800000 1445505.36061463 15351.26764652
0.05900000 1437372.71144528 15523.62600865
0.06000000 1429150.68099844 14384.40227627
0.06100000 1420840.59366128 18499.34539397
0.06200000 1412445.02267500 18686.64852347
0.06300000 1403966.54345394 13478.07944733
0.06400000 1395404.38752139 20407.79012191
0.06500000 1386764.91825658 16474.76799954
0.06600000 1378048.41594173 15234.32595103
0.06700000 1369257.17313718 13966.42381961
0.06800000 1360393.61838338 15488.08207028
0.06900000 1351460.86030287 24123.57748585
0.07000000 1342459.41022673 15726.91272727
0.07100000 1333392.57447689 21600.96071827
0.07200000 1324262.66083369 17400.81217853
0.07300000 1315072.62037893 18976.49880122
0.07400000 1305824.35826420 16159.57719082
0.07500000 1296519.78663435 17736.39151251
0.07600000 1287159.71244447 19326.70398840
0.07700000 1277749.93817786 17939.60997318
0.07800000 1268290.34914955 15029.24134224
0.07900000 1258783.31268597 19637.02059895
0.08000000 1249232.43051440 16695.99221705
0.08100000 1239639.57852594 16772.32428438
0.08200000 1230005.57613468 19907.64118391
0.08300000 1220334.36694601 24601.94199225
0.08400000 1210627.56839774 23153.25333239
0.08500000 1200887.36203055 20138.88200668
0.08600000 1191116.02323511 26424.91021616
0.08700000 1181317.38565670 28068.10240122
0.08800000 1171490.74926700 23459.10335580
0.08900000 1161641.30893325 20386.80592934
0.09000000 1151768.96139350 15721.64706155
0.09100000 1141876.93109748 20485.27310631
0.09200000 1131967.09243682 17370.03584960
0.09300000 1122043.77010282 17402.89969209
0.09400000 1112104.46572311 20601.73619575
0.09500000 1102154.78936169 30154.95645430
0.09600000 1092195.91825830 17480.59649345
0.09700000 1082232.31332788 20681.46047999
0.09800000 1072263.44757706 25476.98071230
0.09900000 1062292.21330528 15934.38394885
0.10000000 1052319.96299949 23913.97228377
0.10100000 1042348.33757521 15947.93031496
0.10200000 1032381.05596094 20735.37448429
0.10300000 1022418.77285541 19139.68032820
0.10400000 1012464.95365985 17540.95614737
0.10500000 1002522.28756054 23910.15768328
0.10600001 992587.22862239 15931.02576900
0.10700001 982668.60290174 17511.15532774
0.10800001 972763.82183769 17495.15815910
0.10900001 962877.44602895 19064.97432868
0.11000001 953009.14747778 15867.60305239
0.11100001 943162.08700889 23767.68571145
0.11200001 933337.19479006 20566.08605539
0.11300001 923536.55100432 22109.46607197
0.11400001 913762.55142741 34677.29045943
0.11500001 904017.01926300 20448.86593863
0.11600001 894300.38141474 20403.46416281
0.11700001 884616.25061147 21920.79172251
0.11800001 874962.89666747 21865.32381754
0.11900001 865343.86041878 17133.80924332
0.12000001 855760.31169800 17085.25542785
0.12100001 846216.75219542 17034.34402415
0.12200001 836710.40867930 21612.23087437
0.12300001 827246.31671240 16925.46043737
0.12400001 817822.20933764 19934.41729186
0.12500001 808441.59819591 16807.50161847
0.12600001 799106.83238171 22834.47881135
0.12700001 789817.77888736 30329.00413857
0.12800001 780575.83209177 21145.80028795
0.12900001 771383.07818706 16546.16780697
0.13000001 762240.37773015 16475.82654122
0.13100001 753147.75270424 16403.55882712
0.13200001 744108.61806226 19298.45791918
0.13300001 735122.77807667 20686.35595029
0.13400001 726190.72493074 17646.43544777
0.13500001 717315.68682939 17559.88884150
0.13600001 708497.16212204 16015.57910492
0.13700001 699736.63944870 20278.36876741
0.13800001 691033.09098786 21612.06093978
0.13900001 682391.46615691 14330.22146508
0.14000001 673809.19377348 18526.38465652
0.14100001 665290.05539006 18421.88250258
0.14200001 656832.35629911 15497.96017784
0.14300001 648439.27656715 19608.80464829
0.14400001 640107.10089838 19491.26214176
0.14500001 631842.85354666 19372.30280357
0.14600001 623643.13840539 17876.73140571
0.14700001 615511.24205534 21862.96034922
0.14800001 607444.12340468 20364.56519791
0.14900001 599445.33860642 13487.52075500
0.15000001 591514.41666820 17417.14282059
0.15100001 583652.51836164 15968.73365586
0.15200001 575860.90416764 14537.60921170
0.15300001 568139.26678071 18373.62475472
0.15400001 560485.70146941 15637.55180895
0.15500001 552904.82865281 16819.36568137
0.15600001 545393.30881813 16697.21693749
0.15700001 537956.18613031 12749.56221303
0.15800001 530587.80599324 16450.87570128
0.15900001 523293.89303708 15070.86483082
0.16000001 516070.21409305 17448.33476209
0.16100001 508921.43969548 16076.82903888
0.16200001 501845.07330531 15951.14640800
0.16300001 494841.75014439 19476.97220515
0.16400001 487912.56772726 16906.17126988
0.16500001 481055.89609062 19165.26780507
0.16600001 474273.75384743 13068.61390427
0.16700001 467564.12021837 12960.87802440
0.16800001 460928.61515919 11684.54094599
0.16900001 454368.47918217 11586.39676623
0.17000001 447880.78969789 12636.95707804
0.17100001 441467.47192034 12528.84744473
0.17200001 435127.62656960 12420.71868697
0.17300001 428861.97495329 13431.95768985
0.17400001 422670.39698689 13314.11813386
0.17500001 416551.53421448 12096.65712488
0.17600001 410504.96773845 11988.79814902
0.17700001 404534.67249701 12961.29151897
0.17800001 398635.55992888 17125.38446341
0.17900001 392808.85564301 12727.00752398
0.18000001 387056.84901275 14712.03152590
0.18100001 381377.36244730 14576.24348127
0.18200001 375767.63691777 12377.78654477
0.18300001 370231.14317841 14305.73204821
0.18400001 364765.85851607 12146.70366240
0.18500001 359372.69202281 18047.69744600
0.18600001 354050.41700100 10924.22613266
0.18700001 348797.75185610 10819.70677375
0.18800001 343614.39573989 15586.34972716
0.18900001 338504.18000911 10612.10654468
0.19000001 333459.46700356 10508.97559915
0.19100001 328486.41184264 13244.57275130
0.19200001 323579.98963546 12177.93348535
0.19300001 318743.89767098 9275.44786051
0.19400001 313973.59705348 9183.72814778
0.19500001 309271.04409418 10911.08295125
0.19600001 304634.02322449 9902.12939285
0.19700001 300065.19976131 9803.13053947
0.19800001 295560.59132371 9704.73247475
0.19900001 291121.34406608 9607.00480821
0.20000001 286745.22624302 12103.51657174
0.20100001 282434.91195216 9413.55606027
0.20200001 278186.25613466 11012.00346956
0.20300001 274001.28795930 9222.88378863
0.20400001 269878.53545373 9958.51842894
0.20500001 265816.69904964 10677.85730553
0.20600001 261815.81844635 9755.25785642
0.20700001 257875.42652912 8850.28505682
0.20800001 253994.36756056 9555.26855931
0.20900001 250174.64171169 7880.50158644
0.21000001 246410.40081004 11698.33433146
0.21100001 242705.63813768 10033.45155493
0.21200001 239056.65773623 9165.43269090
0.21300001 235464.34871824 8314.24654630
0.21400001 231928.30207298 8975.62571456
0.21500001 228448.22840291 9622.23983525
0.21600001 225021.07208342 12451.54161243
0.21700001 221648.54545887 7247.90777918
0.21800001 218329.23006931 8606.53865625
0.21900001 215061.02469988 7806.71556572
0.22000001 211844.63688543 9129.44505824
0.22100001 208680.56667410 9033.78215847
0.22200001 205566.67249614 6876.20552013
0.22300001 202501.94798372 6804.06577399
0.22400001 199485.31327814 6732.62964150
0.22500001 196519.65879562 6662.01674820
0.22600001 193599.30886286 7910.46813421
0.22700001 190727.08647646 7175.15333255
0.22800001 187900.20964497 8390.68425849
0.22900001 185119.04364556 7663.92876936
0.23000001 182382.89245275 7583.48102682
0.23100001 179692.24408388 7503.94846783
0.23200001 177043.31319817 6806.43049780
0.23300001 174438.44322534 7347.34757614
0.23400001 171874.35735790 9087.85707511
0.23500001 169352.25642760 7194.08419330
0.23600001 166871.27925525 6525.50168391
0.23700001 164430.38568746 6457.18155136
0.23800001 162028.67015264 9293.96495955
0.23900001 159666.07280967 6322.77678233
0.24000001 157341.33943141 7394.25659633
0.24100001 155055.20059809 5628.50404795
0.24200001 152805.85409922 6126.75100992
0.24300001 150592.27093566 7165.18059005
0.24400001 148414.33537487 5999.64979133
0.24500001 146271.02791529 7556.36165955
0.24600001 144162.41722219 7477.70493505
0.24700001 142088.55217479 7399.97214733
0.24800001 140047.38580537 5230.77010728
0.24900001 138037.58390092 6729.33253352
0.25000001 136061.18329064 7171.78531053
0.25100001 134115.47134007 5069.56505649
0.25200001 132202.64733383 8529.05419625
0.25300001 130318.25867453 6951.17624656
0.25400001 128464.77919806 6387.91144784
0.25500001 126638.74549736 6808.09928004
0.25600001 124843.12596110 5775.24328020
0.25700001 123074.70426778 5239.29040857
0.25800001 121333.72388411 6599.34155430
0.25900001 119621.04984080 5131.74328098
0.26000001 117933.86171355 6925.66635682
0.26100001 116272.69944568 7311.22768708
0.26200001 114637.89125487 5426.95802879
0.26300001 113027.17919586 5818.63946033
0.26400001 111441.82378808 6201.73778726
0.26500001 109880.55146901 5699.50447439
0.26600001 108342.71118509 5640.86352477
0.26700001 106828.26875615 6012.29525010
0.26800001 105337.14245949 5100.42467925
0.26900001 103867.31764732 4627.28922016
0.27000001 102420.10238597 4579.71509491
0.27100001 100994.31402888 4532.62502811
0.27200001 99590.17937586  4893.86164612
0.27300001 98206.69192579  4843.55427500
0.27400001 96841.80688901  5992.08708483
0.27500001 95499.35909253  5139.77574960
0.27600001 94174.25238793  5478.11652066
0.27700001 92870.14976257  4259.95397122
0.27800001 91583.66615826  4599.33193214
0.27900001 90316.28668945  4172.61264253
0.28000001 89066.50790891  4504.98418325
0.28100001 87834.78051768  4086.95253092
0.28200001 86621.08028681  4044.77153543
0.28300001 85424.51925595  4730.81010030
0.28400001 84243.97929439  4321.71634235
0.28500001 83080.99074974  4277.00960623
0.28600001 81933.82589107  3527.25137156
0.28700001 80803.39868556  7679.55537457
0.28800001 79687.16622505  3454.43881937
0.28900001 78588.39934780  3760.45508679
0.29000001 77503.67077492  3721.33892840
0.29100001 76434.56330873  4686.96764395
0.29200001 75379.96463496  3975.53952303
0.29300001 74340.09550960  4261.91787731
0.29400001 73313.83248804  4866.20586174
0.29500001 72302.80090225  4494.34231683
0.29600001 71304.43273219  4447.25768003
0.29700001 70320.16245030  4400.63597446
0.29800001 69349.74058333  4043.43681612
0.29900001 68392.79207300  4616.51368347
0.30000001 67447.71516741  4263.37027756
0.30100001 66516.90609082  3615.85918627
0.30200001 65597.60208886  4472.11673412
0.30300001 64691.81086830  3539.93605830
0.30400001 63798.14043391  4086.27108824
0.30500001 62917.12427693  3754.26498334
0.30600001 62046.88709179  4857.34078594
0.30700001 61189.59946991  3392.35155522
0.30800001 60343.85821023  3076.63175651
0.30900001 59510.04514642  3597.38239942
0.31000001 58687.89655699  3559.12765520
0.31100001 57876.32611715  3250.33462863
0.31200001 57077.02055557  2947.74286616
0.31300001 56287.97805611  2916.28028116
0.31400001 55511.62155752  3672.09393989
0.31500001 54744.44664848  2854.37558340
0.31600002 53989.78051763  3850.82127775
0.31700002 53245.04756812  2793.76777818
0.31800002 52510.73619397  3517.69438419
0.31900002 51787.71549187  2982.97255357
0.32000002 51075.46855162  3442.99749809
0.32100002 50372.90869952  2676.31276593
0.32200002 49681.77137222  2647.79013066
0.32300002 48999.39598552  3095.78198495
0.32400002 48328.63082134  3062.82712333
0.32500002 47667.11029443  2564.01398415
0.32600002 47015.91688678  2536.74391575
0.32700002 46375.13885012  2509.82263342
0.32800002 45744.96392901  2709.01689216
0.32900002 45122.87784281  2233.58255899
0.33000002 44511.85655874  2652.01653935
0.33100002 43909.58316823  2405.36707986
0.33200002 43318.57944809  2596.51577508
0.33300002 42736.44387502  2355.20553348
0.33400002 42164.37939710  3390.01626406
0.33500002 41601.79293488  2306.40350953
0.33600002 41048.29797881  2282.49071720
0.33700002 40504.23826220  2053.56497714
0.33800002 39970.46380097  2845.49745275
0.33900002 39445.36119227  3419.91297733
0.34000002 38929.56170671  2986.87076340
0.34100002 38423.51792161  3350.91515664
0.34200002 37927.13538261  2536.75657020
0.34300002 37439.21852500  2511.42289760
0.34400002 36961.30023678  3060.39580454
0.34500002 36492.06963299  2462.12005474
0.34600002 36032.88470374  1875.51173765
0.34700002 35581.14875640  2228.80326366
0.34800002 35139.69397914  2575.38829370
0.34900002 34706.56316750  2186.51358311
0.35000002 34282.91627706  2526.99387847
0.35100002 33868.74348256  1967.09671463
0.35200002 33461.76331096  2303.34058660
0.35300002 33065.10235343  1755.75701813
0.35400002 32676.41149146  2262.02469263
0.35500002 32296.90974960  2069.58607478
0.35600002 31925.84311633  2735.40636777
0.35700002 31563.24324947  2033.93549133
0.35800002 31209.81002740  2520.97252437
0.35900002 30865.14489597  1833.38969366
0.36000002 30528.78294108  1983.76040947
0.36100002 30200.29219815  1803.86353844
0.36200002 29881.88961718  2115.18965674
0.36300002 29570.21104478  1937.44031942
0.36400002 29267.47489068  1922.87319140
0.36500002 28972.39002843  1908.70114548
0.36600002 28686.28794397  2210.85231657
0.36700002 28407.81501226  1881.73375555
0.36800002 28138.21251452  2180.43019103
0.36900002 27876.41696067  1701.85533606
0.37000002 27621.91609036  1998.30761422
0.37100002 27375.36024862  1527.54517423
0.37200002 27137.49483298  1670.17719861
0.37300002 26906.88286681  2717.05716060
0.37400002 26683.97216957  1651.07085620
0.37500002 26468.87068256  2388.55100354
0.37600002 26261.55854090  1633.60032642
0.37700002 26061.65448422  2216.54381888
0.37800002 25868.94368927  1911.84437392
0.37900002 25684.50513763  1903.22192086
0.38000002 25506.55108037  1895.00930229
0.38100002 25335.21841661  1596.87889245
0.38200002 25172.23164180  2024.60268686
0.38300002 25015.64845505  1729.08170313
0.38400002 24866.32909450  2297.64891718
0.38500002 24723.27001164  1717.77288179
0.38600002 24588.04984746  1998.27090577
0.38700002 24458.64160793  1850.54091173
0.38800002 24335.78583337  1703.99180478
0.38900002 24219.61355792  1841.90169834
0.39000002 24110.49568860  1979.71289478
0.39100002 24006.78864304  1976.23893472
0.39200002 23910.34388676  1550.46632279
0.39300002 23819.08586226  1830.02045350
0.39400002 23735.29744001  1968.84301593
0.39500002 23656.01202479  2248.26748935
0.39600002 23583.04402202  1825.68143946
0.39700002 23515.20739379  1403.85794792
0.39800002 23454.34159196  1824.86513402
0.39900002 23397.78965540  1544.25419042
0.40000002 23347.15722513  1966.06420308
0.40100002 23301.42557219  1545.58363143
0.40200002 23261.52573844  1968.62301652
0.40300002 23226.46255150  1829.78080650
0.40400002 23196.48152144  1550.10495111
0.40500002 23170.94300192  1693.33259481
0.40600002 23151.00299334  1978.71631959
0.40700002 23135.28924023  2406.99560660
0.40800002 23123.84241782  1560.51257951
0.40900002 23116.75888063  2274.68918163
0.41000002 23114.67390166  1710.02365627
0.41100002 23116.46414561  1714.31706227
0.41200002 23121.32872631  2291.78621194
0.41300002 23131.76476839  2154.72399027
0.41400002 23145.16076806  1728.94359130
0.41500002 23162.27988649  1878.92423342
0.41600002 23182.09616328  2175.06027558
0.41700002 23206.95410700  1600.58370060
0.41800002 23235.56060009  2190.53257937
0.41900002 23265.43806815  2345.15626839
0.42000002 23299.15135413  2207.01221660
0.42100002 23336.78772750  2215.82809972
0.42200002 23376.60336859  1631.57010942
0.42300002 23419.06599743  1787.34320162
0.42400002 23464.08406226  2094.16960179
0.42500002 23512.19404115  2103.40097859
0.42600002 23561.56321324  2263.67729298
0.42700002 23614.23437293  1819.24070230
0.42800002 23668.48508376  1827.68050478
0.42900002 23725.76704837  1530.31204714
0.43000002 23784.72115489  1845.21875464
0.43100002 23844.01518142  2008.61993407
0.43200002 23906.32404043  2018.53056601
0.43300002 23969.60590373  1560.42141828
0.43400002 24034.81336540  1725.09881105
0.43500002 24100.91504917  2049.05989458
0.43600002 24168.79556701  1742.69108694
0.43700002 24237.25949109  1910.86562883
0.43800002 24306.26300717  1760.62424436
0.43900002 24377.27712992  2091.57047687
0.44000002 24448.29588624  1617.25484952
0.44100002 24520.40724108  2113.41400026
0.44200002 24592.92661300  1961.04006105
0.44300002 24666.03497056  1807.03380758
0.44400002 24739.36900540  1816.48825531
0.44500002 24812.51618562  1991.94889378
0.44600002 24885.66825785  2169.15937649
0.44700002 24960.08142870  3019.17159270
0.44800002 25033.06127680  2191.76978396
0.44900002 25106.76680143  1864.17752335
0.45000002 25180.56324085  2214.50473917
0.45100002 25252.97530423  2225.79734880
0.45200002 25325.47454198  2237.12589969
0.45300002 25396.89693380  1729.52876316
0.45400002 25468.20416472  2085.84601995
0.45500002 25539.03423104  1921.55702661
0.45600002 25608.47245318  2106.55304384
0.45700002 25677.52383439  2116.85516523
0.45800002 25745.13424735  1949.80783463
0.45900002 25811.68303941  2137.20745695
0.46000002 25877.60079100  2505.21065131
0.46100002 25941.50935193  2337.07068828
0.46200002 26004.72628141  2709.04248876
0.46300002 26066.61639265  2902.77853906
0.46400002 26126.47930692  2186.78642163
0.46500002 26185.96265922  2196.47865196
0.46600002 26242.76504135  2205.96693393
0.46700002 26297.98189518  2030.73025819
0.46800002 26352.32219570  2410.05174063
0.46900002 26403.96871426  2233.77585910
0.47000002 26454.18161758  2803.48202980
0.47100002 26502.64361860  2626.94215998
0.47200002 26549.25244773  2637.13737063
0.47300002 26593.89895401  2079.90893577
0.47400002 26635.78215547  2846.69935279
0.47500002 26676.05845007  2095.13772997
0.47600002 26714.87950008  2102.59469071
0.47700002 26750.39437821  2685.20471496
