# SAXS profile: number of points = 501, q_min = 0, q_max = 0.5, delta_q = 0.001
#    q    intensity    error
0.00000000 1664650.74656090 324.60689558
0.00100000 1664569.26114379 649.18202726
0.00200000 1664324.73411283 823.84076947
0.00300000 1663917.40591608 1297.85562285
0.00400000 1663347.13599135 2245.51871891
0.00500000 1662614.42886936 1945.25895877
0.00600000 1661719.18102905 2093.76625334
0.00700000 1660661.98455660 3188.47114286
0.00800000 1659442.63651150 2464.27241926
0.00900000 1658062.37185251 3233.22176333
0.01000000 1656520.56316539 3279.91085669
0.01100000 1654818.47960333 3574.40807157
0.01200000 1652956.06571634 3545.59091641
0.01300000 1650934.46370104 4160.35503202
0.01400000 1648753.74016422 4451.63529579
0.01500000 1646415.18968581 5531.95528368
0.01600000 1643918.30695580 6287.98780520
0.01700000 1641265.35525416 6203.98332116
0.01800000 1638456.16985525 4669.60029421
0.01900000 1635491.57860891 5397.12245294
0.02000000 1632372.63586972 6684.56624627
0.02100000 1629101.37128366 6451.24172277
0.02200000 1625676.36896969 6169.44210053
0.02300000 1622100.85608922 5839.56334773
0.02400000 1618374.30025841 9710.24624431
0.02500000 1614499.21416409 6926.20194509
0.02600000 1610475.69286171 7174.66953986
0.02700000 1606305.91335622 7421.13365960
0.02800000 1601989.45969883 8362.38536312
0.02900000 1597529.08718927 9345.54558915
0.03000000 1592926.10146402 8147.81738351
0.03100000 1588180.83226017 9147.92201474
0.03200000 1583294.70461636 9404.77097859
0.03300000 1578271.40908148 10463.93992460
0.03400000 1573109.27504752 8258.82407506
0.03500000 1567811.39561467 8466.18192727
0.03600000 1562379.03707643 12139.68567910
0.03700000 1556814.06112519 8873.84055881
0.03800000 1551117.79339113 14518.46321805
0.03900000 1545292.58052228 10198.93150376
0.04000000 1539338.09865227 9466.92974540
0.04100000 1533258.36430579 11591.43377161
0.04200000 1527054.12481498 10834.44951820
0.04300000 1520726.30692520 11040.47350075
0.04400000 1514278.44089677 15332.06992613
0.04500000 1507712.08899123 13524.17806665
0.04600000 1501026.97717069 15873.36102148
0.04700000 1494227.37060964 12910.12508249
0.04800000 1487313.84456476 15304.46017266
0.04900000 1480290.08181983 13322.61135651
0.05000000 1473155.54297695 16904.46064284
0.05100000 1465915.00113789 16007.79255813
0.05200000 1458566.56012624 13914.72563205
0.05300000 1451116.33544601 17631.06429759
0.05400000 1443564.23795348 20245.98938145
0.05500000 1435912.99903684 15680.17068095
0.05600000 1428163.40743938 13431.87747375
0.05700000 1420320.75539367 14828.14937847
0.05800000 1412383.96504007 14999.51840909
0.05900000 1404355.49852103 13903.12008471
0.06000000 1396239.28110924 20440.94403042
0.06100000 1388036.43957998 16781.36133874
0.06200000 1379749.37762257 19557.94834201
0.06300000 1371381.22998114 15798.31250804
0.06400000 1362930.50703817 18604.00229112
0.06500000 1354403.68658572 18772.03597419
0.06600000 1345801.66064611 17582.89951902
0.06700000 1337125.61353566 15002.55008597
0.06800000 1328379.04827122 16498.46855181
0.06900000 1319564.41423021 23554.22589679
0.07000000 1310682.62749098 13958.77063645
0.07100000 1301736.47367140 23899.88277602
0.07200000 1292728.58626607 18401.99228757
0.07300000 1283661.64925437 18523.23846666
0.07400000 1274537.80764736 18640.11631040
0.07500000 1265358.84953996 18752.61902916
0.07600000 1256125.80044460 18860.72977788
0.07700000 1246843.82269345 17505.68809143
0.07800000 1237513.45332193 14664.53510958
0.07900000 1228136.65011477 17685.16859115
0.08000000 1218717.40615982 14807.41717947
0.08100000 1209256.62271897 29747.71431460
0.08200000 1199756.18055894 17924.35817865
0.08300000 1190219.80416287 16496.44725991
0.08400000 1180648.38124584 16558.59432421
0.08500000 1171045.14153512 19638.42794547
0.08600000 1161411.27880610 18187.70148004
0.08700000 1151751.09468500 16723.42668012
0.08800000 1142063.90544398 16771.20923908
0.08900000 1132355.19367731 16815.47541593
0.09000000 1122624.24210729 16856.20378707
0.09100000 1112874.42810728 19964.96817822
0.09200000 1103107.59032489 15388.35160808
0.09300000 1093328.65922265 18499.12178336
0.09400000 1083534.15129371 15440.36238159
0.09500000 1073730.13550925 21646.40054931
0.09600000 1063917.63349156 17028.00252448
0.09700000 1054101.19011852 17044.81704554
0.09800000 1044280.19179249 21710.58620815
0.09900000 1034458.02347474 21723.61951447
0.10000000 1024634.87474006 20180.18480702
0.10100000 1014813.65426311 21737.30949666
0.10200000 1004997.30422128 20185.37180473
0.10300000 995186.59060327 23287.36731557
0.10400000 985384.92593763 17071.79464501
0.10500000 975594.55938297 17063.14964642
0.10600001 965813.27281070 17051.43413380
0.10700001 956048.24121621 17036.78046018
0.10800001 946298.08637552 17019.17188441
0.10900001 936566.66460210 23180.02603989
0.11000001 926853.87205313 15432.11769607
0.11100001 917162.45781850 21571.66202334
0.11200001 907494.25073253 19996.63675628
0.11300001 897850.41265196 16888.56705711
0.11400001 888233.78870498 15322.03357659
0.11500001 878645.79605929 18346.12508560
0.11600001 869087.43805361 24403.97640976
0.11700001 859561.64612363 24342.78696464
0.11800001 850067.31981413 18208.44284801
0.11900001 840607.60600459 21183.31266908
0.12000001 831183.47225965 16594.57880535
0.12100001 821799.42160443 19550.60916096
0.12200001 812453.41549761 14989.76622212
0.12300001 803149.20563445 14938.57592862
0.12400001 793885.89386299 16373.89733242
0.12500001 784665.76531535 16313.20202959
0.12600001 775492.19735672 19205.06517255
0.12700001 766364.19269967 16185.61251259
0.12800001 757283.44551862 20514.80950595
0.12900001 748251.94501592 16050.00497706
0.13000001 739270.77307933 15979.33851329
0.13100001 730339.97941628 15906.80550150
0.13200001 721462.03163141 18711.11867241
0.13300001 712637.95292124 17188.82823479
0.13400001 703867.85061775 17103.98957639
0.13500001 695154.50773916 19853.61367709
0.13600001 686497.46556510 18339.78065731
0.13700001 677898.84920672 15435.75752428
0.13800001 669357.18626135 19538.53718832
0.13900001 660876.93330583 22205.46600625
0.14000001 652456.33924378 15179.39744838
0.14100001 644098.51484492 15091.22891456
0.14200001 635802.08025386 15001.75079115
0.14300001 627570.14691797 20333.27371921
0.14400001 619399.11206670 20207.89698438
0.14500001 611295.65525135 17403.58812597
0.14600001 603256.74935948 15962.17434106
0.14700001 595285.23488025 21144.53254047
0.14800001 587377.99214040 14440.68861806
0.14900001 579539.56407317 15647.56896824
0.15000001 571768.38603410 14245.61001019
0.15100001 564065.84095507 14146.77195867
0.15200001 556433.41052633 14047.16211158
0.15300001 548870.42439231 15214.68888212
0.15400001 541375.67853222 12586.98511987
0.15500001 533952.92560431 16242.84876343
0.15600001 526599.23882422 18602.11898939
0.15700001 519319.69606461 17231.02832867
0.15800001 512108.31487548 17099.29744076
0.15900001 504971.17683174 13331.23969760
0.16000001 497903.66701088 14429.24895107
0.16100001 490910.94322593 17893.70472524
0.16200001 483990.14651617 15383.62753322
0.16300001 477141.84878603 12911.45903767
0.16400001 470366.93882715 12805.74051412
0.16500001 463664.18757751 13854.28657890
0.16600001 457035.30702801 11448.73498158
0.16700001 450478.87096412 17028.10212642
0.16800001 443996.01192932 12380.82937723
0.16900001 437587.47722100 13390.17743522
0.17000001 431250.94401846 15486.22213096
0.17100001 424988.29460911 14254.10807429
0.17200001 418798.84537364 14128.17971585
0.17300001 412682.37705982 12925.21265990
0.17400001 406639.96695648 16011.44945507
0.17500001 400669.34405759 11635.43830095
0.17600001 394770.60545044 12577.39208367
0.17700001 388947.27434078 15577.33907308
0.17800001 383194.37184613 13375.40018104
0.17900001 377513.74957156 14270.02040783
0.18000001 371906.31909511 13126.43415249
0.18100001 366371.02185771 10001.92936917
0.18200001 360905.28804184 9906.85062473
0.18300001 355511.50536046 12755.75341491
0.18400001 350188.59393804 15548.37430537
0.18500001 344936.68580947 16360.34778084
0.18600001 339754.98832546 9530.12787277
0.18700001 334642.61384422 10380.61437188
0.18800001 329598.43311100 11212.93922420
0.18900001 324626.64091412 9251.85970318
0.19000001 319719.47391466 12823.94870463
0.19100001 314883.13435663 10882.36163756
0.19200001 310113.03638200 12568.88195846
0.19300001 305412.04227468 12442.48719021
0.19400001 300776.10776254 8797.70156778
0.19500001 296206.98452489 10450.18290786
0.19600001 291702.93822326 12067.75112457
0.19700001 287265.83329093 8531.79565193
0.19800001 282892.15742081 8444.33129808
0.19900001 278583.21668996 10864.74596438
0.20000001 274336.46023433 10752.61806707
0.20100001 270154.44248147 10641.38399228
0.20200001 266033.62421573 9720.86908828
0.20300001 261975.14241969 8016.43973694
0.20400001 257978.44868273 11105.97274072
0.20500001 254041.59915795 10204.85152053
0.20600001 250164.73501865 8544.37692844
0.20700001 246347.60269977 9991.85923781
0.20800001 242588.58407113 9126.18296415
0.20900001 238890.21444742 11287.56316622
0.21000001 235246.50232985 10423.77301099
0.21100001 231661.05601460 9576.86850837
0.21200001 228130.72467746 8746.53239762
0.21300001 224656.05477212 10096.04357875
0.21400001 221236.58402197 7134.88017202
0.21500001 217872.45917313 7764.97481204
0.21600001 214560.10993869 10475.89786304
0.21700001 211301.24381161 9673.37139905
0.21800001 208094.89219061 10253.87629750
0.21900001 204939.02628224 11497.07991803
0.22000001 201833.49242683 7359.85864934
0.22100001 198779.73278926 9929.04812230
0.22200001 195774.81194808 9168.13487704
0.22300001 192818.31212032 7126.56515295
0.22400001 189909.10562683 11536.97871237
0.22500001 187049.57142240 6975.07884817
0.22600001 184234.60802478 6900.50756988
0.22700001 181466.69979294 9309.24213960
0.22800001 178743.46964762 9209.75770912
0.22900001 176064.45287106 6681.64630244
0.23000001 173429.92343006 7812.15127036
0.23100001 170839.77827537 8917.83684772
0.23200001 168290.24996857 7058.09341748
0.23300001 165784.03609471 6400.92193634
0.23400001 163317.97741353 6908.35077132
0.23500001 160892.36602112 7973.82603714
0.23600001 158506.99422533 6761.90869347
0.23700001 156161.10553555 6132.44690443
0.23800001 153853.23210168 6618.76635807
0.23900001 151583.57450599 6548.41072840
0.24000001 149350.73466510 5399.02931352
0.24100001 147155.63450056 6410.09974205
0.24200001 144996.35914556 7927.67631128
0.24300001 142871.76454055 5752.01751249
0.24400001 140782.11122764 6725.86568206
0.24500001 138726.10148993 5118.99338713
0.24600001 136703.97122247 5571.37061073
0.24700001 134715.27794581 9020.53543798
0.24800001 132758.48538952 6941.94152942
0.24900001 130832.42739162 6378.08113707
0.25000001 128938.67584491 5339.99551274
0.25100001 127074.65823257 6244.44900097
0.25200001 125242.41729622 5703.53995350
0.25300001 123438.10953391 5643.59063489
0.25400001 121663.53360317 5118.99341854
0.25500001 119915.74164207 5065.24116661
0.25600001 118197.20092181 5012.15254223
0.25700001 116504.96986432 7213.98807532
0.25800001 114839.59336652 5353.82209606
0.25900001 113201.31145644 4856.33649126
0.26000001 111587.90144176 5242.39985778
0.26100001 109999.30037309 5187.56725105
0.26200001 108436.62526864 5133.39008311
0.26300001 106896.86328305 5926.36238083
0.26400001 105381.82033384 6283.39133472
0.26500001 103889.87322782 5388.76797932
0.26600001 102420.58634901 5742.72254833
0.26700001 100973.83821471 4059.14848831
0.26800001 99549.43323924  4418.50180341
0.26900001 98145.74818501  5167.37388647
0.27000001 96763.81250091  5113.48391359
0.27100001 95402.30779556  4281.65577648
0.27200001 94061.79742752  6162.92925910
0.27300001 92741.08019819  4955.15614949
0.27400001 91438.32333900  3771.83101623
0.27500001 90157.05593853  4852.25298025
0.27600001 88892.20614613  5170.85987624
0.27700001 87647.76141856  6213.35010102
0.27800001 86420.26888405  3616.68842397
0.27900001 85210.99883529  3936.74833251
0.28000001 84018.73721820  4603.80692376
0.28100001 82843.75881553  4555.57851288
0.28200001 81685.94683068  4161.08232850
0.28300001 80544.46933597  4460.55292295
0.28400001 79418.54144216  4753.19993029
0.28500001 78309.24326868  4031.36003428
0.28600001 77215.13735913  4653.75654891
0.28700001 76137.02135585  3289.11947825
0.28800001 75072.60720811  3579.83744416
0.28900001 74024.62403491  3542.07842773
0.29000001 72990.28178208  3823.23114072
0.29100001 71970.95935198  3467.56098571
0.29200001 70965.30536310  3430.81785018
0.29300001 69973.70595586  3703.00869447
0.29400001 68995.13124227  3663.64164239
0.29500001 68031.22931183  3624.70406932
0.29600001 67079.24113780  4183.73246781
0.29700001 66140.98644396  3252.15245740
0.29800001 65215.65393349  3509.90666085
0.29900001 64303.26763056  4629.83548857
0.30000001 63402.40991897  4866.45220371
0.30100001 62514.90023194  2831.92511457
0.30200001 61638.62348850  3081.62312719
0.30300001 60775.01499276  2771.34081487
0.30400001 59923.07651818  3289.77705659
0.30500001 59083.16605157  3796.68443022
0.30600001 58253.68061134  3219.09854298
0.30700001 57436.58073802  2653.57015573
0.30800001 56630.33466842  3412.26097699
0.30900001 55835.52290077  3375.25751915
0.31000001 55051.83979083  2568.16844783
0.31100001 54278.33930378  3048.27167962
0.31200001 53516.56322767  2763.86303875
0.31300001 52764.68208984  3727.82496615
0.31400001 52024.87758784  2949.81069889
0.31500001 51294.09815724  2674.47440455
0.31600002 50574.95885202  2404.83940728
0.31700002 49865.30979980  3092.14800709
0.31800002 49165.81252471  2352.58424070
0.31900002 48477.14307058  2792.28357308
0.32000002 47798.56697444  2761.80133055
0.32100002 47129.57035344  4097.44504054
0.32200002 46471.51864139  2476.69970327
0.32300002 45821.61717275  3117.70298006
0.32400002 45182.90056895  2643.19980844
0.32500002 44553.42868246  2396.52904231
0.32600002 43933.81038677  3016.93490212
0.32700002 43323.97134895  2344.69344043
0.32800002 42724.53506736  3162.68385812
0.32900002 42132.71860824  2294.12663685
0.33000002 41551.81891001  2269.35269723
0.33100002 40979.18178994  2244.83968476
0.33200002 40417.50727309  2826.39641745
0.33300002 39864.38429315  2995.80862150
0.33400002 39321.09134375  2173.47342695
0.33500002 38786.74789813  2541.30784263
0.33600002 38261.28975457  2320.92994642
0.33700002 37744.91738328  2487.76762255
0.33800002 37238.65305473  2461.66127676
0.33900002 36740.62729873  2061.14928907
0.34000002 36251.75792165  1854.27750551
0.34100002 35772.12618285  2018.62117610
0.34200002 35302.21596315  2542.81873625
0.34300002 34840.40042477  1977.54122177
0.34400002 34388.27774975  2313.47149518
0.34500002 33944.63098619  2642.58964743
0.34600002 33510.59453190  2093.07183359
0.34700002 33084.05449137  1899.68649887
0.34800002 32667.38695321  2223.17912439
0.34900002 32258.95039515  2709.75196153
0.35000002 31859.63580230  2348.37386621
0.35100002 31469.66403900  1993.91800795
0.35200002 31086.68337539  3127.47592911
0.35300002 30713.76517217  2120.17131025
0.35400002 30348.88968927  1777.68629775
0.35500002 29992.79218731  1921.93821439
0.35600002 29644.82083183  1746.22825381
0.35700002 29305.34146519  1731.06660234
0.35800002 28974.63981551  2028.36975636
0.35900002 28652.72688804  1701.97205776
0.36000002 28338.93816687  1994.91964675
0.36100002 28032.86918861  1674.40335595
0.36200002 27736.46643267  1510.25066879
0.36300002 27446.97759192  1948.18656175
0.36400002 27166.21906736  2231.02584658
0.36500002 26892.84890033  1771.70096947
0.36600002 26628.39756040  1759.07202616
0.36700002 26371.43087368  1892.41396914
0.36800002 26123.24692932  2168.88267904
0.36900002 25882.76909847  1723.79250361
0.37000002 25649.45004861  2141.08794423
0.37100002 25423.94926066  2127.98465392
0.37200002 25207.01045721  2115.49845283
0.37300002 24997.23122676  1682.81368590
0.37400002 24795.05419823  1534.19405119
0.37500002 24600.64813411  1664.97194459
0.37600002 24413.89737030  1380.60596169
0.37700002 24234.25222628  2610.75611601
0.37800002 24062.07948658  1915.10099706
0.37900002 23897.82227842  1498.39352784
0.38000002 23740.14085796  2035.12367146
0.38100002 23588.86722986  1621.97058756
0.38200002 23445.92684153  1616.36227303
0.38300002 23309.18767535  1745.39205582
0.38400002 23179.77364974  1472.49519086
0.38500002 23056.55040277  1468.47176472
0.38600002 22941.03135417  1598.07231984
0.38700002 22831.32258455  1860.29625232
0.38800002 22728.17756901  1591.42706878
0.38900002 22631.60678196  1323.94905947
0.39000002 22541.93924194  1586.50175901
0.39100002 22457.80008050  1584.62244875
0.39200002 22380.54036104  1583.19950015
0.39300002 22308.74366377  1450.29149429
0.39400002 22244.15913283  1317.96649106
0.39500002 22184.24056719  1449.51834734
0.39600002 22130.48113547  1317.87021406
0.39700002 22081.79692822  1977.42500861
0.39800002 22039.93231709  1846.72601634
0.39900002 22002.51973991  1716.19662102
0.40000002 21970.90329352  1585.85987486
0.40100002 21944.21603447  1852.53080540
0.40200002 21923.28522127  1457.78891986
0.40300002 21907.14000308  1593.08729650
0.40400002 21895.88342533  1596.20997733
0.40500002 21889.21416048  1866.27448775
0.40600002 21888.17042456  1469.90015451
0.40700002 21891.14204085  1741.65934329
0.40800002 21898.48631715  1746.51385898
0.40900002 21909.96292546  1616.95534051
0.41000002 21926.51008276  1892.47717491
0.41100002 21946.88595903  1763.21290149
0.41200002 21970.45935323  1361.07002142
0.41300002 21999.35771322  1639.39221447
0.41400002 22031.27959940  1508.59194205
0.41500002 22066.87822520  1652.36791980
0.41600002 22105.25596876  2350.56250482
0.41700002 22148.45594169  1527.57907868
0.41800002 22195.33573396  2371.46075886
0.41900002 22243.59606972  1541.48128067
0.42000002 22295.62626121  1548.76575162
0.42100002 22351.37182230  2122.26285509
0.42200002 22409.57753635  1706.26531447
0.42300002 22470.16631869  1714.92317471
0.42400002 22533.37377713  2154.75396954
0.42500002 22599.48435945  1732.92854280
0.42600002 22666.89302539  2468.08476402
0.42700002 22737.66530930  2043.66145484
0.42800002 22809.97461002  1467.82193571
0.42900002 22885.12720368  1918.91800696
0.43000002 22961.85196936  1632.93218018
0.43100002 23038.98625242  2239.38956985
0.43200002 23119.17763917  1651.74972470
0.43300002 23200.12366648  1812.39374671
0.43400002 23283.03591732  1974.98361528
0.43500002 23366.67672811  2292.27109566
0.43600002 23452.24267912  2305.94187070
0.43700002 23538.18150830  1701.10445822
0.43800002 23624.65841369  1555.68383026
0.43900002 23713.12635672  1721.57305508
0.44000002 23801.51157820  1731.91707206
0.44100002 23890.93095331  2534.35007563
0.44200002 23980.69855670  2230.92449245
0.44300002 24071.03982627  2725.32325828
0.44400002 24161.47832045  1774.05662975
0.44500002 24251.63053991  2595.89465601
0.44600002 24341.85347894  2611.39416498
0.44700002 24433.07010590  1970.28286671
0.44800002 24523.01084745  1981.94983062
0.44900002 24613.37025193  1993.68308489
0.45000002 24703.88879921  2005.46178776
0.45100002 24792.79759257  2185.23728337
0.45200002 24881.82454108  1859.79206346
0.45300002 24969.81756408  1870.48912237
0.45400002 25057.41845595  1710.16889067
0.45500002 25144.46833715  2063.85805893
0.45600002 25230.15340503  1902.47980767
0.45700002 25315.24490478  2434.82037034
0.45800002 25398.87080046  1923.58357124
0.45900002 25481.40781136  2109.86066678
0.46000002 25563.11197679  2828.30284316
0.46100002 25642.82945486  2310.16261508
0.46200002 25721.74198733  1965.01257225
0.46300002 25799.05046701  2154.73679713
0.46400002 25874.31634062  2526.62711041
0.46500002 25949.16226896  2176.61583428
0.46600002 26021.15396574  2005.06011386
0.46700002 26091.54672045  2197.95199991
0.46800002 26160.82364763  1840.41403084
0.46900002 26227.45799364  2218.84305143
0.47000002 26292.36815234  1857.55589800
0.47100002 26355.50059772  2052.56648384
0.47200002 26416.65202634  2436.54001513
0.47300002 26475.60854937  2447.14061421
0.47400002 26531.82769500  2079.43209416
0.47500002 26586.31310237  1898.26284548
0.47600002 26639.24065434  2477.84908691
0.47700002 26688.66736444  2487.65080295
