# SAXS profile: number of points = 501, q_min = 0, q_max = 0.5, delta_q = 0.001
#    q    intensity    error
0.00000000 1664650.74656090 299.63713438
0.00100000 1664569.25728454 749.05618357
0.00200000 1664324.72251929 1048.52460839
0.00300000 1663917.37352267 1198.02055161
0.00400000 1663347.07662791 1497.01242585
0.00500000 1662614.35483304 2244.52946787
0.00600000 1661719.06613736 2442.72712667
0.00700000 1660661.81594782 2192.07368815
0.00800000 1659442.41883227 3584.39577601
0.00900000 1658062.09851785 3233.22123032
0.01000000 1656520.22278618 3279.91018274
0.01100000 1654818.08754571 3276.53995600
0.01200000 1652955.56872249 3867.91620039
0.01300000 1650933.88004994 4507.04969132
0.01400000 1648753.06543840 5935.51129871
0.01500000 1646414.43856641 5927.09224277
0.01600000 1643917.49747727 4611.18878656
0.01700000 1641264.38564591 5317.69684804
0.01800000 1638455.09328368 5136.55694858
0.01900000 1635490.38889632 4906.47138808
0.02000000 1632371.34262374 8227.15193898
0.02100000 1629099.94592368 6451.23607835
0.02200000 1625674.75961093 8412.86726320
0.02300000 1622099.15419424 9927.24727554
0.02400000 1618372.43263246 6068.89689910
0.02500000 1614497.19781152 8185.50116674
0.02600000 1610473.48050706 9783.62684157
0.02700000 1606303.53253054 8770.41768931
0.02800000 1601986.95324909 9059.23663608
0.02900000 1597526.39812678 8626.64294597
0.03000000 1592923.20934063 8147.80259029
0.03100000 1588177.71761142 11434.88009296
0.03200000 1583291.37658897 9404.75121010
0.03300000 1578267.97727147 8854.08376067
0.03400000 1573105.60843489 9084.68530788
0.03500000 1567807.56941069 11006.00964550
0.03600000 1562374.93235614 8671.18127530
0.03700000 1556809.71620100 10648.57895129
0.03800000 1551113.30816535 9074.01327271
0.03900000 1545287.87598391 12980.41875939
0.04000000 1539333.11475387 10413.58900386
0.04100000 1533253.12546426 10625.44465213
0.04200000 1527048.65551043 13789.24999898
0.04300000 1520720.59221850 12044.10764943
0.04400000 1514272.53630395 10221.34009475
0.04500000 1507705.92101799 14564.43987377
0.04600000 1501020.53073480 15873.29285042
0.04700000 1494220.72367586 11834.22868190
0.04800000 1487306.95901331 10931.70665738
0.04900000 1480282.87211955 15542.97088074
0.05000000 1473148.04596262 13523.49969167
0.05100000 1465907.30588351 12577.48527039
0.05200000 1458558.60114939 15074.20384536
0.05300000 1451108.10906715 14104.77147767
0.05400000 1443555.72827817 16673.06943914
0.05500000 1435904.23850320 16886.23463253
0.05600000 1428154.34312522 17095.00828493
0.05700000 1420311.45535041 14828.05228601
0.05800000 1412374.36705151 14999.41647845
0.05900000 1404345.62864027 13903.02237289
0.06000000 1396229.13818744 19163.24581691
0.06100000 1388025.93401690 14199.50596856
0.06200000 1379738.67493196 15646.23730509
0.06300000 1371370.22685713 19747.73219005
0.06400000 1362919.27205923 15946.15622884
0.06500000 1354392.12107419 13408.48262585
0.06600000 1345789.77562032 24345.33818005
0.06700000 1337113.45322395 17730.12521950
0.06800000 1328366.52348635 16498.31299397
0.06900000 1319551.89134740 18011.88416019
0.07000000 1310669.61506210 15354.49525948
0.07100000 1301723.25038753 16870.33411519
0.07200000 1292715.08137765 22648.36928674
0.07300000 1283647.79445638 17098.18942330
0.07400000 1274523.67823065 15772.23125726
0.07500000 1265344.54735607 18752.40707079
0.07600000 1256111.15347300 17409.70140331
0.07700000 1246828.97639507 17505.47964939
0.07800000 1237498.32979182 16130.79148531
0.07900000 1228121.16197358 16211.20009842
0.08000000 1218701.61314847 16287.94782381
0.08100000 1209240.70300043 14873.66134475
0.08200000 1199739.99480887 17924.11636354
0.08300000 1190203.26547359 20995.18658830
0.08400000 1180631.60108150 16558.35898240
0.08500000 1171028.10089964 16616.88953185
0.08600000 1161394.04309905 16671.81227145
0.08700000 1151733.57502184 25844.90263711
0.08800000 1142046.07492665 16770.94739792
0.08900000 1132337.12881749 15286.55195704
0.09000000 1122605.98963072 21453.00146961
0.09100000 1112856.06432464 15357.41440919
0.09200000 1103088.77740707 16926.89808465
0.09300000 1093309.72955490 15415.66791114
0.09400000 1083515.09798722 15440.09087196
0.09500000 1073710.80006605 15461.43624768
0.09600000 1063898.05412088 26315.51960571
0.09700000 1054081.33697710 15494.99638203
0.09800000 1044260.27702953 18608.71901160
0.09900000 1034437.76793080 20171.53742317
0.10000000 1024614.48444808 21732.07423714
0.10100000 1014793.13808687 17078.96931726
0.10200000 1004976.51267563 17079.57663628
0.10300000 995165.63307640 20181.95998816
0.10400000 985363.85661565 18623.37776617
0.10500000 975573.47831005 18613.94284193
0.10600001 965791.81695739 17051.05533070
0.10700001 956026.69822051 20133.92321198
0.10800001 946276.30207870 15471.61826711
0.10900001 936544.78742602 15452.98971983
0.11000001 926831.89021774 23147.62754774
0.11100001 917140.20392898 15407.95615131
0.11200001 907472.06191138 18457.98260823
0.11300001 897828.02936760 16888.14602751
0.11400001 888211.36930913 24514.63494719
0.11500001 878623.22940982 19874.45838510
0.11600001 869064.74950383 18302.50448644
0.11700001 859538.93634648 16735.22387881
0.11800001 850044.41546496 18207.95223682
0.11900001 840584.62891957 22695.78604984
0.12000001 831160.44875562 19611.23171217
0.12100001 821776.24275255 16542.35654589
0.12200001 812430.26849857 19486.14090796
0.12300001 803126.06026625 17925.77450970
0.12400001 793862.66342557 29769.85128114
0.12500001 784642.39986941 17795.69046758
0.12600001 775468.79755544 14772.68128957
0.12700001 766340.72092760 22070.61380282
0.12800001 757260.03118458 20514.17521161
0.12900001 748228.50093139 17508.54774701
0.13000001 739247.36969091 24694.55954850
0.13100001 730316.63697479 21690.40514059
0.13200001 721438.71952260 17271.24375954
0.13300001 712614.61888459 15755.90996632
0.13400001 703844.68901089 14252.85562443
0.13500001 695131.14718551 19852.94649965
0.13600001 686474.39587428 16928.45940045
0.13700001 677875.61741841 14032.02594222
0.13800001 669333.99861861 19537.86034100
0.13900001 660853.82415512 22204.68953874
0.14000001 652433.32044369 16558.75845378
0.14100001 644075.49771190 16462.57049794
0.14200001 635779.29689896 17728.70653021
0.14300001 627547.45335636 13555.02563186
0.14400001 619376.56441603 18860.01727609
0.14500001 611273.09692945 18741.63403594
0.14600001 603234.33875196 18621.84491575
0.14700001 595262.92230156 22465.22374749
0.14800001 587355.87292778 13127.40437927
0.14900001 579517.45133071 15646.97192417
0.15000001 571746.33005300 14245.06048539
0.15100001 564043.98307857 16718.26444730
0.15200001 556411.77022557 15323.58087509
0.15300001 548848.93865053 17749.77551355
0.15400001 541354.32786146 13845.13758842
0.15500001 533931.85358091 17491.60834879
0.15600001 526578.30223913 14881.10352359
0.15700001 519298.93518623 17230.33948270
0.15800001 512087.72596444 15877.28069291
0.15900001 504950.81688333 15754.46623038
0.16000001 497883.44239512 12023.88570140
0.16100001 490891.00315502 14314.38232770
0.16200001 483970.41528375 14199.69265474
0.16300001 477122.31436290 17605.81423112
0.16400001 470347.67852657 15133.43727104
0.16500001 463645.21277714 11544.76634319
0.16600001 457016.50251589 12593.09032138
0.16700001 450460.38941509 11351.60234922
0.16800001 443977.76295060 14631.28786887
0.16900001 437569.40443819 16737.03051005
0.17000001 431233.13076578 12167.24335909
0.17100001 424970.78746548 14253.52088466
0.17200001 418781.59643744 14127.59782296
0.17300001 412665.35460941 20464.07590149
0.17400001 406623.25590841 12808.63316602
0.17500001 400652.96263732 11634.96258448
0.17600001 394754.51874794 15721.09945163
0.17700001 388931.42927116 10384.46965200
0.17800001 383178.82640314 16461.36315978
0.17900001 377498.48529919 11211.70554295
0.18000001 371891.28086015 15145.27312842
0.18100001 366356.53985416 11001.68741150
0.18200001 360890.90018915 11887.74681378
0.18300001 355497.42811275 12755.24832323
0.18400001 350174.95918154 9717.35557634
0.18500001 344923.26864300 9623.35964977
0.18600001 339742.05842643 12388.69474580
0.18700001 334629.98793756 14154.84915850
0.18800001 329586.03888218 10278.14110814
0.18900001 324614.64266482 13877.27662959
0.19000001 319707.74071543 11907.51536556
0.19100001 314871.80101491 9975.13912748
0.19200001 310102.05009662 9875.20025194
0.19300001 305401.34177525 11553.33330528
0.19400001 300765.73273357 9677.13790798
0.19500001 296197.07076375 12191.47200875
0.19600001 291693.33986760 12067.35404058
0.19700001 287256.47328578 11944.12472367
0.19800001 282883.23998298 9288.47162380
0.19900001 278574.65016785 10864.41187000
0.20000001 274328.25954618 9925.19689946
0.20100001 270146.53436798 9822.52845386
0.20200001 266026.12433357 8910.54545570
0.20300001 261968.01061723 9619.46580453
0.20400001 257971.53084915 7932.62494855
0.20500001 254035.15414429 8634.65529750
0.20600001 250158.57781030 9320.90904979
0.20700001 246341.81162571 8454.45137463
0.20800001 242583.17169650 11407.47418826
0.20900001 238885.17213210 7524.88327787
0.21000001 235241.76625331 8189.94247927
0.21100001 231656.71978422 13260.03126730
0.21200001 228126.70908135 8746.37843966
0.21300001 224652.39500018 7211.34222043
0.21400001 221233.29482821 11415.63855283
0.21500001 217869.44845341 8470.76455635
0.21600001 214557.53114457 8380.61756273
0.21700001 211299.04176070 8982.32268993
0.21800001 208092.95843978 9570.19561113
0.21900001 204937.47395789 7439.23065641
0.22000001 201832.22288315 6690.73850493
0.22100001 198778.90940531 9929.00699427
0.22200001 195774.18238400 7203.51138143
0.22300001 192818.09261705 9718.03232742
0.22400001 189909.13588890 7050.37700326
0.22500001 187049.91844337 7609.19104209
0.22600001 184235.26888401 10664.45904365
0.22700001 181467.72394947 6826.81609781
0.22800001 178744.77316286 6753.87157335
0.22900001 176066.04445920 7896.56246743
0.23000001 173431.74412887 6610.35124009
0.23100001 170841.99097959 8917.95235089
0.23200001 168292.78639053 7058.19979503
0.23300001 165786.74725411 8146.76114536
0.23400001 163321.03713796 5757.06683140
0.23500001 160895.67733925 6265.27797191
0.23600001 158510.60621943 7325.56801291
0.23700001 156165.02075058 8362.63725673
0.23800001 153857.39523587 6067.36666811
0.23900001 151587.94759769 6002.88300880
0.24000001 149355.38541300 5399.19743806
0.24100001 147160.47912106 5876.11820925
0.24200001 145001.51605449 7927.95826529
0.24300001 142877.14181787 6275.16436547
0.24400001 140787.78614685 5691.34652421
0.24500001 138731.99553901 6143.05305306
0.24600001 136710.02297455 6584.63856806
0.24700001 134721.59811304 5512.80805557
0.24800001 132764.98003814 5950.52668681
0.24900001 130839.11001538 6869.05360076
0.25000001 128945.53516821 5340.27959163
0.25100001 127081.81417394 5764.43136364
0.25200001 125249.73379603 5228.55038468
0.25300001 123445.50977777 7054.91121757
0.25400001 121671.11348001 6515.48843511
0.25500001 119923.55449987 6907.59706600
0.25600001 118205.14018294 5468.17004358
0.25700001 116513.14644922 5410.87077711
0.25800001 114847.84733353 4908.02298802
0.25900001 113209.71021085 4856.69679784
0.26000001 111596.40419290 7427.29903248
0.26100001 110007.95324482 4755.64404379
0.26200001 108445.38577283 5133.80480540
0.26300001 106905.67804399 5926.85107120
0.26400001 105390.74245632 5446.06687413
0.26500001 103898.93646085 4560.12453705
0.26600001 102429.73088248 4102.31091596
0.26700001 100983.11370296 5277.37777184
0.26800001 99558.68497245  4017.19312874
0.26900001 98155.09485399  4372.80968267
0.27000001 96773.32526916  4720.60303002
0.27100001 95411.82122109  4671.36298805
0.27200001 94071.33591903  4237.44352700
0.27300001 92750.68101534  4955.66912117
0.27400001 91448.02128925  4903.90037371
0.27500001 90166.71088810  5226.06281040
0.27600001 88901.83400027  4802.03279079
0.27700001 87657.42976793  5117.44099204
0.27800001 86429.99221565  3978.80487995
0.27900001 85220.67488705  3937.19536612
0.28000001 84028.37801132  3895.97593089
0.28100001 82853.43507654  4906.58065746
0.28200001 81695.61852972  5548.76667316
0.28300001 80554.09111084  4461.08577686
0.28400001 79428.07672911  4414.21557315
0.28500001 78318.73342763  3695.86120538
0.28600001 77224.57105959  3324.51794147
0.28700001 76146.41630038  3618.47787387
0.28800001 75081.90782150  3254.80085812
0.28900001 74033.90959504  4508.66530775
0.29000001 72999.46803847  3505.06962378
0.29100001 71980.05398433  3152.72651375
0.29200001 70974.28293447  4367.04783567
0.29300001 69982.68674205  3703.48395770
0.29400001 69003.92686207  3969.45108064
0.29500001 68039.93147075  3625.16772037
0.29600001 67087.81155405  2988.76214621
0.29700001 66149.42269630  3252.56726795
0.29800001 65223.98550795  3510.35506621
0.29900001 64311.45905914  2894.01579466
0.30000001 63410.43724617  3149.27951492
0.30100001 62522.78261180  4248.42327959
0.30200001 61646.36584331  3922.55844431
0.30300001 60782.60415807  2771.68688082
0.30400001 59930.50316130  3016.00271437
0.30500001 59090.43399737  4068.37657333
0.30600001 58260.78662324  2682.90935102
0.30700001 57443.44448513  2919.27598694
0.30800001 56637.02984024  3150.15174885
0.30900001 55842.05795835  2856.32139980
0.31000001 55058.16341862  4623.23420115
0.31100001 54284.39366856  2794.56071837
0.31200001 53522.51389690  2512.88214643
0.31300001 52770.36488442  3231.12959485
0.31400001 52030.35620489  2704.27789179
0.31500001 51299.40283382  4133.70607607
0.31600002 50579.96572342  3126.60072923
0.31700002 49870.13172944  3568.20809419
0.31800002 49170.37062147  2588.08258020
0.31900002 48481.47736125  2792.53322823
0.32000002 47802.66064314  2992.20768464
0.32100002 47133.42950199  2504.19922801
0.32200002 46475.14294442  2476.89286050
0.32300002 45825.00731349  2449.80500698
0.32400002 45186.02198886  2423.10054389
0.32500002 44556.22823229  2178.79966373
0.32600002 43936.38383780  2155.07972929
0.32700002 43326.33179673  2131.65562534
0.32800002 42726.62767443  2530.27101070
0.32900002 42134.49820829  2294.22353608
0.33000002 41553.35064696  2682.06114451
0.33100002 40980.42088002  2448.99006776
0.33200002 40418.48951169  2624.57474073
0.33300002 39865.05417344  1997.23930867
0.33400002 39321.59556024  2173.50129752
0.33500002 38786.87371001  2150.34438031
0.33600002 38261.13663437  2514.33071300
0.33700002 37744.49256830  2487.73962299
0.33800002 37237.93698914  1893.54918557
0.33900002 36739.65905466  1873.72270052
0.34000002 36250.54578037  2039.63705493
0.34100002 35770.56489252  2385.53908566
0.34200002 35300.34834966  2361.06391118
0.34300002 34838.25376717  2157.18477543
0.34400002 34385.88639260  2135.36364611
0.34500002 33941.91407597  2113.90250877
0.34600002 33507.62649446  1918.47924580
0.34700002 33080.80498761  1899.49991235
0.34800002 32663.82851386  2393.93210516
0.34900002 32255.13494276  2540.09199705
0.35000002 31855.51666746  1844.91233517
0.35100002 31465.31708233  2990.46387714
0.35200002 31082.02171064  1810.37244028
0.35300002 30708.79512295  1956.76451791
0.35400002 30343.63124032  2100.53797210
0.35500002 29987.27147468  1761.45240985
0.35600002 29639.06643787  1587.17208292
0.35700002 29299.32863480  2045.38622887
0.35800002 28968.31632070  1715.93829853
0.35900002 28646.12674060  1701.58000899
0.36000002 28332.06579954  1534.18143571
0.36100002 28025.69073760  1673.97458705
0.36200002 27729.08382697  1811.81842307
0.36300002 27439.33420022  1648.00649013
0.36400002 27158.28895739  1486.91639085
0.36500002 26884.65335207  1623.56429284
0.36600002 26619.96272061  1905.05772234
0.36700002 26362.74885830  1891.79094768
0.36800002 26114.34477462  2457.22938796
0.36900002 25873.64023012  1723.18452095
0.37000002 25640.09372853  1569.55841194
0.37100002 25414.30490102  1701.74193678
0.37200002 25197.14768128  1973.69267137
0.37300002 24987.16277427  1682.13587765
0.37400002 24784.76418728  2230.62888252
0.37500002 24590.14529413  1941.63796440
0.37600002 24403.15323275  1793.99789489
0.37700002 24223.28331273  1785.49829756
0.37800002 24050.93818136  1640.75508046
0.37900002 23886.44262849  1633.83275319
0.38000002 23728.61857147  1762.91780028
0.38100002 23577.20113063  1621.16842654
0.38200002 23434.06760514  1615.54469723
0.38300002 23297.05096198  1476.10121888
0.38400002 23167.48868715  1873.09154909
0.38500002 23044.12231375  1734.53116873
0.38600002 22928.43731263  1730.29460377
0.38700002 22818.56280605  1460.84446005
0.38800002 22715.26658832  1855.61021551
0.38900002 22618.53454613  1852.45806709
0.39000002 22528.74170407  1453.44183990
0.39100002 22444.45889186  1583.68109444
0.39200002 22367.10327609  2109.66528095
0.39300002 22295.12494286  1581.17033586
0.39400002 22230.46287117  1317.15498752
0.39500002 22170.37609942  1711.99652351
0.39600002 22116.53928241  1580.44797200
0.39700002 22067.73697995  1844.42154417
0.39800002 22025.77262228  1845.53957546
0.39900002 21988.34078136  1319.30050939
0.40000002 21956.55723338  1452.75567818
0.40100002 21929.84198142  2115.79125461
0.40200002 21908.86868446  1324.39117472
0.40300002 21892.56893327  1326.68974021
0.40400002 21881.34997096  1462.22128109
0.40500002 21874.56209065  2131.45743110
0.40600002 21873.45040959  1468.91163185
0.40700002 21876.43167132  1606.60521806
0.40800002 21883.74927708  2550.87935535
0.40900002 21895.19765028  1750.52113508
0.41000002 21911.70122330  1350.85644442
0.41100002 21932.04491994  1897.56061638
0.41200002 21955.63891326  1360.15189512
0.41300002 21984.51985418  2047.85812145
0.41400002 22016.44142185  1370.52354345
0.41500002 22052.05482149  1651.25794328
0.41600002 22090.47192388  1796.28680960
0.41700002 22133.71848797  2220.45474393
0.41800002 22180.56659974  1951.66814759
0.41900002 22228.88578461  2240.67179326
0.42000002 22280.95309342  1829.15493088
0.42100002 22336.77620446  2120.87700111
0.42200002 22394.96951670  2273.53741307
0.42300002 22455.69652808  2427.91002366
0.42400002 22518.94138658  1579.14083956
0.42500002 22585.13051570  1876.14688084
0.42600002 22652.58407552  2031.25731031
0.42700002 22723.45026516  2480.03747946
0.42800002 22795.83775862  2053.67712099
0.42900002 22871.07568674  1917.73978721
0.43000002 22947.94481371  1928.66011326
0.43100002 23025.16605569  1641.23391422
0.43200002 23105.49549477  1800.84240420
0.43300002 23186.54451550  1509.44411949
0.43400002 23269.57794416  1518.34003281
0.43500002 23353.41043806  1527.31311503
0.43600002 23439.11924564  2304.65150904
0.43700002 23525.19384814  1545.60530907
0.43800002 23611.79302778  1554.83664456
0.43900002 23700.40488268  1720.64947602
0.44000002 23788.92477991  1731.00119364
0.44100002 23878.53833190  2058.09131636
0.44200002 23968.47939681  2070.51719082
0.44300002 24059.00720107  1602.32995553
0.44400002 24149.62165509  2095.58351843
0.44500002 24239.94059027  2756.80857398
0.44600002 24330.34439589  1631.34966906
0.44700002 24421.74275425  2297.59766721
0.44800002 24511.94162208  1815.96728113
0.44900002 24602.51882748  1992.80411947
0.45000002 24693.14995635  2171.63917583
0.45100002 24782.28039955  2352.33416701
0.45200002 24871.53026025  1859.02261741
0.45300002 24959.75204116  2379.66287238
0.45400002 25047.56369775  1880.44593373
0.45500002 25134.84519345  2750.75758834
0.45600002 25220.80424246  2593.32931914
0.45700002 25306.07592665  1912.38024841
0.45800002 25389.95666147  2097.71831879
0.45900002 25472.74334943  2284.90518674
0.46000002 25554.71267850  1943.81931202
0.46100002 25634.65627621  3020.01899903
0.46200002 25713.84662722  1964.40940619
0.46300002 25791.38502647  1974.58853121
0.46400002 25866.91302153  2525.90417627
0.46500002 25941.98685369  1813.34496702
0.46600002 26014.21397926  2368.98450830
0.46700002 26084.90905985  1831.16070279
0.46800002 26154.44449870  2575.95136077
0.46900002 26221.35353094  2403.18716501
0.47000002 26286.52122483  2785.71421884
0.47100002 26349.91413553  2238.68881106
0.47200002 26411.33636650  2061.27284442
0.47300002 26470.57690117  2634.88134963
0.47400002 26527.08543561  1890.05492687
0.47500002 26581.84559977  2277.53263894
0.47600002 26634.98531389  2096.30661849
0.47700002 26684.73309716  1913.29545375
