# SAXS profile: number of points = 501, q_min = 0, q_max = 0.5, delta_q = 0.001
#    q    intensity    error
0.00000000 1682732.95097188 403.85590823
0.00100000 1682650.99255754 605.75437171
0.00200000 1682405.05344979 832.79052783
0.00300000 1681995.35707578 1211.03670024
0.00400000 1681421.77382295 1513.27965394
0.00500000 1680684.82070718 2268.92459776
0.00600000 1679784.37765830 1940.15103518
0.00700000 1678721.03244133 2820.25145171
0.00800000 1677494.58177376 2944.00311531
0.00900000 1676106.30360292 3268.40743174
0.01000000 1674555.50405919 3315.62004120
0.01100000 1672843.55286840 3613.34223152
0.01200000 1670970.29544390 3910.07066277
0.01300000 1668936.89793717 3855.24440427
0.01400000 1666743.44835378 4500.20751005
0.01500000 1664391.25388496 4393.99310592
0.01600000 1661879.76356648 4237.79358654
0.01700000 1659211.29402364 4479.87069483
0.01800000 1656385.73692959 5192.76951894
0.01900000 1653403.85414638 7440.31767938
0.02000000 1650266.53439722 6238.00778220
0.02100000 1646976.11293482 8152.53212865
0.02200000 1643530.97303368 7371.23674895
0.02300000 1639934.42716145 7084.51704781
0.02400000 1636185.95078161 8589.97663329
0.02500000 1632288.07741542 7002.51617192
0.02600000 1628240.78965354 7913.25059965
0.02700000 1624046.28943061 7503.09420082
0.02800000 1619704.33399236 7045.71417598
0.02900000 1615217.48851319 9449.02274165
0.03000000 1610587.15598170 9735.99980543
0.03100000 1605813.73380446 9249.48753231
0.03200000 1600898.55996330 10301.78270784
0.03300000 1595845.16768586 11394.33502256
0.03400000 1590652.18455929 10021.10922510
0.03500000 1585322.58405351 9416.81658413
0.03600000 1579857.70632878 14905.95814807
0.03700000 1574259.27185159 9870.60609100
0.03800000 1568528.79341898 11011.07263939
0.03900000 1562668.37368255 13126.41494682
0.04000000 1556677.89089738 13402.99726171
0.04100000 1550561.18674013 11722.24311528
0.04200000 1544319.29186414 9960.85989464
0.04300000 1537953.06884380 19285.93237851
0.04400000 1531465.91905427 13438.61406382
0.04500000 1524859.35959385 13677.98909110
0.04600000 1518133.30344053 13913.69237284
0.04700000 1511291.95452728 11969.43283653
0.04800000 1504335.67290075 17690.98833644
0.04900000 1497268.58340674 12352.46638808
0.05000000 1490090.13551527 14818.94708776
0.05100000 1482804.46668116 13879.05045468
0.05200000 1475410.37179062 14075.41560281
0.05300000 1467913.61209422 17835.15121838
0.05400000 1460314.33967709 13252.35325058
0.05500000 1452614.99785321 15862.55651653
0.05600000 1444816.73408177 18529.77547928
0.05700000 1436924.64972828 15001.49404341
0.05800000 1428937.37926106 16439.92531602
0.05900000 1420858.06097075 14066.49546060
0.06000000 1412690.12898999 25852.23056830
0.06100000 1404434.91056257 13061.24527860
0.06200000 1396094.86222979 14512.40677124
0.06300000 1387672.59300340 14653.82326726
0.06400000 1379167.40405760 14791.57110027
0.06500000 1370585.51490953 17639.43640202
0.06600000 1361927.51542850 19162.32103866
0.06700000 1353195.01621753 15182.84879250
0.06800000 1344391.21527609 16697.33967532
0.06900000 1335518.60584474 18229.82982328
0.07000000 1326578.13999125 22604.89256400
0.07100000 1317572.95151770 15652.76739717
0.07200000 1308505.23227759 20059.38615053
0.07300000 1299378.08404946 14423.09740875
0.07400000 1290193.11080296 20320.54244745
0.07500000 1280952.49960091 18983.71693390
0.07600000 1271657.09587845 14687.64014596
0.07700000 1262312.37435969 14769.05547251
0.07800000 1252918.48558750 16331.79322553
0.07900000 1243477.76459679 17906.08065006
0.08000000 1233993.66773780 16492.32614299
0.08100000 1224468.15506032 18073.15081665
0.08200000 1214901.97688993 18150.63638646
0.08300000 1205299.20738051 18224.12487089
0.08400000 1195661.38475572 24391.49339392
0.08500000 1185990.49407836 15299.27809184
0.08600000 1176289.19801195 15350.57475479
0.08700000 1166560.75848170 16938.46300855
0.08800000 1156804.78600555 15443.34461845
0.08900000 1147026.74026983 17033.34789306
0.09000000 1137225.92026874 20180.07490314
0.09100000 1127406.02585240 18669.84466525
0.09200000 1117568.74941280 20267.11022289
0.09300000 1107718.58164425 17180.71600866
0.09400000 1097852.61322493 15644.40047370
0.09500000 1087976.59570058 23500.29557171
0.09600000 1078091.81968539 15686.23671380
0.09700000 1068202.46211562 21983.60770385
0.09800000 1058308.60892104 17287.47193954
0.09900000 1048412.46228754 17298.80644118
0.10000000 1038515.74921147 25173.62294473
0.10100000 1028620.04165655 18885.46485303
0.10200000 1018728.84751110 18887.23372124
0.10300000 1008843.16098018 22033.13567226
0.10400000 998965.86411953 29894.05489015
0.10500000 989100.23649668 25162.71120037
0.10600001 979242.64534074 17288.52971698
0.10700001 969401.41218295 18845.16433965
0.10800001 959574.36494569 18826.84992626
0.10900001 949766.13570123 28208.05555796
0.11000001 939976.01144761 20345.78172545
0.11100001 930207.45863117 18752.98324877
0.11200001 920461.28777051 18722.18347464
0.11300001 910739.47161973 18688.37483750
0.11400001 901044.66920243 17097.32340313
0.11500001 891378.21205541 26366.96875417
0.11600001 881741.04058929 26306.74518481
0.11700001 872136.32306974 18524.17637440
0.11800001 862562.73329312 15396.74551444
0.11900001 853023.54229686 15354.42448456
0.12000001 843520.07233031 15309.89003397
0.12100001 834056.44157370 22894.85039973
0.12200001 824630.26428036 18257.31491129
0.12300001 815246.26004206 19712.65549657
0.12400001 805902.62476770 21154.94489692
0.12500001 796602.37883852 21078.09993728
0.12600001 787348.06008866 23998.37000239
0.12700001 778139.53970262 22410.41979956
0.12800001 768978.19156539 20831.62019129
0.12900001 759865.99447036 16299.12634960
0.13000001 750803.89385672 20654.61609355
0.13100001 741792.12665870 16156.23328019
0.13200001 732833.33533757 16082.02830210
0.13300001 723928.19825700 17461.14896513
0.13400001 715076.60924968 15928.33222199
0.13500001 706281.99416177 15848.96869624
0.13600001 697544.15707719 17201.43972458
0.13700001 688864.11698687 29944.92457742
0.13800001 680241.21737965 18437.93906653
0.13900001 671679.69712976 18336.85659638
0.14000001 663177.85222937 19636.69713059
0.14100001 654738.69801302 19524.30889557
0.14200001 646361.26772732 18023.78480067
0.14300001 638047.99104784 17916.38843370
0.14400001 629795.79433004 16437.67100738
0.14500001 621611.09007958 14974.61186640
0.14600001 613491.19516725 20291.22223738
0.14700001 605438.76688985 13440.74125904
0.14800001 597450.80586239 16023.63136920
0.14900001 589531.34331274 15917.34702044
0.15000001 581679.52248323 13175.04180588
0.15100001 573896.33759376 13084.83711455
0.15200001 566183.42858561 14293.30132910
0.15300001 558540.20189400 14192.50719986
0.15400001 550965.14150098 15371.92817329
0.15500001 543462.34525439 15260.42337493
0.15600001 536028.57402294 17672.86291961
0.15700001 528669.03990870 13782.40252091
0.15800001 521378.20028094 16165.33186269
0.15900001 514161.37930751 19743.79789733
0.16000001 507014.71029527 15917.72758108
0.16100001 499942.68075344 13363.46848735
0.16200001 492942.88264041 15668.19026436
0.16300001 486015.79240281 13151.58796328
0.16400001 479162.48230076 14231.12639618
0.16500001 472381.25319341 12938.52313581
0.16600001 465674.37762977 13998.17245245
0.16700001 459039.96029585 15038.14980931
0.16800001 452479.36317613 13764.42287772
0.16900001 445993.50998415 17059.25256240
0.17000001 439579.92950512 13530.27086906
0.17100001 433240.38070800 15648.64329012
0.17200001 426974.26712159 16619.97413255
0.17300001 420781.56259659 12080.63923265
0.17400001 414662.95166759 11973.39329486
0.17500001 408616.54718502 11866.22509067
0.17600001 402642.22757424 12828.18197638
0.17700001 396743.71961352 11652.36359540
0.17800001 390916.10051040 11545.70757390
0.17900001 385160.58021457 10399.33615699
0.18000001 379479.08057254 12363.42902904
0.18100001 373869.94357412 15309.97491255
0.18200001 368330.28485330 14154.93351556
0.18300001 362863.36838920 11016.53238471
0.18400001 357467.38798919 10911.69253385
0.18500001 352142.83537461 14737.17835664
0.18600001 346889.03135407 9730.23778917
0.18700001 341704.55747671 10599.67587371
0.18800001 336588.84409382 9542.29418090
0.18900001 331545.78530898 9449.05532775
0.19000001 326567.81909264 14969.86953451
0.19100001 321661.32375848 10190.23121816
0.19200001 316820.91892500 10089.16263989
0.19300001 312050.31048398 12712.93024984
0.19400001 307345.16052349 11686.80028115
0.19500001 302707.23476365 10679.51174712
0.19600001 298134.47265601 10571.84889997
0.19700001 293629.42670397 11337.03270080
0.19800001 289188.23032207 10358.72289968
0.19900001 284812.04633897 11107.67033217
0.20000001 280498.36682860 10994.13400744
0.20100001 276250.00390940 14229.63837390
0.20200001 272063.19433228 8284.32465896
0.20300001 267939.30240182 8198.94304102
0.20400001 263877.16186529 8925.64542197
0.20500001 259875.67841208 13651.27003224
0.20600001 255934.56209231 10330.79908717
0.20700001 252053.58125505 11796.10816033
0.20800001 248231.44315647 9338.46733298
0.20900001 244470.09904240 10011.05102902
0.21000001 240763.81824517 7620.17520768
0.21100001 237116.49456805 10556.42683721
0.21200001 233524.52181521 10445.55235460
0.21300001 229988.78032373 8859.16823689
0.21400001 226508.74949499 10226.87052319
0.21500001 223084.40304536 7950.72850043
0.21600001 219712.38236067 10727.45757594
0.21700001 216394.56083989 11321.76395843
0.21800001 213129.24771338 14002.59223682
0.21900001 209915.03368309 7619.91608298
0.22000001 206751.81966348 9595.35240427
0.22100001 203640.49903930 10171.84340797
0.22200001 200578.85208631 8051.23550344
0.22300001 197565.98512206 7302.03915539
0.22400001 194600.75204589 9851.66353817
0.22500001 191685.91268153 6498.15274718
0.22600001 188816.11451067 7715.02680374
0.22700001 185993.78815703 7633.18542693
0.22800001 183216.44020570 8181.53052429
0.22900001 180484.18285197 6849.37506315
0.23000001 177796.65671811 8624.91622528
0.23100001 175153.86146666 6704.89013404
0.23200001 172552.49083546 8442.99377588
0.23300001 169994.73015566 6563.49684173
0.23400001 167477.50948651 6493.94073747
0.23500001 165001.46658439 7009.26263202
0.23600001 162566.03006707 6357.14490645
0.23700001 160170.60293721 6861.70895437
0.23800001 157813.71303270 7354.90844377
0.23900001 155495.38932136 5597.83428034
0.24000001 153214.42358904 6646.44200967
0.24100001 150971.73717090 8220.41147779
0.24200001 148765.47482362 5964.75199520
0.24300001 146594.18579883 5901.88219944
0.24400001 144458.42339810 5839.73204211
0.24500001 142356.78546961 5252.96563232
0.24600001 140289.26372260 6757.03270684
0.24700001 138255.97234042 5143.12241436
0.24800001 136255.15299243 5598.04322552
0.24900001 134285.14654639 6042.83188046
0.25000001 132348.11111525 5979.48794307
0.25100001 130441.43984756 5423.75532545
0.25200001 128567.00724828 5367.02997149
0.25300001 126720.71182913 6759.28308875
0.25400001 124904.78371014 4777.60820295
0.25500001 123116.11191092 6618.72248948
0.25600001 121357.25417404 7485.31579160
0.25700001 119625.05720300 7407.18389247
0.25800001 117920.13300472 5955.55659919
0.25900001 116243.00558918 4986.82517573
0.26000001 114590.93124202 4934.85868743
0.26100001 112964.36606577 4883.44977609
0.26200001 111364.09250116 5271.97638846
0.26300001 109787.15102855 4782.32852509
0.26400001 108235.32752186 4302.35447257
0.26500001 106707.23840586 5534.90471802
0.26600001 105201.97244671 4634.67311545
0.26700001 103720.09588856 4586.50285723
0.26800001 102260.80951916 7014.58056090
0.26900001 100822.51096466 5308.30545349
0.27000001 99406.61677112  5253.14291186
0.27100001 98011.50723632  5198.53058982
0.27200001 96637.84161527  3957.31980142
0.27300001 95284.36664098  5091.04395056
0.27400001 93949.31600226  4650.49136220
0.27500001 92636.04938708  4602.15915135
0.27600001 91339.75921895  5313.23404522
0.27700001 90064.47258497  4882.39528990
0.27800001 88806.27215087  4831.50546503
0.27900001 87566.87926183  3677.80910306
0.28000001 86344.63365302  4731.25442494
0.28100001 85140.33144745  4321.72342882
0.28200001 83953.47131523  4276.59003121
0.28300001 82783.61770829  3526.58228129
0.28400001 81629.35882118  4187.58630573
0.28500001 80492.23118480  4143.74025752
0.28600001 79370.61220253  5467.04802728
0.28700001 78265.59913069  4395.39625522
0.28800001 77174.40822968  4014.61290613
0.28900001 76100.28171096  3641.39865223
0.29000001 75039.94531607  4258.14189852
0.29100001 73995.09750931  3240.98542432
0.29200001 72964.25098466  3848.13477908
0.29300001 71947.94561047  3490.19500678
0.29400001 70944.87481314  3453.24194499
0.29500001 69956.77939808  4037.90549800
0.29600001 68981.20999114  4302.35827081
0.29700001 68019.23176246  3344.50578408
0.29800001 67071.02255082  3910.57615495
0.29900001 66136.05305860  3868.95928708
0.30000001 65212.52912740  2944.34582949
0.30100001 64303.03564680  3786.80594851
0.30200001 63405.01292627  3169.93377132
0.30300001 62520.10988357  3421.10057479
0.30400001 61646.99314243  4230.52510468
0.30500001 60786.36498979  3069.10371363
0.30600001 59936.43828733  4968.13160484
0.30700001 59099.01920858  3276.44978004
0.30800001 58272.98304433  3511.23875957
0.30900001 57458.65830202  2939.01051129
0.31000001 56655.74287025  3435.88768904
0.31100001 55863.13068633  2875.83410389
0.31200001 55082.82933749  3620.59454377
0.31300001 54312.47311394  2558.11760478
0.31400001 53554.49195822  3036.53983780
0.31500001 52805.77852496  3003.59282471
0.31600002 52068.99658356  2971.05708573
0.31700002 51342.13633554  3183.72602491
0.31800002 50625.54343136  3149.16207826
0.31900002 49919.98761008  3354.62332624
0.32000002 49224.94189023  3081.23538351
0.32100002 48539.58522438  3047.80070055
0.32200002 47865.42674215  3246.71204965
0.32300002 47199.73902598  3211.47039539
0.32400002 46545.59936018  3176.73730675
0.32500002 45900.55981892  2917.89872586
0.32600002 45265.82465916  3108.40432653
0.32700002 44641.21775772  2196.34801768
0.32800002 44027.10952067  2824.55934505
0.32900002 43420.82895152  2149.33113488
0.33000002 42825.60429657  3189.43703102
0.33100002 42239.00223776  2524.20289326
0.33200002 41663.34035229  2913.51752881
0.33300002 41096.53315907  2264.83004965
0.33400002 40539.88991320  2444.55547753
0.33500002 39992.31728296  2217.17417516
0.33600002 39453.70631913  2193.82344377
0.33700002 38924.58629890  1973.47661881
0.33800002 38405.57876686  2734.09328189
0.33900002 37894.97264830  2319.17243591
0.34000002 37393.81332462  1912.69364214
0.34100002 36902.09205154  1893.07741190
0.34200002 36420.06309850  2061.19356868
0.34300002 35946.34251867  2411.28077035
0.34400002 35482.64835205  2937.96342269
0.34500002 35027.37925859  2181.50528354
0.34600002 34582.05999762  2159.99556975
0.34700002 34144.29587774  1960.56556215
0.34800002 33716.52449383  2118.07216902
0.34900002 33297.18559117  1922.91255896
0.35000002 32887.03249487  2770.40374858
0.35100002 32486.44251411  2229.86951978
0.35200002 32093.02091073  2548.98830656
0.35300002 31709.66813648  1852.16180358
0.35400002 31334.37680323  1668.55564380
0.35500002 30968.15746789  1819.06965582
0.35600002 30610.19958033  1639.17626517
0.35700002 30260.89016748  2275.01383055
0.35800002 29920.31114262  1772.32971448
0.35900002 29588.72930025  1917.34974947
0.36000002 29265.32447004  1743.18913463
0.36100002 28949.73673475  2043.56201290
0.36200002 28644.12729342  2027.57464650
0.36300002 28345.29306063  1547.65307442
0.36400002 28055.35784026  2150.44328032
0.36500002 27772.79078128  1829.67154334
0.36600002 27499.48783824  1816.61625264
0.36700002 27233.59861595  1653.62418629
0.36800002 26976.63654338  1642.47259375
0.36900002 26727.41420815  1780.04587058
0.37000002 26485.42451905  2063.47952203
0.37100002 26251.36722857  1611.30899682
0.37200002 26025.84045607  1601.76042674
0.37300002 25807.71439127  1447.81284593
0.37400002 25597.16060106  1583.82438722
0.37500002 25394.40169871  2005.14205312
0.37600002 25199.38285143  1425.02516775
0.37700002 25011.72140386  1418.16467078
0.37800002 24831.42610386  1552.83330497
0.37900002 24659.10509776  2108.35358574
0.38000002 24493.40738665  1819.73778800
0.38100002 24334.29966186  1394.35543668
0.38200002 24183.51632477  1528.27738654
0.38300002 24038.91049963  1523.10544141
0.38400002 23901.74837546  2208.52165452
0.38500002 23770.76615444  2202.12388087
0.38600002 23647.63718385  1510.01994391
0.38700002 23530.28718970  1780.30161311
0.38800002 23419.58083850  1366.53260667
0.38900002 23315.43610474  1636.74369209
0.39000002 23218.26718561  2042.62715243
0.39100002 23126.61700171  1495.82965854
0.39200002 23042.03095969  1901.65890520
0.39300002 22962.78316252  1357.10054920
0.39400002 22890.92203082  1627.54463350
0.39500002 22823.65896568  1626.87048815
0.39600002 22762.58755865  1762.16579934
0.39700002 22706.62585346  1491.14419044
0.39800002 22657.61440866  1762.87577259
0.39900002 22612.93916736  1628.13169719
0.40000002 22574.13726550  1357.83442085
0.40100002 22540.28974791  1359.17953620
0.40200002 22512.21430039  1360.86341894
0.40300002 22488.96318294  1771.68060349
0.40400002 22470.73005600  1501.60660714
0.40500002 22456.91479843  1641.15141123
0.40600002 22448.74784257  1781.64495694
0.40700002 22444.70872165  1923.06273439
0.40800002 22445.08996050  1514.70696775
0.40900002 22449.66730981  1794.85098646
0.41000002 22459.20576623  1799.99313142
0.41100002 22472.60365641  1666.56836612
0.41200002 22489.20267176  1532.52678868
0.41300002 22511.17427654  1537.73838769
0.41400002 22536.31268511  1402.88553112
0.41500002 22564.93136631  1830.46731917
0.41600002 22596.45960481  1837.43119983
0.41700002 22632.77717912  1702.89023565
0.41800002 22672.90504730  1709.99057969
0.41900002 22714.30825188  1860.30193398
0.42000002 22759.52686601  1868.44344660
0.42100002 22808.42084777  1443.77310808
0.42200002 22859.78475553  2030.63477606
0.42300002 22913.64782407  1603.03887773
0.42400002 22969.95575184  1464.33474857
0.42500002 23029.47854996  1618.74212398
0.42600002 23090.07649060  2070.48725702
0.42700002 23154.09884914  1783.79185986
0.42800002 23219.63120061  2091.85667399
0.42900002 23287.99494420  2553.52876664
0.43000002 23358.16373583  1661.11589279
0.43100002 23428.51319257  1973.61804487
0.43200002 23502.05112348  1679.10412209
0.43300002 23576.28961330  1841.77983187
0.43400002 23652.58404271  2006.33053650
0.43500002 23729.60206602  2017.49086326
0.43600002 23808.52308586  2184.90826713
0.43700002 23887.86205781  1726.37587273
0.43800002 23967.65183965  1736.09694328
0.43900002 24049.52602678  2539.63006878
0.44000002 24131.23698541  1915.53768268
0.44100002 24214.14785150  2408.09711795
0.44200002 24297.34277298  2098.92605491
0.44300002 24381.13992604  1948.54079523
0.44400002 24465.00364503  2776.16642018
0.44500002 24548.58983050  2299.22103249
0.44600002 24632.27279816  1816.75336633
0.44700002 24717.01664065  1827.08195667
0.44800002 24800.46275598  2004.37349493
0.44900002 24884.44602135  1679.70018605
0.45000002 24968.41143131  1858.02442472
0.45100002 25050.91006326  2038.14213934
0.45200002 25133.51741635  2390.95162513
0.45300002 25215.02955895  2060.57231321
0.45400002 25296.35077750  2071.77122686
0.45500002 25377.01805304  1735.78811709
0.45600002 25456.34147382  2094.03874888
0.45700002 25535.10346103  2105.11402910
0.45800002 25612.44126188  2292.44166379
0.45900002 25688.59972372  1772.51346494
0.46000002 25764.22870245  1781.59649921
0.46100002 25837.55587312  1790.54270687
0.46200002 25910.20541564  1979.41023654
0.46300002 25981.36013077  1989.13302589
0.46400002 26050.45627862  1817.01941155
0.46500002 26119.15092066  2373.44735665
0.46600002 26184.99162477  2201.11050030
0.46700002 26249.29172016  3501.13069557
0.46800002 26312.52797770  2406.41236026
0.46900002 26372.99239119  2231.15526204
0.47000002 26432.02032246  2240.90678915
0.47100002 26489.07779938  2062.96947679
0.47200002 26544.32385168  2071.65185319
0.47300002 26597.34231066  2836.60669188
0.47400002 26647.66552501  1898.64625865
0.47500002 26696.27478332  2096.72552086
0.47600002 26743.34309784  2870.22943402
0.47700002 26786.89428114  1920.62041099
