# SAXS profile: number of points = 501, q_min = 0, q_max = 0.5, delta_q = 0.001
#    q    intensity    error
0.00000000 1664650.74656090 324.60689558
0.00100000 1664569.24445588 549.30786372
0.00200000 1664324.66212369 823.84073384
0.00300000 1663917.24016582 1198.02045560
0.00400000 1663346.84187918 1621.76323246
0.00500000 1662613.96442938 1645.98788994
0.00600000 1661718.51784804 2268.24586921
0.00700000 1660661.07282790 2192.07270724
0.00800000 1659441.42360447 2240.24601645
0.00900000 1658060.85673193 2735.80053056
0.01000000 1656518.68765606 3006.58154792
0.01100000 1654816.23169150 3276.53628141
0.01200000 1652953.40988669 3867.91114872
0.01300000 1650931.32416621 4160.34712039
0.01400000 1648750.08636431 4451.62543053
0.01500000 1646411.00116957 5531.94121026
0.01600000 1643913.53740617 4191.97970778
0.01700000 1641259.95608284 4874.54228823
0.01800000 1638450.19039278 4669.58325274
0.01900000 1635484.95410429 6378.39160882
0.02000000 1632365.21427438 5141.95065756
0.02100000 1629093.20279502 9139.21328204
0.02200000 1625667.45472878 6169.40827099
0.02300000 1622091.04746596 7007.43364402
0.02400000 1618363.67671473 7282.63687729
0.02500000 1614487.70367946 7555.80279830
0.02600000 1610463.28091213 7826.85190322
0.02700000 1606292.48769779 7421.07163306
0.02800000 1601975.09095205 9059.16955478
0.02900000 1597513.68433516 12220.98024628
0.03000000 1592909.59430016 7407.02995396
0.03100000 1588163.31893368 10672.45799431
0.03200000 1583276.05582860 10972.10357225
0.03300000 1578251.44082986 8853.99099123
0.03400000 1573088.22807461 10736.32765199
0.03500000 1567789.04374289 9312.66734987
0.03600000 1562355.49719721 12139.50277423
0.03700000 1556789.22976104 9761.06892203
0.03800000 1551091.72096565 11796.05308386
0.03900000 1545265.07406689 10198.74996115
0.04000000 1539309.26382414 10413.42765232
0.04100000 1533228.04342181 9659.33712143
0.04200000 1527022.33143166 12804.08284307
0.04300000 1520693.10529219 11040.23245689
0.04400000 1514243.71474157 11243.26010412
0.04500000 1507675.83375988 15604.44560447
0.04600000 1500989.24417401 11640.17212968
0.04700000 1494188.00867338 11833.96957907
0.04800000 1487272.76238720 14210.89190582
0.04900000 1480247.37562859 11101.85583398
0.05000000 1473111.35080170 12396.23259424
0.05100000 1465868.96569580 11433.77846506
0.05200000 1458518.86850974 15073.79320851
0.05300000 1451066.88181537 12929.00651970
0.05400000 1443513.06954625 16672.57673077
0.05500000 1435859.96573366 18091.83641222
0.05600000 1428108.55744382 17094.46023030
0.05700000 1420264.12760279 19770.07757907
0.05800000 1412325.30284624 13748.98746518
0.05900000 1404295.07263516 13902.52186842
0.06000000 1396176.94003760 15330.02351781
0.06100000 1387972.19239358 21943.84138721
0.06200000 1379683.17896457 16949.40864585
0.06300000 1371312.98666066 15797.52634495
0.06400000 1362860.31482940 14616.67756012
0.06500000 1354331.52443051 17430.24753477
0.06600000 1345727.51163800 16229.47454971
0.06700000 1337049.29088622 13637.90340528
0.06800000 1328300.77347176 17872.28774365
0.06900000 1319483.83881040 20781.87143425
0.07000000 1310600.00363047 18145.25789998
0.07100000 1301651.79184986 16869.40801250
0.07200000 1292641.79975020 18400.75688146
0.07300000 1283572.90716079 14247.65993707
0.07400000 1274446.87845998 22940.04488735
0.07500000 1265265.57678575 20193.63955203
0.07600000 1256030.36453050 14507.15139043
0.07700000 1246746.30647856 18963.01221069
0.07800000 1237413.51644629 16129.68594330
0.07900000 1228034.52735150 20630.98102718
0.08000000 1218613.00785466 16286.76361401
0.08100000 1209150.11131858 16359.80177371
0.08200000 1199647.38114338 17922.73271531
0.08300000 1190108.71549585 20993.51872661
0.08400000 1180535.23577876 19567.37245150
0.08500000 1170929.48239083 16615.49013514
0.08600000 1161293.56284738 19701.34621871
0.08700000 1151631.07043927 18241.83701235
0.08800000 1141941.49429316 16769.41163125
0.08900000 1132230.53305813 18342.13549707
0.09000000 1122497.02918985 26047.54478595
0.09100000 1112745.03478370 16891.47042160
0.09200000 1102976.06211594 15386.51678948
0.09300000 1093194.79867542 18496.85686280
0.09400000 1083397.95324198 18526.10587112
0.09500000 1073591.70715108 18551.66557155
0.09600000 1063776.84059100 15477.95375818
0.09700000 1053958.01845229 24789.09375940
0.09800000 1044134.92506341 20157.02567609
0.09900000 1034310.22971321 17066.11959276
0.10000000 1024485.07609097 15520.94963268
0.10100000 1014661.44260991 23286.48120310
0.10200000 1004842.74380742 17077.30323426
0.10300000 995029.86805568 15522.46667186
0.10400000 985225.71712161 17069.03635215
0.10500000 975433.19599505 15509.38854603
0.10600001 965649.71448088 17048.54651135
0.10700001 955882.49590488 17033.82687860
0.10800001 946129.94112211 17016.14779189
0.10900001 936396.42448397 16995.59590429
0.11000001 926681.29854811 23143.86652061
0.11100001 916987.82908174 16945.93587913
0.11200001 907317.42475933 21530.64350314
0.11300001 897671.41439148 21490.25467231
0.11400001 888052.73427876 16850.80142635
0.11500001 878462.49705574 19870.82261908
0.11600001 868902.11956870 16774.15620819
0.11700001 859374.02338660 15210.92093030
0.11800001 849877.67891357 18204.38073972
0.11900001 840415.82129658 18152.98259504
0.12000001 830989.80762053 19607.20543440
0.12100001 821603.81714314 18042.42067441
0.12200001 812255.53957985 16484.72695239
0.12300001 802949.51600552 16428.34787148
0.12400001 793684.16313824 16369.73663603
0.12500001 784462.24444060 16308.97083041
0.12600001 775286.57817874 19199.97301337
0.12700001 766156.81317496 19123.27495806
0.12800001 757074.07282218 16114.32239948
0.12900001 748040.89354072 17504.15773386
0.13000001 739057.95809103 18879.23642931
0.13100001 730125.33671011 24576.01999212
0.13200001 721245.67213676 18705.50738865
0.13300001 712419.77301689 17183.56573525
0.13400001 703647.85611541 15673.75673392
0.13500001 694932.74597419 15594.29155490
0.13600001 686274.37103834 18333.82068674
0.13700001 677674.11048954 15430.64022345
0.13800001 669131.07234593 16741.66021956
0.13900001 660648.91755424 16648.35350747
0.14000001 652227.01435209 16553.52240493
0.14100001 643867.48412042 16457.25367029
0.14200001 635569.95662056 16359.57145502
0.14300001 627336.31235057 14905.51148451
0.14400001 619164.08447061 14813.50141971
0.14500001 611059.08129696 16058.63341400
0.14600001 603018.99347942 18615.19720687
0.14700001 595046.27024355 23778.05008070
0.14800001 587137.88358572 17059.29201242
0.14900001 579298.25414677 16944.47473325
0.15000001 571525.98677862 14239.57063245
0.15100001 563822.31592775 15426.17929167
0.15200001 556188.83060290 17870.34797052
0.15300001 548624.88664855 19009.85321943
0.15400001 541129.21301807 13839.38027603
0.15500001 533705.52853526 14986.45194853
0.15600001 526350.97909496 12395.56614269
0.15700001 519070.55014207 13532.16988088
0.15800001 511858.56392002 14649.39279082
0.15900001 504720.50663416 12113.29273097
0.16000001 497652.40427373 13220.13674355
0.16100001 490658.98804050 16692.21956108
0.16200001 483737.54803065 14192.86032921
0.16300001 476888.75503899 12904.61032055
0.16400001 470113.31960303 13962.36625137
0.16500001 463409.97116436 13846.69059211
0.16600001 456780.68149453 13730.82793400
0.16700001 450223.83400389 14749.33349835
0.16800001 443740.86815502 13498.59784663
0.16900001 437332.16235945 16727.95600011
0.17000001 430995.30150553 12160.53300619
0.17100001 424732.44017754 12053.90722144
0.17200001 418543.00006073 14119.54877381
0.17300001 412426.39762709 18299.36012689
0.17400001 406384.03184929 18134.88827771
0.17500001 400413.41060162 10570.91453912
0.17600001 394514.64791272 11521.80083646
0.17700001 388691.47851289 11415.86926310
0.17800001 382938.97963865 11310.10329783
0.17900001 377258.52968685 14260.37309573
0.18000001 371651.33318807 10090.33417267
0.18100001 366116.38580068 13992.96892628
0.18200001 360651.00987584 9899.87068874
0.18300001 355257.73066222 11766.13659536
0.18400001 349935.28068138 13594.98629671
0.18500001 344683.80525688 10578.34648308
0.18600001 339502.76961353 12379.96907883
0.18700001 334391.08074455 13201.76049151
0.18800001 329347.66711428 14005.51020574
0.18900001 324376.56262455 11093.67896591
0.19000001 319470.21288557 11898.66864112
0.19100001 314634.97345145 19029.12409347
0.19200001 309865.61043734 11661.79279984
0.19300001 305165.51657240 11544.41203744
0.19400001 300530.68164300 8790.52285344
0.19500001 295962.65584733 11311.69324102
0.19600001 291459.61644582 8612.63207298
0.19700001 287023.76706230 8524.60628460
0.19800001 282651.36523733 10124.57238128
0.19900001 278343.79273265 9185.34559428
0.20000001 274098.22739937 11569.68672532
0.20100001 269917.60133688 9814.20444845
0.20200001 265798.30293059 15377.76154286
0.20300001 261741.37014152 8810.21493538
0.20400001 257746.06092880 11095.96844744
0.20500001 253810.77978005 8627.02881250
0.20600001 249935.48136168 10864.69588834
0.20700001 246119.99780822 9214.73315351
0.20800001 242362.92564257 9117.69369367
0.20900001 238666.25079808 9773.38343218
0.21000001 235024.33953038 8926.22483733
0.21100001 231440.79963244 9567.76310911
0.21200001 227912.33181609 8738.15921492
0.21300001 224439.65712938 7924.96466789
0.21400001 221022.21499611 11404.74683298
0.21500001 217660.10086577 10578.28140219
0.21600001 214349.93366160 12558.76320699
0.21700001 211093.40605849 9663.85658626
0.21800001 207888.95735399 10926.64411514
0.21900001 204735.49764329 10810.03478668
0.22000001 201632.31614073 11362.98971338
0.22100001 198580.72628831 8596.56004750
0.22200001 195578.25115553 9158.92993469
0.22300001 192624.04139168 7766.60171616
0.22400001 189717.29768449 9604.43864944
0.22500001 186860.24387535 6334.56256692
0.22600001 184047.92824788 7520.19870383
0.22700001 181282.57262215 12399.72855373
0.22800001 178561.81375583 6133.59859257
0.22900001 175885.58097687 6068.05283067
0.23000001 173253.70405099 12006.48225854
0.23100001 170666.21282082 10690.53207668
0.23200001 168119.46742983 6463.35323101
0.23300001 165616.06848678 6975.74913458
0.23400001 163152.76742275 7476.47592075
0.23500001 160729.99054072 6827.81032110
0.23600001 158347.48178372 8443.87986549
0.23700001 156004.59637085 7240.17366002
0.23800001 153699.74556906 7163.17698106
0.23900001 151432.94438951 7632.22075823
0.24000001 149203.11118511 7011.80054180
0.24100001 147010.97158293 6403.79822506
0.24200001 144854.87614650 5279.96048529
0.24300001 142733.27711550 5746.44200849
0.24400001 140646.79808753 6719.40109648
0.24500001 138593.96468507 6136.94104656
0.24600001 136574.83987191 5060.09805662
0.24700001 134589.28937613 7009.41052230
0.24800001 132635.89538883 4953.95092713
0.24900001 130712.90831007 5391.90772287
0.25000001 128822.38746005 5820.19574079
0.25100001 126961.59341449 5758.97814973
0.25200001 125132.72157677 5223.66570935
0.25300001 123331.66123217 5168.83016678
0.25400001 121560.31499432 5579.61872222
0.25500001 119815.94002946 7361.49170370
0.25600001 118100.77696197 5918.62071747
0.25700001 116411.72050328 4955.64717629
0.25800001 114749.76592993 6687.04292596
0.25900001 113114.88294280 4411.48064350
0.26000001 111504.78177182 6111.57737809
0.26100001 109919.56246972 4751.82291040
0.26200001 108360.39310507 5129.78125232
0.26300001 106823.92453965 6768.36417909
0.26400001 105312.24617099 4604.77818172
0.26500001 103823.83960409 5799.59995472
0.26600001 102357.76819182 4099.42881007
0.26700001 100914.70961810 4056.77151861
0.26800001 99493.66209879  4014.56945566
0.26900001 98093.31325638  5164.61318735
0.27000001 96714.83907839  4324.60423404
0.27100001 95356.68600472  3890.55297310
0.27200001 94019.60260013  4235.11319954
0.27300001 92702.23669573  5334.08695190
0.27400001 91402.94058831  4147.40862547
0.27500001 90124.93227285  5596.75855901
0.27600001 88863.43374262  4799.95860077
0.27700001 87622.47975474  4750.01485231
0.27800001 86398.30992568  3615.76944151
0.27900001 85192.47211440  3935.89239796
0.28000001 84003.45813333  4602.96970627
0.28100001 82831.83722990  3854.16556872
0.28200001 81677.43252477  3813.92789226
0.28300001 80539.34647441  3430.97632220
0.28400001 79416.65147514  4074.07441350
0.28500001 78310.58200388  3695.47653968
0.28600001 77219.64298291  3656.73636654
0.28700001 76144.89559317  4276.29753892
0.28800001 75083.58875151  4556.82321702
0.28900001 74038.83159527  5475.17185563
0.29000001 73007.70305707  3824.14366714
0.29100001 71991.57400779  3783.87730896
0.29200001 70989.05619398  3119.96916741
0.29300001 70000.64537122  3087.02860700
0.29400001 69025.10799984  3665.23340829
0.29500001 68064.18098085  3324.25475647
0.29600001 67115.38751539  3288.98972088
0.29700001 66179.92123620  3845.71540508
0.29800001 65257.71277657  4975.57454619
0.29900001 64348.43824961  5212.22374496
0.30000001 63450.31733864  3724.21655249
0.30100001 62565.75534424  4251.34327690
0.30200001 61692.30033980  3925.48125646
0.30300001 60831.68497870  3606.10245625
0.30400001 59982.46171638  3018.61752878
0.30500001 59145.36501067  3529.20409727
0.30600001 58318.66350939  2954.13203992
0.30700001 57504.15154863  3719.36869825
0.30800001 56700.61482526  2628.07362157
0.30900001 55908.43241282  2859.71645331
0.31000001 55127.37219764  3857.53805216
0.31100001 54356.35556892  3307.04082939
0.31200001 53597.29394638  3522.95029789
0.31300001 52847.83124768  3484.78615746
0.31400001 52110.39100915  3200.88091929
0.31500001 51382.09568272  4140.36946615
0.31600002 50665.26250970  2890.96001568
0.31700002 49957.98644265  3336.19449260
0.31800002 49260.75971488  4007.11668874
0.31900002 48574.28490874  3031.03552182
0.32000002 47897.97245185  2306.28748276
0.32100002 47231.10777429  3193.76765892
0.32200002 46575.14931203  3384.84913653
0.32300002 45927.31558048  2678.48117148
0.32400002 45290.67492238  3974.25691263
0.32500002 44663.07335783  2402.42682968
0.32600002 44045.49702620  3240.64759715
0.32700002 43437.61118015  2137.13057126
0.32800002 42840.04204766  4016.89673281
0.32900002 42249.99552956  2509.64985330
0.33000002 41670.83825778  2482.74866097
0.33100002 41099.98243308  2456.13506651
0.33200002 40539.83747861  2429.95797354
0.33300002 39988.29768196  2404.09657049
0.33400002 39446.77684468  2378.64075638
0.33500002 38913.87503756  2157.38533425
0.33600002 38389.80845908  2134.66540046
0.33700002 37874.96530888  2112.28691531
0.33800002 37370.09480938  1900.26941105
0.33900002 36873.32890266  2632.75580833
0.34000002 36385.78221262  2233.35941798
0.34100002 35907.43864712  2394.66719678
0.34200002 35438.61974142  2005.64877925
0.34300002 34977.97576356  2887.78181580
0.34400002 34527.07543669  2322.80911001
0.34500002 34084.41609486  2122.77753492
0.34600002 33651.36254781  1751.55350357
0.34700002 33225.78083793  1907.82442607
0.34800002 32809.95642396  2404.64182020
0.34900002 32402.43731129  1871.24084335
0.35000002 32003.90802153  2696.00933942
0.35100002 31614.68281960  2670.80853110
0.35200002 31232.57880503  1653.76512605
0.35300002 30860.26227646  1802.54800494
0.35400002 30495.99130958  2273.47625981
0.35500002 30140.46725966  1770.45113069
0.35600002 29792.99173601  1754.95626133
0.35700002 29454.13027680  2530.69899325
0.35800002 29123.74686537  1725.14522728
0.35900002 28802.24836719  1555.32148550
0.36000002 28488.75767012  2005.46619118
0.36100002 28182.96508521  1836.40209194
0.36200002 27886.89315400  2581.35038707
0.36300002 27597.62252108  1808.19631323
0.36400002 27317.07463696  1944.29287938
0.36500002 27043.66152174  1633.16679666
0.36600002 26779.41385949  1769.04816335
0.36700002 26522.45808373  1756.84770669
0.36800002 26274.29948493  1599.71079992
0.36900002 26033.81752331  1733.85232918
0.37000002 25800.38498498  1435.79149243
0.37100002 25574.77715296  1427.07263273
0.37200002 25357.55667553  2553.75965376
0.37300002 25147.67262056  1551.86295093
0.37400002 24945.18959710  1964.43377383
0.37500002 24750.45866439  1535.51852828
0.37600002 24563.34086734  1527.96269103
0.37700002 24383.41518675  1520.79367724
0.37800002 24210.86616352  1514.02658726
0.37900002 24046.16788810  1507.69479801
0.38000002 23887.92617686  1501.71455025
0.38100002 23736.19678766  1360.08414036
0.38200002 23592.76404608  1626.48523039
0.38300002 23455.34145253  1756.33605117
0.38400002 23325.32713883  1616.44524730
0.38500002 23201.47026835  1612.03823061
0.38600002 23085.29348583  1474.11148537
0.38700002 22974.82737017  1604.56201955
0.38800002 22871.05822402  1467.97894165
0.38900002 22773.62424847  1332.25708165
0.39000002 22683.14842904  1463.40339023
0.39100002 22598.19324506  2126.03812122
0.39200002 22520.00520814  1460.30980691
0.39300002 22447.36687798  1724.63127894
0.39400002 22381.86517978  1723.96324715
0.39500002 22321.04457762  1856.21815502
0.39600002 22266.29476351  1856.34108238
0.39700002 22216.56674781  1458.96200745
0.39800002 22173.71020707  1327.09661877
0.39900002 22135.24835730  1328.11496436
0.40000002 22102.59147830  1329.47094041
0.40100002 22074.78512500  1863.55344855
0.40200002 22052.78743201  1733.01838245
0.40300002 22035.46853831  1335.34945669
0.40400002 22023.09953723  1471.69369630
0.40500002 22015.21967714  1608.87233023
0.40600002 22012.92144806  1612.66670169
0.40700002 22014.72229434  1616.76128190
0.40800002 22020.91702436  1486.08165580
0.40900002 22031.16376462  1490.40829929
0.41000002 22046.41418545  2038.74224840
0.41100002 22065.44614848  1636.37356391
0.41200002 22087.77427628  1368.33768125
0.41300002 22115.30006011  1785.36825845
0.41400002 22146.02795549  1792.16739722
0.41500002 22180.24300946  1937.66612112
0.41600002 22217.34622993  1945.57310154
0.41700002 22259.19159898  2093.47706908
0.41800002 22304.76402871  1962.59627988
0.41900002 22351.68759838  1408.15638542
0.42000002 22402.33651948  1414.70761824
0.42100002 22456.62178339  2132.25633937
0.42200002 22513.47055086  1571.32775155
0.42300002 22572.70079883  2153.43575825
0.42400002 22634.44793825  1731.53534933
0.42500002 22699.25764501  1450.48263225
0.42600002 22765.17739467  1749.73161747
0.42700002 22834.64422668  2052.37792035
0.42800002 22905.44758987  1473.96562225
0.42900002 22979.18458606  1778.58897124
0.43000002 23054.64157808  1639.53091352
0.43100002 23130.30870295  2398.15051996
0.43200002 23209.12295318  2713.37869304
0.43300002 23288.64088125  1970.91777118
0.43400002 23370.14531255  2134.86287547
0.43500002 23452.44149103  2147.30564468
0.43600002 23536.57775358  1851.38729383
0.43700002 23621.17719245  1551.91141509
0.43800002 23706.21265742  1717.15959521
0.43900002 23793.24615360  2041.46061672
0.44000002 23880.23893833  2053.58124482
0.44100002 23968.35340385  2224.74266838
0.44200002 24056.76755801  2078.14396398
0.44300002 24145.79361395  1929.73191708
0.44400002 24234.83675007  2264.74560162
0.44500002 24323.63590544  1627.25131919
0.44600002 24412.53726404  1964.23284135
0.44700002 24502.38493206  1811.21638001
0.44800002 24591.06329256  2153.07064862
0.44900002 24680.21623163  1832.50614204
0.45000002 24769.29181403  1843.20693769
0.45100002 24856.92921543  2190.88984488
0.45200002 24944.71831030  1864.49305847
0.45300002 25031.48253830  2386.50165830
0.45400002 25117.83895765  2228.58036714
0.45500002 25203.66887425  2413.50344578
0.45600002 25288.14319608  2426.90321755
0.45700002 25372.03185167  1917.36453790
0.45800002 25454.47678913  2103.04897199
0.45900002 25535.80680692  1761.97075318
0.46000002 25616.54693856  2657.07645713
0.46100002 25695.02492165  1780.66531146
0.46200002 25772.74727622  1968.90912148
0.46300002 25848.99268154  2158.90797108
0.46400002 25923.14731182  1988.95357177
0.46500002 25996.91902617  2180.62167127
0.46600002 26067.83131236  2191.26200397
0.46700002 26137.23035090  3119.21721791
0.46800002 26205.48687464  3318.40096021
0.46900002 26271.03754855  1852.10823496
0.47000002 26335.08272496  3162.97526060
0.47100002 26397.20000180  2616.49058819
0.47200002 26457.44881718  1877.15608255
0.47300002 26515.43398575  2073.77219032
0.47400002 26570.78589367  1893.16858466
0.47500002 26624.36230720  2281.17547060
0.47600002 26676.40088325  2290.43588840
0.47700002 26724.94984816  1916.17899494
