# SAXS profile: number of points = 501, q_min = 0, q_max = 0.5, delta_q = 0.001
#    q    intensity    error
0.00000000 1682732.95097188 252.40994265
0.00100000 1682650.93371612 605.75435052
0.00200000 1682404.81010743 757.08218852
0.00300000 1681994.81973593 1311.95600613
0.00400000 1681420.81842035 1387.17222791
0.00500000 1680683.32262759 2722.70709042
0.00600000 1679782.22833562 1940.14855272
0.00700000 1678718.09478110 3223.13887593
0.00800000 1677490.75277739 3170.45765661
0.00900000 1676101.47437621 2765.56755094
0.01000000 1674549.55932452 3591.90895985
0.01100000 1672836.34538734 3914.43721864
0.01200000 1670961.74063395 4235.88819822
0.01300000 1668926.86992843 3504.74658143
0.01400000 1666731.81746879 4125.16143111
0.01500000 1664377.89933991 5192.85927717
0.01600000 1661864.64151335 5085.30603036
0.01700000 1659194.20737637 6719.73684131
0.01800000 1656366.61749304 5664.77408673
0.01900000 1653382.55417284 6448.19225223
0.02000000 1650242.96916837 5718.09214683
0.02100000 1646950.14222256 6521.92285890
0.02200000 1643502.60243344 6804.10108320
0.02300000 1639903.39147881 7084.38297366
0.02400000 1636152.22081147 6749.12821859
0.02500000 1632251.52215772 8912.09371800
0.02600000 1628201.35289838 9891.32367127
0.02700000 1624003.86130442 6820.81652988
0.02800000 1619658.83021384 7750.06785799
0.02900000 1615168.81954253 7995.08602382
0.03000000 1610535.16831390 8237.88776458
0.03100000 1605758.34090691 10019.93250831
0.03200000 1600839.60853581 14263.48156900
0.03300000 1595782.72382362 11393.88917336
0.03400000 1590586.01632825 9185.63466812
0.03500000 1585252.58485126 8560.36435350
0.03600000 1579783.82984210 11398.14085906
0.03700000 1574181.52479950 14356.53617013
0.03800000 1568446.96134731 10092.95666337
0.03900000 1562582.45316587 10313.04466849
0.04000000 1556587.80645563 10530.31699864
0.04100000 1550466.91905788 11721.53045156
0.04200000 1544220.64392822 15936.35778467
0.04300000 1537849.95764607 14209.73426824
0.04400000 1531358.32629310 22740.67220157
0.04500000 1524747.17068479 12624.90715989
0.04600000 1518016.55022403 12842.42061190
0.04700000 1511170.48144884 13056.51356695
0.04800000 1504209.46742631 12161.53410999
0.04900000 1497137.60862055 14597.09236351
0.05000000 1489954.12137668 12537.96451523
0.05100000 1482663.64633673 12721.25467818
0.05200000 1475264.50971939 14074.02407859
0.05300000 1467762.71753693 15455.54213617
0.05400000 1460158.28567216 15660.19834413
0.05500000 1452453.82871522 12200.61273036
0.05600000 1444650.25468681 19762.81640633
0.05700000 1436752.97100480 16249.67686058
0.05800000 1428760.41818059 16437.88937869
0.05900000 1420675.84786794 15343.29987360
0.06000000 1412502.50289962 12924.39850534
0.06100000 1404241.83630953 18283.22956315
0.06200000 1395896.27293785 18467.70855421
0.06300000 1387468.72636507 18647.58055422
0.06400000 1378958.03691117 16133.80978639
0.06500000 1370370.57799012 14923.33629239
0.06600000 1361707.03345455 15053.67195918
0.06700000 1352969.00417826 20700.42673269
0.06800000 1344159.64372402 16694.46355650
0.06900000 1335281.37857963 15422.50064466
0.07000000 1326335.55438203 19775.66404190
0.07100000 1317324.68744815 19917.95020713
0.07200000 1308251.34967502 17190.42354005
0.07300000 1299118.48707985 21630.32382338
0.07400000 1289927.99135801 15962.85964114
0.07500000 1280681.61300676 16059.74817987
0.07600000 1271380.66075570 17621.33678417
0.07700000 1262030.44758508 17718.90831491
0.07800000 1252630.88745711 16328.04438373
0.07900000 1243184.43371682 17901.85668519
0.08000000 1233695.04652106 19486.21417392
0.08100000 1224163.72614801 19574.37889950
0.08200000 1214592.15765836 16633.84037968
0.08300000 1204983.87349827 18219.35702236
0.08400000 1195340.55503699 16764.65207130
0.08500000 1185664.26927080 16824.57677078
0.08600000 1175957.45137051 19950.11909919
0.08700000 1166223.65105895 16933.56820854
0.08800000 1156462.19562020 24702.03365855
0.08900000 1146678.89842538 21672.23219818
0.09000000 1136872.84340211 17070.14654556
0.09100000 1127047.64605663 21774.56154481
0.09200000 1117205.12057786 18702.01459722
0.09300000 1107349.89025600 23420.45127949
0.09400000 1097478.66574494 18766.88606623
0.09500000 1087597.72602316 23492.11198629
0.09600000 1077707.76806538 21952.90826745
0.09700000 1067813.63823918 18836.23346408
0.09800000 1057914.74011791 17281.03809234
0.09900000 1048014.01179107 17292.23200768
0.10000000 1038112.31575275 18872.88278792
0.10100000 1028211.97196167 20451.13708417
0.10200000 1018316.20092673 28319.37487981
0.10300000 1008426.02543712 18877.73608421
0.10400000 998544.32713720 23590.61083844
0.10500000 988673.87951776 15719.91542394
0.10600001 978812.14947724 23564.90360748
0.10700001 968966.75248363 18836.71455469
0.10800001 959135.54197862 20386.42690418
0.10900001 949323.11741283 18796.59860945
0.11000001 939529.11789661 17207.47660422
0.11100001 929756.37655568 17181.89864756
0.11200001 920006.59881071 15594.11258397
0.11300001 910280.93875341 18678.96574264
0.11400001 900582.54323122 15535.04960220
0.11500001 890912.48354718 21702.62912114
0.11600001 881271.84318218 20106.21804903
0.11700001 871663.73468584 16971.29371360
0.11800001 862086.99121627 15388.25351797
0.11900001 852544.63835610 16880.38463454
0.12000001 843038.00155669 18361.36853882
0.12100001 833571.41075787 16779.79328902
0.12200001 824142.45112152 16725.97183349
0.12300001 814755.75573720 16669.90354778
0.12400001 805409.57116775 22652.14525640
0.12500001 796106.60439916 16551.05708535
0.12600001 786850.13248287 16488.44530317
0.12700001 777639.39803430 14930.67714589
0.12800001 768475.57498551 16357.00338446
0.12900001 759361.40719562 20730.56739352
0.13000001 750297.43870042 16217.67990193
0.13100001 741283.67826865 16145.15927374
0.13200001 732323.28687415 21914.77539278
0.13300001 723416.36667327 18902.87055231
0.13400001 714563.51409384 17363.89421111
0.13500001 705767.65168347 14397.66077317
0.13600001 697028.47884522 14323.93591565
0.13700001 688347.41929674 18523.42992672
0.13800001 679723.53391144 17006.68362043
0.13900001 671161.06666138 16913.25967747
0.14000001 662658.68923549 18219.80151979
0.14100001 654218.83091714 15328.34793132
0.14200001 645840.93651816 19394.60423839
0.14300001 637527.45726174 15147.65309902
0.14400001 629274.93163794 17792.74953134
0.14500001 621090.26102217 16322.25282962
0.14600001 612970.34493614 14867.59641779
0.14700001 604918.13798986 17457.93828599
0.14800001 596930.59687927 16009.67936362
0.14900001 589011.59825523 15903.31390322
0.15000001 581160.15406010 17112.26154371
0.15100001 573377.86688677 14380.31758005
0.15200001 565665.73405636 15578.43505101
0.15300001 558023.53346569 12890.34423134
0.15400001 550449.47745542 14077.74605027
0.15500001 542947.91781127 21598.46918983
0.15600001 535515.51587928 12611.39099415
0.15700001 528157.71210930 15020.80604132
0.15800001 520868.34082782 13664.98156659
0.15900001 513653.24769634 12327.67852659
0.16000001 506508.44657048 18348.26934310
0.16100001 499438.48753765 14563.62698406
0.16200001 492440.90373147 19264.28906337
0.16300001 485516.01547097 15526.80290775
0.16400001 478665.00662349 15401.04731519
0.16500001 471886.42531440 12924.96979957
0.16600001 465182.30232632 11652.81722344
0.16700001 458550.53504025 16177.66364004
0.16800001 451992.93731448 14895.42795251
0.16900001 445510.27023208 12496.56367007
0.17000001 439099.56329676 12389.19476343
0.17100001 432763.45339274 11165.29762477
0.17200001 426500.66331324 15494.76982988
0.17300001 420311.51742126 12067.14423503
0.17400001 414196.55208235 13047.19200676
0.17500001 408153.98423516 11852.79226197
0.17600001 402183.49967671 14949.16138902
0.17700001 396289.07575776 11639.01070472
0.17800001 390465.52139101 11532.39971898
0.17900001 384714.26165844 13503.47122203
0.18000001 379037.11575932 15436.28726843
0.18100001 373432.43161308 17330.99996982
0.18200001 367897.37051208 10098.78329760
0.18300001 362435.14195911 12003.85246874
0.18400001 357043.99635342 12880.36277693
0.18500001 351724.27625230 18644.90476496
0.18600001 346475.40654301 10690.49917394
0.18700001 341296.17243587 10587.00776914
0.18800001 336185.51599304 11437.03179444
0.18900001 331147.95170735 11325.26048348
0.19000001 326175.45912254 9344.92734540
0.19100001 321274.28283720 10177.96976119
0.19200001 316439.66292382 10993.11440941
0.19300001 311674.59858059 12697.62374617
0.19400001 306975.25496846 10774.83195855
0.19500001 302343.25405648 8888.89208931
0.19600001 297776.47742711 13198.94298569
0.19700001 293277.38678375 10452.40655893
0.19800001 288842.37523479 14657.30702398
0.19900001 284472.40523747 11094.42432858
0.20000001 280165.05052410 8446.97667252
0.20100001 275923.07668736 10868.61050439
0.20200001 271742.78646372 9102.02506280
0.20300001 267625.34036384 9827.20296264
0.20400001 263569.80130135 11346.68048233
0.20500001 259575.01653852 12031.30258524
0.20600001 255640.68998306 12700.23007867
0.20700001 251766.39420447 10997.15661868
0.20800001 247951.13432989 7773.26842869
0.20900001 244196.63861211 7692.19447990
0.21000001 240497.41487662 8372.91789474
0.21100001 236857.12315909 8285.26255978
0.21200001 233272.20019158 7453.04714846
0.21300001 229743.68457280 11062.15893515
0.21400001 226270.75318946 8026.95534888
0.21500001 222853.69594708 8664.55210806
0.21600001 219489.04499995 10716.55312879
0.21700001 216178.44370106 12017.36025352
0.21800001 212920.50131313 6994.43879884
0.21900001 209713.69449022 7612.60746993
0.22000001 206557.85867984 9586.35067460
0.22100001 203454.24442960 8130.03199182
0.22200001 200400.03589510 7373.71966942
0.22300001 197394.62836243 7295.70580926
0.22400001 194436.97183721 7874.69773177
0.22500001 191529.71365056 8440.71487972
0.22600001 188667.43851408 8351.36456075
0.22700001 185852.80805887 7627.39960343
0.22800001 183083.03726662 6917.79289026
0.22900001 180358.39062666 8711.31067923
0.23000001 177678.47766378 8003.52740487
0.23100001 175043.49809524 6700.66542398
0.23200001 172449.75022628 7232.54286654
0.23300001 169899.67528821 5963.47888466
0.23400001 167390.15399575 8260.70449038
0.23500001 164921.70738104 6422.05158916
0.23600001 162494.10109187 8664.99835055
0.23700001 160106.19460742 8002.10798496
0.23800001 157756.94075016 10180.05586811
0.23900001 155446.35051369 7274.88954814
0.24000001 153173.01992425 5537.20493217
0.24100001 150937.87813143 6026.94975887
0.24200001 148739.18950831 6505.85245683
0.24300001 146575.55510040 5901.13212748
0.24400001 144447.27072202 7431.81243020
0.24500001 142353.14023853 5252.83112328
0.24600001 140293.16385673 7277.00675349
0.24700001 138267.35153280 6172.25486441
0.24800001 136273.96826064 7125.76613745
0.24900001 134311.29676887 6044.00864053
0.25000001 132381.72325561 4984.17211637
0.25100001 130482.30136477 8384.79308238
0.25200001 128615.14451281 6345.22845473
0.25300001 126776.20451022 6279.22570646
0.25400001 124967.39955364 5258.00358498
0.25500001 123185.87717279 5203.37169796
0.25600001 121434.04111326 7021.92375960
0.25700001 119708.93221513 5096.00948551
0.25800001 118011.01369454 5043.20090885
0.25900001 116340.77733161 5444.74863674
0.26000001 114695.59754265 4939.36614188
0.26100001 113075.90816497 6665.82510173
0.26200001 111482.31816087 6596.96648932
0.26300001 109912.09647718 6528.77883967
0.26400001 108366.81440059 4307.58107625
0.26500001 106845.36814669 4263.13039078
0.26600001 105346.54485095 7172.51984558
0.26700001 103871.09106177 5845.86528158
0.26800001 102418.10381917 4132.57068466
0.26900001 100986.12809658 4498.93221960
0.27000001 99576.29400298  5262.10950560
0.27100001 98187.32911832  4006.04321760
0.27200001 96819.64408859  3964.76461305
0.27300001 95472.09927575  5885.85519889
0.27400001 94142.93083289  5825.09412096
0.27500001 92835.41372727  4227.72494122
0.27600001 91544.86105884  4564.42698841
0.27700001 90275.02827150  5270.25639991
0.27800001 89022.40930185  5960.94080897
0.27900001 87788.35009627  4055.82196640
0.28000001 86571.47231281  4743.68404989
0.28100001 85372.34319258  4333.50034556
0.28200001 84190.71011915  3573.89581371
0.28300001 83025.75017242  3890.58683722
0.28400001 81876.45459863  4200.26231971
0.28500001 80744.19655322  4849.49667452
0.28600001 79627.33959207  4113.54855803
0.28700001 78526.87369487  4070.83332503
0.28800001 77440.18816867  4699.84524241
0.28900001 76370.43970378  4318.74856967
0.29000001 75314.50716904  3287.47839354
0.29100001 74273.77595517  4554.46815716
0.29200001 73247.05145663  3863.04967668
0.29300001 72234.74545564  3185.55242538
0.29400001 71235.52768186  4097.82392388
0.29500001 70251.14829503  4054.89647154
0.29600001 69279.24628786  4012.30773869
0.29700001 68320.89308748  3359.33847214
0.29800001 67376.06400567  3323.99827507
0.29900001 66444.40764861  3587.99818288
0.30000001 65524.26352246  4141.78889333
0.30100001 64617.77819756  4390.77823638
0.30200001 63722.72894380  3185.81798436
0.30300001 62840.63424422  4011.74628007
0.30400001 61970.31928676  2835.14224159
0.30500001 61112.27912715  3646.56986815
0.30600001 60264.87315710  3330.23704832
0.30700001 59429.94455936  3020.22992549
0.30800001 58606.08662886  2988.03146824
0.30900001 57793.92890634  3224.90138565
0.31000001 56993.12035136  3988.09378540
0.31100001 56202.52685078  3419.36189549
0.31200001 55423.96457302  2862.37078589
0.31300001 54655.28630139  2831.69051734
0.31400001 53898.87527585  4074.75516378
0.31500001 53151.64304310  2771.32679948
0.31600002 52416.26959393  3738.59060580
0.31700002 51690.60633162  2712.20624264
0.31800002 50975.17327039  3414.82701907
0.31900002 50270.64520148  2654.29019232
0.32000002 49576.40767703  3580.65621402
0.32100002 48891.86244058  2361.47706770
0.32200002 48218.42398864  2803.41930344
0.32300002 47553.29714305  3004.41745576
0.32400002 46899.51827160  2286.35162400
0.32500002 46254.86169266  2261.86284387
0.32600002 45620.33578874  2461.44533404
0.32700002 44995.77861743  2435.17165409
0.32800002 44381.65253733  2190.23465643
0.32900002 43775.26697773  2600.25098161
0.33000002 43179.77564713  2143.87596240
0.33100002 42592.75936698  2333.23146861
0.33200002 42016.73669272  2308.60970691
0.33300002 41449.38403295  2284.27566223
0.33400002 40892.05945749  2260.30869355
0.33500002 40343.67736935  2236.65357928
0.33600002 39804.24616496  3219.36758228
0.33700002 39274.05276729  2588.55294048
0.33800002 38753.96816216  2758.89512412
0.33900002 38242.19246223  2340.42228953
0.34000002 37739.73786374  2316.46521978
0.34100002 37246.58517720  2292.89989210
0.34200002 36763.05945283  2837.18924764
0.34300002 36287.76646460  1872.44883825
0.34400002 35822.31737588  2039.18551320
0.34500002 35365.33192978  2386.09905831
0.34600002 34918.11055085  2362.73406232
0.34700002 34478.31051174  2339.69826214
0.34800002 34048.45266440  2851.89853024
0.34900002 33626.96059735  2295.04016947
0.35000002 33214.60245631  1748.74890215
0.35100002 32811.59768492  2078.94292778
0.35200002 32415.76368819  1888.05624544
0.35300002 32029.95794677  2211.02810179
0.35400002 31652.05979433  1854.01949027
0.35500002 31283.04746619  2672.82370211
0.35600002 30922.33978244  2318.24792329
0.35700002 30570.09138250  1805.77538349
0.35800002 30226.69775383  2604.33240182
0.35900002 29892.10761605  1937.00866527
0.36000002 29565.63180679  2081.27274962
0.36100002 29246.85348009  1905.72506303
0.36200002 28938.00743739  2048.37695348
0.36300002 28635.84853706  2345.27610627
0.36400002 28342.60538582  1551.75771838
0.36500002 28056.60905746  1540.30791022
0.36600002 27779.76260915  1988.05880529
0.36700002 27510.24118518  2125.99153950
0.36800002 27249.70370558  1659.09828870
0.36900002 26996.77712333  1797.98544158
0.37000002 26751.02366217  2084.17235225
0.37100002 26513.08630947  2219.14542922
0.37200002 26283.81756897  1764.69559517
0.37300002 26061.73128955  1608.26951406
0.37400002 25847.16854103  1890.07428910
0.37500002 25640.40962787  2024.56684012
0.37600002 25441.35456949  1582.57953596
0.37700002 25249.54865162  1861.14431928
0.37800002 25064.97867415  1567.43851564
0.37900002 24888.54495498  1418.64712964
0.38000002 24718.58029692  1977.73370325
0.38100002 24555.08805731  2110.50991851
0.38200002 24399.95017393  1962.48808546
0.38300002 24251.05890203  1955.60548250
0.38400002 24109.48434333  1392.32278679
0.38500002 23974.04934285  2915.00479769
0.38600002 23846.50162107  2076.43422702
0.38700002 23724.61518213  1656.92720282
0.38800002 23609.38946548  1515.36873463
0.38900002 23500.65601793  1787.22497483
0.39000002 23398.91961017  1784.05071020
0.39100002 23302.70230748  1644.23875271
0.39200002 23213.45865952  1778.96348865
0.39300002 23129.61517727  2187.13651478
0.39400002 23053.06467744  1912.25180559
0.39500002 22981.12667835  1774.60268618
0.39600002 22915.33291650  1364.60813983
0.39700002 22854.69361580  1500.86780086
0.39800002 22800.96127289  1501.10135652
0.39900002 22751.62369745  2184.15597844
0.40000002 22708.10724128  1775.66052986
0.40100002 22669.49611155  1640.36481635
0.40200002 22636.72071056  1505.22881497
0.40300002 22608.71537859  1918.12350360
0.40400002 22585.69391149  1509.28906715
0.40500002 22567.24440749  2198.95239925
0.40600002 22554.38718598  1376.94540294
0.40700002 22545.60177550  1793.72816225
0.40800002 22541.25819384  1521.19688129
0.40900002 22541.08450445  1663.53211525
0.41000002 22545.97477007  1528.95535148
0.41100002 22554.68784482  1672.65572983
0.41200002 22566.65705964  1817.40581241
0.41300002 22583.95971404  1963.44955057
0.41400002 22604.43559385  1829.26403711
0.41500002 22628.44737494  1976.82125634
0.41600002 22655.32894996  1558.79998226
0.41700002 22687.13484956  1991.47679146
0.41800002 22722.65916170  1999.36687438
0.41900002 22759.50912955  2150.77371466
0.42000002 22800.22307662  1583.81757107
0.42100002 22844.69900413  1735.28341858
0.42200002 22891.60446145  1597.71960910
0.42300002 22941.03576945  2188.57491611
0.42400002 22993.01551032  1758.96576989
0.42500002 23048.11690735  1914.60716222
0.42600002 23104.41571044  1775.80547565
0.42700002 23164.14121558  2379.42069842
0.42800002 23225.38269772  1644.00879216
0.42900002 23289.58180484  2103.04933663
0.43000002 23355.59453547  1660.93318410
0.43100002 23421.83728127  1669.50864052
0.43200002 23491.20267072  1678.32905434
0.43300002 23561.46867843  1994.00718875
0.43400002 23633.72229209  2313.15067895
0.43500002 23706.76273525  2170.59129890
0.43600002 23781.77201425  1714.78475235
0.43700002 23857.21559643  2037.64488065
0.43800002 23933.25549683  2836.80890847
0.43900002 24011.26395149  2377.11524385
0.44000002 24089.35956642  1912.21345300
0.44100002 24168.52869906  1762.61088155
0.44200002 24248.12039822  1772.41644450
0.44300002 24328.32514487  1782.29318458
0.44400002 24408.67255238  1629.27897008
0.44500002 24488.85786487  1802.13513568
0.44600002 24569.11161817  2141.56671569
0.44700002 24650.50142947  1822.16515202
0.44800002 24730.65133595  2498.41416962
0.44900002 24811.34773113  2177.19586659
0.45000002 24892.14246318  2189.13957267
0.45100002 24971.55518756  2031.68582635
0.45200002 25051.08923600  2042.66591311
0.45300002 25129.69862840  1882.46581347
0.45400002 25207.98483853  2064.53405612
0.45500002 25285.78560989  2248.41216299
0.45600002 25362.30272058  2434.02030745
0.45700002 25438.32475820  2097.13559246
0.45800002 25512.92217291  1932.22125234
0.45900002 25586.52772493  2118.56459603
0.46000002 25659.49731739  1951.78975595
0.46100002 25730.36343357  1783.11427046
0.46200002 25800.61598122  1971.03815130
0.46300002 25869.34369885  3420.96217287
0.46400002 25936.16014394  1809.04725578
0.46500002 26002.60665515  2544.61520788
0.46600002 26066.26594627  2373.72462090
0.46700002 26128.44202272  2934.74674709
0.46800002 26189.63014040  1842.44056770
0.46900002 26248.15393655  2405.64342230
0.47000002 26305.17997369  2044.30715855
0.47100002 26360.42122242  2052.94970211
0.47200002 26413.89866128  2061.47281873
0.47300002 26465.23197554  2069.84589091
0.47400002 26513.85814151  1889.11248212
0.47500002 26560.86730916  2275.73521891
0.47600002 26606.42469818  1903.68977739
0.47700002 26648.60105118  3821.40957187
