# SAXS profile: number of points = 501, q_min = 0, q_max = 0.5, delta_q = 0.001
#    q    intensity    error
0.00000000 1682732.95097188 302.89193117
0.00100000 1682650.93017283 555.27482014
0.00200000 1682404.79931874 984.20683877
0.00300000 1681994.79100570 1513.79536583
0.00400000 1681420.76484272 1387.17218370
0.00500000 1680683.25109439 1815.13798303
0.00600000 1679782.12325541 2116.52556147
0.00700000 1678717.94140775 2417.35393609
0.00800000 1677490.55945142 2491.07358596
0.00900000 1676101.22472032 2765.56713901
0.01000000 1674549.25343260 3315.60766496
0.01100000 1672835.99222162 4215.54688394
0.01200000 1670961.28128290 4235.88703377
0.01300000 1668926.33235269 4205.69454302
0.01400000 1666731.21177229 4500.17447128
0.01500000 1664377.20938481 4393.95602843
0.01600000 1661863.89228739 5085.30373773
0.01700000 1659193.32547155 4927.80439771
0.01800000 1656365.63056974 4720.64225954
0.01900000 1653381.45952854 5456.15906264
0.02000000 1650241.78460055 6237.91422797
0.02100000 1646948.85385732 5978.42461055
0.02200000 1643501.11852958 6804.09493984
0.02300000 1639901.86208629 5903.64697224
0.02400000 1636150.52318682 6135.56474172
0.02500000 1632249.68460903 8912.08368499
0.02600000 1628199.34497935 9891.31147316
0.02700000 1624001.70360462 7502.88821429
0.02800000 1619656.52486370 8454.60744751
0.02900000 1615166.37304975 10902.37351866
0.03000000 1610532.52014801 11233.46484438
0.03100000 1605755.50716398 10019.91482575
0.03200000 1600836.59280274 10301.38394915
0.03300000 1595779.59086420 8952.32391745
0.03400000 1590582.70390923 9185.61553890
0.03500000 1585249.11620408 11128.44930964
0.03600000 1579780.08721986 9644.55787819
0.03700000 1574177.58588621 8972.81265452
0.03800000 1568442.87550743 11928.00862026
0.03900000 1562578.15729092 12188.11019130
0.04000000 1556583.27803495 15316.78016563
0.04100000 1550462.14724873 12698.28557474
0.04200000 1544215.67137917 10956.21069673
0.04300000 1537844.79721706 16239.64181242
0.04400000 1531352.97972769 11370.29640254
0.04500000 1524741.58933596 14729.00443737
0.04600000 1518010.68854834 14982.76619247
0.04700000 1511164.45641142 11968.42305140
0.04800000 1504203.19986513 16583.84105013
0.04900000 1497131.08459541 14597.02875426
0.05000000 1489947.33006164 13677.71712688
0.05100000 1482656.68407194 12721.19494194
0.05200000 1475257.26005759 12901.12534041
0.05300000 1467755.26221255 16644.34544941
0.05400000 1460150.59080324 14455.49152307
0.05500000 1452445.90839871 15860.71005960
0.05600000 1444642.08631739 13586.85945583
0.05700000 1436744.57763104 16249.58193151
0.05800000 1428751.77190904 13908.89914897
0.05900000 1420666.91298936 15343.20337690
0.06000000 1412493.35851298 18094.04076788
0.06100000 1404232.37851539 15671.23407657
0.06200000 1395886.66117020 15829.35547759
0.06300000 1387458.81397880 14651.56576065
0.06400000 1378947.84366791 17478.16473589
0.06500000 1370360.13116401 16279.87911977
0.06600000 1361696.32875338 15053.55361870
0.06700000 1352958.08137957 17940.22499868
0.06800000 1344148.42208831 19476.71154775
0.06900000 1335270.13456145 14020.33706931
0.07000000 1326323.85082244 21188.02450909
0.07100000 1317312.85429815 21340.46923917
0.07200000 1308239.17852925 15757.74164358
0.07300000 1299106.05238711 14420.07785716
0.07400000 1289915.34591206 15962.70315374
0.07500000 1280668.78631891 16059.58733319
0.07600000 1271367.54246449 16152.72538426
0.07700000 1262017.13633354 17718.72142493
0.07800000 1252617.39896591 19296.57193601
0.07900000 1243170.62058543 19393.46259076
0.08000000 1233680.98651499 16488.14715825
0.08100000 1224149.54813769 19574.15219311
0.08200000 1214577.70908424 16633.64250645
0.08300000 1204969.14888521 15182.61198850
0.08400000 1195325.61267368 15240.40227695
0.08500000 1185649.09926521 16824.36150840
0.08600000 1175942.13918071 16880.65020051
0.08700000 1166208.12468073 16933.34276552
0.08800000 1156446.37558121 23157.83975859
0.08900000 1146662.88442252 20123.93456683
0.09000000 1136856.69245983 20173.52295536
0.09100000 1127031.37472275 17108.33707206
0.09200000 1117188.49215388 18701.73623739
0.09300000 1107333.13521815 17174.73773431
0.09400000 1097461.83174288 25022.13093971
0.09500000 1087580.64850102 21925.62690434
0.09600000 1077690.62541855 17248.43927063
0.09700000 1067796.20069186 17266.26537692
0.09800000 1057897.18590589 23564.66092401
0.09900000 1047996.24862747 18863.93336232
0.10000000 1038094.41325309 22017.98354054
0.10100000 1028193.96689816 18877.64212010
0.10200000 1018298.02350184 22025.78728436
0.10300000 1008407.64637221 28316.08804214
0.10400000 998525.96700494 23590.17708029
0.10500000 988655.56119222 20435.51141132
0.10600001 978793.46552135 20422.52661906
0.10700001 968947.97132933 26684.82838614
0.10800001 959116.56461521 21954.17919724
0.10900001 949304.15195623 17229.87116894
0.11000001 939510.08229954 18771.41232791
0.11100001 929737.13812760 17181.54312139
0.11200001 919987.39601992 20271.92322564
0.11300001 910261.68039817 17122.02301441
0.11400001 900563.21601771 15534.71620775
0.11500001 890893.16017555 27902.77509058
0.11600001 881252.41988543 20105.77490650
0.11700001 871644.24487595 20056.53501916
0.11800001 862067.37597809 20004.27440174
0.11900001 852525.04170466 19949.08691552
0.12000001 843018.41847605 18360.94201930
0.12100001 833551.73595968 19830.19673264
0.12200001 824122.83230266 19766.58706401
0.12300001 814736.09391442 16669.50126686
0.12400001 805389.86443283 18121.27280357
0.12500001 796086.87704677 16550.64695368
0.12600001 786830.41508375 19485.85614779
0.12700001 777619.60172422 20902.41587940
0.12800001 768455.98489729 17843.54881027
0.12900001 759341.82122811 20730.03269658
0.13000001 750277.87708599 22114.44146947
0.13100001 741264.20880603 17612.43843144
0.13200001 732303.85498640 21914.19389351
0.13300001 723397.02803985 15994.30904398
0.13400001 714544.28993949 15916.47480879
0.13500001 705748.42342310 18716.44907163
0.13600001 697009.38982190 15755.89799983
0.13700001 688328.27995895 22797.43370721
0.13800001 679704.51367863 15589.02375633
0.13900001 671142.15340046 15503.38447466
0.14000001 662639.99070391 19620.77105007
0.14100001 654200.23994317 16721.35892158
0.14200001 645822.45486911 15238.18154135
0.14300001 637509.10665691 15147.21708863
0.14400001 629256.83430134 16423.60414996
0.14500001 621072.19704830 14961.62993267
0.14600001 612952.48095882 14867.16312700
0.14700001 604900.42645935 16114.54812111
0.14800001 596913.01785438 20011.50986768
0.14900001 588994.22728252 15902.84488694
0.15000001 581142.90957695 14479.17627528
0.15100001 573360.71558289 16994.41241176
0.15200001 565648.96245561 18174.30202129
0.15300001 558006.84922341 14178.95470786
0.15400001 550433.03022953 15357.08226812
0.15500001 542931.69858701 13975.06258115
0.15600001 535499.50047770 15133.21659771
0.15700001 528142.04055308 13768.66364706
0.15800001 520852.74552155 13664.57242371
0.15900001 513638.01534815 13560.04424523
0.16000001 506493.32114422 18347.72142451
0.16100001 499423.68259268 13349.59566586
0.16200001 492426.29796629 14447.78826435
0.16300001 485501.67016914 11943.34164998
0.16400001 478651.00501763 16585.25810684
0.16500001 471872.76160269 15274.52201421
0.16600001 465168.78076335 12817.72635910
0.16700001 458537.43746170 16177.20155745
0.16800001 451980.03811138 20623.85011281
0.16900001 445497.58973988 14768.24579720
0.17000001 439087.35969302 13515.10956953
0.17100001 432751.44032813 12281.48645646
0.17200001 426488.94164368 12174.12741412
0.17300001 420300.09983465 19745.69962271
0.17400001 414185.45313967 13046.84239005
0.17500001 408143.24491754 16162.47326205
0.17600001 402173.12379323 12813.23632921
0.17700001 396278.95553959 11638.71347390
0.17800001 390455.65239051 12580.48171422
0.17900001 384704.79095801 10387.02984648
0.18000001 379027.97236416 10290.60993576
0.18100001 373423.71980476 15291.70204833
0.18200001 367888.92977941 16157.68255917
0.18300001 362427.01729914 13003.88199499
0.18400001 357036.24311727 14861.63432183
0.18500001 351716.89396920 14719.35270798
0.18600001 346468.50969030 11662.13058713
0.18700001 341289.54262120 10586.80211228
0.18800001 336179.22419084 13342.95403854
0.18900001 331142.05270113 10381.30384267
0.19000001 326169.94592871 14951.63102782
0.19100001 321269.08851832 12953.57026112
0.19200001 316434.77113347 10992.94446861
0.19300001 311670.13231211 9976.56140673
0.19400001 306971.21173567 13468.36255133
0.19500001 302339.51173763 10666.53847815
0.19600001 297773.15848882 10559.03669899
0.19700001 293274.33057753 9581.27283276
0.19800001 288839.76952949 10346.24103350
0.19900001 284470.20753421 8534.10662935
0.20000001 280163.25119543 9291.61466503
0.20100001 275921.62890134 10032.51090101
0.20200001 271741.67210397 11584.34802931
0.20300001 267624.61415835 9827.17629637
0.20400001 263569.39763727 10536.18716855
0.20500001 259575.05694503 11229.21749421
0.20600001 255641.08898985 7937.65618833
0.20700001 251767.21539031 8640.65124063
0.20800001 247952.19607178 10882.62240001
0.20900001 244198.19453855 13846.03828486
0.21000001 240499.24646959 11417.70226589
0.21100001 236859.40494007 9791.76826311
0.21200001 233274.82689540 8943.75728598
0.21300001 229746.68785055 9587.32973725
0.21400001 226274.09714039 8027.07397555
0.21500001 222857.41086272 8664.69654399
0.21600001 219493.15418235 10002.30350898
0.21700001 216182.85427791 9189.93356985
0.21800001 212925.27468050 7694.05516436
0.21900001 209718.82706212 7612.79378230
0.22000001 206563.30442849 7532.33125213
0.22100001 203460.03105714 6775.21935456
0.22200001 200406.14101706 8044.30288080
0.22300001 197401.16401272 7959.21530935
0.22400001 194443.74782899 7874.97215945
0.22500001 191536.90830092 7142.41164829
0.22600001 188674.90501725 8351.69506553
0.22700001 185860.58058654 6992.07537231
0.22800001 183091.14824275 6918.09936351
0.22900001 180366.79791137 6844.92030444
0.23000001 177687.20414380 6772.54810623
0.23100001 175052.59216526 9137.74574318
0.23200001 172459.07827191 6027.44507066
0.23300001 169909.25855682 6560.19678314
0.23400001 167400.05439855 6490.93741629
0.23500001 164931.90925643 5838.58986382
0.23600001 162504.56052879 5777.03740004
0.23700001 160116.98727525 6859.41205931
0.23800001 157767.99595752 8483.97438390
0.23900001 155457.57076444 6156.12009345
0.24000001 153184.54105062 7752.66998928
0.24100001 150949.59361724 8767.15281199
0.24200001 148751.14770117 7048.57346723
0.24300001 146587.79032321 6438.13605554
0.24400001 144459.79752556 6370.67737223
0.24500001 142365.86956106 7354.62116943
0.24600001 140306.07993396 5718.17455821
0.24700001 138280.48067660 5144.03412451
0.24800001 136287.23262929 5599.36121746
0.24900001 134324.91251869 5540.90290352
0.25000001 132395.43101820 6978.56349911
0.25100001 130496.22599955 4932.75757615
0.25200001 128629.24988343 7322.22039603
0.25300001 126790.41520337 8212.21558125
0.25400001 124981.72359427 4780.55115365
0.25500001 123200.44669214 6623.25632753
0.25600001 121448.74832803 10300.06883302
0.25700001 119723.87331057 4633.31411634
0.25800001 118026.02734804 5502.37365531
0.25900001 116355.88263939 6353.03149270
0.26000001 114710.86225545 7185.48875167
0.26100001 113091.22465455 6222.27947491
0.26200001 111497.76474843 4838.44573020
0.26300001 109927.64840953 4788.44859130
0.26400001 108382.50105324 4308.20462072
0.26500001 106861.03643373 5116.50666655
0.26600001 105362.38922255 4641.74027684
0.26700001 103886.86716085 4176.25225749
0.26800001 102433.99004654 5373.17520215
0.26900001 101002.07030655 4908.70084919
0.27000001 99592.26883756  4453.26851181
0.27100001 98203.31957701  4808.03475402
0.27200001 96835.66408170  4758.50475816
0.27300001 95488.21661444  5886.84883287
0.27400001 94159.01476486  4272.46549715
0.27500001 92851.61400009  3844.05700152
0.27600001 91560.98929968  3804.35928545
0.27700001 90291.11091874  4518.16740420
0.27800001 89038.46898282  3726.26010328
0.27900001 87804.41203467  5162.89967199
0.28000001 86587.48543776  3649.66268393
0.28100001 85388.31260497  5056.69611180
0.28200001 84206.61625500  4646.94233797
0.28300001 83041.55317475  4245.08439921
0.28400001 81892.22258920  3500.89268139
0.28500001 80759.92601078  3464.60098985
0.28600001 79642.98434439  4114.35676597
0.28700001 78542.37961883  4750.24334419
0.28800001 77455.61601722  3693.47122460
0.28900001 76385.81063655  5316.45267195
0.29000001 75329.75165222  3288.14381526
0.29100001 74288.92583545  3253.85510561
0.29200001 73262.03278794  3541.85314279
0.29300001 72249.57213841  3504.82691034
0.29400001 71250.21243200  4413.95086910
0.29500001 70265.78130928  3431.78092160
0.29600001 69293.63870348  3395.73492541
0.29700001 68335.21227291  4581.87619980
0.29800001 67390.17031590  5742.65363532
0.29900001 66458.30165981  4485.93557440
0.30000001 65537.95202097  3550.84640859
0.30100001 64631.33751461  3220.57970082
0.30200001 63736.07621860  3186.48528140
0.30300001 62853.81196024  4012.58754550
0.30400001 61983.27500217  2835.73496560
0.30500001 61125.04060511  3086.20344626
0.30600001 60277.43179891  3608.50862548
0.30700001 59442.23435791  4393.97017176
0.30800001 58618.15640733  2716.95167811
0.30900001 57805.79768865  3494.36063572
0.31000001 57004.74070957  3191.12553600
0.31100001 56213.86205917  3156.97064271
0.31200001 55435.08270786  3123.21270763
0.31300001 54666.14401199  2574.77550487
0.31400001 53909.48382823  2801.94555463
0.31500001 53161.98704017  2771.86613551
0.31600002 52426.32994687  3240.73373911
0.31700002 51700.39853541  2959.33095229
0.31800002 50984.66698613  4147.34793236
0.31900002 50279.84997316  2896.11949558
0.32000002 49585.39900773  2865.04449032
0.32100002 48900.54237679  3070.46520122
0.32200002 48226.80751752  2803.90672183
0.32300002 47561.37908767  2311.48313311
0.32400002 46907.28410642  2972.74927101
0.32500002 46262.30829859  2714.67237951
0.32600002 45627.45235012  2685.63197250
0.32700002 45002.62846348  2435.54236777
0.32800002 44388.08791634  2409.60746664
0.32900002 43781.39811401  2167.17930927
0.33000002 43185.65227990  2358.58451096
0.33100002 42598.31926857  2333.53604004
0.33200002 42021.99355493  2938.59814845
0.33300002 41454.29171266  2492.23213579
0.33400002 40896.58484718  2260.55883448
0.33500002 40347.86209627  2440.23881514
0.33600002 39808.15471215  2615.99301079
0.33700002 39277.53493651  2190.50822715
0.33800002 38757.15984408  3744.52317567
0.33900002 38245.06420909  1950.49836703
0.34000002 37742.28278987  2316.62142735
0.34100002 37248.74128839  2484.11867417
0.34200002 36764.93389478  1891.55593847
0.34300002 36289.28324389  2247.03252488
0.34400002 35823.46799814  2224.63746804
0.34500002 35366.11520598  2019.05161273
0.34600002 34918.62205896  2362.76867352
0.34700002 34478.44333225  2519.68475806
0.34800002 34048.28718019  2138.91350196
0.34900002 33626.43501708  2118.46550641
0.35000002 33213.72432297  1923.57293527
0.35100002 32810.37085629  1905.62642959
0.35200002 32414.15119828  1716.32938724
0.35300002 32027.98797640  1870.75486631
0.35400002 31649.74926868  1853.88415122
0.35500002 31280.40873508  2004.44868668
0.35600002 30919.46287003  2318.03224116
0.35700002 30566.84312253  1805.58350877
0.35800002 30223.09961410  2278.51958783
0.35900002 29888.12795407  2582.33437755
0.36000002 29561.35349791  1920.89684128
0.36100002 29242.26983425  1746.64085993
0.36200002 28933.08395541  2048.02844479
0.36300002 28630.62543218  1719.55544491
0.36400002 28336.95170890  2172.02745137
0.36500002 28050.76759473  1847.98465668
0.36600002 27773.53098050  1681.82624819
0.36700002 27503.72596854  1821.84689445
0.36800002 27242.87185085  1809.47163405
0.36900002 26989.63845268  1647.71750559
0.37000002 26743.61512833  1637.11047763
0.37100002 26505.36351096  2218.49903096
0.37200002 26275.84478477  1470.13358535
0.37300002 26053.38460302  2046.23292365
0.37400002 25838.58935162  2470.81522379
0.37500002 25631.55211269  1734.74352916
0.37600002 25432.20282729  2301.10582082
0.37700002 25240.07851128  2719.11378683
0.37800002 25055.29747938  1851.71184793
0.37900002 24878.51842047  1559.88317886
0.38000002 24708.35344486  1694.49895952
0.38100002 24544.67674930  1547.05104880
0.38200002 24389.24085516  1401.16195351
0.38300002 24240.06481982  2513.21003958
0.38400002 24098.23139502  1670.00751479
0.38500002 23962.58947965  1526.17739626
0.38600002 23834.78642642  1660.33130112
0.38700002 23712.71000509  1518.08776645
0.38800002 23597.20386044  1789.96598363
0.38900002 23488.25997261  1374.06327349
0.39000002 23386.39354236  1508.77325086
0.39100002 23289.95137889  1369.44920596
0.39200002 23200.50925637  1777.97111110
0.39300002 23116.43404593  1639.41758021
0.39400002 23039.73671450  1911.14625101
0.39500002 22967.50711539  2182.83197966
0.39600002 22901.65923244  1636.55264629
0.39700002 22840.81193735  1909.03515217
0.39800002 22786.89945023  1363.79599671
0.39900002 22737.44960742  1773.52115341
0.40000002 22693.72474431  1911.03865126
0.40100002 22654.98657634  2049.14363292
0.40200002 22622.08618312  1367.50517456
0.40300002 22593.93986049  1643.03138450
0.40400002 22570.81389511  1645.41241091
0.40500002 22552.21156639  2334.83057409
0.40600002 22539.19105379  1513.61944693
0.40700002 22530.37263164  1516.74475743
0.40800002 22525.88293677  2211.14077384
0.40900002 22525.64090005  1523.85967909
0.41000002 22530.44668685  2361.30357690
0.41100002 22539.06487145  1671.49713007
0.41200002 22550.97034861  1676.43921515
0.41300002 22568.21745224  1962.08091827
0.41400002 22588.60079419  2249.82474570
0.41500002 22612.56311668  1411.02400534
0.41600002 22639.40766542  1416.09501657
0.41700002 22671.14898117  1421.48110847
0.41800002 22706.60364836  1855.24313900
0.41900002 22743.43472597  1862.68739232
0.42000002 22784.16077146  1438.81982090
0.42100002 22828.63913736  1445.05292587
0.42200002 22875.50059232  1451.45058136
0.42300002 22924.96988929  2187.04223107
0.42400002 22976.91644986  2050.68989032
0.42500002 23032.01282498  1766.09482711
0.42600002 23088.33669038  1774.56964211
0.42700002 23148.03023467  1783.32433378
0.42800002 23209.39628434  1493.52472167
0.42900002 23273.60372610  1651.26226262
0.43000002 23339.59217354  1810.68564663
0.43100002 23405.88027136  1820.04133615
0.43200002 23475.33461459  1524.72305547
0.43300002 23545.61154035  1532.81938391
0.43400002 23617.95193767  2003.39286805
0.43500002 23691.08857313  2324.09589916
0.43600002 23766.13780078  1713.65744733
0.43700002 23841.69476207  1879.67930412
0.43800002 23917.79943074  1732.48588387
0.43900002 23995.94271143  2692.34489981
0.44000002 24074.09233888  2070.25166879
0.44100002 24153.37758418  1921.64281166
0.44200002 24233.06677401  1771.31609979
0.44300002 24313.35084276  1781.19616715
0.44400002 24393.84229088  2116.77576511
0.44500002 24474.15410274  1964.78518448
0.44600002 24554.52097533  2469.57106413
0.44700002 24636.08583532  2648.87207455
0.44800002 24716.34273648  1831.11033841
0.44900002 24797.19436863  1673.81069921
0.45000002 24878.15601070  1851.30806727
0.45100002 24957.69335613  1861.34485871
0.45200002 25037.36622557  2381.80476192
0.45300002 25116.10041151  1881.44717099
0.45400002 25194.58801668  1891.48378500
0.45500002 25272.54070155  2247.23442569
0.45600002 25349.23518141  1911.45916944
0.45700002 25425.42731152  2445.41771472
0.45800002 25500.23006173  2282.39819985
0.45900002 25574.00241788  2293.98812561
0.46000002 25647.10191831  2305.54633622
0.46100002 25718.18932854  2495.17884691
0.46200002 25788.61981247  2149.22367703
0.46300002 25857.57198334  1979.65580487
0.46400002 25924.58532752  2531.53587722
0.46500002 25991.23413551  1998.46608740
0.46600002 26055.11267998  2555.22502163
0.46700002 26117.45968702  2566.82405970
0.46800002 26178.87417906  2025.85227436
0.46900002 26237.61437807  2589.65266186
0.47000002 26294.85974722  2229.27831503
0.47100002 26350.28636534  2425.28047202
0.47200002 26403.97112789  2622.70657644
0.47300002 26455.54060438  1880.98902613
0.47400002 26504.39889386  2266.12621283
0.47500002 26551.63907430  2843.68067964
0.47600002 26597.38688504  2093.34743401
0.47700002 26639.83368806  2483.09901576
