# SAXS profile: number of points = 501, q_min = 0, q_max = 0.5, delta_q = 0.001
#    q    intensity    error
0.00000000 1700912.83420644 306.16431016
0.00100000 1700830.35069627 561.27402906
0.00200000 1700582.83946413 1147.89345299
0.00300000 1700170.52161432 1122.11258424
0.00400000 1699593.25816981 1657.10348968
0.00500000 1698851.58161175 1834.75978076
0.00600000 1697945.37418588 2852.54834477
0.00700000 1696875.20840995 3054.37550208
0.00800000 1695640.88527323 2746.93835012
0.00900000 1694243.72640009 4828.59482665
0.01000000 1692682.97306284 3630.80513400
0.01100000 1690960.02744976 3348.10100012
0.01200000 1689074.76238656 3293.69593106
0.01300000 1687028.31304583 5314.13942047
0.01400000 1684820.78344184 4169.93162388
0.01500000 1682453.40982139 4845.46603605
0.01600000 1679925.79595318 5997.33535965
0.01700000 1677240.13048637 5434.25826655
0.01800000 1674396.34371740 5726.43575319
0.01900000 1671395.23901576 6518.44172629
0.02000000 1668237.70218726 6305.93879952
0.02100000 1664926.01027317 8241.38412450
0.02200000 1661458.63449413 6878.43905931
0.02300000 1657838.76650437 9549.15172973
0.02400000 1654066.04703034 7443.29755103
0.02500000 1650142.91895836 7722.66921342
0.02600000 1646069.37312915 7333.23939270
0.02700000 1641847.59997015 8274.91228285
0.02800000 1637477.39935738 9259.93511802
0.02900000 1632961.38951325 9552.82456726
0.03000000 1628300.83787154 8328.75916855
0.03100000 1623496.27646187 10130.61723126
0.03200000 1618548.99748738 11216.54506920
0.03300000 1613462.60078238 9051.52560767
0.03400000 1608235.56722250 12664.85567624
0.03500000 1602870.94037354 10386.60417325
0.03600000 1597370.15670397 10638.48573529
0.03700000 1591734.95223774 11794.75654156
0.03800000 1585966.67420304 10205.69602081
0.03900000 1580067.55079973 14220.60861575
0.04000000 1574037.42132899 9680.33058975
0.04100000 1567880.34205166 12840.94059679
0.04200000 1561597.02173149 11079.53138320
0.04300000 1555188.45175654 15396.36638706
0.04400000 1548658.13329802 10453.44288524
0.04500000 1542007.47720913 12767.82250455
0.04600000 1535236.45513904 16235.12626782
0.04700000 1528349.45167824 12104.52822025
0.04800000 1521346.42857917 12300.08644736
0.04900000 1514231.92837815 22713.47998293
0.05000000 1507005.10962594 16140.02547567
0.05100000 1499670.43609794 14036.91593577
0.05200000 1492226.28115107 14235.83938559
0.05300000 1484678.72017395 14431.07783284
0.05400000 1477027.83385602 18278.22029635
0.05500000 1469276.14495740 12341.92019338
0.05600000 1461424.71470486 18742.77284071
0.05700000 1453478.65785932 13909.79140500
0.05800000 1445436.53241804 15350.53669103
0.05900000 1437301.84232483 14229.28890361
0.06000000 1429077.73520125 18306.48664319
0.06100000 1420765.46160432 18498.36717454
0.06200000 1412367.74664703 17350.93857860
0.06300000 1403886.92942004 14825.04666783
0.06400000 1395322.61680566 14964.83576510
0.06500000 1386680.95148802 19219.39888666
0.06600000 1377962.30077752 13848.52177077
0.06700000 1369168.74124297 19551.73053995
0.06800000 1360303.01073782 16894.96418420
0.06900000 1351367.92182687 15608.30022786
0.07000000 1342364.33641249 24303.50744884
0.07100000 1333295.18245499 15839.54750945
0.07200000 1324162.90989896 17399.50145118
0.07300000 1314970.78069732 20434.64688951
0.07400000 1305720.07105503 16158.28663655
0.07500000 1296413.11054110 16257.02116819
0.07600000 1287050.74902668 19325.06790261
0.07700000 1277638.75239992 19432.88633518
0.07800000 1268176.84586849 18033.47559395
0.07900000 1258667.35363474 18124.81074246
0.08000000 1249114.29121252 18212.08722023
0.08100000 1239519.05244956 16770.69356649
0.08200000 1229882.76274574 18374.44933765
0.08300000 1220209.27114707 15374.63753802
0.08400000 1210500.12458497 21607.42823807
0.08500000 1200757.51142718 15489.77262458
0.08600000 1190984.01503360 17096.57633852
0.08700000 1181183.08576308 18709.94095706
0.08800000 1171354.06545236 17201.33525901
0.08900000 1161502.36630484 23520.42402242
0.09000000 1151627.60710773 20435.63284810
0.09100000 1141733.41022883 17331.51398153
0.09200000 1131821.28313387 17367.79840575
0.09300000 1121895.89270281 20564.35267961
0.09400000 1111954.16681442 17429.88238398
0.09500000 1102002.34398161 20629.48484898
0.09600000 1092041.24963485 22244.88130074
0.09700000 1082075.26662446 17497.15788391
0.09800000 1072104.37301455 19104.90082539
0.09900000 1062130.89920776 19118.35708473
0.10000000 1052156.52641553 23910.25818722
0.10100000 1042182.91880057 19134.47928911
0.10200000 1032213.47915012 19137.23880359
0.10300000 1022249.05045442 22325.92031215
0.10400000 1012293.03017250 15943.61597529
0.10500000 1002348.34641706 17531.07340366
0.10600001 992411.39160526 19113.84430169
0.10700001 982490.74675124 19099.62101563
0.10800001 972583.95305986 20672.27289516
0.10900001 962695.59168243 17472.92581141
0.11000001 952825.31133304 22210.35905260
0.11100001 942976.42003919 28515.60828431
0.11200001 933149.60061802 20561.95241762
0.11300001 923347.12343737 23683.85483122
0.11400001 913571.35757352 20486.83865820
0.11500001 903823.96472818 22017.15281752
0.11600001 894105.57728224 17260.70898227
0.11700001 884419.64349751 21915.91979800
0.11800001 874764.68298201 21860.37045731
0.11900001 865144.00364397 21801.62991872
0.12000001 855558.76404109 18634.07075857
0.12100001 846013.68462118 18578.46138948
0.12200001 836505.61281504 16976.88221188
0.12300001 827040.01716404 18459.53405281
0.12400001 817614.43098681 16863.29843366
0.12500001 808232.23005629 19858.26682821
0.12600001 798896.08882087 15218.97120921
0.12700001 789605.61946961 16676.47146910
0.12800001 780362.38702006 18120.01548059
0.12900001 771168.19739818 18045.33666963
0.13000001 762024.35842232 19465.91315342
0.13100001 752930.42939952 19380.43016629
0.13200001 743890.07370253 16324.66843695
0.13300001 734902.99392725 19203.01613661
0.13400001 725969.60139296 20581.23916981
0.13500001 717093.52965465 14628.70869467
0.13600001 708274.15862880 14555.03464610
0.13700001 699512.52459007 15927.90093597
0.13800001 690808.11364242 15843.68483351
0.13900001 682165.51432696 15758.02412407
0.14000001 673582.38199223 15670.89485610
0.14100001 665062.31739341 15582.41083144
0.14200001 656603.80423906 25351.47407738
0.14300001 648210.00260578 16801.60406003
0.14400001 639877.09264977 16700.79290593
0.14500001 631612.00364098 16598.76423868
0.14600001 623411.72890982 20619.34390640
0.14700001 615279.22869889 15025.11947366
0.14800001 607211.62990548 17642.53473926
0.14900001 599212.44339757 14830.50867381
0.15000001 591280.95941676 14731.76579896
0.15100001 583418.69819767 14632.14164121
0.15200001 575626.71469647 18494.88721592
0.15300001 567904.80316966 17054.18204396
0.15400001 560250.98684967 16933.58687664
0.15500001 552669.93277110 16812.22014832
0.15600001 545158.07941195 14122.32071367
0.15700001 537720.83805521 19115.97669508
0.15800001 530352.44284823 15178.68763073
0.15900001 523058.36604381 13808.74151534
0.16000001 515834.69757748 16194.63109487
0.16100001 508686.08348877 12361.07241227
0.16200001 501609.77373789 22075.84718432
0.16300001 494606.53829287 20684.44640788
0.16400001 487677.49043467 13277.02030389
0.16500001 480821.13291810 20353.15951732
0.16600001 474039.24108577 15437.08861479
0.16700001 467329.92549310 14132.05761415
0.16800001 460694.75475036 12846.47384278
0.16900001 454135.06852266 12738.48927355
0.17000001 447647.77487028 13778.59916113
0.17100001 441234.89081560 12522.24679266
0.17200001 434895.69578294 15799.76137390
0.17300001 428630.64475603 12305.98639209
0.17400001 422439.61074867 15524.65642818
0.17500001 416321.47589138 16486.33122391
0.17600001 410275.57671301 11982.09878381
0.17700001 404306.02072760 10794.97126328
0.17800001 398407.76576188 14976.14862234
0.17900001 392581.78856334 18019.50494618
0.18000001 386830.71340036 10502.45436490
0.18100001 381152.11628830 11445.99859281
0.18200001 375543.31724629 11339.53099991
0.18300001 370007.90379832 11233.44048998
0.18400001 364543.68077184 10116.08761931
0.18500001 359151.47435238 14028.45725094
0.18600001 353830.30622711 9924.94055856
0.18700001 348578.91842141 9829.92596390
0.18800001 343396.61346771 10708.82389694
0.18900001 338287.69590379 13497.67970429
0.19000001 333244.22838173 10502.19235367
0.19100001 328272.56873974 10399.67546906
0.19200001 323367.50292484 10297.63861722
0.19300001 318532.68848698 12050.09217486
0.19400001 313763.83354530 10095.35182136
0.19500001 309062.73384903 12721.02272636
0.19600001 304427.08794399 8995.82087385
0.19700001 299859.85851806 12468.17350640
0.19800001 295356.81875547 8816.40145650
0.19900001 290919.11389915 10473.08859533
0.20000001 286544.65915820 10367.18625831
0.20100001 282235.86386932 8551.74707942
0.20200001 277988.96992027 10157.71744098
0.20300001 273805.65759816 10891.98957406
0.20400001 269684.43440863 9951.35610004
0.20500001 265624.48606505 8207.79700737
0.20600001 261625.30367139 8935.81266927
0.20700001 257686.76703131 8843.81026255
0.20800001 253807.60379696 11139.61625722
0.20900001 249989.71775225 7874.67648144
0.21000001 246227.35333194 9351.71532162
0.21100001 242524.49415925 8483.50720673
0.21200001 238877.26441091 9921.76764635
0.21300001 235287.01008839 8307.98471899
0.21400001 231752.90860622 8221.43482149
0.21500001 228274.79369319 9614.93476493
0.21600001 224849.66529941 7318.85695152
0.21700001 221479.27498626 12312.03347859
0.21800001 218161.84066665 7883.27848522
0.21900001 214895.69586930 7091.55829899
0.22000001 211681.39436400 9824.13397694
0.22100001 208519.43671386 13193.02538470
0.22200001 205407.59791635 6870.88447519
0.22300001 202344.95190012 7478.66977586
0.22400001 199330.41754700 9418.36267446
0.22500001 196366.89990803 10650.94115467
0.22600001 193448.74981463 6586.93024267
0.22700001 190578.71330999 7169.57153376
0.22800001 187753.87303538 8384.14959688
0.22900001 184974.94758440 7019.79959280
0.23000001 182240.97021458 8209.04489154
0.23100001 179552.48831223 8122.95495540
0.23200001 176905.74691459 8037.71299120
0.23300001 174303.08148985 7341.64613957
0.23400001 171741.26890697 7870.04401988
0.23500001 169221.31542843 9584.69575919
0.23600001 166742.49396998 7113.23512919
0.23700001 164303.83481488 7625.34133442
0.23800001 161904.36486888 9867.26198364
0.23900001 159543.99636341 6317.94255483
0.24000001 157221.42225006 5683.55468317
0.24100001 154937.42126010 8998.76585244
0.24200001 152690.35950815 7235.23302753
0.24300001 150478.87108748 7710.53771925
0.24400001 148303.17435622 5450.14191540
0.24500001 146162.11648815 5932.72058890
0.24600001 144055.61293710 5337.26071180
0.24700001 141983.90071368 6338.16162769
0.24800001 139944.95384156 6272.33312790
0.24900001 137937.21583076 5689.91042219
0.25000001 135962.98736229 6654.70873127
0.25100001 134019.40381852 5065.93370400
0.25200001 132108.72078525 5514.87881009
0.25300001 130226.51219270 5457.79338421
0.25400001 128375.04227488 6383.44927913
0.25500001 126551.12335995 6803.38871371
0.25600001 124757.57388840 6252.22611123
0.25700001 122991.17230978 5711.71031231
0.25800001 121252.21781596 6594.90843904
0.25900001 119541.61016082 4662.12301686
0.26000001 117856.46867500 5075.48906364
0.26100001 116197.31656000 4566.55475688
0.26200001 114564.54009541 5423.48558474
0.26300001 112955.70188955 5814.95980842
0.26400001 111372.32252178 5755.16503864
0.26500001 109813.02140289 6572.30964196
0.26600001 108276.90033133 5203.78807616
0.26700001 106764.53400275 4291.93447001
0.26800001 105275.26964178 5097.42879727
0.26900001 103807.22828610 7147.12800571
0.27000001 102361.82911572 6241.51282569
0.27100001 100937.82724830 4941.91625594
0.27200001 99535.45633516  5298.77026876
0.27300001 98153.70689211  4437.52929859
0.27400001 96790.51598207  4791.13076785
0.27500001 95449.73738183  4346.78124608
0.27600001 94126.24847496  4302.04039015
0.27700001 92823.91923544  4257.83337684
0.27800001 91539.02626659  4980.18095973
0.27900001 90273.29358345  4928.92206293
0.28000001 89024.99343219  5628.60547614
0.28100001 87794.89231567  4456.46894486
0.28200001 86582.64384707  5145.60676737
0.28300001 85387.67925910  4728.76990118
0.28400001 84208.56184780  3959.90780832
0.28500001 83046.94920057  4987.80000507
0.28600001 81901.09069292  5288.76318182
0.28700001 80772.13306464  4536.16320762
0.28800001 79657.17970368  3798.45279396
0.28900001 78559.71209891  4100.81716567
0.29000001 77476.25306784  4058.20632779
0.29100001 76408.51506605  4350.70105380
0.29200001 75355.06140256  3974.22612649
0.29300001 74316.36846703  3277.35200453
0.29400001 73291.27520737  3567.45298959
0.29500001 72281.26994880  4172.07509894
0.29600001 71284.09212282  3493.27709984
0.29700001 70300.77709573  4085.17835042
0.29800001 69331.50021985  3420.46972527
0.29900001 68375.55891153  3384.59032634
0.30000001 67431.38745764  3957.88547419
0.30100001 66501.51817059  3012.51891574
0.30200001 65583.11553669  3576.90329070
0.30300001 64678.35184082  5013.86607206
0.30400001 63785.44596254  3210.00272003
0.30500001 62905.23577624  3464.82055059
0.30600001 62035.84491704  3428.10095241
0.30700001 61179.26443643  3391.77858093
0.30800001 60334.19866642  4194.73536088
0.30900001 59501.09376463  3320.16118926
0.31000001 58679.68876244  3011.14837141
0.31100001 57868.60211026  3249.90084838
0.31200001 57070.05860029  2947.38331596
0.31300001 56281.53783843  2915.94661347
0.31400001 55505.68197843  4458.49411601
0.31500001 54739.08072300  2854.09580403
0.31600002 53984.79496868  3593.76797122
0.31700002 53240.57819500  3047.49084017
0.31800002 52506.76548861  3517.42838663
0.31900002 51784.08193059  2734.19965540
0.32000002 51072.16386090  3196.86224824
0.32100002 50369.95277529  2676.15571767
0.32200002 49679.17870871  3369.73885137
0.32300002 48997.03161913  2619.38143439
0.32400002 48326.54978369  3769.47106162
0.32500002 47665.22128987  2563.91237459
0.32600002 47014.30698392  2997.86742679
0.32700002 46373.76269938  2509.74815613
0.32800002 45743.75853862  2934.69096801
0.32900002 45121.75503700  3573.64316816
0.33000002 44510.88004370  2430.96182870
0.33100002 43908.68193260  3061.31344931
0.33200002 43317.72964193  2812.83690750
0.33300002 42735.63070706  2355.16071980
0.33400002 42163.72276020  2966.21803665
0.33500002 41600.99616823  2725.69739802
0.33600002 41047.49455864  3112.42642230
0.33700002 40503.41644284  2464.22797308
0.33800002 39969.62380277  2438.94655995
0.33900002 39444.35248492  2615.16069360
0.34000002 38928.55651650  2389.43491214
0.34100002 38422.41291226  2168.17686332
0.34200002 37925.82374586  2536.66884138
0.34300002 37437.78588169  1931.78984298
0.34400002 36959.69299514  1912.66420308
0.34500002 36490.38134371  2462.00614586
0.34600002 36030.91068857  2250.49078819
0.34700002 35578.99272794  2042.94585919
0.34800002 35137.28946014  2943.09950457
0.34900002 34704.00060990  1821.96011831
0.35000002 34280.03681931  2165.81282882
0.35100002 33865.62367175  2324.53651892
0.35200002 33458.45105507  2480.27509419
0.35300002 33061.48082715  2282.23412959
0.35400002 32672.49646875  2087.77262324
0.35500002 32292.66069258  2069.31379519
0.35600002 31921.29357622  1880.32388717
0.35700002 31558.42527338  1694.68751745
0.35800002 31204.57524535  1680.36645655
0.35900002 30859.63743991  2499.63075103
0.36000002 30522.99285193  2313.94819771
0.36100002 30194.14983854  1967.45089667
0.36200002 29875.38766866  1626.71493561
0.36300002 29563.44513127  1775.58059869
0.36400002 29260.40545031  1922.40872914
0.36500002 28964.88523339  1749.18950210
0.36600002 28678.50461209  2052.37727978
0.36700002 28399.62579642  1724.42536004
0.36800002 28129.74806338  2335.47244359
0.36900002 27867.58061483  2010.64603660
0.37000002 27612.76987926  1690.31578823
0.37100002 27365.86924350  1832.41869135
0.37200002 27127.70246309  1517.79502471
0.37300002 26896.72429037  1961.57819542
0.37400002 26673.52348014  1650.42434352
0.37500002 26458.04989809  1641.45749344
0.37600002 26250.40644406  2078.24477663
0.37700002 26050.19415548  1624.75068644
0.37800002 25857.20902472  1469.98240269
0.37900002 25672.50047856  1463.33259660
0.38000002 25494.22574692  1894.09359160
0.38100002 25322.64967660  1741.18547425
0.38200002 25159.41637492  2023.57195490
0.38300002 25002.50736106  1584.15894144
0.38400002 24853.01242707  1578.78768922
0.38500002 24709.64294201  2146.03259118
0.38600002 24574.25919360  1426.53581377
0.38700002 24444.63588331  1707.21345097
0.38800002 24321.62104123  1561.08332049
0.38900002 24205.24157926  1557.60736942
0.39000002 24095.99173925  2119.84497369
0.39100002 23992.13862097  1692.88538130
0.39200002 23895.50971429  1549.50440083
0.39300002 23804.20135140  1828.87687647
0.39400002 23720.31798835  2108.14336109
0.39500002 23640.92424866  1825.55225697
0.39600002 23567.89414522  1543.81497912
0.39700002 23499.99903283  1402.95000873
0.39800002 23439.10221710  1402.83033416
0.39900002 23382.55585222  1964.13478464
0.40000002 23331.95632793  1543.75896358
0.40100002 23286.24536111  1965.82492652
0.40200002 23246.37853835  1826.81674399
0.40300002 23211.38780327  1828.59321778
0.40400002 23181.46206591  2112.41083084
0.40500002 23156.07023813  1692.24569318
0.40600002 23136.22201814  1836.20634747
0.40700002 23120.68762152  1839.48199432
0.40800002 23109.45165585  1559.54141889
0.40900002 23102.56204315  2131.21144946
0.41000002 23100.66203394  1708.98705825
0.41100002 23102.64488449  1427.74352151
0.41200002 23107.87019261  2147.29893939
0.41300002 23118.53464181  1722.79328314
0.41400002 23132.31682527  1727.98414872
0.41500002 23149.66866469  1733.44727175
0.41600002 23169.90326505  1739.13302148
0.41700002 23195.18662971  1599.77209765
0.41800002 23224.20264616  1605.60532602
0.41900002 23254.48830137  1758.03939889
0.42000002 23288.66555625  1764.81515948
0.42100002 23326.73519380  1476.58240774
0.42200002 23367.11626270  1630.90795684
0.42300002 23410.13552880  1786.66162822
0.42400002 23455.66023767  2542.00729871
0.42500002 23504.36190978  1652.12167693
0.42600002 23554.36693854  1810.38872868
0.42700002 23607.62996579  2424.97586500
0.42800002 23662.56109921  2436.29740622
0.42900002 23720.49235859  1682.96901259
0.43000002 23780.24984184  1844.87187015
0.43100002 23840.18225457  2008.29704829
0.43200002 23903.30502143  2018.27565513
0.43300002 23967.32223103  1716.30002630
0.43400002 24033.29254112  2352.25861893
0.43500002 24100.25323408  2049.00362706
0.43600002 24168.99472118  2059.56098277
0.43700002 24238.30900600  1751.70267488
0.43800002 24308.24318064  1920.83746716
0.43900002 24380.12576155  1930.90605182
0.44000002 24452.05846046  2102.75486696
0.44100002 24525.13253806  1626.01636433
0.44200002 24598.67360977  1961.49832660
0.44300002 24672.79932416  1971.85021543
0.44400002 24747.11959869  1817.05734265
0.44500002 24821.31122633  2324.76411963
0.44600002 24895.50264743  1836.16788478
0.44700002 24971.03949671  2517.08090056
0.44800002 25045.11367691  2867.54042634
0.44900002 25119.98810569  2882.51877174
0.45000002 25194.85350725  1704.43192054
0.45100002 25268.41835322  1884.51873010
0.45200002 25342.12532513  2410.79649643
0.45300002 25414.74139223  2423.04155917
0.45400002 25487.33492909  2435.31496789
0.45500002 25559.30175955  2097.90758785
0.45600002 25630.00938927  1932.63094959
0.45700002 25700.28687973  1942.17077155
0.45800002 25769.14584303  1951.62635292
0.45900002 25836.98826393  1961.02750217
0.46000002 25904.29202972  2328.66644238
0.46100002 25969.47467397  2159.62161624
0.46200002 26034.00716980  2169.67426036
0.46300002 26097.21654237  1998.00299318
0.46400002 26158.45017636  2371.91758216
0.46500002 26219.31669936  2749.09548622
0.46600002 26277.45456831  2577.03009165
0.46700002 26334.06754241  2403.24711782
0.46800002 26389.81848906  2042.17620057
0.46900002 26442.79589955  2237.06063913
0.47000002 26494.46836975  1871.83427904
0.47100002 26544.30562398  2067.27061998
0.47200002 26592.36915518  2641.42015338
0.47300002 26638.39195345  1893.98975766
0.47400002 26681.74318784  2851.61143836
0.47500002 26723.42370593  1908.05254304
0.47600002 26763.69320046  2489.42504103
0.47700002 26800.67175506  2305.92990710
