# SAXS profile: number of points = 501, q_min = 0, q_max = 0.5, delta_q = 0.001
#    q    intensity    error
0.00000000 1700912.83420644 280.65061764
0.00100000 1700830.34458679 714.34876169
0.00200000 1700582.81540689 994.84097851
0.00300000 1700170.46543434 1224.12277872
0.00400000 1699593.16226670 1274.69492014
0.00500000 1698851.43492255 1528.96635195
0.00600000 1697945.15910075 2495.97948549
0.00700000 1696874.91432313 2239.87498000
0.00800000 1695640.50864736 2746.93773998
0.00900000 1694243.23652208 3557.91094879
0.01000000 1692682.36570326 3630.80383121
0.01100000 1690959.30566714 3348.09957099
0.01200000 1689073.89264378 4281.80250558
0.01300000 1687027.28410746 4605.58468874
0.01400000 1684819.59772836 5686.26639441
0.01500000 1682452.05421634 4845.46213191
0.01600000 1679924.24461219 5140.56841831
0.01700000 1677238.40541028 6792.81584663
0.01800000 1674394.40388447 6203.63154554
0.01900000 1671393.08630650 5515.59743369
0.02000000 1668235.29471541 11035.37697374
0.02100000 1664923.37092410 7142.52158510
0.02200000 1661455.70343434 6305.22468099
0.02300000 1657835.61839574 7758.67104725
0.02400000 1654062.61793849 8063.55563013
0.02500000 1650139.22525383 9653.31490861
0.02600000 1646065.35434298 7333.22148901
0.02700000 1641843.28671227 8274.89054403
0.02800000 1637472.74745850 7835.30745591
0.02900000 1632956.36314994 11022.45595735
0.03000000 1628295.48670684 10600.20410570
0.03100000 1623490.59637382 10909.85730963
0.03200000 1618542.93044344 9614.14544964
0.03300000 1613456.14660067 8228.62672701
0.03400000 1608228.71815149 10131.84139184
0.03500000 1602863.71917848 10386.55737991
0.03600000 1597362.56594776 10638.43518085
0.03700000 1591726.88103399 10887.41236979
0.03800000 1585958.18406154 9277.85580614
0.03900000 1580058.64063933 11376.42273945
0.04000000 1574028.08340964 12584.35511001
0.04100000 1567870.48165518 10865.34294166
0.04200000 1561586.72542018 12086.68181549
0.04300000 1555177.68913870 10264.17322476
0.04400000 1548646.91025797 14634.71398160
0.04500000 1541995.74204101 12767.72533735
0.04600000 1535224.17744684 11905.66404956
0.04700000 1528336.64275202 12104.42677355
0.04800000 1521333.09052924 11181.79873566
0.04900000 1514218.07923911 14763.62695979
0.05000000 1506990.73630355 14987.02357043
0.05100000 1499655.44279415 12867.04429857
0.05200000 1492210.79212121 14235.69162024
0.05300000 1484662.61150116 13228.34448515
0.05400000 1477011.16197888 18278.01398186
0.05500000 1469258.87767612 19746.84023714
0.05600000 1461406.87001803 14994.03518607
0.05700000 1453460.23381843 17703.14647427
0.05800000 1445417.55798806 14071.14058403
0.05900000 1437282.21426854 15522.64863910
0.06000000 1429057.46847889 15691.05173697
0.06100000 1420744.58761325 15855.51033871
0.06200000 1412346.20732621 17350.67396803
0.06300000 1403864.76812654 17520.23312538
0.06400000 1395299.81007841 19045.84329828
0.06500000 1386657.45783161 23337.44610698
0.06600000 1377938.12668981 13848.27882117
0.06700000 1369143.93855092 19551.37635749
0.06800000 1360277.45875376 15486.75959283
0.06900000 1351341.76275248 17026.90700786
0.07000000 1342337.31082577 15725.48233272
0.07100000 1333267.62694630 14399.29104545
0.07200000 1324134.64899136 14499.27508570
0.07300000 1314941.77894304 17515.02531620
0.07400000 1305690.30826486 16157.91832200
0.07500000 1296382.70895882 16256.63993233
0.07600000 1287019.63043214 23784.12388540
0.07700000 1277606.87044135 17937.60130206
0.07800000 1268144.23366744 16530.26086106
0.07900000 1258634.08913450 16613.97075583
0.08000000 1249080.13432201 18211.58921274
0.08100000 1239484.34499270 18294.78979045
0.08200000 1229847.19566867 16842.75813503
0.08300000 1220172.95230068 19986.43389669
0.08400000 1210463.05739779 20063.42611812
0.08500000 1200719.70261578 18587.14186907
0.08600000 1190945.47729679 20204.39097097
0.08700000 1181143.82291304 17150.20911403
0.08800000 1171313.98739018 17200.74671264
0.08900000 1161461.57204212 20383.65154675
0.09000000 1151586.02559731 20434.89498416
0.09100000 1141691.04831265 15755.33720692
0.09200000 1131778.27060024 20524.79990173
0.09300000 1121852.02220713 18981.73710774
0.09400000 1111909.59912906 15844.71253225
0.09500000 1101956.92429529 17454.99850127
0.09600000 1091995.10825115 20655.08844352
0.09700000 1082028.34021943 17496.39908390
0.09800000 1072056.70689865 17512.04713057
0.09900000 1062082.38815792 20710.60754294
0.10000000 1052107.35306768 15939.42714856
0.10100000 1042132.88743444 17539.09732042
0.10200000 1032162.69475153 22325.68013759
0.10300000 1022197.51691717 20730.16661824
0.10400000 1012240.66765087 15942.79126553
0.10500000 1002295.40436605 27092.04605468
0.10600001 992357.61171259 19112.80850091
0.10700001 982436.20148222 23873.20081943
0.10800001 972528.69199586 20671.09832119
0.10900001 962639.61125605 30178.75323326
0.11000001 952768.49476207 17449.95580293
0.11100001 942919.02183789 17425.14434382
0.11200001 933091.39424824 22142.25982790
0.11300001 923288.14293555 17367.05078627
0.11400001 913511.72404541 15758.07798174
0.11500001 903763.58001269 15725.48703270
0.11600001 894044.46205455 18828.57725753
0.11700001 884357.83955662 15653.13449734
0.11800001 874702.12805108 15613.43372108
0.11900001 865080.75146610 17128.59968581
0.12000001 855494.86898711 15527.23260352
0.12100001 845949.09736892 18577.04305335
0.12200001 836440.29468122 27778.18349503
0.12300001 826974.00415413 19996.23236256
0.12400001 817547.80559587 19927.72870034
0.12500001 808165.06889536 19856.61667841
0.12600001 798828.09218804 25870.04898460
0.12700001 789537.04179603 21222.75668363
0.12800001 780293.18162061 16608.54115354
0.12900001 771098.42595146 21050.98802065
0.13000001 761953.86451436 20961.35180080
0.13100001 752859.48906590 20869.26602063
0.13200001 743818.38469869 14839.17747426
0.13300001 734830.80976417 16247.10996982
0.13400001 725896.76048084 14699.41009275
0.13500001 717020.10198624 17552.65292420
0.13600001 708200.27754967 21830.27458478
0.13700001 699438.08047598 18821.87963312
0.13800001 690733.07060930 20162.49928186
0.13900001 682089.93505964 18621.05610526
0.14000001 673506.31610949 15669.12518325
0.14100001 664985.75534787 15580.61698263
0.14200001 656526.72900214 22531.99840208
0.14300001 648132.47283346 22399.45931765
0.14400001 639799.06706759 13915.63036512
0.14500001 631533.61226332 17979.76278928
0.14600001 623332.88613754 17867.83802404
0.14700001 615199.93238121 15023.18305749
0.14800001 607131.93337275 16283.27922128
0.14900001 599132.19849291 14828.52261232
0.15000001 591200.46054075 16068.82927567
0.15100001 583337.70737146 22610.17060458
0.15200001 575545.42878223 19813.15232075
0.15300001 567823.12676771 19675.07227095
0.15400001 560169.02397779 15628.71650652
0.15500001 552587.67704825 15516.66270379
0.15600001 545075.50498391 19254.79312228
0.15700001 537637.94771249 15290.42395460
0.15800001 530269.33134677 18970.38622431
0.15900001 522975.00946289 16316.82106541
0.16000001 515751.07301670 14946.46680153
0.16100001 508602.22987783 13594.93824637
0.16200001 501525.75117893 13488.53571470
0.16300001 494522.31355877 15814.82433419
0.16400001 487593.14493416 16895.10326958
0.16500001 480736.57232633 16758.47770249
0.16600001 473954.50743439 14247.07316613
0.16700001 467245.15801586 14129.49424552
0.16800001 460609.84660284 14011.75219524
0.16900001 454049.99648669 16209.58563996
0.17000001 447562.66715710 12627.98125013
0.17100001 441149.76453396 15934.33024741
0.17200001 434810.58473110 15796.66928925
0.17300001 428545.45057815 13422.04414596
0.17400001 422354.50734209 16630.20951197
0.17500001 416236.37980475 12087.50504039
0.17600001 410190.48872374 10890.55798997
0.17700001 404220.97470144 11871.97058770
0.17800001 398322.81704980 14972.95540011
0.17900001 392496.98934208 11657.16113407
0.18000001 386745.98028896 12600.18463298
0.18100001 381067.64069665 14564.40591540
0.18200001 375458.87302392 11336.98120649
0.18300001 369923.68043660 11230.88346859
0.18400001 364459.59331302 12136.50503066
0.18500001 359067.70711112 12021.58740201
0.18600001 353746.78434598 10914.85754665
0.18700001 348495.57846151 11793.09093230
0.18800001 343313.59642776 11679.52910229
0.18900001 338204.96254642 10602.72607678
0.19000001 333161.82670927 9545.08678621
0.19100001 328190.54138257 10397.07684226
0.19200001 323285.84052256 14038.68828804
0.19300001 318451.38810941 10193.62941506
0.19400001 313682.93741171 13762.83952929
0.19500001 308982.22308804 11809.30112447
0.19600001 304347.00886202 10792.14544424
0.19700001 299780.24062768 8903.47356740
0.19800001 295277.73713420 11458.25313100
0.19900001 290840.45993690 12215.29989464
0.20000001 286466.60054841 14682.84630504
0.20100001 282158.37813724 11969.15896627
0.20200001 277912.04818420 9308.66449389
0.20300001 273729.33592858 13401.78892049
0.20400001 269608.69580205 9119.51456655
0.20500001 265549.38987218 14769.85776282
0.20600001 261550.81375516 8933.26846607
0.20700001 257612.99704639 8841.27847655
0.20800001 253734.54535246 7954.57837281
0.20900001 249917.38483688 10234.11739285
0.21000001 246155.69364548 11686.24210825
0.21100001 242453.63657889 8481.02860846
0.21200001 238807.17429068 9918.85645307
0.21300001 235217.71745247 8305.53799590
0.21400001 231684.42715319 7471.82312893
0.21500001 228207.17263730 8133.30401732
0.21600001 224782.87829806 7316.68303452
0.21700001 221413.39191878 7964.24008386
0.21800001 218096.78924574 7164.47986546
0.21900001 214831.59183291 7089.44286569
0.22000001 211618.25363700 7015.14543976
0.22100001 208457.19808530 8329.95002936
0.22200001 205346.29070326 7555.71712369
0.22300001 202284.67564944 7476.44196553
0.22400001 199271.15019390 6725.40163706
0.22500001 196308.73340758 7320.35301493
0.22600001 193391.61280656 6584.98472746
0.22700001 190522.59416236 7819.04763418
0.22800001 187698.85125943 9026.43818393
0.22900001 184921.03439037 9569.66398226
0.23000001 182188.20843894 10100.51475353
0.23100001 179500.87476139 8120.61995825
0.23200001 176855.25469257 6799.20058821
0.23300001 174253.76313708 6727.93811292
0.23400001 171693.09725648 9683.49114325
0.23500001 169174.38325802 7186.52814070
0.23600001 166696.77958838 8296.49911251
0.23700001 164259.38805554 7036.87251713
0.23800001 161861.19822736 8123.81392328
0.23900001 159501.99968321 6890.48671223
0.24000001 157180.75142569 7954.91820592
0.24100001 154898.06524468 6185.08003778
0.24200001 152652.34252506 7789.84940753
0.24300001 150442.17822035 6056.80238165
0.24400001 148267.76407803 5993.72464638
0.24500001 146128.14308601 9705.83172290
0.24600001 144022.95327093 7470.47093955
0.24700001 141952.62841897 7392.89323779
0.24800001 139915.10009410 5748.41215930
0.24900001 137908.76098147 6205.89453775
0.25000001 135935.96853020 6141.58734874
0.25100001 133993.80984232 7597.44937749
0.25200001 132084.56271323 6516.39220975
0.25300001 130203.79320866 5456.84123154
0.25400001 128353.83514420 6873.34819716
0.25500001 126531.38898557 5344.68612362
0.25600001 124739.32202360 5289.57120067
0.25700001 122974.43968581 4759.11104101
0.25800001 121236.94606773 6123.07225086
0.25900001 119527.88949815 5593.90549319
0.26000001 117844.19115471 5997.68039260
0.26100001 116186.62040335 5022.74783769
0.26200001 114555.41306004 5874.97463677
0.26300001 112948.06713264 5367.29240411
0.26400001 111366.25446535 4426.80882447
0.26500001 109808.52104018 6133.90427555
0.26600001 108273.96993071 4770.00997101
0.26700001 106763.17335878 5150.25572654
0.26800001 105275.51158917 5522.22722173
0.26900001 103809.01514851 5885.97143745
0.27000001 102365.24799131 6241.72129164
0.27100001 100942.81273667 4530.31365001
0.27200001 99542.01009089  5706.74370857
0.27300001 98161.84793214  4437.89735503
0.27400001 96800.27117031  4392.31251222
0.27500001 95461.08272176  4347.29791289
0.27600001 94139.19201171  5476.07705848
0.27700001 92838.49376906  6194.18459742
0.27800001 91555.20901672  4214.74424656
0.27900001 90291.04240225  4929.89114848
0.28000001 89044.33789446  4128.54092187
0.28100001 87815.86248520  5571.91673840
0.28200001 86605.24203266  6617.50685692
0.28300001 85411.84957367  4366.25395686
0.28400001 84234.34861652  3601.01857380
0.28500001 83074.30754711  4989.44314744
0.28600001 81930.03875903  4232.50600262
0.28700001 80802.70788542  3490.67714587
0.28800001 79689.30364888  3454.53147669
0.28900001 78593.42567534  3760.69559657
0.29000001 77511.53147132  4398.39206153
0.29100001 76445.34074942  4687.62851664
0.29200001 75393.47934558  3313.54357409
0.29300001 74356.35363112  4262.84995546
0.29400001 73332.82386617  4542.96865356
0.29500001 72324.31546288  4816.79963784
0.29600001 71328.70291879  3813.23263855
0.29700001 70346.85207142  3773.40532374
0.29800001 69379.15196654  4045.15164690
0.29900001 68424.69076376  3387.02235314
0.30000001 67481.94675291  3046.81004013
0.30100001 66553.64257246  4522.32022689
0.30200001 65636.68499394  3878.14371646
0.30300001 64733.41128619  3542.21243327
0.30400001 63841.92022184  3796.99838495
0.30500001 62963.17501768  3179.01085714
0.30600001 62095.23287603  3431.38273118
0.30700001 61240.02611203  3112.21827436
0.30800001 60396.32753382  3359.24389647
0.30900001 59564.64613732  4431.60988243
0.31000001 58744.60941727  3288.52339087
0.31100001 57934.84898280  2711.35106076
0.31200001 57137.69491384  3219.13788386
0.31300001 56350.48311092  3981.16182028
0.31400001 55575.88787695  2888.55690917
0.31500001 54810.62684365  3897.03575310
0.31600002 54057.58682315  3341.56988769
0.31700002 53314.65646373  3560.35292722
0.31800002 52582.04566182  2767.65610445
0.31900002 51860.55157081  2489.30659327
0.32000002 51149.83433986  2709.15110409
0.32100002 50448.80098368  3655.01580433
0.32200002 49759.13265314  2651.91310032
0.32300002 49078.16140849  2385.19875739
0.32400002 48408.79798511  2831.91481622
0.32500002 47748.53453052  2568.39379401
0.32600002 47098.67185060  2541.20896003
0.32700002 46459.22730303  2514.37350070
0.32800002 45830.24568980  3618.75637103
0.32900002 45209.23764161  2685.42884308
0.33000002 44599.33061580  2214.35686993
0.33100002 43998.10823025  2629.32707235
0.33200002 43408.04726537  2385.05526994
0.33300002 42826.85643534  2574.75073082
0.33400002 42255.85267100  3822.04205509
0.33500002 41693.98464151  2101.37692545
0.33600002 41141.25263580  2287.65946115
0.33700002 40598.00536924  2058.31896970
0.33800002 40065.01728655  2648.49809315
0.33900002 39540.45448032  3226.50123839
0.34000002 39025.41248369  1996.14994307
0.34100002 38519.95564633  2173.68120006
0.34200002 38024.00923118  2738.86951463
0.34300002 37536.61872638  2324.26754161
0.34400002 37059.16818691  2109.59324895
0.34500002 36590.40226438  2088.94616421
0.34600002 36131.51385743  2820.96807802
0.34700002 35680.13941929  2048.75370249
0.34800002 35238.90811535  1844.75692721
0.34900002 34806.11188996  2375.51724900
0.35000002 34382.55289942  2172.28979507
0.35100002 33968.53504519  1972.89260887
0.35200002 33561.78289153  2487.93508358
0.35300002 33165.10714638  2113.28072746
0.35400002 32776.47094527  1919.88187655
0.35500002 32396.91449121  2421.99344208
0.35600002 32025.81552958  2057.97900341
0.35700002 31663.24124694  2210.41097614
0.35800002 31309.51513484  2360.42445782
0.35900002 30964.75856645  2340.93585850
0.36000002 30628.23520225  2819.48232509
0.36100002 30299.49639219  1974.31527843
0.36200002 29980.79301619  2122.19053417
0.36300002 29668.92744085  1619.92351500
0.36400002 29365.85767541  1929.33694066
0.36500002 29070.30819867  2234.34399399
0.36600002 28783.90560129  2218.37570977
0.36700002 28504.93587126  2202.86154848
0.36800002 28234.93130576  2187.92493052
0.36900002 27972.63934003  2018.22602398
0.37000002 27717.65490107  2005.23383880
0.37100002 27470.51723925  2912.42437567
0.37200002 27232.11092180  2437.81868520
0.37300002 27000.86471762  1514.74858241
0.37400002 26777.33318740  1656.84756946
0.37500002 26561.53911333  1797.68505235
0.37600002 26353.48915431  1639.31887050
0.37700002 26152.89723475  1927.73014649
0.37800002 25959.47256715  1623.37569389
0.37900002 25774.29448298  1616.04834064
0.38000002 25595.51076456  1755.34021139
0.38100002 25423.43467665  1748.11545118
0.38200002 25259.66221944  1741.40119590
0.38300002 25102.10592485  1445.88136977
0.38400002 24952.02216319  1585.07728301
0.38500002 24807.99189880  1723.65935879
0.38600002 24671.89827774  1432.20376287
0.38700002 24541.59226032  1571.15281094
0.38800002 24417.78963423  1994.68932972
0.38900002 24300.68973912  1421.59041709
0.39000002 24190.60774457  1844.41297487
0.39100002 24085.95465993  1557.87962121
0.39200002 23988.43861941  1414.11852361
0.39300002 23896.24769526  2400.85611969
0.39400002 23811.42746997  1834.07528777
0.39500002 23731.03762116  2396.36029252
0.39600002 23657.08936517  1831.41365997
0.39700002 23588.16837312  1689.85646231
0.39800002 23526.26528711  1689.65645297
0.39900002 23468.60177724  1408.11617335
0.40000002 23416.93381410  1408.52863565
0.40100002 23370.12151989  1972.90575218
0.40200002 23329.10546916  1833.31784016
0.40300002 23292.95996488  2399.64084928
0.40400002 23261.81323024  1554.47074276
0.40500002 23235.20577491  1698.02891848
0.40600002 23214.08400876  2267.55183341
0.40700002 23197.27003194  1987.54219051
0.40800002 23184.74216587  1706.86079912
0.40900002 23176.52625781  1567.89207563
0.41000002 23173.33211330  1428.63599248
0.41100002 23173.89580712  1575.36151161
0.41200002 23177.75312437  1866.62043632
0.41300002 23187.00273117  1439.91293783
0.41400002 23199.38630699  1444.16186604
0.41500002 23215.22978231  1593.49344776
0.41600002 23234.01669782  2179.93171997
0.41700002 23257.78176842  2187.39447897
0.41800002 23285.29236973  1463.48069478
0.41900002 23314.05648176  1762.54275354
0.42000002 23346.68439134  2064.08046484
0.42100002 23383.16317157  2220.23144835
0.42200002 23421.91527954  1634.73265440
0.42300002 23463.35033498  1790.72298242
0.42400002 23507.25998221  1798.30547385
0.42500002 23554.29847690  1505.11974400
0.42600002 23602.65115037  1814.09985338
0.42700002 23654.20433896  1822.31998863
0.42800002 23707.47965209  1678.13402669
0.42900002 23763.68693934  1532.75788022
0.43000002 23821.73421659  2002.09774711
0.43100002 23879.89192537  2785.35072617
0.43200002 23941.32276908  1710.48788629
0.43300002 24003.56050941  1718.89504953
0.43400002 24067.72367913  1727.46094893
0.43500002 24132.94708770  1893.95377719
0.43600002 24199.89111254  2062.19381888
0.43700002 24267.42880786  1594.37014823
0.43800002 24335.51645976  2083.24198526
0.43900002 24405.60786975  2094.00125446
0.44000002 24475.66221037  1780.97164514
0.44100002 24546.93749290  1627.46203290
0.44200002 24618.62241889  1963.08904471
0.44300002 24690.90752223  1808.85597080
0.44400002 24763.39546366  1818.25239809
0.44500002 24835.69799552  2159.96075703
0.44600002 24908.01282322  1670.08233894
0.44700002 24981.70383617  1846.64763508
0.44800002 25053.88488671  2531.06884063
0.44900002 25126.93074108  2713.70864864
0.45000002 25199.88547309  2386.68126627
0.45100002 25271.57511702  1884.75416155
0.45200002 25343.40127522  2755.33471722
0.45300002 25414.13405169  2076.84313313
0.45400002 25484.87897591  1913.27737979
0.45500002 25554.94042269  2621.93701163
0.45600002 25623.79339774  2107.81334479
0.45700002 25692.18926793  1941.55883500
0.45800002 25759.19011352  1950.87235571
0.45900002 25825.13137459  2851.09463888
0.46000002 25890.63014858  1790.33715963
0.46100002 25953.93221805  2518.05062314
0.46200002 26016.60983610  2890.96582200
0.46300002 26077.99591018  2178.03432165
0.46400002 26137.38032377  2734.62354598
0.46500002 26196.43212057  2563.58296882
0.46600002 26252.74451782  2390.70629282
0.46700002 26307.51790405  2031.46662883
0.46800002 26361.47920620  2967.24824009
0.46900002 26412.63982539  2979.34591351
0.47000002 26462.60630530  2056.54154649
0.47100002 26510.64990929  2064.64951279
0.47200002 26556.93339959  3203.16467381
0.47300002 26601.18874904  2458.74799261
0.47400002 26642.86077421  2277.96470416
0.47500002 26682.78554395  2286.18117377
0.47600002 26721.35614805  2103.10443531
0.47700002 26756.63521091  2110.29591911
