# SAXS profile: number of points = 501, q_min = 0, q_max = 0.5, delta_q = 0.001
#    q    intensity    error
0.00000000 1682732.95097188 353.37391970
0.00100000 1682650.91805560 656.23387363
0.00200000 1682404.74812791 1211.33145701
0.00300000 1681994.67197943 1110.11652305
0.00400000 1681420.55970289 1387.17201446
0.00500000 1680682.91010852 1512.61467897
0.00600000 1679781.63916794 1940.14787223
0.00700000 1678717.30261380 2014.46084686
0.00800000 1677489.70836937 2717.53344229
0.00900000 1676100.15200274 3016.98040257
0.01000000 1674547.92947969 3315.60504354
0.01100000 1672834.37030742 3613.32239719
0.01200000 1670959.40864444 4235.88228663
0.01300000 1668924.12046270 4556.16304981
0.01400000 1666728.66059694 7125.26533992
0.01500000 1664374.24390486 5592.29770854
0.01600000 1661860.47453770 6356.61659927
0.01700000 1659189.54162964 6271.73674870
0.01800000 1656361.35297659 5664.75608208
0.01900000 1653376.71496160 6448.16947931
0.02000000 1650236.50669380 7797.36784685
0.02100000 1646943.01969196 5978.40343253
0.02200000 1643494.75379784 6804.06858985
0.02300000 1639894.85822364 7674.70828583
0.02400000 1636142.96320279 6749.09003095
0.02500000 1632241.50928749 7638.89061234
0.02600000 1628190.52760664 7913.00632610
0.02700000 1623992.18724080 7502.84424869
0.02800000 1619646.23320795 8454.55372507
0.02900000 1615155.29605798 7995.01908257
0.03000000 1610520.72678246 11233.38258565
0.03100000 1605743.03549624 8478.32361753
0.03200000 1600823.29950535 8716.48326727
0.03300000 1595765.32290473 9766.08422640
0.03400000 1590567.66291600 9185.52867716
0.03500000 1585233.14533191 9416.28531810
0.03600000 1579763.36221397 11397.99318512
0.03700000 1574159.89439606 9869.98299433
0.03800000 1568424.17756416 10092.81004972
0.03900000 1562558.47569284 9375.35128833
0.04000000 1556562.63235624 10530.14669585
0.04100000 1550440.51101844 13674.88594124
0.04200000 1544193.00409238 12948.05894001
0.04300000 1537821.00974198 15224.42870313
0.04400000 1531328.06754011 11370.11142954
0.04500000 1524715.59717812 10520.53810936
0.04600000 1517983.56109916 16052.67690486
0.04700000 1511136.16572537 10880.18089924
0.04800000 1504173.73245033 13266.81293749
0.04900000 1497100.48024360 13473.90494937
0.05000000 1489915.58242468 14817.21115719
0.05100000 1482623.63411884 13877.35786182
0.05200000 1475223.01821166 12900.82589546
0.05300000 1467719.63582459 14266.23552528
0.05400000 1460113.75172013 14455.12681613
0.05500000 1452407.75166462 15860.29338805
0.05600000 1444602.63457600 12351.35310199
0.05700000 1436703.71584861 16249.11978473
0.05800000 1428709.55277840 13908.48814572
0.05900000 1420623.38355022 19178.41657367
0.06000000 1412448.46630210 18093.46569863
0.06100000 1404186.12988816 18282.50426551
0.06200000 1395838.86393490 15828.81345692
0.06300000 1387409.51973616 18646.78481709
0.06400000 1378897.11545223 14788.67225484
0.06500000 1370307.97311865 17635.86443900
0.06600000 1361642.67942878 19158.31339595
0.06700000 1352902.86499560 16559.53184251
0.06800000 1344091.77223336 18084.75564193
0.06900000 1335211.75692802 25235.50338744
0.07000000 1326264.02014996 14124.71247604
0.07100000 1317251.37812207 18494.21021506
0.07200000 1308176.21466570 15756.98324381
0.07300000 1299041.67594983 15861.29960654
0.07400000 1289849.19179725 18864.04531408
0.07500000 1280601.02453560 16058.73760039
0.07600000 1271298.23178315 17620.19431856
0.07700000 1261946.10969620 22147.15526362
0.07800000 1252544.68253528 20779.71725775
0.07900000 1243096.40480726 20884.02058030
0.08000000 1233605.02625839 14988.30177216
0.08100000 1224071.94222389 22584.12839364
0.08200000 1214498.36470376 24192.80856015
0.08300000 1204888.24775765 18217.91116110
0.08400000 1195242.80558126 21335.08508107
0.08500000 1185564.65164651 15293.78472421
0.08600000 1175855.96303126 21482.88945324
0.08700000 1166120.24623343 15392.78797309
0.08800000 1156356.88154725 16981.10160302
0.08900000 1146571.65236582 20122.33344416
0.09000000 1136763.56578022 21723.55276253
0.09100000 1126936.56782306 17106.89790326
0.09200000 1117092.14953003 18700.12346179
0.09300000 1107234.91562931 20295.61695722
0.09400000 1097361.75088873 18764.88682210
0.09500000 1087478.83364152 21923.57431668
0.09600000 1077587.07494320 23518.33901618
0.09700000 1067690.91122350 18834.06855942
0.09800000 1057790.15703769 15708.18457057
0.09900000 1047887.35524534 22005.63549491
0.10000000 1037983.92211134 18870.54859141
0.10100000 1028081.62471235 20448.54447726
0.10200000 1018184.05919093 20450.22779075
0.10300000 1008291.87937497 15729.35405817
0.10400000 998408.19056870 18869.91568949
0.10500000 988536.15455543 17289.49815663
0.10600001 978672.53078047 25132.31177301
0.10700001 968825.24356940 20403.46058971
0.10800001 958992.28605910 17247.47707647
0.10900001 949178.04404897 18793.72615671
0.11000001 939382.10277746 18768.85529694
0.11100001 929607.73473757 21864.37495026
0.11200001 919856.02326098 15591.56032828
0.11300001 910128.63411767 17119.52041375
0.11400001 900428.43383662 15532.39121502
0.11500001 890756.64856736 15499.16641490
0.11600001 881114.43941994 20102.62688203
0.11700001 871504.49885295 16968.19339178
0.11800001 861926.15213979 23078.07381048
0.11900001 852382.21317130 18411.45667171
0.12000001 842873.93804533 16827.97896576
0.12100001 833405.81862059 18301.59263906
0.12200001 823975.08758411 16722.57519034
0.12300001 814586.79349537 16666.44658015
0.12400001 805239.02377537 19627.70212933
0.12500001 795934.67627202 18051.79930846
0.12600001 786676.47291630 20980.66252136
0.12700001 777464.30434295 17912.77841623
0.12800001 768299.19128635 16353.24905725
0.12900001 759183.58334569 17764.89668759
0.13000001 750118.25232373 16213.80678821
0.13100001 741103.13979378 16141.22714557
0.13200001 732141.29555193 17527.46344176
0.13300001 723233.11667736 14536.98633053
0.13400001 714378.77198830 14466.17081478
0.13500001 705581.71853905 14393.86773684
0.13600001 696841.53284896 17184.11301030
0.13700001 688159.16296141 15669.38487949
0.13800001 679534.16020603 19835.60307178
0.13900001 670970.51586159 16908.45779708
0.14000001 662466.99372987 15412.29533598
0.14100001 654026.15710752 15323.83358375
0.14200001 645647.10113318 18003.87026426
0.14300001 637332.59592405 15143.02319342
0.14400001 629079.20443749 19155.46267868
0.14500001 620893.63239026 21756.11390524
0.14600001 612772.76720776 20267.46023150
0.14700001 604719.66001710 14767.25479429
0.14800001 596731.34807677 14670.64088461
0.14900001 588811.59951348 17222.74009835
0.15000001 580959.51723025 14474.60705475
0.15100001 573176.32757412 14375.26297386
0.15200001 565463.61482292 15572.86868706
0.15300001 557820.73741925 18039.92349942
0.15400001 550246.18277095 16631.19165909
0.15500001 542744.15513014 13970.23521235
0.15600001 535311.23559832 16388.55425130
0.15700001 527952.89071468 15014.98092059
0.15800001 520663.15612788 13659.59854573
0.15900001 513447.75485252 13555.02136791
0.16000001 506302.52148029 14672.64776508
0.16100001 499232.39677793 13344.48259579
0.16200001 492234.40317784 12035.13172583
0.16300001 485309.40803406 14326.33440148
0.16400001 478458.32235813 13026.02844115
0.16500001 471679.66911707 14093.78917860
0.16600001 464975.29777304 12812.39493505
0.16700001 458343.70874509 11550.26200572
0.16800001 451786.08580361 13743.33337906
0.16900001 445303.45226957 15897.33399666
0.17000001 438892.97962668 18012.16873441
0.17100001 432556.88898779 13391.96191545
0.17200001 426294.50627655 13274.81155233
0.17300001 420105.58342250 15350.65874318
0.17400001 413990.97505089 11953.98996913
0.17500001 407948.73724932 16154.77075802
0.17600001 401978.66846632 11739.78756702
0.17700001 396084.59921465 15863.18894777
0.17800001 390261.58550180 11526.37647221
0.17900001 384510.94436463 13496.33478468
0.18000001 378834.37620844 14399.49531984
0.18100001 373230.32448188 10189.18833966
0.18200001 367696.01452641 11102.58168309
0.18300001 362234.57661243 18995.58209489
0.18400001 356844.17416116 14853.63945115
0.18500001 351525.39424638 11769.07075536
0.18600001 346277.40840812 10684.38994120
0.18700001 341099.07019033 12504.69250396
0.18800001 335989.52465368 11430.36416876
0.18900001 330952.93648835 10375.37504912
0.19000001 325981.59813379 11207.24787337
0.19100001 321081.64841694 12021.29748474
0.19200001 316248.11580065 11901.99840054
0.19300001 311484.39806793 12689.87497692
0.19400001 306786.36004955 11665.55189213
0.19500001 302155.61045412 10660.05044056
0.19600001 297590.24401498 12311.30897669
0.19700001 293092.67337406 8704.85281058
0.19800001 288659.14556258 10339.77108270
0.19900001 284290.61898167 14498.82225328
0.20000001 279985.02103200 9285.70366138
0.20100001 275744.58764026 8355.06140038
0.20200001 271566.01135072 12403.77815469
0.20300001 267450.32639512 9002.37841195
0.20400001 263396.61549921 9719.33557131
0.20500001 259403.64983952 8817.13047480
0.20600001 255471.07598024 8725.61501255
0.20700001 251598.82694859 10989.83728059
0.20800001 247785.56806143 10098.50130370
0.20900001 244033.15696133 8455.74928842
0.21000001 240335.94563069 10649.28625431
0.21100001 236697.80684008 8279.68967468
0.21200001 233115.06391461 10427.23730184
0.21300001 229588.68296695 7369.79707165
0.21400001 226118.05442222 9479.99987983
0.21500001 222703.28114781 12266.49730555
0.21600001 219340.87566155 8567.45500840
0.21700001 216032.75780644 7770.69866569
0.21800001 212777.23911030 11882.54547993
0.21900001 209572.92524479 8990.67891809
0.22000001 206419.60045067 7527.09108633
0.22100001 203318.42815768 9478.70556890
0.22200001 200266.79760381 8708.60210558
0.22300001 197264.03094459 7290.87892846
0.22400001 194309.07149249 10492.69035676
0.22500001 191404.57576254 7137.47696770
0.22600001 188545.01082350 8987.94109098
0.22700001 185733.09494271 6987.27936217
0.22800001 182966.12173253 7541.86389447
0.22900001 180244.38062860 6840.27456834
0.23000001 177567.45077863 7998.52619859
0.23100001 174935.33127955 10957.94966958
0.23200001 172344.49501962 7228.12846297
0.23300001 169797.46955225 7747.85890210
0.23400001 167290.89486716 5897.00432297
0.23500001 164825.52993280 9919.20086050
0.23600001 162400.95993950 8082.69615848
0.23700001 160016.22793683 10853.90125432
0.23800001 157670.15247354 5652.47523353
0.23900001 155362.62578463 8389.58218919
0.24000001 153092.54782570 6641.15503881
0.24100001 150860.61812769 6023.86476677
0.24200001 148665.21080333 7586.38606615
0.24300001 146504.75939458 6434.48933698
0.24400001 144379.77071842 5305.95682489
0.24500001 142289.06793788 7875.70028292
0.24600001 140232.34604215 6754.29126663
0.24700001 138209.87563512 6683.82990190
0.24800001 136219.87469986 5596.59381680
0.24900001 134260.66306413 6545.20763401
0.25000001 132334.51460707 5978.87365280
0.25100001 130438.45502809 6902.80336665
0.25200001 128574.78626728 5367.35470666
0.25300001 126739.29504321 5311.64410656
0.25400001 124933.98368108 8601.70518340
0.25500001 123155.95880097 8039.62137090
0.25600001 121407.72534109 6084.34844334
0.25700001 119686.06258024 6484.59117741
0.25800001 117991.64137248 6875.96322631
0.25900001 116325.01663485 4536.67586341
0.26000001 114683.36190113 6734.78074630
0.26100001 113067.14631713 6220.95468472
0.26200001 111477.19614906 6156.88583464
0.26300001 109910.49824785 4787.70153022
0.26400001 108368.85078531 5599.96062931
0.26500001 106850.90732079 4689.68654422
0.26600001 105355.67915710 4641.44466490
0.26700001 103883.79153492 5011.35434078
0.26800001 102434.46860160 5373.20030476
0.26900001 101006.01112420 4908.89237293
0.27000001 99599.77003272  4453.60392777
0.27100001 98214.38784707  4407.86193517
0.27200001 96850.28337687  3966.01929197
0.27300001 95506.30868449  5495.43326177
0.27400001 94180.62645156  4661.94122998
0.27500001 92876.72549117  3845.09661730
0.27600001 91589.68638441  4186.10681431
0.27700001 90323.43586282  5273.08243523
0.27800001 89074.30685505  4100.53591014
0.27900001 87843.78858333  3689.43929511
0.28000001 86630.40982840  4016.61914179
0.28100001 85434.72945301  5420.83384036
0.28200001 84256.60181278  5007.37008273
0.28300001 83095.08381806  3893.83581201
0.28400001 81949.26860962  5254.99709832
0.28500001 80820.35244781  4854.07059777
0.28600001 79706.82781926  4117.65492004
0.28700001 78609.86376940  3735.54090313
0.28800001 77526.48691048  4705.08271330
0.28900001 76460.10941923  3991.21790060
0.29000001 75407.43322387  4608.14846243
0.29100001 74370.06907457  3908.89101559
0.29200001 73346.59719594  4190.65802916
0.29300001 72337.46918341  3509.09079619
0.29400001 71341.53143246  3472.54920685
0.29500001 70360.34708563  4373.59938188
0.29600001 69391.60052031  3709.67513942
0.29700001 68436.32172806  4588.65558908
0.29800001 67494.67931276  4540.70476572
0.29900001 66566.05636273  3594.56721375
0.30000001 65648.75303984  3556.84960808
0.30100001 64745.43145559  4106.15545730
0.30200001 63853.24689304  3192.34322955
0.30300001 62974.19297914  3158.78566937
0.30400001 62106.74242273  3693.79868046
0.30500001 61251.57410684  3936.02633845
0.30600001 60406.97426632  2781.74129666
0.30700001 59574.77353977  3302.82560141
0.30800001 58753.68902866  3267.88033849
0.30900001 57944.22206350  3233.28774422
0.31000001 57146.06318354  2665.86397373
0.31100001 56358.01636112  2901.31081963
0.31200001 55582.10734922  2870.53806996
0.31300001 54815.95936401  2840.01498911
0.31400001 54061.98897323  2554.42909993
0.31500001 53317.17855794  2779.95782163
0.31600002 52584.16390187  2500.37711192
0.31700002 51860.86605727  2473.76342806
0.31800002 51147.72726490  2936.90263861
0.31900002 50445.44852125  2663.51980804
0.32000002 49753.45550391  3114.31769473
0.32100002 49070.97676030  2844.15394770
0.32200002 48399.63159611  3517.44339280
0.32300002 47736.53860829  2551.99547484
0.32400002 47084.82074159  2984.00065579
0.32500002 46442.03184286  3406.52319698
0.32600002 45809.38154927  2471.64529853
0.32700002 45186.72589975  2223.18701954
0.32800002 44574.35618816  2859.66795667
0.32900002 43969.66302291  2611.79810724
0.33000002 43375.94225962  2584.33876221
0.33100002 42790.52597961  2344.06512416
0.33200002 42216.00938557  2530.42772240
0.33300002 41650.13761384  2712.67359125
0.33400002 41094.31482462  2477.98730127
0.33500002 40547.28121255  2861.01629784
0.33600002 40009.12932448  2629.20005807
0.33700002 39480.23635420  2401.97769354
0.33800002 38961.45357077  1981.19000790
0.33900002 38450.77751270  2941.48461902
0.34000002 37949.40299460  2911.66808265
0.34100002 37457.39100919  2690.18994968
0.34200002 36974.79291394  2092.58850407
0.34300002 36500.46141150  1883.42389803
0.34400002 36035.88694989  2610.80013317
0.34500002 35579.71705148  2769.88110364
0.34600002 35133.21885879  2560.15777949
0.34700002 34694.15588593  2173.24202762
0.34800002 34264.94027830  2870.03153364
0.34900002 33843.96015801  2842.89278792
0.35000002 33432.07683682  2640.29839324
0.35100002 33029.54669607  2092.75217778
0.35200002 32634.15311710  2246.37203621
0.35300002 32248.59165317  1883.64032768
0.35400002 31871.01500813  2375.98428139
0.35500002 31502.23724260  2186.88541296
0.35600002 31141.67933170  1834.40070792
0.35700002 30789.63532755  1984.08419448
0.35800002 30446.13644168  2459.28678756
0.35900002 30111.53281492  1788.62513393
0.36000002 29784.99914638  1774.14355819
0.36100002 29466.11240591  2080.01297326
0.36200002 29157.01721557  2698.91942640
0.36300002 28854.73652824  1890.56242688
0.36400002 28561.08538553  2501.95119828
0.36500002 28274.73673146  2017.96805611
0.36600002 27997.47921520  1695.38743418
0.36700002 27727.52356191  1836.67124774
0.36800002 27466.36699763  1672.28983386
0.36900002 27212.88155730  2114.44099716
0.37000002 26966.49475901  1950.89115575
0.37100002 26727.89038240  1789.69962478
0.37200002 26497.79330066  1630.80676594
0.37300002 26274.87012639  2358.43245426
0.37400002 26059.47843362  1759.01487760
0.37500002 25851.76004761  1603.84326933
0.37600002 25651.68903151  1595.66339179
0.37700002 25458.87649513  1443.51836566
0.37800002 25273.31041396  2011.50287114
0.37900002 25095.72142605  1716.54742686
0.38000002 24924.52225804  1709.32381743
0.38100002 24759.84700725  1560.61323080
0.38200002 24603.47291647  1554.81654461
0.38300002 24453.21056400  1971.90699330
0.38400002 24310.27781506  1544.31047136
0.38500002 24173.40728056  1399.64034785
0.38600002 24044.31813878  1674.92728090
0.38700002 23920.95207590  1392.19947677
0.38800002 23804.17451050  1666.76837819
0.38900002 23693.86459425  1940.52760220
0.39000002 23590.44229934  2075.36925961
0.39100002 23492.55939006  1381.36255758
0.39200002 23401.54640586  1655.42547118
0.39300002 23315.94088734  1929.16104042
0.39400002 23237.57986844  2615.97067763
0.39500002 23163.74308371  1375.92640436
0.39600002 23096.10006799  2063.05923632
0.39700002 23033.51037810  1512.61069819
0.39800002 22977.81647516  2337.87804803
0.39900002 22926.38667125  1925.81657163
0.40000002 22880.87119341  1926.79825449
0.40100002 22840.18369612  1377.26314213
0.40200002 22805.29202500  1378.57996823
0.40300002 22775.15969097  1794.22716546
0.40400002 22749.97272139  1382.06090831
0.40500002 22729.26384807  1661.05468072
0.40600002 22714.11330078  1525.36635099
0.40700002 22703.11767879  1806.26012811
0.40800002 22696.49155091  1670.91578715
0.40900002 22694.02650987  2233.09231438
0.41000002 22696.56020887  1819.01590413
0.41100002 22702.84638859  1683.64316795
0.41200002 22712.43888525  1688.44278673
0.41300002 22727.31230914  1411.36616127
0.41400002 22745.36586023  2123.84863783
0.41500002 22766.90050865  1704.78559087
0.41600002 22791.30571591  1710.71548810
0.41700002 22820.56785722  1717.01960694
0.41800002 22853.61035424  1436.34947882
0.41900002 22887.95850097  1586.13559927
0.42000002 22926.10028107  1737.33996162
0.42100002 22967.97472125  1744.64744250
0.42200002 23012.29909648  1898.16958092
0.42300002 23059.12399853  1906.52846254
0.42400002 23108.49018759  1473.16631927
0.42500002 23160.96586723  1923.98152576
0.42600002 23214.65250943  1784.27827643
0.42700002 23271.73380144  1792.85445702
0.42800002 23330.36323897  1501.30894557
0.42900002 23391.90030467  1659.65540526
0.43000002 23455.26707523  1668.02139710
0.43100002 23518.80825877  2286.02827108
0.43200002 23585.60971776  1838.26250851
0.43300002 23653.13480360  2155.74680816
0.43400002 23722.65661084  2321.85512581
0.43500002 23793.11191003  1711.67655192
0.43600002 23865.41956094  1720.81615899
0.43700002 23938.22873522  2044.56421317
0.43800002 24011.58225548  1739.27904310
0.43900002 24086.94619354  1748.71237652
0.44000002 24162.32253672  2077.83902501
0.44100002 24238.87695577  1767.74138016
0.44200002 24315.82057934  3069.99407273
0.44300002 24393.40626929  1949.52112143
0.44400002 24471.12998176  1960.13760443
0.44500002 24548.66441143  2134.99744504
0.44600002 24626.31119934  2146.55251742
0.44700002 24705.12388172  2158.23972459
0.44800002 24782.62594364  2336.75391097
0.44900002 24860.85977202  2013.72973697
0.45000002 24939.02707297  2699.40041831
0.45100002 25015.88761290  2544.11589080
0.45200002 25092.94976347  1705.06601724
0.45300002 25168.96360799  1885.40715323
0.45400002 25244.81191326  2756.73359158
0.45500002 25320.09695628  2424.65259945
0.45600002 25394.17301447  2263.00183544
0.45700002 25467.76609791  2624.45342077
0.45800002 25539.96201891  2461.79705568
0.45900002 25611.09417799  1943.88214024
0.46000002 25681.75798886  2486.25110874
0.46100002 25750.26527129  2319.84150824
0.46200002 25818.12179501  1972.37550801
0.46300002 25884.64852275  2342.04310934
0.46400002 25949.15025659  2352.93931103
0.46500002 26013.34383249  1818.33282007
0.46600002 26074.79221686  2009.19320950
0.46700002 26134.73588651  2018.12440081
0.46800002 26193.75081703  2948.36873171
0.46900002 26250.09663841  2220.75828087
0.47000002 26305.11312988  2601.83886299
0.47100002 26358.28056231  2052.78298749
0.47200002 26409.65652961  2248.51826350
0.47300002 26458.92556897  2069.35266683
0.47400002 26505.63860600  2266.23220823
0.47500002 26550.66376299  3033.14797205
0.47600002 26594.31221852  1902.82312942
0.47700002 26634.57259505  1909.69894558
