# SAXS profile: number of points = 501, q_min = 0, q_max = 0.5, delta_q = 0.001
#    q    intensity    error
0.00000000 1682732.95097188 252.40994265
0.00100000 1682650.98917700 605.75437049
0.00200000 1682405.04150909 984.20698045
0.00300000 1681995.32684226 1009.19723206
0.00400000 1681421.71812411 1891.59950477
0.00500000 1680684.73983080 1815.13959086
0.00600000 1679784.26441477 1940.15090439
0.00700000 1678720.86374172 2215.91163223
0.00800000 1677494.36226475 3170.46447854
0.00900000 1676106.05346066 3016.99102520
0.01000000 1674555.19389261 3039.31780815
0.01100000 1672843.16097593 3613.34138503
0.01200000 1670969.82862957 3584.23043956
0.01300000 1668936.34231593 5257.14971016
0.01400000 1666742.84289626 4500.20587532
0.01500000 1664390.53482600 5592.35244604
0.01600000 1661878.98537167 5509.12908278
0.01700000 1659210.40114708 5823.82876928
0.01800000 1656384.69983022 6136.90558902
0.01900000 1653402.68290499 6448.27075429
0.02000000 1650265.31233263 5718.16956590
0.02100000 1646974.72785041 7609.02358765
0.02200000 1643529.49222116 7371.23010750
0.02300000 1639932.79995243 7674.88585313
0.02400000 1636184.18855643 6749.26008554
0.02500000 1632286.14356366 7639.09950076
0.02600000 1628238.72120159 9232.11397147
0.02700000 1624044.07272133 8867.28104319
0.02800000 1619701.99040456 8454.84477765
0.02900000 1615215.02242379 9449.00831502
0.03000000 1610584.51484115 8238.14017208
0.03100000 1605810.90538133 9249.47124059
0.03200000 1600895.53339156 9509.31990633
0.03300000 1595842.09902610 8138.79508024
0.03400000 1590648.90799066 11691.27001317
0.03500000 1585319.13760700 8560.72373840
0.03600000 1579854.01096026 9645.00918264
0.03700000 1574255.43801553 10767.90769402
0.03800000 1568524.78424217 11011.04449497
0.03900000 1562664.09836523 10313.58352683
0.04000000 1556673.47351831 12445.60499750
0.04100000 1550556.66744347 10745.35820361
0.04200000 1544314.60087697 13945.16149287
0.04300000 1537948.14907583 15225.68738260
0.04400000 1531460.82678357 14472.30548523
0.04500000 1524854.08638065 12625.79242189
0.04600000 1518127.82893435 11773.08186068
0.04700000 1511286.38656194 17410.01998290
0.04800000 1504329.95093043 13268.19078455
0.04900000 1497262.68924441 12352.41776124
0.05000000 1490083.98412178 13678.97161121
0.05100000 1482798.31084111 13878.99283601
0.05200000 1475404.00662551 22285.97855863
0.05300000 1467907.04862081 13079.05241293
0.05400000 1460307.60673919 13252.29214916
0.05500000 1452608.18190190 15862.48208634
0.05600000 1444809.68378294 14823.74804735
0.05700000 1436917.47176677 17501.65562307
0.05800000 1428930.03629547 12646.03141169
0.05900000 1420850.57647945 12787.65578557
0.06000000 1412682.61309923 14218.65116512
0.06100000 1404427.18345362 19591.76012473
0.06200000 1396086.99462861 18470.23180230
0.06300000 1387664.64261208 15985.89743032
0.06400000 1379159.33940999 14791.48460692
0.06500000 1370577.33017245 14925.58782376
0.06600000 1361919.23349664 21899.66229928
0.06700000 1353186.68441734 17943.25627510
0.06800000 1344382.80094389 18088.67143341
0.06900000 1335510.23130583 15425.14389377
0.07000000 1326569.78729338 15540.76578589
0.07100000 1317564.46763303 15652.66660862
0.07200000 1308496.64154574 15760.84278576
0.07300000 1299369.40773399 20192.20154230
0.07400000 1290184.39521338 21771.86268955
0.07500000 1280943.76135320 16063.03552028
0.07600000 1271648.36742714 16156.29326558
0.07700000 1262303.67409505 25107.22125499
0.07800000 1252909.94549592 17816.38026047
0.07900000 1243469.02675013 16413.79192297
0.08000000 1233985.20780822 26987.25776077
0.08100000 1224459.54599385 16566.93843459
0.08200000 1214893.53596660 21175.59532557
0.08300000 1205290.85869377 18223.99863874
0.08400000 1195652.92399405 19817.94814543
0.08500000 1185982.31036769 16829.08977416
0.08600000 1176280.94287581 18420.56043031
0.08700000 1166552.68616420 15398.49618045
0.08800000 1156796.81229279 20076.20962020
0.08900000 1147018.88565736 17033.23125206
0.09000000 1137218.36223998 17075.33451116
0.09100000 1127398.53816077 15558.10055756
0.09200000 1117561.34409505 21825.97407571
0.09300000 1107711.52052364 28113.71971201
0.09400000 1097845.64141797 17208.73123799
0.09500000 1087969.86561318 18800.12016145
0.09600000 1078085.32894740 20391.98495562
0.09700000 1068196.24825066 18842.98270500
0.09800000 1058302.55912360 15715.79374191
0.09900000 1048406.82838849 15726.10316531
0.10000000 1038510.20194197 18880.11635918
0.10100000 1028614.96749234 18885.37169137
0.10200000 1018724.10610565 17313.21699762
0.10300000 1008838.64988212 15737.88367848
0.10400000 998961.87251405 17307.01525552
0.10500000 989096.41451298 23589.95059603
0.10600001 979239.26926425 15716.79101122
0.10700001 969398.39270261 15704.25470079
0.10800001 959571.82157586 20395.70002745
0.10900001 949763.86279548 21939.54626317
0.11000001 939974.24011855 18780.68620157
0.11100001 930206.05825789 23441.19377155
0.11200001 920460.32715076 17161.98360766
0.11300001 910739.00256837 18688.36521257
0.11400001 901044.65160498 17097.32306922
0.11500001 891378.73311441 17060.98975518
0.11600001 881742.07533945 15474.57415093
0.11700001 872137.87434567 24698.94576466
0.11800001 862564.95179882 23095.17767216
0.11900001 853026.30495741 18425.36905495
0.12000001 843523.23723537 19902.93172009
0.12100001 834060.23073054 21368.62411795
0.12200001 824634.65099745 19778.86303598
0.12300001 815251.22759330 16680.04090243
0.12400001 805908.24495638 16621.85833541
0.12500001 796608.42960671 19572.67003771
0.12600001 787355.01588010 16499.02513526
0.12700001 778147.04664144 19422.55119948
0.12800001 768986.33061631 23807.81791793
0.12900001 759874.73371811 19262.82540765
0.13000001 750813.38603819 22130.22559658
0.13100001 741802.27164628 17625.22280513
0.13200001 732844.26853942 16082.26823122
0.13300001 723939.74840321 16006.30859178
0.13400001 715088.97429005 20272.77337690
0.13500001 706295.13008084 15849.26346628
0.13600001 697557.98305345 18635.26239594
0.13700001 688878.61899778 15685.76689421
0.13800001 680256.48498701 14183.34838081
0.13900001 671695.88142282 14105.61417507
0.14000001 663194.78808065 15429.22747235
0.14100001 654756.49713360 16735.57685603
0.14200001 646379.66538933 15251.32892419
0.14300001 638067.36076964 22051.60902832
0.14400001 629815.99051702 15068.34828389
0.14500001 621632.14250933 14975.11901946
0.14600001 613513.01272934 16233.55508263
0.14700001 605461.34853608 18817.73960026
0.14800001 597474.31815618 13353.55164079
0.14900001 589555.76669157 21224.00860226
0.15000001 581704.57958850 19763.41402401
0.15100001 573922.42897094 18319.60479716
0.15200001 566210.32415046 15593.43306291
0.15300001 558568.02967840 12902.92209445
0.15400001 550993.69634948 14091.66444914
0.15500001 543491.82053160 15261.25104075
0.15600001 536058.87881115 12624.18719180
0.15700001 528700.35025440 16289.25856014
0.15800001 521410.19890810 17409.88736327
0.15900001 514194.26056322 13574.72911960
0.16000001 507048.42961354 19592.35224507
0.16100001 499977.37665845 17009.23115683
0.16200001 492978.44930413 14463.98838537
0.16300001 486052.24357959 16739.64005912
0.16400001 479199.70888582 16604.27069677
0.16500001 472419.43781079 15292.21792390
0.16600001 465713.43033732 12832.73417882
0.16700001 459079.77724578 15039.45421266
0.16800001 452520.10266650 13765.66217308
0.16900001 446035.11960337 12511.28569563
0.17000001 439622.37136776 11276.31435805
0.17100001 433283.64745749 15650.20608519
0.17200001 427018.28695130 15513.57509754
0.17300001 420826.44633414 13180.28492162
0.17400001 414708.58995754 11974.71110054
0.17500001 408663.09388463 11867.57680689
0.17600001 402689.53117050 11760.54831327
0.17700001 396791.87310222 11653.77786343
0.17800001 390964.99211130 12596.89264080
0.17900001 385210.24850233 13520.88036107
0.18000001 379529.52548606 11334.64981403
0.18100001 373921.04559812 16332.87204323
0.18200001 368382.24683800 13145.72109939
0.18300001 362916.00181075 12019.77854778
0.18400001 357520.76493125 13889.68237374
0.18500001 352196.93157636 11791.55382623
0.18600001 346943.84961466 9731.77544145
0.18700001 341760.04306805 11565.16040382
0.18800001 336644.86310942 12407.04701608
0.18900001 331602.65783527 10395.74381431
0.19000001 326625.25136324 11229.37667244
0.19100001 321719.22938530 10192.06566850
0.19200001 316879.50863561 13760.49331270
0.19300001 312109.48057666 10898.86357674
0.19400001 307404.92316619 11689.07275575
0.19500001 302767.54960856 20473.14267199
0.19600001 298195.31905140 8811.67209438
0.19700001 293690.78642762 11339.40179984
0.19800001 289250.05303303 16404.81753304
0.19900001 284874.37221312 11110.10104137
0.20000001 280561.20064423 13534.27295872
0.20100001 276313.18906057 11721.20603392
0.20200001 272126.73521942 8286.25947907
0.20300001 268003.25727251 10661.17007820
0.20400001 263941.40257414 9739.43821533
0.20500001 259940.38659886 9638.58999067
0.20600001 255999.67956146 9538.54851133
0.20700001 252118.87578718 10225.94208530
0.20800001 248296.91248759 8562.51943189
0.20900001 244535.87965246 9243.45668781
0.21000001 240829.82014090 10671.16983489
0.21100001 237182.71076021 9050.89267048
0.21200001 233590.98751860 10448.52536566
0.21300001 230055.35323389 10338.68806310
0.21400001 226575.43739262 8768.46984164
0.21500001 223151.09183372 7953.10528896
0.21600001 219779.23868617 10015.34038044
0.21700001 216461.33257620 9201.77168287
0.21800001 213196.17722701 7703.84422834
0.21900001 209981.81774671 9701.16043858
0.22000001 206818.57759165 7541.63978847
0.22100001 203707.35132458 9496.83716780
0.22200001 200645.46777895 8053.90945747
0.22300001 197632.53933474 7304.49899921
0.22400001 194667.20821337 8541.02416424
0.22500001 191752.13748974 10400.63642926
0.22600001 188882.06481634 7717.72153335
0.22700001 186059.53844059 8272.20747025
0.22800001 183281.91560392 7554.88091846
0.22900001 180549.31347928 8097.63709249
0.23000001 177861.47542539 9244.35062242
0.23100001 175218.39505097 9146.40065422
0.23200001 172616.59820971 7842.83551057
0.23300001 170058.42361868 6565.95604645
0.23400001 167540.79501815 8268.13862519
0.23500001 165064.20116511 7596.25489689
0.23600001 162628.37742669 6359.58300006
0.23700001 160232.32786294 6292.32381279
0.23800001 157874.85889591 7923.73954277
0.23900001 155555.99183691 6160.01756811
0.24000001 153274.33286144 6649.04087403
0.24100001 151030.97488736 6578.90957728
0.24200001 148823.96879232 8679.41427052
0.24300001 146652.10326960 5904.21395692
0.24400001 144515.50547916 6373.13409310
0.24500001 142413.13153452 5780.54928243
0.24600001 140344.82312549 6759.70872561
0.24700001 138310.72422613 7203.22285845
0.24800001 136308.96584570 9673.16621885
0.24900001 134338.12796742 6548.98404823
0.25000001 132400.11989951 7975.78360007
0.25100001 130492.51861298 5919.14092431
0.25200001 128617.07044147 5369.11985959
0.25300001 126769.80802592 5312.92290572
0.25400001 124952.81744057 7169.16823983
0.25500001 123163.09223713 5202.40926223
0.25600001 121403.10721531 5616.10800549
0.25700001 119669.89155192 5094.34752440
0.25800001 117963.77490991 5957.76073371
0.25900001 116285.45029770 4535.13277619
0.26000001 114632.22482688 4936.63699575
0.26100001 113004.49496674 6661.61529349
0.26200001 111402.87157675 5713.29653915
0.26300001 109824.72694200 5218.87127123
0.26400001 108271.58948491 7746.83259421
0.26500001 106742.10878766 5536.71344481
0.26600001 105235.60607572 4636.15484505
0.26700001 103752.23701067 5005.00815023
0.26800001 102291.56758691 5778.45092643
0.26900001 100851.87929932 4901.40156589
0.27000001 99434.48561866  5254.61564118
0.27100001 98037.97883359  4399.94469827
0.27200001 96662.84027902  4750.01219610
0.27300001 95307.84612075  4700.58319313
0.27400001 93971.30856461  5814.47499260
0.27500001 92656.56049697  4603.17814334
0.27600001 91358.60712039  5693.92545825
0.27700001 90081.70173019  4507.68856791
0.27800001 88822.00038944  4088.92098145
0.27900001 87580.93253127  5149.75907657
0.28000001 86357.07157793  3639.95073928
0.28100001 85151.15466243  3601.89401270
0.28200001 83962.61189798  5346.31956564
0.28300001 82790.96161116  3879.58464472
0.28400001 81635.10128486  4885.86104315
0.28500001 80496.33940094  3453.29312375
0.28600001 79373.00938197  4100.40985875
0.28700001 78266.22194843  5409.76151713
0.28800001 77173.26043045  4014.55319761
0.28900001 76097.38868832  3972.28387755
0.29000001 75035.35541926  5895.52815435
0.29100001 73988.70436400  3240.70540454
0.29200001 72956.03683389  3847.70156475
0.29300001 71937.91987864  4441.44738355
0.29400001 70933.12670226  5022.06560825
0.29500001 69943.20065755  3416.02608182
0.29600001 68965.76163824  3072.42482642
0.29700001 68002.08860392  4559.54025673
0.29800001 67051.97844253  4210.19392571
0.29900001 66115.08814515  2975.17910737
0.30000001 65189.89748787  3826.32121419
0.30100001 64278.61014902  2911.82117760
0.30200001 63378.66387888  3456.67249160
0.30300001 62491.94628177  3989.48603949
0.30400001 61617.05238991  3382.77633635
0.30500001 60754.58995907  4182.95371671
0.30600001 59902.81350176  2758.52469235
0.30700001 59063.61601840  3001.61310816
0.30800001 58235.72958296  3239.07143275
0.30900001 57419.55009054  3204.01104674
0.31000001 56614.79703574  3433.40452879
0.31100001 55820.48114823  3134.87836971
0.31200001 55038.29772052  2842.45302035
0.31300001 54266.20670245  3067.12614804
0.31400001 53506.42247332  3286.63215603
0.31500001 52755.87674705  2500.62867621
0.31600002 52017.38613544  2720.76951064
0.31700002 51288.75173157  3425.06300280
0.31800002 50570.46235753  3387.71543373
0.31900002 49863.20792123  2632.77750290
0.32000002 49166.49707864  3077.57703036
0.32100002 48479.35508969  2809.86355405
0.32200002 47803.59366496  2547.69264501
0.32300002 47136.25657212  2290.82217788
0.32400002 46480.28855244  3398.87126134
0.32500002 45833.75453552  3137.77898408
0.32600002 45197.36493562  3325.39628260
0.32700002 44571.18317915  2412.19254788
0.32800002 43955.39276291  2169.19873557
0.32900002 43347.61929750  2145.70725683
0.33000002 42750.89765065  2547.09860264
0.33100002 42162.74651293  2309.67536335
0.33200002 41585.66420738  2284.92442808
0.33300002 41017.39263260  2465.96576185
0.33400002 40459.24277703  2643.00015957
0.33500002 39910.23554316  2011.47596663
0.33600002 39370.32266489  2388.20388595
0.33700002 38839.71048087  2363.00809756
0.33800002 38319.49378166  1948.54635108
0.33900002 37807.55549532  2699.45959021
0.34000002 37305.11651133  2098.97247991
0.34100002 36812.04457011  2643.84116623
0.34200002 36328.84420199  2429.85485953
0.34300002 35853.91109695  3330.11142040
0.34400002 35389.06900922  1831.38440796
0.34500002 34932.74127522  2719.51403707
0.34600002 34486.25667541  2154.01169396
0.34700002 34047.47460027  1777.27825831
0.34800002 33618.64227817  1935.92960728
0.34900002 33198.25089830  1917.19908018
0.35000002 32787.18135820  1726.24518027
0.35100002 32385.63977744  1880.95804736
0.35200002 31991.35178769  2202.12480460
0.35300002 31607.13858206  2014.00696584
0.35400002 31230.97844819  2494.57452170
0.35500002 30864.01920415  1648.13870356
0.35600002 30505.34036462  2123.62937007
0.35700002 30155.23006917  1781.26952456
0.35800002 29814.04425229  2247.68090264
0.35900002 29481.77239175  2069.62051993
0.36000002 29157.82992001  2684.12416042
0.36100002 28841.72235106  1722.71615763
0.36200002 28535.57326171  1709.13824147
0.36300002 28236.25362291  1695.86947292
0.36400002 27945.92872399  2601.06743919
0.36500002 27663.01976197  1822.43982824
0.36600002 27389.27574760  2261.66955199
0.36700002 27123.02349022  2395.50554813
0.36800002 26865.86865517  2230.53885075
0.36900002 26616.40625659  1624.93167894
0.37000002 26374.29009477  1908.04810729
0.37100002 26140.01730917  1604.47433844
0.37200002 25914.44592927  2174.86997764
0.37300002 25696.23121660  1441.55863954
0.37400002 25485.76820828  1720.28943555
0.37500002 25283.01559410  1568.55836176
0.37600002 25088.03413327  1560.60123719
0.37700002 24900.49229158  1694.22957578
0.37800002 24720.25569277  2108.01990406
0.37900002 24548.28953019  1539.17782646
0.38000002 24382.84391185  1672.17551469
0.38100002 24224.01848390  2498.46538479
0.38200002 24073.50468798  1797.92978280
0.38300002 23929.39741958  1378.33335666
0.38400002 23792.59466146  2198.43585087
0.38500002 23662.11554392  2055.05483235
0.38600002 23539.52887018  1639.76365878
0.38700002 23422.67905547  1499.51998417
0.38800002 23312.54907772  1360.28730313
0.38900002 23209.08407052  1493.50463069
0.39000002 23112.63160072  2168.88945217
0.39100002 23021.72130719  2301.25137089
0.39200002 22937.93821867  1893.06813087
0.39300002 22859.51565434  1486.09718310
0.39400002 22788.55169155  2160.35480271
0.39500002 22722.13428917  2294.48122923
0.39600002 22662.00984610  1349.52275027
0.39700002 22607.02845293  2024.45949388
0.39800002 22559.01758852  1620.18871997
0.39900002 22515.46906971  2296.57795392
0.40000002 22477.75334494  1352.03692776
0.40100002 22445.13702890  1353.44182697
0.40200002 22418.25341731  1490.70183161
0.40300002 22396.22481543  1492.93241693
0.40400002 22379.24673348  1495.49323382
0.40500002 22366.74744253  1770.77547893
0.40600002 22359.98247610  1638.09239381
0.40700002 22357.33831752  1641.92300383
0.40800002 22359.14350603  1508.90687100
0.40900002 22365.19410611  1650.55140324
0.41000002 22376.22601268  1379.49439904
0.41100002 22391.16399502  1798.90620060
0.41200002 22409.40139428  1665.91497859
0.41300002 22432.98752823  1532.39745066
0.41400002 22459.73217633  2097.17759134
0.41500002 22490.04158148  1684.05439342
0.41600002 22523.24408134  2113.24347606
0.41700002 22561.33465317  1556.05532476
0.41800002 22603.19157796  1846.79385539
0.41900002 22646.43796241  1569.39822516
0.42000002 22693.56740132  2006.33838902
0.42100002 22744.29924161  1871.62847328
0.42200002 22797.60716890  1591.15906775
0.42300002 22853.37531276  1453.47473877
0.42400002 22911.68051568  1460.61970209
0.42500002 22973.14997757  2348.77496501
0.42600002 23035.79812797  1918.07582202
0.42700002 23101.91031063  1928.08552589
0.42800002 23169.50550305  1789.14929973
0.42900002 23239.92528338  1648.87277699
0.43000002 23312.26772782  1657.85199802
0.43100002 23384.76450837  1818.39937434
0.43200002 23460.44231943  1676.13138094
0.43300002 23536.90890610  1838.70341088
0.43400002 23615.36047362  2157.26328149
0.43500002 23694.60466059  2014.51538371
0.43600002 23775.79328605  2649.45565039
0.43700002 23857.37459937  2194.40141964
0.43800002 23939.53579902  1891.70220848
0.43900002 24023.63872216  2061.22830004
0.44000002 24107.73627965  1913.67219657
0.44100002 24192.94068915  1764.39124807
0.44200002 24278.47415940  1935.96562122
0.44300002 24364.59701873  1784.95046218
0.44400002 24450.90453861  1632.09795530
0.44500002 24536.85958543  1641.51598406
0.44600002 24622.94391326  2476.45270144
0.44700002 24710.11327047  2158.67559761
0.44800002 24795.97311852  2338.01241615
0.44900002 24882.38991983  1847.51753910
0.45000002 24968.72008817  2195.87419222
0.45100002 25053.69576148  2038.36878376
0.45200002 25138.75715716  2049.81435574
0.45300002 25222.71286178  2404.73355821
0.45400002 25306.46301632  2245.31603753
0.45500002 25389.60353435  2083.97875687
0.45600002 25471.36944145  1746.06245796
0.45700002 25552.62412078  2457.65150441
0.45800002 25632.37692018  2470.70492843
0.45900002 25711.01490215  2128.87213479
0.46000002 25789.01246447  2318.30338537
0.46100002 25864.80520432  1971.67419417
0.46200002 25939.96036457  1981.68336597
0.46300002 26013.52848168  1810.54166814
0.46400002 26085.08741777  2547.20890707
0.46500002 26156.18222843  2376.81239175
0.46600002 26224.47855031  2571.83473332
0.46700002 26291.13153468  2030.20127333
0.46800002 26356.76691807  2039.61850463
0.46900002 26419.62201040  2793.87516002
0.47000002 26481.00489684  1870.88308464
0.47100002 26540.46435999  1879.06496575
0.47200002 26598.04269718  2641.98370633
0.47300002 26653.44164382  1895.05979070
0.47400002 26706.05320082  3044.49020919
0.47500002 26756.98273172  2674.62812063
0.47600002 26806.36197120  2876.99293492
0.47700002 26852.20270142  2502.89393243
