# SAXS profile: number of points = 501, q_min = 0, q_max = 0.5, delta_q = 0.001
#    q    intensity    error
0.00000000 1664650.74656090 374.54641798
0.00100000 1664569.23115269 699.11909369
0.00200000 1664324.61525482 973.62993075
0.00300000 1663917.12390233 1297.85540288
0.00400000 1663346.63416749 1372.26102533
0.00500000 1662613.65905333 1645.98758761
0.00600000 1661718.07576677 2268.24526577
0.00700000 1660660.44963090 2590.63040909
0.00800000 1659440.62154009 2688.29392039
0.00900000 1658059.85121731 2735.79887146
0.01000000 1656517.44305275 3826.55545868
0.01100000 1654814.74301265 3574.40000053
0.01200000 1652951.59299117 4512.55804671
0.01300000 1650929.18808737 3813.64659268
0.01400000 1648747.64487324 3709.68236542
0.01500000 1646408.20208734 4741.65583315
0.01600000 1643910.41743781 5449.56327742
0.01700000 1641256.40464509 6647.08873699
0.01800000 1638446.17098375 5136.52897717
0.01900000 1635480.47736408 7359.66248023
0.02000000 1632360.34953515 5656.12886700
0.02100000 1629087.82057566 5913.58905680
0.02200000 1625661.47307909 7291.09203801
0.02300000 1622084.63991982 6423.45546647
0.02400000 1618356.67575094 7282.60537295
0.02500000 1614480.13186708 6296.47280185
0.02600000 1610455.05935017 7174.57761756
0.02700000 1606283.67605877 8095.67009813
0.02800000 1601965.66026944 9755.97131845
0.02900000 1597503.59472389 10064.27310885
0.03000000 1592898.79821207 17036.05342994
0.03100000 1588151.80947392 8385.44193986
0.03200000 1583263.76200005 9404.58717944
0.03300000 1578238.59113822 10463.72234163
0.03400000 1573074.56843010 10736.23442491
0.03500000 1567774.69288504 11852.37722553
0.03600000 1562340.24764700 11272.28540771
0.03700000 1556773.15311822 12423.05033642
0.03800000 1551074.89731174 10888.54628305
0.03900000 1545247.36184391 12052.92998055
0.04000000 1539290.67988281 10413.30193195
0.04100000 1533208.59363711 12556.97896411
0.04200000 1527002.06443377 14773.74565879
0.04300000 1520671.88722257 12043.72190585
0.04400000 1514221.72089813 13287.29621797
0.04500000 1507652.89510128 11443.08600552
0.04600000 1500965.26779167 13756.34731880
0.04700000 1494163.23026825 11833.77333409
0.04800000 1487247.04374393 13117.51953615
0.04900000 1480220.70177354 13321.98693607
0.05000000 1473083.58488660 11269.08994914
0.05100000 1465840.39099153 12576.91114059
0.05200000 1458489.29609564 11594.99044430
0.05300000 1451036.26184635 15279.41254954
0.05400000 1443481.47520049 14290.46727090
0.05500000 1435827.43428532 15679.23631382
0.05600000 1428074.96190235 15873.05394225
0.05700000 1420229.52579333 14827.19694139
0.05800000 1412289.76050073 14998.51795683
0.05900000 1404258.42870623 16429.82438323
0.06000000 1396139.39654022 14052.14368268
0.06100000 1387933.47666564 19361.67290428
0.06200000 1379643.48429089 20860.21045756
0.06300000 1371272.25364365 17113.47852562
0.06400000 1362818.56708938 14616.22981559
0.06500000 1354288.66653205 13407.45842584
0.06600000 1345683.59164464 16228.94487456
0.06700000 1337004.46066700 21819.91381923
0.06800000 1328254.78100802 17871.66891502
0.06900000 1319437.18742553 15239.50022826
0.07000000 1310552.07318524 16748.85627963
0.07100000 1301603.03532221 16868.77612787
0.07200000 1292591.90023747 15569.27016773
0.07300000 1283521.88283294 15671.80292370
0.07400000 1274394.79756627 15770.63635896
0.07500000 1265212.65205812 15865.76740048
0.07600000 1255976.42794169 17407.83410736
0.07700000 1246691.40627712 14586.29013737
0.07800000 1237357.81542453 21994.03620061
0.07900000 1227977.67406698 16209.30605796
0.08000000 1218555.19442182 20727.62482947
0.08100000 1209091.44627403 19333.37313301
0.08200000 1199587.78712655 20908.81611077
0.08300000 1190048.11498368 19492.98903828
0.08400000 1180473.56666300 18061.24641771
0.08500000 1170867.07564222 19635.44178031
0.08600000 1161230.20649120 19700.27137808
0.08700000 1151566.87808519 15200.68350451
0.08800000 1141876.27492263 24390.47837782
0.08900000 1132164.50457501 19869.48798856
0.09000000 1122430.32479285 16853.29211846
0.09100000 1112677.54851518 16890.44597999
0.09200000 1102907.53718637 18462.67304000
0.09300000 1093125.60861152 16954.37898629
0.09400000 1083328.06253484 21612.39586330
0.09500000 1073520.93192674 18550.44257561
0.09600000 1063705.47788300 23215.37314610
0.09700000 1053885.80444279 21688.97087509
0.09800000 1044062.03645935 15504.32197040
0.09900000 1034236.63954623 18616.26038721
0.10000000 1024410.71432362 26383.69918816
0.10100000 1014586.58416845 15523.17546786
0.10200000 1004767.22415712 18628.38521208
0.10300000 994953.68862950 24834.04523640
0.10400000 985149.12738086 18619.31938345
0.10500000 975356.20961494 18609.79735503
0.10600001 965571.92223834 17047.17308925
0.10700001 955804.20437532 27871.25191114
0.10800001 946051.16353413 15467.93725173
0.10900001 936317.16994772 16994.15743439
0.11000001 926601.67885723 21599.08615082
0.11100001 916907.62040530 23106.07312189
0.11200001 907236.93605788 15377.66679012
0.11300001 897590.47098436 16883.67755411
0.11400001 887971.57339490 19912.76347096
0.11500001 878380.96862705 19868.97844593
0.11600001 868820.21757848 19822.13419751
0.11700001 859292.00237950 15209.46915841
0.11800001 849795.33793228 16685.73224617
0.11900001 840333.31828684 16638.60048578
0.12000001 830906.96941779 15080.96220532
0.12100001 821520.80148955 16537.21451302
0.12200001 812172.44549794 17981.49879046
0.12300001 802866.22766231 16426.64379190
0.12400001 793600.84254025 17856.01979849
0.12500001 784378.69830258 17789.70971576
0.12600001 775203.08187813 22151.42910852
0.12700001 766073.13550357 16179.46538431
0.12800001 756990.65396125 16112.54682894
0.12900001 747957.38772610 17502.20369771
0.13000001 738974.50783693 18877.10469246
0.13100001 730042.12446682 15900.31822039
0.13200001 721162.49685468 15825.91173951
0.13300001 712336.76903914 18613.36065248
0.13400001 703565.06947154 19946.07065989
0.13500001 694850.13012851 22679.90931671
0.13600001 686192.13729276 18331.62381213
0.13700001 677591.80835209 15428.76620369
0.13800001 669049.01186495 16739.60706623
0.13900001 660567.31835422 15259.10577357
0.14000001 652145.81735498 16551.46162505
0.14100001 643786.72574952 15083.92369571
0.14200001 635489.38078864 16357.49743301
0.14300001 627256.39544242 16258.48653674
0.14400001 619084.54655167 14811.59847491
0.14500001 610980.09531059 18732.65060588
0.14600001 602940.48626211 15953.80601911
0.14700001 594968.20416002 18491.61265766
0.14800001 587060.40169745 15744.96071635
0.14900001 579221.27692897 15638.97521494
0.15000001 571449.47568607 19414.99685249
0.15100001 563746.35990335 17994.78465720
0.15200001 556113.62695188 14039.08917486
0.15300001 548550.35271305 16472.96786932
0.15400001 541055.33438928 16353.39825365
0.15500001 533632.44803145 16233.09983521
0.15600001 526278.57034610 22308.94964984
0.15700001 518999.05997401 13530.30613211
0.15800001 511787.56618468 14647.36083554
0.15900001 504650.52133066 13322.77439197
0.16000001 497583.02373166 22831.59812163
0.16100001 490590.62729254 13113.48808654
0.16200001 483670.03928836 18921.17283015
0.16300001 476822.12194211 14075.78970422
0.16400001 470047.64956811 12797.04786364
0.16500001 463345.36146463 17305.95006774
0.16600001 456716.85722141 16017.06093897
0.16700001 450161.18208953 11344.06232426
0.16800001 443678.99627407 13496.71570392
0.16900001 437271.18544515 14495.54048196
0.17000001 430935.47669674 13264.19459906
0.17100001 424673.64171324 12052.23852094
0.17200001 418485.25573933 14117.60076904
0.17300001 412369.65583946 11839.13337825
0.17400001 406328.37892925 17065.79272098
0.17500001 400358.92877370 12683.37146256
0.17600001 394461.35204808 11520.24433065
0.17700001 388639.18201745 13489.66664495
0.17800001 382887.69781013 11308.58868895
0.17900001 377208.45229163 10184.62869293
0.18000001 371602.45051455 11097.90770883
0.18100001 366068.86003512 11992.41642123
0.18200001 360604.49525386 14847.89079346
0.18300001 355212.40406279 10784.24909679
0.18400001 349891.28663940 9709.48366293
0.18500001 344641.00513605 11538.58139706
0.18600001 339461.34033845 14282.83656951
0.18700001 334350.81584877 12257.30148811
0.18800001 329308.46853032 10269.48507631
0.18900001 324338.76545516 11092.38630265
0.19000001 319433.68636641 9151.77554681
0.19100001 314599.53155347 11778.60701790
0.19200001 309831.61706593 10763.55088546
0.19300001 305132.77780891 8879.36425381
0.19400001 300499.21149193 9668.56258663
0.19500001 295932.42158130 12180.57904788
0.19600001 291430.70359857 10334.13323796
0.19700001 286996.02597264 10228.53884904
0.19800001 282624.98506003 10123.62744328
0.19900001 278318.61868204 15864.16201462
0.20000001 274074.55176867 10742.35256427
0.20100001 269895.12904034 10631.16963535
0.20200001 265777.07302395 8902.20348169
0.20300001 261721.42532016 8809.54359266
0.20400001 257727.29823760 9510.13775447
0.20500001 253793.46501578 7842.21843966
0.20600001 249919.46454030 7759.99974078
0.20700001 246105.25908191 8446.33289094
0.20800001 242349.33448858 9876.94759397
0.20900001 238654.07430701 11276.40554406
0.21000001 235013.31967727 14132.52664687
0.21100001 231431.15788769 10303.31563623
0.21200001 227903.90649250 8737.83618800
0.21300001 224432.50766901 8645.14060411
0.21400001 221016.26014353 11404.43956257
0.21500001 217655.37918386 7757.23808086
0.21600001 214346.43068610 8372.37197843
0.21700001 211091.00626220 7592.94385424
0.21800001 207887.88148405 8194.94067556
0.21900001 204735.49824850 8107.52611398
0.22000001 201633.42337591 10026.22245143
0.22100001 198583.18849187 7274.10253840
0.22200001 195581.68175269 7850.64907677
0.22300001 192628.84359172 7119.56239580
0.22400001 189723.09909699 8964.41685623
0.22500001 186867.25242040 6334.80015661
0.22600001 184055.85000682 7520.52238691
0.22700001 181291.62843740 8680.24358006
0.22800001 178572.01070631 6747.34374362
0.22900001 175896.71926354 7888.96823205
0.23000001 173265.89815237 10206.22821334
0.23100001 170679.54235683 8909.47253238
0.23200001 168133.76933606 7639.15817107
0.23300001 165631.21996694 8720.48414369
0.23400001 163168.97038672 5751.70647816
0.23500001 160747.14665493 6828.53911287
0.23600001 158365.64260107 6755.87863289
0.23700001 156023.61413835 7241.05627465
0.23800001 153719.57816386 6061.93185161
0.23900001 151453.62930691 5452.33091294
0.24000001 149224.66698316 5394.47196660
0.24100001 147033.30337911 6404.77099815
0.24200001 144878.03168052 6865.04585591
0.24300001 142757.22790101 7837.37218249
0.24400001 140671.51724211 5686.64635351
0.24500001 138619.45754759 5115.05822547
0.24600001 136601.04413327 6073.28270946
0.24700001 134616.26151745 5508.49768188
0.24800001 132663.40205580 4954.97830119
0.24900001 130741.11799191 5883.35058796
0.25000001 128851.21965453 6306.62324435
0.25100001 126991.08909241 4800.26339479
0.25200001 125162.67940434 6174.90108055
0.25300001 123362.16282176 5640.11835105
0.25400001 121591.38346226 6511.21889246
0.25500001 119847.53122548 5062.35995847
0.25600001 118132.74447049 6375.62452072
0.25700001 116444.38232807 5858.31715210
0.25800001 114782.69532272 5797.10030156
0.25900001 113148.20552824 4854.05824683
0.26000001 111538.50941267 5676.75270516
0.26100001 109953.65919626 4753.29691196
0.26200001 108394.76897374 5986.64337369
0.26300001 106858.59010500 6770.56058942
0.26400001 105347.22022773 5443.81786286
0.26500001 103859.00702483 4972.76949165
0.26600001 102393.27843643 6151.27649314
0.26700001 100950.22579734 4464.01919600
0.26800001 99529.35702482  6024.01461899
0.26900001 98129.21393944  4769.08002314
0.27000001 96750.89606688  5112.80134460
0.27100001 95392.86234339  4281.23186457
0.27200001 94055.82531812  5007.06209776
0.27300001 92738.51198116  4573.86362736
0.27400001 91439.24287162  4149.05584165
0.27500001 90161.35662725  5225.75247743
0.27600001 88899.69914989  4432.53920939
0.27700001 87658.65342130  4751.97582686
0.27800001 86434.56735599  4340.74417805
0.27900001 85228.49523601  3579.59696933
0.28000001 84039.36349386  3896.48527281
0.28100001 82867.61558402  3855.83033562
0.28200001 81712.99839844  3815.58864081
0.28300001 80574.59865690  4462.22148482
0.28400001 79451.71979782  5094.84177318
0.28500001 78345.44797078  4369.32584014
0.28600001 77254.25942951  3658.37562844
0.28700001 76179.21299900  3620.03637306
0.28800001 75117.59862987  4558.88727663
0.28900001 74072.55293047  3544.37182549
0.29000001 73041.03020237  3507.06523117
0.29100001 72024.47663938  4416.54111658
0.29200001 71021.49793863  4057.81347680
0.29300001 70032.67807829  4323.81774923
0.29400001 69056.73461700  4278.06491203
0.29500001 68095.34287608  3930.46337686
0.29600001 67145.93773900  4786.16266860
0.29700001 66210.14104910  2959.59344500
0.29800001 65287.31816369  3220.94999408
0.29900001 64377.35747059  3186.67934565
0.30000001 63478.74289565  3439.27845290
0.30100001 62593.64030782  3119.04124419
0.30200001 61719.56039875  3085.66956821
0.30300001 60858.24812628  3330.16349512
0.30400001 60008.45113292  3294.46412316
0.30500001 59170.64885622  2715.93291108
0.30600001 58343.28364279  3761.39167452
0.30700001 57528.12401113  3189.35934617
0.30800001 56723.81849281  4206.63857858
0.30900001 55930.94036881  3120.94662034
0.31000001 55149.06664430  2829.97448884
0.31100001 54377.35237242  3817.29031727
0.31200001 53617.43674044  2769.07265156
0.31300001 52867.23010014  3486.06531786
0.31400001 52129.04612664  2463.09754610
0.31500001 51399.87506431  2679.98961274
0.31600002 50682.19107709  3132.91978977
0.31700002 49974.11315863  3575.64796580
0.31800002 49276.06374442  3536.78964272
0.31900002 48588.79430192  3031.94090800
0.32000002 47911.58819416  3691.10892925
0.32100002 47243.80556118  2281.87591665
0.32200002 46586.99716633  2708.56814350
0.32300002 45938.28159784  3125.64082792
0.32400002 45300.64843969  2650.08805921
0.32500002 44672.23264901  2839.81396397
0.32600002 44053.64463796  2592.99764617
0.32700002 43444.89109413  2137.48874305
0.32800002 42846.32699250  2537.35960465
0.32900002 42255.34240067  2509.96745746
0.33000002 41675.31085092  2276.09720991
0.33100002 41103.47575679  2865.73446547
0.33200002 40542.48111479  3037.64554137
0.33300002 39989.99016821  2404.19832276
0.33400002 39447.44790541  1982.23435112
0.33500002 38913.52124158  2353.48987614
0.33600002 38388.59017218  2134.59765761
0.33700002 37872.71172664  3264.24917830
0.33800002 37366.95726002  3420.19775998
0.33900002 36869.23930876  2256.39755255
0.34000002 36380.81912278  2046.96688488
0.34100002 35901.35024280  2394.26116108
0.34200002 35431.66239271  2187.55093973
0.34300002 34970.06205672  2165.34634510
0.34400002 34518.17444497  1964.94717334
0.34500002 34074.57689235  1945.31768691
0.34600002 33640.59986683  2626.48995900
0.34700002 33214.16909848  2774.04753449
0.34800002 32797.36157535  2403.71874370
0.34900002 32388.92167217  1700.41846832
0.35000002 31989.45184886  1684.24471961
0.35100002 31599.35535828  1835.29064613
0.35200002 31216.26202627  2148.77149835
0.35300002 30843.00186044  2784.19790981
0.35400002 30477.87003254  1622.94665610
0.35500002 30121.43228895  1769.33301646
0.35600002 29773.18850866  1753.78975217
0.35700002 29433.34578433  2212.79904087
0.35800002 29102.17824334  1723.86760990
0.35900002 28779.81726963  2020.34326802
0.36000002 28465.51425140  1695.54843670
0.36100002 28158.88629845  2752.24967717
0.36200002 27861.98461786  1668.79364773
0.36300002 27571.92875952  1505.42738158
0.36400002 27290.49591016  1942.40113841
0.36500002 27016.45279034  1779.84399413
0.36600002 26751.33973166  1619.92745418
0.36700002 26493.63520926  1608.69360611
0.36800002 26244.75854830  2033.70643624
0.36900002 26003.51096553  1587.51441964
0.37000002 25769.47078438  2151.10667562
0.37100002 25543.05572385  1567.83283460
0.37200002 25325.30377237  2833.90162637
0.37300002 25114.63815784  2113.39690109
0.37400002 24911.55900210  1541.40278627
0.37500002 24716.22177281  1672.79396883
0.37600002 24528.45865227  1664.50128299
0.37700002 24347.87460995  2484.94420041
0.37800002 24174.72443202  1374.33314907
0.37900002 24009.49783122  1779.10387357
0.38000002 23850.79374966  2044.60939105
0.38100002 23698.53127095  1901.09626862
0.38200002 23554.51476373  1623.84832474
0.38300002 23416.64158760  1618.55834321
0.38400002 23286.15975749  1882.68610558
0.38500002 23161.82342460  1475.17660380
0.38600002 23045.23625410  2006.66404189
0.38700002 22934.32678498  2269.12239961
0.38800002 22830.04953413  1598.56014411
0.38900002 22732.31187652  1861.77643089
0.39000002 22641.50597801  1593.50926623
0.39100002 22556.20645737  2387.34900455
0.39200002 22477.77756762  1325.06505039
0.39300002 22404.76010880  1456.53352368
0.39400002 22339.05846131  1455.94820419
0.39500002 22277.80434361  1720.29213292
0.39600002 22222.91724403  1455.71226304
0.39700002 22172.96999280  1853.21691980
0.39800002 22129.91095533  1721.81780346
0.39900002 22091.32986151  1988.21978174
0.40000002 22058.40608973  1990.21978374
0.40100002 22030.55391214  1594.13095661
0.40200002 22008.42264528  1463.45013314
0.40300002 21991.00196769  1465.92026062
0.40400002 21978.56809963  1602.23769038
0.40500002 21970.62384825  1873.21547806
0.40600002 21968.28980313  1609.39698723
0.40700002 21970.08976280  1479.02651291
0.40800002 21976.26972390  1348.24421144
0.40900002 21986.54455814  1487.38980983
0.41000002 22001.85485953  2034.62162454
0.41100002 22020.95902843  2041.34299866
0.41200002 22043.41867157  1502.14883655
0.41300002 22071.08048521  1644.73699569
0.41400002 22101.86018481  1651.00903403
0.41500002 22136.25607505  1519.43268899
0.41600002 22173.47508903  1664.34111905
0.41700002 22215.56610521  1671.49927296
0.41800002 22261.20693601  1818.85199889
0.41900002 22308.42705462  1967.60335945
0.42000002 22359.35176305  1553.19244382
0.42100002 22413.93165888  1702.56232948
0.42200002 22471.04117964  2138.68144561
0.42300002 22530.59732540  1576.24066358
0.42400002 22592.66350628  1728.33884013
0.42500002 22657.76814397  1592.61459831
0.42600002 22724.09464905  2183.21749686
0.42700002 22793.85080077  1756.03834890
0.42800002 22865.15203276  1618.50986334
0.42900002 22939.25789094  1923.45686530
0.43000002 23015.11045764  1636.71965775
0.43100002 23091.19975515  1795.57177805
0.43200002 23170.51079674  1956.40217183
0.43300002 23250.50439073  1816.32948908
0.43400002 23332.46316101  1826.93195208
0.43500002 23415.27369100  1684.49486916
0.43600002 23499.95769442  2310.63344980
0.43700002 23585.08005699  1549.53983318
0.43800002 23670.68076998  2649.81448437
0.43900002 23758.31264025  1568.04870857
0.44000002 23845.86767939  2839.32759914
0.44100002 23934.56513939  1904.23409273
0.44200002 24023.54587236  1915.63763864
0.44300002 24113.16865761  1766.53081957
0.44400002 24202.90763469  2100.20740953
0.44500002 24292.33651982  2275.22034627
0.44600002 24381.87854322  1798.28553718
0.44700002 24472.43344433  2466.82140809
0.44800002 24561.77285013  2150.50612381
0.44900002 24651.58244974  2163.17646248
0.45000002 24741.32881254  2510.62646024
0.45100002 24829.70867428  2020.14519348
0.45200002 24918.19660591  2031.82984754
0.45300002 25005.68180067  2384.04181586
0.45400002 25092.80814180  2911.39320263
0.45500002 25179.33156663  2238.94626902
0.45600002 25264.60652611  1731.88885944
0.45700002 25349.23071650  2786.38757241
0.45800002 25432.44410336  2101.22863141
0.45900002 25514.54685752  2464.70534325
0.46000002 25595.97286694  2123.95392916
0.46100002 25675.25021740  2313.08340171
0.46200002 25753.85822511  2504.04775391
0.46300002 25830.84370919  2157.39216884
0.46400002 25905.85152082  2349.01319798
0.46500002 25980.41681276  2905.64995405
0.46600002 26052.14155769  2007.44786287
0.46700002 26122.28915748  2017.16326435
0.46800002 26191.37233101  2579.58838314
0.46900002 26257.80346866  2406.52780196
0.47000002 26322.60635146  1859.69222687
0.47100002 26385.53355761  2054.90545086
0.47200002 26446.56442552  2251.66060191
0.47300002 26505.41820511  2638.34945319
0.47400002 26561.57848806  3406.52260255
0.47500002 26615.97950985  1900.38102708
0.47600002 26668.83974867  2862.23336169
0.47700002 26718.25754511  2298.83898814
