# SAXS profile: number of points = 501, q_min = 0, q_max = 0.5, delta_q = 0.001
#    q    intensity    error
0.00000000 1664650.74656090 274.66737318
0.00100000 1664569.23481001 649.18201699
0.00200000 1664324.62666544 823.84071629
0.00300000 1663917.15488306 1497.52549274
0.00400000 1663346.69198524 1372.26107303
0.00500000 1662613.73682057 2543.79911802
0.00600000 1661718.19024900 2268.24542203
0.00700000 1660660.61623705 2391.35138677
0.00800000 1659440.83304917 2464.26974112
0.00900000 1658060.12013968 3233.21737248
0.01000000 1656517.77683241 3553.23078473
0.01100000 1654815.12770662 3276.53409552
0.01200000 1652952.08817334 3545.58238458
0.01300000 1650929.76240343 3466.95265396
0.01400000 1648748.30463889 4451.62061987
0.01500000 1646408.94747243 4346.51981487
0.01600000 1643911.22530212 5868.76333668
0.01700000 1641257.35932894 4874.53457587
0.01800000 1638447.24361424 7004.36228163
0.01900000 1635481.65489492 6378.37874190
0.02000000 1632361.62450825 8227.10295968
0.02100000 1629089.22443420 7526.39255812
0.02200000 1625663.07327715 7291.09921490
0.02300000 1622086.31051181 5839.51098365
0.02400000 1618358.51620088 7282.61365497
0.02500000 1614482.12611764 7555.77669531
0.02600000 1610457.23390810 7174.58730521
0.02700000 1606286.02232674 9444.96224387
0.02800000 1601968.14965985 6968.56177060
0.02900000 1597506.25752265 12220.92343116
0.03000000 1592901.66063254 10369.79028737
0.03100000 1588154.88259293 8385.45816593
0.03200000 1583267.03302790 10188.32382679
0.03300000 1578241.98537826 8049.03449649
0.03400000 1573078.17580497 8258.66080403
0.03500000 1567778.47166378 8466.00413793
0.03600000 1562344.30298282 12139.41579518
0.03700000 1556777.43501261 9760.99496895
0.03800000 1551079.34402839 12703.34041550
0.03900000 1545252.01636065 12980.11753854
0.04000000 1539295.60777035 10413.33526911
0.04100000 1533213.78495989 16420.72039829
0.04200000 1527007.46509597 9849.19860680
0.04300000 1520677.52164990 11040.11931964
0.04400000 1514227.53817715 12265.24362886
0.04500000 1507658.96928070 13523.70158283
0.04600000 1500971.64086472 11640.03561601
0.04700000 1494169.78584960 11833.82525430
0.04800000 1487253.87481077 12024.44813732
0.04900000 1480227.81931828 16652.56374247
0.05000000 1473090.98792840 14649.89055714
0.05100000 1465847.97452613 13720.33768071
0.05200000 1458497.18783441 12754.55850199
0.05300000 1451044.37888872 16454.84402369
0.05400000 1443489.87893988 11908.79205661
0.05500000 1435836.08184713 15679.33074520
0.05600000 1428083.88315428 15873.15310197
0.05700000 1420238.70479309 13591.68503931
0.05800000 1412299.22199566 18748.27304739
0.05900000 1404268.18501566 16429.93853206
0.06000000 1396149.40315992 20439.62821718
0.06100000 1387943.80564790 16780.24139445
0.06200000 1379654.03950620 15645.27753932
0.06300000 1371283.10363551 21062.90945664
0.06400000 1362829.71580895 22588.90359594
0.06500000 1354300.11957624 14748.32899208
0.06600000 1345695.32301793 21638.78180658
0.06700000 1337016.46075895 15001.32539176
0.06800000 1328267.08514621 15122.32147225
0.06900000 1319449.55958756 19395.90943403
0.07000000 1310564.91822977 18144.77214258
0.07100000 1301616.05852499 22491.92654478
0.07200000 1292605.25383676 16984.83383110
0.07300000 1283535.56582635 15671.96999306
0.07400000 1274408.73675872 24373.06823273
0.07500000 1265226.79344517 17308.30334561
0.07600000 1255990.88306444 14506.69537948
0.07700000 1246706.06199050 24796.98473568
0.07800000 1237372.71352844 17595.44081153
0.07900000 1227992.89536570 17683.09852267
0.08000000 1218570.74729899 19247.32585650
0.08100000 1209107.14150341 17846.42224591
0.08200000 1199603.77180913 17922.08119183
0.08300000 1190064.42761265 20992.73748832
0.08400000 1180490.10474914 18061.49945044
0.08500000 1170883.88281809 18125.28335692
0.08600000 1161247.22001855 19700.56001259
0.08700000 1151584.13888218 15200.91134704
0.08800000 1141893.85105205 18293.14035297
0.08900000 1132182.34482307 16812.90861032
0.09000000 1122448.28416183 18385.70375825
0.09100000 1112695.65385555 19961.76096800
0.09200000 1102926.05507325 21540.14686768
0.09300000 1093144.30775136 23120.00319540
0.09400000 1083346.83732827 20069.00110470
0.09500000 1073540.01217002 15458.97690186
0.09600000 1063724.67009648 17024.91414520
0.09700000 1053905.31774565 20140.13156896
0.09800000 1044081.68140380 17055.07506762
0.09900000 1034256.52876878 17065.23352713
0.10000000 1024430.80090648 15520.12736360
0.10100000 1014606.78974591 21732.87845849
0.10200000 1004787.70272267 23285.95610588
0.10300000 994974.35204487 18625.92074646
0.10400000 985169.84623951 20171.35355072
0.10500000 975376.92287924 18610.19256413
0.10600001 965593.06468776 17047.54635921
0.10700001 955825.44848338 21678.12219172
0.10800001 946072.64476587 18561.94616386
0.10900001 936338.69145236 16994.54804972
0.11000001 926623.30675692 23142.41817556
0.11100001 916929.49757765 20025.74116977
0.11200001 907258.77992549 26142.66297427
0.11300001 897612.47436312 19953.92624454
0.11400001 887993.62405736 18381.46888347
0.11500001 878403.09915714 21397.90050305
0.11600001 868842.49888514 16773.00523084
0.11700001 859314.31753555 15209.86413669
0.11800001 849817.83875139 15169.24913616
0.11900001 840355.89662576 16639.04753692
0.12000001 830929.58745321 18097.64726722
0.12100001 821543.51435540 16537.67172303
0.12200001 812195.15538699 14985.00132285
0.12300001 802888.97798098 22400.60354106
0.12400001 793623.69058334 19344.57836944
0.12500001 784401.64113456 16307.71088761
0.12600001 775226.06475895 16244.86295254
0.12700001 766096.20144686 19121.76208925
0.12800001 757013.56179998 23437.14097790
0.12900001 747980.33329242 17502.74062398
0.13000001 738997.45299277 21781.95095365
0.13100001 730065.05198298 21682.93306598
0.13200001 721185.39313845 17265.17912562
0.13300001 712359.63931896 15750.27236786
0.13400001 703587.84118040 19946.71623786
0.13500001 694872.96546118 15592.95008013
0.13600001 686214.81334307 16922.05809493
0.13700001 677614.62019615 16831.94795935
0.13800001 669071.75902569 16740.17620022
0.13900001 660590.01543488 20808.58646749
0.14000001 652168.33217983 16552.03305133
0.14100001 643809.16525145 17827.07662659
0.14200001 635511.71221914 17721.24493106
0.14300001 627278.65167497 13549.21951526
0.14400001 619106.60790138 21544.91097124
0.14500001 611002.10369686 14719.04137239
0.14600001 602962.36909438 19942.98129859
0.14700001 594990.00919721 18492.29035825
0.14800001 587082.05250764 17057.66984037
0.14900001 579242.85612046 20852.74380419
0.15000001 571470.95144662 16826.96295929
0.15100001 563767.75167548 16710.07694813
0.15200001 556134.74075773 19144.93935398
0.15300001 548571.32921327 13939.19813309
0.15400001 541076.13579865 15096.02490118
0.15500001 533653.04571415 13736.23004494
0.15600001 526298.98374524 19830.94664344
0.15700001 519019.22672706 17221.05875558
0.15800001 511807.66741727 18309.92016606
0.15900001 504670.30312932 18168.13177020
0.16000001 497602.72366759 15622.23824695
0.16100001 490610.03145361 19074.91892333
0.16200001 483689.28428171 14191.44427075
0.16300001 476841.12709933 16422.40919257
0.16400001 470066.34874485 11634.14268068
0.16500001 463363.78684555 12691.53472088
0.16600001 456735.15883800 13729.45952288
0.16700001 450179.11656929 14747.86855513
0.16800001 443696.76730146 21370.65580612
0.16900001 437288.72684364 12265.94936714
0.17000001 430952.66223960 13264.72357009
0.17100001 424690.61407666 13148.42203270
0.17200001 418501.95816101 15204.17685797
0.17300001 412386.13637400 13992.26226795
0.17400001 406344.55893038 11733.19969323
0.17500001 400374.76657986 13740.86263797
0.17600001 394476.85004078 10473.36086323
0.17700001 388654.48021954 13490.19764557
0.17800001 382902.75426370 15421.40915636
0.17900001 377223.16204883 11203.52844203
0.18000001 371616.87810223 15134.09807557
0.18100001 366082.85416231 15990.49982514
0.18200001 360618.30312302 12868.66475483
0.18300001 355225.87901036 11765.08166860
0.18400001 349904.39815262 11651.81700892
0.18500001 344653.80837234 10577.42587865
0.18600001 339473.69411067 12378.90884057
0.18700001 334362.92774823 12257.74551036
0.18800001 329320.28741658 10269.85364830
0.18900001 324350.20798823 9243.98136442
0.19000001 319444.79251191 10067.30311168
0.19100001 314610.35634879 10872.93442916
0.19200001 309842.10767595 14351.88710570
0.19300001 305142.90258572 10655.59066180
0.19400001 300508.97463426 11426.85430043
0.19500001 295941.81597855 11310.89674120
0.19600001 291439.74689547 9473.24942051
0.19700001 287004.84151815 8524.04419591
0.19800001 282633.39386562 10967.58936727
0.19900001 278326.65706453 10854.74013851
0.20000001 274082.19080071 10742.65197614
0.20100001 269902.47346510 8995.84986576
0.20200001 265784.06849412 12949.00042905
0.20300001 261728.03487205 9610.65389475
0.20400001 257733.63822990 9510.37170020
0.20500001 253799.37589163 8626.64119431
0.20600001 249925.05794795 10088.22544092
0.20700001 246110.47704289 10750.10614538
0.20800001 242354.27614332 8357.58760787
0.20900001 238658.57246152 9021.29446549
0.21000001 235017.57547958 7438.30661555
0.21100001 231435.03066932 7359.63432320
0.21200001 227907.35171337 8009.80425463
0.21300001 224435.62478760 10086.13745478
0.21400001 221019.04357959 7127.86449242
0.21500001 217657.87434827 7757.32700852
0.21600001 214348.49766435 7674.74832172
0.21700001 211092.82258145 11044.37699964
0.21800001 207889.32153833 7512.08098896
0.21900001 204736.60997327 11485.72436256
0.22000001 201634.20533199 6684.17422280
0.22100001 198583.59255814 8596.68412832
0.22200001 195581.88342920 10467.54289608
0.22300001 192628.56269985 7766.78401531
0.22400001 189722.60627560 6403.13826458
0.22500001 186866.38866650 6334.77087535
0.22600001 184054.72832469 7520.47655498
0.22700001 181290.18304014 8680.17437444
0.22800001 178570.26312239 8587.44435966
0.22900001 175894.66863810 9709.38616799
0.23000001 173263.58189625 9005.37509494
0.23100001 170676.84255448 6533.50984197
0.23200001 168130.79067479 9401.87425918
0.23300001 165628.07711963 8720.31867277
0.23400001 163165.52840000 6326.74366294
0.23500001 160743.39525861 6828.37975354
0.23600001 158361.60744594 6192.73095207
0.23700001 156019.25150612 6126.87629643
0.23800001 153715.01873287 6612.82041867
0.23900001 151448.90680146 5997.37699301
0.24000001 149219.60294736 6473.14668204
0.24100001 147028.07189851 6938.25504108
0.24200001 144872.50611134 5808.66340730
0.24300001 142751.49173327 6269.64581350
0.24400001 140665.48971287 6720.29408893
0.24500001 138613.22780705 6649.27685244
0.24600001 136594.67157074 5060.83282110
0.24700001 134609.62065973 5508.22593797
0.24800001 132656.60663975 6441.14184010
0.24900001 130734.02181091 6863.53646977
0.25000001 128844.01192258 5336.07500621
0.25100001 126983.64124724 6719.97461272
0.25200001 125155.05676307 5699.56155463
0.25300001 123354.45534099 5169.78546793
0.25400001 121583.52932441 7440.91234669
0.25500001 119839.43975870 5522.20164535
0.25600001 118124.53529552 5009.07115620
0.25700001 116435.92211971 4956.67743915
0.25800001 114774.17521701 7134.36306904
0.25900001 113139.55073045 4853.68695599
0.26000001 111529.69817402 6112.94304615
0.26100001 109944.79070057 6049.16267057
0.26200001 108385.78090135 4703.40118476
0.26300001 106849.50158357 4231.24046292
0.26400001 105338.07215337 5024.62627947
0.26500001 103849.77152963 5801.04851214
0.26600001 102383.86925824 6560.75865252
0.26700001 100940.79775880 6086.73039288
0.26800001 99519.87992604  4818.75281405
0.26900001 98119.65992396  5166.00033946
0.27000001 96741.26297260  5112.29228371
0.27100001 95383.19937130  5059.12513407
0.27200001 94046.14584210  5006.54681083
0.27300001 92728.73815323  5335.61184584
0.27400001 91429.47787772  4148.61275503
0.27500001 90151.47170972  4105.49821595
0.27600001 88889.91386809  4432.05131521
0.27700001 87648.87382943  4020.45403283
0.27800001 86424.74051752  5425.31334275
0.27900001 85218.71182847  3937.10467281
0.28000001 84029.58650961  3896.03196291
0.28100001 82857.87375140  5257.33233835
0.28200001 81703.26237688  4508.79474767
0.28300001 80564.97046719  4804.89506608
0.28400001 79442.13216937  4414.99670428
0.28500001 78335.87719922  4368.79207818
0.28600001 77244.75916068  4323.00315104
0.28700001 76169.80689142  3619.58939480
0.28800001 75108.22049186  3907.12981492
0.28900001 74063.23250231  3866.10091962
0.29000001 73031.82862682  4781.75920568
0.29100001 72015.37484208  4415.98299435
0.29200001 71012.51475519  3745.20020547
0.29300001 70023.76620720  3088.04823591
0.29400001 69047.95028169  3971.98352797
0.29500001 68086.64359799  3627.65654262
0.29600001 67137.43657981  4187.36211770
0.29700001 66201.68513493  2959.21546561
0.29800001 65279.04935995  3220.54205263
0.29900001 64369.23361450  3186.27721475
0.30000001 63470.83551066  3152.27919486
0.30100001 62585.82549159  2835.13802899
0.30200001 61711.93147900  3365.76890220
0.30300001 60850.76810721  4162.19273558
0.30400001 60001.13369440  4117.57799471
0.30500001 59163.49368899  3530.28583555
0.30600001 58336.33193050  2955.02703384
0.30700001 57521.40986917  2657.48926177
0.30800001 56717.29592452  4731.92422301
0.30900001 55924.59751471  3120.59268906
0.31000001 55142.94632261  3344.14413806
0.31100001 54371.43160525  2799.04143156
0.31200001 53611.70562816  4027.31151746
0.31300001 52861.72076470  2489.78716590
0.31400001 52123.75832654  3940.55631606
0.31500001 51394.80996090  3410.55975049
0.31600002 50677.41099486  3373.59540966
0.31700002 49969.52335109  3813.67420273
0.31800002 49271.78375434  2357.65496428
0.31900002 48584.71817726  2332.06658293
0.32000002 47907.71440287  2998.78352504
0.32100002 47240.20542767  2966.21263925
0.32200002 46583.67643052  2482.67715292
0.32300002 45935.16824165  2678.93913870
0.32400002 45297.83754267  2429.09665325
0.32500002 44669.73800506  2402.78532107
0.32600002 44051.41234126  3889.29937978
0.32700002 43442.87292052  2778.60628357
0.32800002 42844.64022368  2748.69802371
0.32900002 42253.93196434  3137.35459692
0.33000002 41674.11405731  2482.94383311
0.33100002 41102.57921782  2251.59939618
0.33200002 40541.85169868  3037.59838237
0.33300002 39989.67519126  2404.17938635
0.33400002 39447.39486207  2378.67802283
0.33500002 38913.79853519  2549.63220077
0.33600002 38389.14900971  2134.62873177
0.33700002 37873.60724569  2112.21117612
0.33800002 37368.07579018  2850.25011588
0.33900002 36870.62046339  2820.60259903
0.34000002 36382.48314720  2791.44615167
0.34100002 35903.40036636  3131.13569424
0.34200002 35433.98014008  1823.07836455
0.34300002 34972.67043086  1804.58987970
0.34400002 34521.04982087  1786.46441284
0.34500002 34077.79598105  1945.50146470
0.34600002 33644.05993013  2976.99478391
0.34700002 33217.89726676  2947.75634306
0.34800002 32801.38558542  2060.58314007
0.34900002 32393.24513265  1870.70999501
0.35000002 31994.09134587  1852.93788806
0.35100002 31604.24234281  2002.44488968
0.35200002 31221.48287911  2149.13087577
0.35300002 30848.56130102  2457.08802400
0.35400002 30483.69980504  1947.90850980
0.35500002 30127.54367738  1930.57309029
0.35600002 29779.47177670  2232.56710484
0.35700002 29439.95298795  1897.11066040
0.35800002 29109.05622620  2351.28412804
0.35900002 28787.00654551  1865.39811250
0.36000002 28472.98968509  1695.99371092
0.36100002 28166.62695195  1835.33749912
0.36200002 27869.98011561  1972.77663593
0.36300002 27580.18414075  1656.46593796
0.36400002 27299.09030864  2391.40042431
0.36500002 27025.23978090  1780.42288110
0.36600002 26760.43656003  1915.11073313
0.36700002 26502.95338680  2340.74095400
0.36800002 26254.29978822  1453.17556211
0.36900002 26013.31012530  1732.48653641
0.37000002 25779.46498373  2151.94094145
0.37100002 25553.36431607  1568.46557602
0.37200002 25335.82636051  2835.07910404
0.37300002 25125.40686417  1409.53539185
0.37400002 24922.51018802  1542.08039093
0.37500002 24727.38411363  2510.32415413
0.37600002 24539.87744755  1804.04917602
0.37700002 24359.54037552  1519.30460519
0.37800002 24186.56863556  1375.00649207
0.37900002 24021.60897038  1369.23177618
0.38000002 23863.00108420  1363.77057657
0.38100002 23710.90310501  1494.49829351
0.38200002 23567.11858586  1895.50343766
0.38300002 23429.44884112  1754.39721234
0.38400002 23299.17077013  1614.63261086
0.38500002 23174.96777117  1878.56297653
0.38600002 23058.56687482  2141.67979280
0.38700002 22947.81018119  1335.56261582
0.38800002 22843.74399624  2132.69204053
0.38900002 22746.14196787  2129.03898906
0.39000002 22655.46852920  1594.49195063
0.39100002 22570.28753720  1459.84626707
0.39200002 22491.95179828  1325.90062133
0.39300002 22419.14622556  1324.97160470
0.39400002 22353.50687888  1456.88987985
0.39500002 22292.44845280  1456.58865092
0.39600002 22237.59340356  1324.24874992
0.39700002 22187.78268163  1854.45496439
0.39800002 22144.84636354  1722.97985295
0.39900002 22106.28796646  1591.65280900
0.40000002 22073.54313773  1726.04078743
0.40100002 22045.68695179  1728.16148203
0.40200002 22023.61993401  2130.12462094
0.40300002 22006.30938449  1867.01537664
0.40400002 21993.88675241  1870.58015692
0.40500002 21986.06857953  1606.74196792
0.40600002 21983.78783200  1342.11031073
0.40700002 21985.57570160  1480.06902636
0.40800002 21991.82542941  1484.11840942
0.40900002 22002.11496952  2029.69520211
0.41000002 22017.42958356  1493.11205796
0.41100002 22036.57768817  1906.60479192
0.41200002 22059.01324205  1503.21152861
0.41300002 22086.68151309  1508.74128565
0.41400002 22117.48347857  1789.85743531
0.41500002 22151.86180685  2073.41436337
0.41600002 22189.03669039  1665.50917290
0.41700002 22231.10965622  1672.66876979
0.41800002 22276.77188062  1960.13325065
0.41900002 22323.92671130  1687.68893934
0.42000002 22374.79063582  1695.56171473
0.42100002 22429.30499184  1703.73008791
0.42200002 22486.40463210  1569.43868567
0.42300002 22545.84341486  1433.91570913
0.42400002 22607.87233393  1873.62750846
0.42500002 22672.89852891  1883.43777005
0.42600002 22739.16711667  1747.73246741
0.42700002 22808.83532620  1610.76002706
0.42800002 22880.02002670  1766.79523018
0.42900002 22954.04969437  1776.64353053
0.43000002 23029.78645864  1786.65091813
0.43100002 23105.77129485  2245.88107629
0.43200002 23184.93995148  2108.20668969
0.43300002 23264.81895097  2120.35569967
0.43400002 23346.66258508  1523.36980587
0.43500002 23429.28043600  1685.50251444
0.43600002 23513.84438379  1849.59908688
0.43700002 23598.78939531  2170.61675144
0.43800002 23684.27130158  2183.45307477
0.43900002 23771.72719785  1725.82747635
0.44000002 23859.15904432  1736.11179013
0.44100002 23947.65348886  1905.27540186
0.44200002 24036.46964283  1916.66818015
0.44300002 24125.92082439  1606.78640305
0.44400002 24215.46404628  2262.93522237
0.44500002 24304.72908208  2276.38103371
0.44600002 24394.06688502  1635.62226215
0.44700002 24484.44814688  1645.35499345
0.44800002 24573.52232797  1820.52948795
0.44900002 24663.09306766  2164.18651925
0.45000002 24752.68480131  1841.97112678
0.45100002 24840.88002828  1852.63292031
0.45200002 24929.13511967  1863.32829283
0.45300002 25016.40566333  2044.34076769
0.45400002 25103.30345315  1884.63059606
0.45500002 25189.57836479  2412.15413853
0.45600002 25274.58291125  1905.83001475
0.45700002 25358.99958999  2787.46136704
0.45800002 25441.94732348  2452.34941874
0.45900002 25523.80427535  1937.25683631
0.46000002 25604.97973897  2478.81820601
0.46100002 25683.99748386  1957.89122099
0.46200002 25762.33684132  1968.11381627
0.46300002 25839.07294367  2158.07947454
0.46400002 25913.80201231  2168.98533123
0.46500002 25988.11659665  3088.16804154
0.46600002 26059.59237954  2008.02198598
0.46700002 26129.45590252  3118.28941520
0.46800002 26198.27935718  2580.26865618
0.46900002 26264.41698496  2221.96978224
0.47000002 26328.93781243  2232.16745354
0.47100002 26391.59398636  2615.93491992
0.47200002 26452.37383783  2252.15521530
0.47300002 26510.91353593  2073.41864592
0.47400002 26566.76979919  2460.74716928
0.47500002 26620.88587913  2280.87761023
0.47600002 26673.51914385  2290.18846224
0.47700002 26722.59973931  2107.61154134
