# SAXS profile: number of points = 501, q_min = 0, q_max = 0.5, delta_q = 0.001
#    q    intensity    error
0.00000000 1664650.74656090 274.66737318
0.00100000 1664569.38300726 749.05624014
0.00200000 1664325.23299680 823.84101642
0.00300000 1663918.51670955 998.35114559
0.00400000 1663349.11166565 1372.26306927
0.00500000 1662617.52596162 1496.35583259
0.00600000 1661723.64511265 2093.77187808
0.00700000 1660668.03000878 2192.08189072
0.00800000 1659450.52214661 2912.33578933
0.00900000 1658072.34496095 3233.24121089
0.01000000 1656532.88184634 4099.91905960
0.01100000 1654833.40448090 3872.31033508
0.01200000 1652973.76694763 4190.28868293
0.01300000 1650955.20420962 4853.80851445
0.01400000 1648777.76396000 4822.67517338
0.01500000 1646442.75354613 6717.48673359
0.01600000 1643949.69081826 4192.07189899
0.01700000 1641300.67057838 4874.66321029
0.01800000 1638495.78229687 6070.62714657
0.01900000 1635535.62816098 5397.26781647
0.02000000 1632421.35008513 6684.76573099
0.02100000 1629155.03364767 7526.69659670
0.02200000 1625735.15280472 10656.69441079
0.02300000 1622165.03456184 7007.75326829
0.02400000 1618444.01174062 6676.08185284
0.02500000 1614574.77538368 6296.84191158
0.02600000 1610557.24215796 7175.03284199
0.02700000 1606393.62193645 7421.53887326
0.02800000 1602083.71220524 6969.06446769
0.02900000 1597629.94477896 10065.06911424
0.03000000 1593033.79965975 8148.36825980
0.03100000 1588295.50240523 7623.81876234
0.03200000 1583416.53499415 12540.65953475
0.03300000 1578400.75955014 8854.82866929
0.03400000 1573246.20978577 9085.49728072
0.03500000 1567956.20918308 9313.66031263
0.03600000 1562531.71509573 13875.28227128
0.03700000 1556974.94473878 11537.18487408
0.03800000 1551287.12410450 11797.53912480
0.03900000 1545470.31935762 11127.38681468
0.04000000 1539524.53860185 11361.69162137
0.04100000 1533453.60404556 10626.83396877
0.04200000 1527258.33459646 13791.14340122
0.04300000 1520939.76349391 13049.66377652
0.04400000 1514501.27076245 12267.46086290
0.04500000 1507944.29745283 11445.29774947
0.04600000 1501268.80315990 11642.34010972
0.04700000 1494478.99929141 12912.29915440
0.04800000 1487575.28174472 15307.15036137
0.04900000 1480561.51113808 13325.05422049
0.05000000 1473437.16067879 12398.97428448
0.05100000 1466206.89146906 16010.98000070
0.05200000 1458868.81072476 13917.60910289
0.05300000 1451429.10032260 11756.57626068
0.05400000 1443887.67846422 15485.69607369
0.05500000 1436247.09670431 13270.92379263
0.05600000 1428508.31764109 17099.24536009
0.05700000 1420676.61429712 12359.88712133
0.05800000 1412750.75260779 12502.84474437
0.05900000 1404733.38425898 17699.64146834
0.06000000 1396628.21823581 20446.63807021
0.06100000 1388436.62451455 18077.44569596
0.06200000 1380160.92006146 19563.78195635
0.06300000 1371804.12623080 14486.25225031
0.06400000 1363364.95748105 17280.65164423
0.06500000 1354849.62520204 14754.31310862
0.06600000 1346259.00274993 20294.85541602
0.06700000 1337594.52905975 13643.46483491
0.06800000 1328859.49654955 16504.43571970
0.06900000 1320056.70011785 18018.77480023
0.07000000 1311186.32964087 19549.78909043
0.07100000 1302252.08271173 15470.75546723
0.07200000 1293255.95894318 15577.26875522
0.07300000 1284200.65909051 17105.55358058
0.07400000 1275088.63491375 20082.64694105
0.07500000 1265921.41096772 15874.65523762
0.07600000 1256700.09853350 14514.88681853
0.07700000 1247429.99130299 18973.41105735
0.07800000 1238111.27073671 14671.61924627
0.07900000 1228745.90559888 23591.92249405
0.08000000 1219338.44925247 17777.95542408
0.08100000 1209889.46187081 14881.64107923
0.08200000 1200400.66063645 22417.48338933
0.08300000 1190875.74720050 19506.54565463
0.08400000 1181315.93693970 24098.84624474
0.08500000 1171724.04562138 16626.76498791
0.08600000 1162101.85078629 16681.97285128
0.08700000 1152452.98324099 19776.09412106
0.08800000 1142776.98651128 19832.89553233
0.08900000 1133079.43155506 21415.20226226
0.09000000 1123359.77766673 19934.02019111
0.09100000 1113621.12255581 21515.16109859
0.09200000 1103865.10377116 23098.37838173
0.09300000 1094097.23485967 16969.44891010
0.09400000 1084313.44938411 18541.76085588
0.09500000 1074520.29206836 18567.71151967
0.09600000 1064718.41358131 17040.81901042
0.09700000 1054912.26897673 20159.37440789
0.09800000 1045101.92755453 20175.69366005
0.09900000 1035289.98224363 17082.28551027
0.10000000 1025477.08830898 15535.97861849
0.10100000 1015665.92361866 17093.65829845
0.10200000 1005859.32018446 15540.52722782
0.10300000 996058.40845746 20200.06547374
0.10400000 986266.43504231 24853.91533232
0.10500000 976485.64285243 21736.57143259
0.10600001 966713.53624126 26376.78007746
0.10700001 956957.77203803 21703.80329115
0.10800001 947216.48723440 21681.78641318
0.10900001 937494.11079673 18562.38426743
0.11000001 927789.95134629 15447.70341703
0.11100001 918107.05408413 21593.87892856
0.11200001 908447.27177687 18477.81837782
0.11300001 898811.76376058 18443.61826071
0.11400001 889203.14684434 19940.38150687
0.11500001 879623.10286403 19897.07552370
0.11600001 870072.21690353 21377.67537603
0.11700001 860553.80593286 24370.88493176
0.11800001 851066.70490006 19749.00381735
0.11900001 841614.03573836 21208.67469957
0.12000001 832196.79553112 16614.80980542
0.12100001 822819.39929595 15057.59571645
0.12200001 813479.87286181 15008.70436138
0.12300001 804181.97057069 19445.12096454
0.12400001 794924.70847601 19376.29068206
0.12500001 785710.22041645 14849.92386561
0.12600001 776542.27946308 17751.75734505
0.12700001 767419.71085463 29468.91828558
0.12800001 758344.02784455 22010.93644555
0.12900001 749317.45336697 21917.53654400
0.13000001 740341.02846104 18912.01246345
0.13100001 731414.85146235 24619.42506072
0.13200001 722541.13714948 21622.04454847
0.13300001 713721.07479967 22953.27084764
0.13400001 704954.70143037 17130.40005238
0.13500001 696244.73013018 14203.39316432
0.13600001 687591.14905713 18368.99841317
0.13700001 678995.41291357 15460.72628107
0.13800001 670456.73288097 15376.92589374
0.13900001 661978.97211824 20852.33860508
0.14000001 653560.75449120 15205.09167032
0.14100001 645204.77719681 20614.29360367
0.14200001 636910.42490455 16394.07511027
0.14300001 628679.99503711 14937.43738664
0.14400001 620510.41603635 16195.32262248
0.14500001 612407.75279592 18776.42258645
0.14600001 604369.81170662 22654.80346055
0.14700001 596398.82633138 18536.07639685
0.14800001 588492.04273972 17098.63710849
0.14900001 580653.54604804 13064.70540248
0.15000001 572882.13035171 14273.35895117
0.15100001 565179.19913735 18040.52088771
0.15200001 557546.13858443 16634.38982959
0.15300001 549982.20614780 13975.04851768
0.15400001 542486.15046248 18919.20539020
0.15500001 535062.12117727 18780.68133964
0.15600001 527706.51155757 14912.98672043
0.15700001 520425.20114489 12334.07784926
0.15800001 513211.62042318 17136.13681473
0.15900001 506071.89721661 17004.01654908
0.16000001 499001.70070477 20486.51578945
0.16100001 492006.12436415 15542.47420233
0.16200001 485082.18066701 13046.28586490
0.16300001 478230.30719843 14117.35933495
0.16400001 471451.62442568 14002.11390648
0.16500001 464744.84169323 16201.00594630
0.16600001 458111.91754343 22951.40815253
0.16700001 451551.00739428 12516.99451596
0.16800001 445063.55249897 15795.30622399
0.16900001 438650.02434053 15659.80660838
0.17000001 432308.36300251 11088.71003462
0.17100001 426040.41119606 14289.39606628
0.17200001 419845.16208057 13073.97896458
0.17300001 413722.88414843 11877.98456483
0.17400001 407674.53382360 16052.18552739
0.17500001 401697.69274306 13786.26546603
0.17600001 395792.13501400 16813.25068947
0.17700001 389962.09995325 11453.18741657
0.17800001 384202.30052972 13410.58193340
0.17900001 378514.39271066 11241.87799450
0.18000001 372899.52060862 12149.06695529
0.18100001 367356.78740343 12034.60892381
0.18200001 361882.95542547 11920.42511481
0.18300001 356481.16714729 11806.65681366
0.18400001 351150.10441889 9744.41585796
0.18500001 345889.64100895 11580.38572806
0.18600001 340699.52274326 9556.62206444
0.18700001 335578.19517444 10409.63610611
0.18800001 330524.78520182 11244.45372382
0.18900001 325543.83752839 12989.19973109
0.19000001 320627.18984690 10104.56636545
0.19100001 315781.30154093 13641.75287114
0.19200001 311001.39404899 13505.23617472
0.19300001 306290.43089834 16934.79872458
0.19400001 301644.36116184 12352.33717327
0.19500001 297065.08285476 9607.08523351
0.19600001 292550.49283687 12102.81446060
0.19700001 288102.65841746 8556.64935936
0.19800001 283718.30327401 11856.58845415
0.19900001 279398.53892996 12572.93484604
0.20000001 275140.60980152 10784.13671084
0.20100001 270947.33912184 9851.64571608
0.20200001 266815.18559419 12186.78417800
0.20300001 262745.24874470 8844.00549076
0.20400001 258736.70767844 11138.61579203
0.20500001 254788.14558695 13384.02192030
0.20600001 250899.34797813 8569.46763525
0.20700001 247070.16766971 10021.16647438
0.20800001 243299.15360452 8390.17170866
0.20900001 239588.45024397 14339.36942494
0.21000001 235932.29160959 8960.70885893
0.21100001 232334.51903423 9604.70947092
0.21200001 228791.55410370 8771.86859902
0.21300001 225304.13483031 7955.48937696
0.21400001 221871.92835666 10733.05504168
0.21500001 218494.95627682 10618.85537709
0.21600001 215169.81374105 8404.53332208
0.21700001 211898.06337454 7621.97369995
0.21800001 208678.46702813 6855.08796599
0.21900001 205509.50131691 10172.72079617
0.22000001 202390.77037484 6709.25435516
0.22100001 199323.81505790 7301.23169080
0.22200001 196305.48345887 7223.06060541
0.22300001 193335.59531063 8444.89920249
0.22400001 190412.91185439 8354.36690266
0.22500001 187539.92254638 9536.40551243
0.22600001 184711.58296115 7547.31563669
0.22700001 181930.16697201 6844.21320514
0.22800001 179193.26079753 6155.28879948
0.22900001 176500.67704359 6089.27364597
0.23000001 173852.58919923 7831.19025083
0.23100001 171248.83810775 8343.24378718
0.23200001 168685.76259300 7664.23798588
0.23300001 166165.81249874 6998.90435346
0.23400001 163686.18989204 7500.92000656
0.23500001 161246.93052657 7420.58409380
0.23600001 158847.97415136 7905.86404744
0.23700001 156488.45283624 9497.28465183
0.23800001 154167.15152439 9395.71749406
0.23900001 151883.87293399 5467.81968425
0.24000001 149637.40656192 8114.08875462
0.24100001 147428.63622487 5351.65974810
0.24200001 145255.95683220 6882.95384007
0.24300001 143118.08091457 7857.18301388
0.24400001 141015.08617466 6736.99606068
0.24500001 138945.70105120 6152.51593359
0.24600001 136910.23530943 6087.02934981
0.24700001 134908.24328598 7527.88033147
0.24800001 132938.30231964 7944.39332244
0.24900001 130999.11170691 6386.20699783
0.25000001 129092.23769959 5832.38757519
0.25100001 127215.35988935 7213.11124697
0.25200001 125370.24532901 6660.92144946
0.25300001 123552.98160858 8944.00076179
0.25400001 121765.56988371 7917.80655629
0.25500001 120005.28315428 5529.84370938
0.25600001 118274.18690501 5471.36414509
0.25700001 116569.53534624 6315.73772388
0.25800001 114891.76417065 5802.60882398
0.25900001 113241.14386316 6624.60722944
0.26000001 111615.48175767 5680.67021284
0.26100001 110014.81661988 4323.58249774
0.26200001 108440.32218817 6844.75346039
0.26300001 106888.73283129 5079.35282449
0.26400001 105361.92514053 4606.95039476
0.26500001 103858.35123614 4143.94841041
0.26600001 102377.56646604 6150.33259648
0.26700001 100919.49338785 4462.66020878
0.26800001 99483.89925721  5619.84573498
0.26900001 98069.01351297  4368.97475875
0.27000001 96676.15630315  5108.85172160
0.27100001 95303.80846461  5443.75379711
0.27200001 93952.69847460  5386.30845845
0.27300001 92621.28258650  4187.40838390
0.27400001 91308.39681043  4143.11870135
0.27500001 90016.67433142  5962.70478990
0.27600001 88741.59842413  5530.82038354
0.27700001 87487.26298775  6201.97236672
0.27800001 86249.98465171  4331.47443421
0.27900001 85031.18646061  3928.44100040
0.28000001 83829.29771975  4593.42658595
0.28100001 82645.11039164  5943.01016954
0.28200001 81478.07126751  4496.36757571
0.28300001 80327.74295602  4106.35441427
0.28400001 79192.96775095  3385.49953159
0.28500001 78074.93907323  4019.29805373
0.28600001 76972.39189886  3313.66162809
0.28700001 75885.91452988  4917.40749429
0.28800001 74813.22951902  3891.78438379
0.28900001 73757.39353434  4170.98080179
0.29000001 72715.32692922  3491.42658777
0.29100001 71688.34436293  4395.92948442
0.29200001 70675.20317163  3416.79285907
0.29300001 69676.40037770  4609.09410316
0.29400001 68690.61702162  3951.42793122
0.29500001 67719.92796358  3307.44143831
0.29600001 66761.25174223  2974.21390591
0.29700001 65816.18882222  2941.98377962
0.29800001 64884.53166675  4074.09993622
0.29900001 63966.02520592  2878.47127053
0.30000001 63059.14484987  3131.83257723
0.30100001 62165.81291032  4505.77833304
0.30200001 61283.89110052  3342.42357886
0.30300001 60414.86269518  4132.37680398
0.30400001 59557.56526575  3269.71048788
0.30500001 58712.68307355  3503.38596486
0.30600001 57878.26505306  3464.88250144
0.30700001 57056.34553865  3426.80427529
0.30800001 56245.59764088  3910.47536112
0.30900001 55446.40460775  3093.90952359
0.31000001 54658.42239950  3059.77863079
0.31100001 53880.95776411  3025.95473130
0.31200001 53115.49359662  2992.52705092
0.31300001 52359.96730425  2712.77003447
0.31400001 51616.65609475  3170.55325074
0.31500001 50882.53559581  2894.19876172
0.31600002 50160.34694230  3577.68691505
0.31700002 49447.74982390  2594.52355611
0.31800002 48745.53449756  2798.96872338
0.31900002 48054.14574689  3229.23874709
0.32000002 47373.27891754  2509.12583667
0.32100002 46702.01454798  2932.41963232
0.32200002 46041.94518075  2453.80558460
0.32300002 45390.09601542  2426.55464788
0.32400002 44749.58804762  2617.85102474
0.32500002 44118.57874804  2804.61818382
0.32600002 43497.61464053  3840.40457846
0.32700002 42886.64498182  2532.02763963
0.32800002 42286.05469020  2086.81689778
0.32900002 41693.37235102  2063.82202910
0.33000002 41111.69272704  2449.43476867
0.33100002 40538.52918812  2422.58261900
0.33200002 39976.39107146  2595.86707715
0.33300002 39422.88938975  2172.59553715
0.33400002 38879.55178695  2149.06732679
0.33500002 38345.28318643  2319.12283694
0.33600002 37819.98493055  2485.34042741
0.33700002 37303.90896323  1891.30827400
0.33800002 36798.13290389  2058.30366146
0.33900002 36300.64301274  1851.33288132
0.34000002 35812.59651768  2198.17727836
0.34100002 35333.72145619  1812.61999655
0.34200002 34864.85380723  1973.17649467
0.34300002 34404.11568006  2485.35343443
0.34400002 33953.42474866  2108.50777675
0.34500002 33511.00612714  2260.98769048
0.34600002 33078.59392355  1893.91498479
0.34700002 32653.72600094  1874.97703577
0.34800002 32238.78128147  1687.70028002
0.34900002 31832.21126229  2005.42940450
0.35000002 31434.87642780  1986.05558677
0.35100002 31046.99791163  1803.20972411
0.35200002 30666.34929441  1623.78327205
0.35300002 30295.75074117  2091.31577271
0.35400002 29933.12708801  2231.51473010
0.35500002 29579.69492389  1579.55578375
0.35600002 29234.37046319  2504.80097992
0.35700002 28897.60209907  1551.80130622
0.35800002 28569.65151003  1538.47580669
0.35900002 28250.60149905  1830.63906385
0.36000002 27939.80792164  1966.82287180
0.36100002 27636.79979316  2251.01744978
0.36200002 27343.62572677  1488.86049134
0.36300002 27057.25944293  2215.98965334
0.36400002 26779.85275045  1759.43640904
0.36500002 26509.73800227  1746.46162232
0.36600002 26248.80244368  1733.99597157
0.36700002 25995.24414969  1721.92505404
0.36800002 25750.72847476  2280.48462175
0.36900002 25513.85559814  1557.62095805
0.37000002 25284.32428300  1829.19452690
0.37100002 25062.51393566  2657.12785333
0.37200002 24849.28926190  1529.34958007
0.37300002 24643.42086794  1658.99517142
0.37400002 24445.15556490  1925.05609193
0.37500002 24254.63711504  1641.55391771
0.37600002 24071.77330183  2041.88826705
0.37700002 23896.19788784  1896.88027819
0.37800002 23728.00986856  2158.29987989
0.37900002 23567.88115971  1746.38007666
0.38000002 23414.27440676  1739.56359946
0.38100002 23267.20293554  1866.49510791
0.38200002 23128.43112329  1328.72843098
0.38300002 22995.75632423  1854.37787784
0.38400002 22870.46858692  1717.00051050
0.38500002 22751.46416889  1712.50278912
0.38600002 22640.24338898  1577.11942919
0.38700002 22534.66789304  1442.66950686
0.38800002 22435.78440420  1832.77931481
0.38900002 22343.41285750  1568.50765691
0.39000002 22258.03163600  1435.97697903
0.39100002 22178.08254287  1564.88557836
0.39200002 22105.05662857  1433.40246499
0.39300002 22037.41911561  1562.89383772
0.39400002 21977.11404451  1823.00169636
0.39500002 21921.39659085  1822.98342686
0.39600002 21871.77571159  1302.46430533
0.39700002 21827.24012753  1303.08629735
0.39800002 21789.52626805  1825.74449250
0.39900002 21756.25594432  1305.37541851
0.40000002 21728.72675756  1568.37957167
0.40100002 21706.15645705  1308.88129637
0.40200002 21689.27263975  1442.22825251
0.40300002 21677.08718712  1707.72100951
0.40400002 21669.93347008  1711.38307689
0.40500002 21667.03947135  1319.52276632
0.40600002 21669.96754125  1719.83705540
0.40700002 21676.72300158  1459.27706161
0.40800002 21688.05209612  1729.73067688
0.40900002 21703.34734381  2002.13388733
0.41000002 21723.57986897  1607.11051485
0.41100002 21747.59443413  1344.00139971
0.41200002 21774.83834994  1483.84642966
0.41300002 21807.39029521  1760.51070195
0.41400002 21842.87818389  1903.60692392
0.41500002 21881.95813414  1501.97767750
0.41600002 21923.80409295  1508.46741209
0.41700002 21970.38659372  1790.80629611
0.41800002 22020.61743777  1522.39545870
0.41900002 22072.16800078  1529.60131493
0.42000002 22127.48336294  1956.29089682
0.42100002 22186.28605373  2387.46635537
0.42200002 22247.64562418  1693.93581809
0.42300002 22311.25020449  1560.89513827
0.42400002 22377.35144837  1569.21184468
0.42500002 22446.45923918  1721.19457602
0.42600002 22516.67476406  1442.19308698
0.42700002 22590.27052037  1885.38406697
0.42800002 22665.25883944  1896.06231806
0.42900002 22742.91461027  1906.99348044
0.43000002 22822.35744804  1918.10512261
0.43100002 22901.95907028  1632.45171989
0.43200002 22984.54077304  1940.69979214
0.43300002 23067.81127895  2102.40041959
0.43400002 23153.10628284  1661.81428220
0.43500002 23238.88808231  2127.75269365
0.43600002 23326.63183723  1681.96686833
0.43700002 23414.65314871  1846.01134172
0.43800002 23503.10716893  1702.44764846
0.43900002 23593.44052995  2335.75072316
0.44000002 23683.64544729  1566.67322058
0.44100002 23774.86140773  2049.15540184
0.44200002 23866.37315936  2061.69674308
0.44300002 23958.29420074  2233.87145714
0.44400002 24050.33949630  1926.43228495
0.44500002 24141.86319343  2099.61794144
0.44600002 24233.50935221  1949.82825488
0.44700002 24326.03805590  1798.18081831
0.44800002 24417.26817343  3124.55586989
0.44900002 24508.79408781  1819.77804726
0.45000002 24600.28536789  2163.47219921
0.45100002 24690.24334762  2008.79829396
0.45200002 24780.21288057  2188.96020855
0.45300002 24869.08059086  2032.30136220
0.45400002 24957.47402803  1873.68245145
0.45500002 25045.31655204  1884.40970668
0.45600002 25131.59031084  1722.77059746
0.45700002 25217.32816848  2425.40273819
0.45800002 25301.41824269  1742.00272857
0.45900002 25384.43271723  1926.67853455
0.46000002 25466.59529742  2465.42120759
0.46100002 25546.50621675  1947.41026120
0.46200002 25625.69450407  2135.64548119
0.46300002 25703.19379970  2504.51932254
0.46400002 25778.53829956  1798.05313161
0.46500002 25853.45061364  2349.30316861
0.46600002 25925.47770232  2542.51171877
0.46700002 25995.75051846  2372.37230476
0.46800002 26064.90314217  2933.86563674
0.46900002 26131.29461833  1842.25635791
0.47000002 26195.99462684  2776.12066216
0.47100002 26258.73340880  2230.94209615
0.47200002 26319.60534420  2614.32652275
0.47300002 26378.11270593  2625.67746320
0.47400002 26433.81874359  2071.75064222
0.47500002 26487.78422784  3025.96461361
0.47600002 26540.17791068  2088.84480147
0.47700002 26588.89760559  2859.63607302
