# SAXS profile: number of points = 501, q_min = 0, q_max = 0.5, delta_q = 0.001
#    q    intensity    error
0.00000000 1682732.95097188 277.65093691
0.00100000 1682651.14329784 605.75442597
0.00200000 1682405.66632436 908.49908858
0.00300000 1681996.73663994 1311.95750132
0.00400000 1681424.22427362 1513.28185935
0.00500000 1680688.65058739 1815.14381448
0.00600000 1679789.89846858 3174.80303736
0.00700000 1678728.53738827 2618.81662716
0.00800000 1677504.38412272 2491.09411560
0.00900000 1676118.69432809 2765.59596386
0.01000000 1674570.81591634 3039.34616213
0.01100000 1672862.05349242 3914.49737561
0.01200000 1670992.27538684 3584.27858785
0.01300000 1668962.69002129 3504.82180362
0.01400000 1666773.31905548 4875.31217436
0.01500000 1664425.50325115 5193.00780138
0.01600000 1661918.74372613 5933.05018033
0.01700000 1659255.22125167 5375.98715802
0.01800000 1656434.91670237 6609.17561504
0.01900000 1653458.51166011 6944.52606233
0.02000000 1650327.09491908 7277.94281782
0.02100000 1647042.78257240 7609.33800048
0.02200000 1643604.07480120 7371.56461039
0.02300000 1640014.16617748 8265.67177377
0.02400000 1636272.59879451 7976.82928285
0.02500000 1632381.94883127 7002.91888031
0.02600000 1628342.14824225 7913.74320242
0.02700000 1624155.39767728 9550.03417574
0.02800000 1619821.51952834 7750.84632639
0.02900000 1615342.97077107 7269.04370222
0.03000000 1610721.20195226 8987.82472002
0.03100000 1605956.40009831 9250.30929020
0.03200000 1601050.20641371 9510.23866412
0.03300000 1596006.30935857 8139.63255297
0.03400000 1590822.71189849 9187.00158511
0.03500000 1585502.92144043 12842.57425671
0.03600000 1580047.90827200 9646.19292579
0.03700000 1574459.75855881 12564.18945436
0.03800000 1568739.71731643 14683.40443362
0.03900000 1562889.92980995 10315.07401444
0.04000000 1556910.30991454 17234.99792941
0.04100000 1550804.79813974 10747.07774941
0.04200000 1544574.14854975 10958.75409237
0.04300000 1538219.43952506 11167.47364932
0.04400000 1531743.98550654 13441.05409705
0.04500000 1525149.25704822 15785.29554391
0.04600000 1518435.31040344 10704.96943598
0.04700000 1511606.27227001 11971.92223317
0.04800000 1504662.49451485 13271.12381910
0.04900000 1497607.98584673 15724.88458334
0.05000000 1490442.19729375 14822.44834231
0.05100000 1483169.64895265 15039.34094097
0.05200000 1475788.53266892 12905.77131962
0.05300000 1468305.09792716 11893.27184765
0.05400000 1460719.19533851 13256.02731588
0.05500000 1453033.47626543 17087.67447801
0.05600000 1445248.84656214 13592.56603620
0.05700000 1437370.52905756 16256.66144248
0.05800000 1429397.24379850 12650.16619828
0.05900000 1421331.97690695 19187.98258443
0.06000000 1413178.14221423 16809.75478697
0.06100000 1404937.22149524 15679.10012459
0.06200000 1396611.51372267 22436.56501672
0.06300000 1388203.85423524 17324.78491088
0.06400000 1379713.32950963 22868.74950612
0.06500000 1371146.04525771 13574.34648303
0.06600000 1362502.64139798 16431.78262408
0.06700000 1353784.97068303 17951.18955135
0.06800000 1344995.96051482 16704.85061153
0.06900000 1336138.42907179 19641.23582694
0.07000000 1327212.98625601 15548.30086209
0.07100000 1318222.75591997 17084.16771691
0.07200000 1309170.18516298 22936.66271856
0.07300000 1300058.02700380 15873.70925349
0.07400000 1290888.26437420 20331.49111671
0.07500000 1281662.77590517 16072.05196319
0.07600000 1272382.56689943 16165.62127031
0.07700000 1263053.12387460 17733.26669069
0.07800000 1253674.47815445 20798.46056795
0.07900000 1244248.63412486 16424.08274080
0.08000000 1234780.11364474 24004.12653531
0.08100000 1225269.48424834 19592.05997236
0.08200000 1215718.65082045 16649.26770426
0.08300000 1206131.03104790 16716.97687489
0.08400000 1196508.05608958 18306.57411746
0.08500000 1186852.39219249 21434.55520924
0.08600000 1177166.00747358 18434.42054256
0.08700000 1167452.49554674 15410.37366485
0.08800000 1157711.44860024 17000.99342113
0.08900000 1147948.07942769 15497.29980018
0.09000000 1138162.40971344 17089.50938464
0.09100000 1128357.12531246 15571.32906087
0.09200000 1118534.16401934 23405.32848184
0.09300000 1108698.62580463 15632.65135846
0.09400000 1098846.97469868 21921.99817552
0.09500000 1088985.45984601 20385.80876651
0.09600000 1079114.75363858 17271.23244387
0.09700000 1069239.55616456 15717.82221456
0.09800000 1059359.59658794 18877.78889879
0.09900000 1049477.69325775 23613.24920865
0.10000000 1039594.37368722 26774.75435346
0.10100000 1029712.46707652 20480.98193341
0.10200000 1019834.67107945 17332.09105023
0.10300000 1009962.25729647 17330.95315047
0.10400000 1000098.45101854 17326.70647903
0.10500000 990245.42057901 15744.90292799
0.10600001 980400.81387415 18882.52056371
0.10700001 970572.18217801 18867.92410942
0.10800001 960757.83416219 17279.23046060
0.10900001 950961.79460782 15690.87034953
0.11000001 941183.85151583 18804.85423842
0.11100001 931427.07735930 18777.57076349
0.11200001 921692.73459069 17184.96184546
0.11300001 911982.72560384 17154.39587625
0.11400001 902299.05905657 21790.52330221
0.11500001 892643.92138200 20191.60645244
0.11600001 883017.62600952 24795.13610599
0.11700001 873423.59350901 17005.55816650
0.11800001 863860.55981191 16961.90289078
0.11900001 854331.71929942 18453.56600606
0.12000001 844838.06330784 19933.95504274
0.12100001 835384.19282564 16816.28459376
0.12200001 825967.89910142 36573.86029525
0.12300001 816593.23483689 19745.22534864
0.12400001 807258.67174046 15136.10080831
0.12500001 797966.94860230 19606.04885101
0.12600001 788721.59198581 19532.69114598
0.12700001 779521.44145767 20953.53733385
0.12800001 770367.94459337 16397.28247346
0.12900001 761263.36733208 14844.63636263
0.13000001 752208.91642906 16258.99649498
0.13100001 743204.39344736 14715.44768391
0.13200001 734252.72284635 17578.01101357
0.13300001 725354.16079962 14579.61931940
0.13400001 716509.26781671 14509.31335734
0.13500001 707720.80488946 20212.50714063
0.13600001 698988.53617732 22982.74415316
0.13700001 690314.11744609 20005.30406690
0.13800001 681696.50927083 17056.04746625
0.13900001 673140.16889141 21203.91632002
0.14000001 664642.86135101 19680.07605273
0.14100001 656208.05590477 13977.23224998
0.14200001 647834.70096932 13896.05499120
0.14300001 639525.35860716 15195.12323722
0.14400001 631276.67041755 16476.32187508
0.14500001 623095.08727932 17739.51797165
0.14600001 614977.98412794 18984.37126560
0.14700001 606928.12513806 13473.80501371
0.14800001 598942.50871436 17402.27541171
0.14900001 591025.01707029 13298.06351149
0.15000001 583174.64457980 15850.68758756
0.15100001 575393.11978703 14430.86012518
0.15200001 567681.06660026 23450.90596783
0.15300001 560038.52582426 15524.26866842
0.15400001 552463.62613885 15413.73589666
0.15500001 544960.99612302 17852.92307552
0.15600001 537526.84571887 13924.63359552
0.15700001 530167.02922778 22616.92653430
0.15800001 522875.05003809 14964.68463840
0.15900001 515657.03340942 13613.34632457
0.16000001 508508.83114974 15964.63550752
0.16100001 501435.04990977 13403.35951678
0.16200001 494433.11182990 13297.77917040
0.16300001 487503.49461424 11992.58653365
0.16400001 480647.26398930 14275.22441441
0.16500001 473862.96651623 17698.78263496
0.16600001 467152.87847179 15212.83420568
0.16700001 460514.61149432 12765.46563334
0.16800001 453950.01970047 11507.63354276
0.16900001 447459.82246009 12551.24861265
0.17000001 441041.53552934 14706.53069666
0.17100001 434697.08415322 19065.81501127
0.17200001 428425.44153896 12229.40480624
0.17300001 422227.29000360 12122.14606847
0.17400001 416102.90940708 13107.24226533
0.17500001 410050.36302258 11907.86310456
0.17600001 404069.38786280 11800.84702988
0.17700001 398164.15129410 11694.08167583
0.17800001 392329.43693531 14747.66423096
0.17900001 386566.59599759 18787.13745287
0.18000001 380877.35922823 15511.23118724
0.18100001 375260.31534903 12293.52851154
0.18200001 369712.46654761 11163.46845474
0.18300001 364237.02404234 12063.53080616
0.18400001 358832.27098238 12944.87478721
0.18500001 353498.61283188 11835.13411673
0.18600001 348235.59168874 12698.41145085
0.18700001 343041.52724339 11608.52583036
0.18800001 337915.67424505 13411.87374445
0.18900001 332862.65194635 12332.56183729
0.19000001 327874.19175757 11272.31524523
0.19100001 322956.85492956 10231.27364760
0.19200001 318105.66405014 10130.07535034
0.19300001 313323.89459245 18235.45152695
0.19400001 308607.30124302 12637.46958307
0.19500001 303957.88756682 10723.63478010
0.19600001 299373.29365302 11500.42561915
0.19700001 294856.00862513 13135.83580502
0.19800001 290402.33987182 9535.36128032
0.19900001 286013.68778109 12870.61655841
0.20000001 281687.23776732 8492.87062007
0.20100001 277425.77709492 9246.60158759
0.20200001 273225.72145560 11647.61305616
0.20300001 269088.39291121 12351.15781840
0.20400001 265012.63140961 8964.05268112
0.20500001 260997.29045329 10484.26165307
0.20600001 257042.16673577 8779.27561984
0.20700001 253146.84401237 10267.63647848
0.20800001 249310.29160235 10160.64141455
0.20900001 245534.30047467 9281.19699668
0.21000001 241813.31211486 7653.39169023
0.21100001 238150.96493022 9845.16135563
0.21200001 234544.02508319 10491.15473793
0.21300001 230992.81858930 10380.81775816
0.21400001 227497.44780875 11738.86886190
0.21500001 224057.38525132 7259.45962535
0.21600001 220669.77821223 7901.08178244
0.21700001 217336.04350817 10660.33343809
0.21800001 214054.78558691 7734.87004289
0.21900001 210824.39458101 6957.20535012
0.22000001 207644.92780153 7571.77265030
0.22100001 204517.45073030 8853.56086074
0.22200001 201439.18642914 7411.95521513
0.22300001 198409.65936244 9999.84730471
0.22400001 195427.74459178 7255.25536104
0.22500001 192496.03614969 8483.30071427
0.22600001 189609.36394754 6456.19914772
0.22700001 186770.11749813 7665.04598460
0.22800001 183975.59556572 8847.38680915
0.22900001 181226.18594027 7502.76445274
0.23000001 178521.49519404 8660.07814141
0.23100001 175861.53752307 7343.97815428
0.23200001 173242.83064506 7265.80466088
0.23300001 170667.67127013 7188.52265388
0.23400001 168133.05625649 6519.35956468
0.23500001 165639.47173949 7622.72884998
0.23600001 163186.66340215 6381.41477416
0.23700001 160773.47132880 6887.53583749
0.23800001 158399.13659489 7950.05304172
0.23900001 156063.31415182 5618.27957521
0.24000001 153764.75643358 7226.17507040
0.24100001 151504.28240058 7699.44799579
0.24200001 149280.34792547 6529.52272712
0.24300001 147091.72305127 5921.91305017
0.24400001 144938.22931644 5859.12819727
0.24500001 142818.99672463 5270.02122843
0.24600001 140734.02456775 6778.45461396
0.24700001 138683.16699976 6190.81686773
0.24800001 136664.75079700 5104.42868374
0.24900001 134677.30587106 7070.55889272
0.25000001 132722.87011443 7495.52444431
0.25100001 130798.79079323 4944.19452589
0.25200001 128907.02695685 5870.42628534
0.25300001 127043.42714719 4840.35480331
0.25400001 125210.25682097 6705.00956998
0.25500001 123404.50571106 5686.47989220
0.25600001 121628.56836999 5626.53783900
0.25700001 119879.44113367 6959.00188706
0.25800001 118157.61046523 6885.63507565
0.25900001 116463.59242826 4542.08031961
0.26000001 114794.77082846 6741.32323587
0.26100001 113151.52955367 5336.22638624
0.26200001 111534.66368625 4400.04269062
0.26300001 109941.39944764 7401.25536102
0.26400001 108373.21384889 4738.61899977
0.26500001 106828.85311757 6393.70716163
0.26600001 105307.59716437 5061.08335921
0.26700001 103809.64918729 5425.09252324
0.26800001 102334.48235540 4542.11621428
0.26900001 100880.47860611 5719.92340764
0.27000001 99448.97661311  5659.64152688
0.27100001 98038.46973401  4399.96672988
0.27200001 96649.57837710  5145.14054839
0.27300001 95280.91056363  4307.65017044
0.27400001 93930.95675715  4262.11736456
0.27500001 92602.81822918  3833.75685612
0.27600001 91291.81560026  6069.08018833
0.27700001 90001.90019744  3753.07941585
0.27800001 88729.43050767  5569.99026373
0.27900001 87475.82948830  4041.38351363
0.28000001 86239.63786832  4725.50118065
0.28100001 85021.44973169  3956.04824325
0.28200001 83821.03285463  4269.84361570
0.28300001 82637.60971445  4224.43480855
0.28400001 81470.18643254  3831.13569832
0.28500001 80319.97196064  3790.29965622
0.28600001 79185.58405079  4772.51537663
0.28700001 78067.77819657  4384.28663104
0.28800001 76964.01460884  4337.30724858
0.28900001 75877.66164098  4290.88196890
0.29000001 74805.28074451  3591.77572496
0.29100001 73748.53936792  3876.22341266
0.29200001 72706.02857354  4473.60214989
0.29300001 71678.27483413  4109.31569076
0.29400001 70663.90964892  4064.94159497
0.29500001 69664.89324906  4330.36996935
0.29600001 68678.46620092  3977.51355831
0.29700001 67705.91073525  3934.39065907
0.29800001 66747.23088898  3292.97479179
0.29900001 65802.07311052  2961.09343015
0.30000001 64868.75483219  4393.23662898
0.30100001 63949.60978327  3765.99269842
0.30200001 63042.07496515  3438.31493137
0.30300001 62147.89526884  3117.33857426
0.30400001 61265.81566462  3924.07567909
0.30500001 60396.45390403  3603.85657507
0.30600001 59537.84521878  3564.23327276
0.30700001 58692.15936417  3253.89346920
0.30800001 57858.11995216  2949.89638542
0.30900001 57035.87680346  3978.25259539
0.31000001 56225.27870264  3147.49125079
0.31100001 55425.40296819  2593.90898172
0.31200001 54637.91779933  2565.25036213
0.31300001 53860.67488368  3297.88927927
0.31400001 53095.98450900  3010.54246420
0.31500001 52340.78594375  2480.95337120
0.31600002 51597.92050328  3189.52560693
0.31700002 50865.01320173  2668.88736906
0.31800002 50142.74531347  3119.12961991
0.31900002 49431.63829066  3084.53437539
0.32000002 48731.49011342  3050.34776808
0.32100002 48041.00234775  3016.49468025
0.32200002 47362.17810386  3212.57669290
0.32300002 46691.90541728  2496.14938180
0.32400002 46033.31767925  2468.53677744
0.32500002 45384.34204963  2219.29443131
0.32600002 44745.75934075  2853.21347947
0.32700002 44117.48348934  2604.69634855
0.32800002 43499.91633442  2361.39307003
0.32900002 42890.53643294  2760.00615016
0.33000002 42292.37015506  3149.72441645
0.33100002 41703.01961520  2907.53466526
0.33200002 41124.99901169  2259.61317770
0.33300002 40555.86731183  2235.03395340
0.33400002 39997.14615004  2612.81369598
0.33500002 39447.81263402  2385.80382109
0.33600002 38907.66936886  3343.53072555
0.33700002 38377.03593270  2334.85897672
0.33800002 37856.93172148  2695.03509688
0.33900002 37345.36104405  2475.99755448
0.34000002 36843.47245521  2638.36118747
0.34100002 36351.15833351  3170.18466840
0.34200002 35868.80200398  2214.53994060
0.34300002 35394.95213389  2009.01757827
0.34400002 34931.34051796  2711.54543612
0.34500002 34476.38254975  2326.12164080
0.34600002 34031.51792553  2657.01088787
0.34700002 33594.43692552  2279.71859774
0.34800002 33167.49495199  2083.58213157
0.34900002 32749.13357190  2922.86030972
0.35000002 32340.27256964  2383.80160401
0.35100002 31941.03001191  1686.48646451
0.35200002 31549.28930175  2672.85591624
0.35300002 31167.71134381  1655.00555074
0.35400002 30794.29311266  2295.71466028
0.35500002 30430.27354256  1949.97202097
0.35600002 30074.63751657  1610.49691529
0.35700002 29727.64326874  1756.01197106
0.35800002 29389.75872321  2373.95787331
0.35900002 29060.89297572  1726.21712452
0.36000002 28740.50392277  1556.29836113
0.36100002 28428.06047845  1543.64375710
0.36200002 28125.60846888  1990.87128977
0.36300002 27830.15214473  1519.52637908
0.36400002 27543.73451765  2111.22735078
0.36500002 27264.92387379  1496.84439157
0.36600002 26995.31822922  1634.70157280
0.36700002 26733.32996710  1623.24787249
0.36800002 26480.46496681  1758.83256641
0.36900002 26235.42168178  2329.70555570
0.37000002 25997.80363038  2170.16676085
0.37100002 25768.17775124  1437.86438663
0.37200002 25547.15711169  2144.04526216
0.37300002 25333.72709451  1421.22215733
0.37400002 25128.01498926  1696.14109212
0.37500002 24930.08990994  1546.66285128
0.37600002 24740.07957985  1538.95672317
0.37700002 24557.49410585  1531.65097994
0.37800002 24382.22754763  1663.35564210
0.37900002 24215.33070041  1518.30130684
0.38000002 24054.91062252  1649.68584864
0.38100002 23901.24632566  1780.40392314
0.38200002 23755.96917024  1637.73659218
0.38300002 23617.00740540  1768.44159829
0.38400002 23485.43281796  1627.54057139
0.38500002 23360.23990693  1758.32534109
0.38600002 23242.92140860  1484.17681686
0.38700002 23131.37749840  1615.49548102
0.38800002 23026.55400959  1477.95943912
0.38900002 22928.43791537  1475.44504975
0.39000002 22837.33498841  1607.29171263
0.39100002 22751.72879626  1471.58188826
0.39200002 22673.26109053  1737.56544599
0.39300002 22600.15991710  1602.80341726
0.39400002 22534.50067879  1335.16922847
0.39500002 22473.46861965  1468.41650918
0.39600002 22418.59714791  1602.03302809
0.39700002 22368.95273050  1602.51184954
0.39800002 22326.17507928  1603.46597016
0.39900002 22287.86736620  1470.99931586
0.40000002 22255.45903826  1338.66592458
0.40100002 22227.96561621  1474.38102918
0.40200002 22206.23406524  1610.84029541
0.40300002 22189.33370915  1748.07579243
0.40400002 22177.50072412  2020.92484924
0.40500002 22170.00843327  1485.16893531
0.40600002 22168.30506514  2165.40014136
0.40700002 22170.58496176  1899.57580953
0.40800002 22177.38049926  2176.93177295
0.40900002 22188.25554583  1910.40889301
0.41000002 22204.10320828  1779.54793595
0.41100002 22223.82526068  3021.55142561
0.41200002 22246.74029542  1791.64131458
0.41300002 22275.02976953  1383.27941423
0.41400002 22306.29929634  1805.13735609
0.41500002 22341.19918579  2091.13634287
0.41600002 22378.81740840  2239.67215236
0.41700002 22421.26337763  1405.81328039
0.41800002 22467.48657974  1553.28975829
0.41900002 22514.95689407  1418.44235154
0.42000002 22566.24565156  1567.56432846
0.42100002 22621.13206973  1431.91772787
0.42200002 22678.40508383  2014.52281905
0.42300002 22738.08530019  1590.75652298
0.42400002 22800.24437303  2034.92190672
0.42500002 22865.50312721  1461.10571906
0.42600002 22931.84277022  1762.54151884
0.42700002 23001.56966507  1624.37092672
0.42800002 23072.63871149  1781.66924573
0.42900002 23146.50328000  1642.24448554
0.43000002 23222.20685967  1501.31574462
0.43100002 23298.00100129  2566.50791192
0.43200002 23376.75325749  1973.81625483
0.43300002 23456.28405863  2443.20666333
0.43400002 23537.75606049  2150.17411802
0.43500002 23619.86629371  2317.10899322
0.43600002 23703.81046457  2175.29878942
0.43700002 23788.10806539  1875.45452875
0.43800002 23872.85250983  1729.23015350
0.43900002 23959.44697758  1739.45593300
0.44000002 24045.92124071  1749.70154200
0.44100002 24133.41104173  2240.06331905
0.44200002 24221.20435353  1931.39892668
0.44300002 24309.39590218  1942.80701257
0.44400002 24397.74287845  2279.96918004
0.44500002 24485.60445302  1801.89571709
0.44600002 24573.48458962  2141.94788576
0.44700002 24662.37474511  2320.23632598
0.44800002 24749.82667897  1666.90090583
0.44900002 24837.74058405  1676.54756888
0.45000002 24925.46845243  2192.07042694
0.45100002 25011.78497477  1695.79910166
0.45200002 25098.06484576  1705.41358709
0.45300002 25183.16679054  2229.46586163
0.45400002 25267.85666168  2586.79694834
0.45500002 25352.00784263  2080.89290234
0.45600002 25434.54715330  2440.95360599
0.45700002 25516.56596720  2278.88461454
0.45800002 25596.96648583  1762.35122607
0.45900002 25676.15074024  2303.15083056
0.46000002 25754.59700959  1959.02351438
0.46100002 25830.75089520  1790.07112188
0.46200002 25906.12709372  1979.09867312
0.46300002 25979.97796772  2712.30982838
0.46400002 26051.54123893  1817.09508754
0.46500002 26122.64294079  1825.97282810
0.46600002 26190.91943530  2201.60879208
0.46700002 26257.37103611  2211.92104092
0.46800002 26322.79108697  2036.98928481
0.46900002 26385.28450637  2604.22770421
0.47000002 26446.25428135  2055.27074889
0.47100002 26505.21224944  2064.22602782
0.47200002 26562.24310816  3203.80510434
0.47300002 26616.97240768  1892.46682788
0.47400002 26668.85529329  2470.20283862
0.47500002 26718.94192733  2670.82556165
0.47600002 26767.46979883  1915.21255488
0.47700002 26812.39180714  1922.44858369
