# SAXS profile: number of points = 501, q_min = 0, q_max = 0.5, delta_q = 0.001
#    q    intensity    error
0.00000000 1682732.95097188 353.37391970
0.00100000 1682651.12617722 605.75441981
0.00200000 1682405.59930913 832.79079803
0.00300000 1681996.57865523 1110.11778146
0.00400000 1681423.94689567 1387.17480890
0.00500000 1680688.20693943 1512.61944612
0.00600000 1679789.26978211 2292.91244660
0.00700000 1678727.68817247 2820.26263334
0.00800000 1677503.26213828 2944.01834935
0.00900000 1676117.28135683 3519.84644131
0.01000000 1674569.07144170 3039.34299590
0.01100000 1672859.93679371 3914.49242253
0.01200000 1670989.76796178 3584.27320943
0.01300000 1668959.75128552 4906.74188519
0.01400000 1666769.93103281 4500.27901329
0.01500000 1664421.59084881 4394.07319550
0.01600000 1661914.28453843 5085.45793803
0.01700000 1659250.20036358 4927.97331614
0.01800000 1656429.28435343 4720.82367283
0.01900000 1653452.25681452 5456.39269369
0.02000000 1650320.17902278 5718.35967899
0.02100000 1647035.14634247 6522.25947523
0.02200000 1643595.68972531 7371.52700332
0.02300000 1640005.00882995 6494.42013058
0.02400000 1636262.66960667 7976.78087805
0.02500000 1632371.17917111 8276.12225637
0.02600000 1628330.52197048 7254.21280717
0.02700000 1624142.86572903 10232.10052273
0.02800000 1619808.03220727 8455.39831588
0.02900000 1615328.49777321 7995.87643110
0.03000000 1610705.70827881 9736.71645410
0.03100000 1605939.98302844 10021.06595520
0.03200000 1601032.71440675 10302.64599173
0.03300000 1595987.66150482 9767.44493869
0.03400000 1590802.99861259 11692.40257929
0.03500000 1585482.06093753 12842.40528663
0.03600000 1580025.90501516 8769.14417809
0.03700000 1574436.54449845 10769.14646242
0.03800000 1568715.26918283 12847.77864920
0.03900000 1562864.19842247 13128.05987471
0.04000000 1556883.25229768 12447.28217891
0.04100000 1550776.44441732 9769.89205283
0.04200000 1544544.48452872 10958.54362613
0.04300000 1538188.31689766 11167.24769904
0.04400000 1531711.47599258 17576.39000330
0.04500000 1525115.34112647 12627.95561128
0.04600000 1518399.89158152 11775.19170661
0.04700000 1511569.41287309 13059.96033462
0.04800000 1504624.11438163 19906.17795947
0.04900000 1497568.06077601 11231.76097863
0.05000000 1490400.77694357 12541.72312200
0.05100000 1483126.61489757 11568.38813510
0.05200000 1475743.91785977 15251.81410183
0.05300000 1468258.79326525 14271.47613584
0.05400000 1460671.30061339 13255.59267123
0.05500000 1452983.86925234 12205.06507108
0.05600000 1445197.58714956 14827.72793608
0.05700000 1437317.55817182 12504.66333979
0.05800000 1429342.45679877 13914.64946664
0.05900000 1421275.48520684 21745.51593931
0.06000000 1413119.96701393 14223.05313248
0.06100000 1404877.16223551 15678.42986322
0.06200000 1396549.64622201 18476.35268317
0.06300000 1388140.08341045 18656.60359333
0.06400000 1379647.66474899 26903.13072078
0.06500000 1371078.58662336 13573.67864252
0.06600000 1362433.28830680 15061.70070695
0.06700000 1353713.70808317 13807.88046864
0.06800000 1344922.72992030 19487.93126876
0.06900000 1336063.27110133 18237.26450438
0.07000000 1327135.84211277 16960.79685645
0.07100000 1318143.66561049 17083.14270645
0.07200000 1309089.09906010 14334.52630623
0.07300000 1299975.04892309 17315.66846299
0.07400000 1290803.15902254 15973.68984150
0.07500000 1281575.65276802 17531.95575163
0.07600000 1272293.50537067 17633.98881113
0.07700000 1262961.97644186 17731.98698067
0.07800000 1253581.24326363 14854.93842931
0.07900000 1244153.43664081 19408.79452194
0.08000000 1234682.70552002 15001.39557580
0.08100000 1225170.12433644 16576.55256001
0.08200000 1215617.15409819 19674.76456232
0.08300000 1206027.48315156 22793.92050133
0.08400000 1196402.31286616 18304.95624606
0.08500000 1186744.55492229 16839.90602490
0.08600000 1177056.08613005 16896.64090972
0.08700000 1167340.43319603 20031.56277428
0.08800000 1157597.28663793 21635.49430335
0.08900000 1147831.81677223 29441.88748308
0.09000000 1138043.79216083 17087.72834200
0.09100000 1128236.56088641 24911.46443474
0.09200000 1118411.55449023 26523.13126097
0.09300000 1108573.81016074 15630.89145780
0.09400000 1098719.88327585 21919.46270151
0.09500000 1088856.29663234 21951.34397188
0.09600000 1078983.56232340 25118.73851167
0.09700000 1069106.10157814 18859.03251845
0.09800000 1059224.09881449 15729.47860696
0.09900000 1049339.90059512 17314.10917397
0.10000000 1039454.61915233 18897.28586488
0.10100000 1029570.52034060 22053.40158291
0.10200000 1019690.69107599 18905.06630177
0.10300000 1009816.16477030 20479.07278489
0.10400000 999950.08519359 18899.05749927
0.10500000 990095.15876518 20465.26789455
0.10600001 980248.40172498 33039.27393476
0.10700001 970417.82150297 18864.92333776
0.10800001 960601.34441434 17276.41599235
0.10900001 950803.28060263 15688.25486832
0.11000001 941023.34458267 17234.84336727
0.11100001 931264.44170585 18774.29202856
0.11200001 921528.07372392 18743.88190195
0.11300001 911815.99007314 23388.08124651
0.11400001 902130.36684855 20230.27442911
0.11500001 892473.22782070 15529.03489531
0.11600001 882845.03183240 23240.89655744
0.11700001 873249.09033786 18547.81155228
0.11800001 863684.10127944 20041.79051412
0.11900001 854153.43209437 19987.19125244
0.12000001 844657.76881679 16863.59314879
0.12100001 835202.17896427 15284.20059506
0.12200001 825783.81947203 16759.28340574
0.12300001 816407.36177921 16703.69540899
0.12400001 807070.92990686 19672.35484339
0.12500001 797777.54884624 19601.39529878
0.12600001 788530.25817781 21030.10297661
0.12700001 779328.36719646 19452.03696193
0.12800001 770173.28767445 25334.85149206
0.12900001 761067.06362569 20777.13181625
0.13000001 752010.90954898 22165.52260373
0.13100001 743004.70584967 17653.79264315
0.13200001 734051.34665487 14644.32505610
0.13300001 725151.21791591 16033.09418397
0.13400001 716304.58635684 15955.68541334
0.13500001 707514.67538439 14433.30005835
0.13600001 698781.14540889 15795.94853676
0.13700001 690105.05725360 18570.72796636
0.13800001 681486.07554535 22734.37655225
0.13900001 672928.23004336 16957.79219679
0.14000001 664429.51582294 14052.68492239
0.14100001 655993.46487264 16767.19375294
0.14200001 647618.66402161 22226.27359753
0.14300001 639308.05823053 17951.77112186
0.14400001 631058.14458314 15098.06682133
0.14500001 622875.32101463 20461.45526054
0.14600001 614757.12219339 18977.55325736
0.14700001 606706.04778018 20203.31234420
0.14800001 598719.32651583 20072.06636842
0.14900001 590800.77961294 15951.62180216
0.15000001 582949.40694251 15844.56562829
0.15100001 575166.72430521 17047.94251281
0.15200001 567453.75584124 15627.67717329
0.15300001 559810.29604406 14224.78029373
0.15400001 552234.64962556 14123.40183067
0.15500001 544731.08998430 16570.72053934
0.15600001 537296.21782254 13918.65917958
0.15700001 529935.52647878 17583.26159844
0.15800001 522642.90968188 16204.54417952
0.15900001 515424.31933251 16081.23952222
0.16000001 508275.37295983 17184.79117094
0.16100001 501201.05480547 28012.12827537
0.16200001 494198.45375023 12083.15276459
0.16300001 487268.31370537 19178.88173284
0.16400001 480411.69447270 15457.24699939
0.16500001 473627.07641442 14151.97771140
0.16600001 466916.49470699 12865.88461909
0.16700001 460277.97632316 12758.90610609
0.16800001 453713.01943542 17252.43837863
0.16900001 447222.63354485 17106.26654082
0.17000001 440804.10059498 12437.28828557
0.17100001 434459.49900631 13450.86672440
0.17200001 428187.91329926 12222.62456232
0.17300001 421989.74070518 14318.11257829
0.17400001 415865.19544004 15283.04665418
0.17500001 409812.77321852 14064.77504110
0.17600001 403831.89452370 11793.91103658
0.17700001 397926.73513900 11687.10876302
0.17800001 392092.19487137 11580.44352249
0.17900001 386329.57285696 13560.16864777
0.18000001 380640.78352569 11367.83753695
0.18100001 375023.93863120 17404.86181402
0.18200001 369476.48952440 14198.98216315
0.18300001 364001.47129058 11051.08519043
0.18400001 358597.29704934 11941.29055586
0.18500001 353264.15022504 12812.89133397
0.18600001 348001.64303210 10737.59120304
0.18700001 342808.18606546 13534.06782528
0.18800001 337683.10575281 12445.31145051
0.18900001 332630.68880694 11375.97009468
0.19000001 327643.17296386 13141.76828851
0.19100001 322726.68333216 13012.34048679
0.19200001 317876.31843938 12883.52779511
0.19300001 313095.46832022 10022.18641450
0.19400001 308379.78937705 9922.12019207
0.19500001 303731.34087119 9822.67202795
0.19600001 299147.86243773 13259.72962916
0.19700001 294631.84153614 8750.56610715
0.19800001 290179.30709563 10394.22327138
0.19900001 285791.75340411 9431.12830805
0.20000001 281466.63825611 11880.70736229
0.20100001 277206.56430400 9239.29522492
0.20200001 273007.79747618 9144.39660866
0.20300001 268871.89081262 9050.22827251
0.20400001 264797.59773940 11399.53712149
0.20500001 260783.71867732 10475.68247442
0.20600001 256830.10769254 8772.03274288
0.20700001 252936.44076038 10259.10252218
0.20800001 249101.62465807 8590.26993240
0.20900001 245327.27631198 13137.27626752
0.21000001 241608.06086710 7646.89548793
0.21100001 237947.61717140 10593.42841726
0.21200001 234342.30134264 8235.96057004
0.21300001 230793.07782670 11112.68722271
0.21400001 227299.56660412 8063.45250649
0.21500001 223861.56197019 8703.73794089
0.21600001 220475.81046633 9329.43436096
0.21700001 217144.25586093 10650.92625355
0.21800001 213865.05171945 7728.01400927
0.21900001 210636.76877798 7646.11506816
0.22000001 207459.47181953 8940.46636079
0.22100001 204334.18040370 7484.76138209
0.22200001 201258.23968566 10098.13265371
0.22300001 198230.96821517 9990.84127047
0.22400001 195251.44379508 6589.73653969
0.22500001 192322.10709086 6519.71973868
0.22600001 189437.78777904 7095.39267679
0.22700001 186601.06747619 6381.75680947
0.22800001 183809.03729293 6945.22480255
0.22900001 181062.14141238 7495.97300896
0.23000001 178359.99920356 7416.20911761
0.23100001 175702.59521050 8560.23084349
0.23200001 173086.61801483 7259.25310286
0.23300001 170514.07928742 8379.06225247
0.23400001 167982.16624880 6513.50880436
0.23500001 165491.35135283 7615.91234946
0.23600001 163041.28479729 6955.34153842
0.23700001 160630.94461354 6307.97749333
0.23800001 158259.33655666 5673.59748391
0.23900001 155926.47873507 7297.35954996
0.24000001 153630.79729566 6109.12894343
0.24100001 151373.19164923 6044.33182846
0.24200001 149152.25839349 6523.92009073
0.24300001 146966.42461767 6992.66281408
0.24400001 144816.04296527 6386.38779687
0.24500001 142699.81513678 5792.18577040
0.24600001 140617.90802885 6772.86186060
0.24700001 138570.05513956 6701.24818356
0.24800001 136554.76869416 7140.44919281
0.24900001 134570.36283217 5551.02772943
0.25000001 132619.05941688 5991.72938791
0.25100001 130698.06050307 4940.38692074
0.25200001 128809.41983143 6354.81302803
0.25300001 126949.10947348 5804.11355972
0.25400001 125119.13789859 5742.96870125
0.25500001 123316.55859577 5208.89168153
0.25600001 121543.85145916 7965.37668224
0.25700001 119797.85068678 4636.17704093
0.25800001 118079.30073476 4587.38105059
0.25900001 116388.49268449 5446.98171536
0.26000001 114723.00247720 6737.10863924
0.26100001 113083.02578017 4888.57943579
0.26200001 111469.46465237 4837.21764747
0.26300001 109879.43843489 5656.59375828
0.26400001 108314.52847785 5597.15352394
0.26500001 106773.49990181 4260.26284767
0.26600001 105255.44864562 5480.12519305
0.26700001 103760.85375785 4588.30517029
0.26800001 102289.03624534 5778.30793093
0.26900001 100838.38963764 4492.35047094
0.27000001 99410.11138227  6061.53182838
0.27100001 98002.96822351  5597.92980984
0.27200001 96617.41793003  4747.78014176
0.27300001 95251.95828465  3914.85567077
0.27400001 93905.22051997  5423.02674167
0.27500001 92580.40941335  4599.39495732
0.27600001 91272.77937196  4550.86099486
0.27700001 89986.11638004  4127.66335370
0.27800001 88716.89229239  4084.08232997
0.27900001 87466.59646204  5143.03611538
0.28000001 86233.66560114  3634.74917712
0.28100001 85018.70904543  3955.92071911
0.28200001 83821.38219830  4981.50497982
0.28300001 82641.29097021  4576.67491055
0.28400001 81477.00281274  5573.02725617
0.28500001 80329.92974636  6547.69288354
0.28600001 79198.68721989  4091.40437543
0.28700001 78084.06544175  4385.20132277
0.28800001 76983.49447721  3337.23464355
0.28900001 75900.14532394  5612.81601238
0.29000001 74830.80734147  4572.91085309
0.29100001 73777.20889597  5493.45123443
0.29200001 72737.70372347  3516.50445297
0.29300001 71712.92520586  4111.30219666
0.29400001 70701.58231039  4067.10871493
0.29500001 69705.53731878  4332.89640484
0.29600001 68722.02189747  3673.87946455
0.29700001 67752.37529931  4542.79697887
0.29800001 66796.62401427  3295.41160174
0.29900001 65854.30571905  5334.19901576
0.30000001 64923.74835827  2931.30737714
0.30100001 64007.32755571  3479.43849065
0.30200001 63102.55597845  2868.01130499
0.30300001 62211.07769220  3971.55538789
0.30400001 61331.68135820  3647.70192147
0.30500001 60464.98577131  4718.08306310
0.30600001 59608.94063256  3568.48939991
0.30700001 58765.95807053  2714.98739139
0.30800001 57934.38086612  3759.36215239
0.30900001 57114.62899415  3186.99644876
0.31000001 56306.49366878  2889.36785941
0.31100001 55509.06662285  3636.95421732
0.31200001 54723.90996677  3083.14523350
0.31300001 53948.99762814  3811.49686289
0.31400001 53186.70225983  2764.37898084
0.31500001 52433.62279316  3728.03075711
0.31600002 51692.97476647  3441.20149314
0.31700002 50962.27358381  3889.44090407
0.31800002 50242.13033706  3846.53768073
0.31900002 49533.14731102  3566.38677526
0.32000002 48834.88744808  3527.09991294
0.32100002 48146.44692415  3023.11554551
0.32200002 47469.55889502  2529.89026110
0.32300002 46801.15603982  3184.35080773
0.32400002 46144.41414291  3149.35641438
0.32500002 45497.23746951  2224.81501761
0.32600002 44860.36884110  2200.40119585
0.32700002 44233.75902523  2393.93115180
0.32800002 43617.93734080  4089.83608843
0.32900002 43010.03786198  2554.79636998
0.33000002 42413.42007531  2316.40904710
0.33100002 41825.48160327  2082.90908248
0.33200002 41248.95884016  2472.46270996
0.33300002 40681.20728877  2241.94143985
0.33400002 40123.80737411  2016.22141603
0.33500002 39575.67269595  2194.07539817
0.33600002 39036.74546483  3354.62288038
0.33700002 38507.35201701  1952.32283972
0.33800002 37988.23568927  2511.21243916
0.33900002 37477.77555890  2484.77663723
0.34000002 36976.80602166  2269.63646110
0.34100002 36485.47429495  3369.06885595
0.34200002 36003.96644415  2037.64457741
0.34300002 35531.00492930  2200.07992942
0.34400002 35068.09928290  1996.25164622
0.34500002 34613.86245269  1976.10550101
0.34600002 34169.60157082  1956.38063059
0.34700002 33733.14494810  1760.87024969
0.34800002 33306.72141663  2092.32833849
0.34900002 32888.87875766  2071.99945987
0.35000002 32480.43921075  1710.09520544
0.35100002 32081.61114103  1863.30006332
0.35200002 31690.08072865  2852.58275190
0.35300002 31308.81561843  3324.99637616
0.35400002 30935.63126410  1647.32244284
0.35500002 30571.71483739  2448.79447446
0.35600002 30216.11865706  2103.49519994
0.35700002 29869.13715766  2245.56183787
0.35800002 29531.32125365  1749.28789732
0.35900002 29202.40378531  2207.70183074
0.36000002 28881.79285368  2033.13390424
0.36100002 28569.13885793  2637.21733289
0.36200002 28266.46191645  2000.84160153
0.36300002 27970.65988795  2138.07734311
0.36400002 27683.96060153  1667.26660620
0.36500002 27404.71513132  1504.51893197
0.36600002 27134.65533549  2688.77312456
0.36700002 26872.18357867  1928.34798495
0.36800002 26618.68992844  1620.67901306
0.36900002 26372.96434525  1610.06954955
0.37000002 26134.67882651  2181.59241838
0.37100002 25904.35191920  1590.00919612
0.37200002 25682.60652583  1580.63609351
0.37300002 25468.31915018  1428.77277201
0.37400002 25261.57412412  1420.96361179
0.37500002 25062.77924041  2261.66530579
0.37600002 24871.77476316  1687.79871538
0.37700002 24688.17657500  1679.78361374
0.37800002 24511.88428579  1811.55089396
0.37900002 24343.85500658  1942.63972155
0.38000002 24182.24935539  1934.82186258
0.38100002 24027.29160842  1514.44026182
0.38200002 23880.74385530  1646.33855938
0.38300002 23740.47931024  2324.66784419
0.38400002 23607.57828455  1636.00525262
0.38500002 23480.87906862  1359.54296248
0.38600002 23362.16935124  1627.40879411
0.38700002 23249.11733583  2029.64803957
0.38800002 23142.76891776  1620.45675639
0.38900002 23043.02937836  2291.62938025
0.39000002 22950.26174425  1480.63620658
0.39100002 22862.97809160  1344.34317548
0.39200002 22782.85453437  1611.65920612
0.39300002 22708.01442726  2147.26994597
0.39400002 22640.58620519  1609.74575545
0.39500002 22577.75686895  1475.23070371
0.39600002 22520.99895316  1609.35066144
0.39700002 22469.49965641  1475.57211235
0.39800002 22424.80033190  2415.82385421
0.39900002 22384.56501498  1611.68875744
0.40000002 22350.15021164  1344.36159892
0.40100002 22320.59002929  1884.30429955
0.40200002 22296.83502808  2021.76561196
0.40300002 22277.85752858  1620.04587624
0.40400002 22263.91332948  1487.78607873
0.40500002 22254.32442648  1761.87494832
0.40600002 22250.46370428  1358.39087351
0.40700002 22250.49624966  1770.24956550
0.40800002 22255.10502930  1774.95598571
0.40900002 22263.78304667  1506.14499447
0.41000002 22277.29504590  1922.75342652
0.41100002 22294.80356986  1653.38271108
0.41200002 22315.35547890  1382.43633742
0.41300002 22341.39518716  1664.88084823
0.41400002 22370.25022083  1531.80295645
0.41500002 22402.87557053  1537.73345202
0.41600002 22438.03246919  1403.49899745
0.41700002 22478.21222780  1550.32237081
0.41800002 22521.95508561  1557.05543862
0.41900002 22567.03049731  1848.23988531
0.42000002 22615.81626961  1856.64552463
0.42100002 22668.27603949  1434.90194129
0.42200002 22723.13861697  1441.78321357
0.42300002 22780.32840020  1883.47764138
0.42400002 22840.03139348  1747.26248440
0.42500002 22902.81667602  2195.23508242
0.42600002 22966.67572977  1912.32034526
0.42700002 23033.86574379  1774.52910099
0.42800002 23102.40308055  1932.63162128
0.42900002 23173.83400790  2391.53978294
0.43000002 23246.95895259  1803.49916101
0.43100002 23320.29775709  1813.38643952
0.43200002 23396.53909078  1823.52634315
0.43300002 23473.57541703  1833.75579848
0.43400002 23552.55581948  1997.84564206
0.43500002 23632.12351865  2472.86552218
0.43600002 23713.60020681  2176.19719411
0.43700002 23795.38541089  1719.69258514
0.43800002 23877.63254900  1886.81061344
0.43900002 23961.76716236  2055.91971996
0.44000002 24045.79152030  1749.69210289
0.44100002 24130.79511223  1599.87179176
0.44200002 24216.11186090  1609.16070942
0.44300002 24301.89505049  1780.35691577
0.44400002 24387.74404804  1953.45839082
0.44500002 24473.21418255  1637.25810640
0.44600002 24558.67853044  1975.99136820
0.44700002 24645.17688979  2318.61835167
0.44800002 24730.26427865  2331.81672934
0.44900002 24815.72265986  2177.57976660
0.45000002 24901.17296826  1853.02087425
0.45100002 24985.17990174  2710.39244419
0.45200002 25069.13093320  2044.13703317
0.45300002 25151.96436351  2740.55816693
0.45400002 25234.40211394  2411.14723626
0.45500002 25316.28565721  2077.96082523
0.45600002 25396.58101197  2437.30999523
0.45700002 25476.40788128  1750.22930439
0.45800002 25554.55956936  2111.31781168
0.45900002 25631.67173753  1945.44397708
0.46000002 25707.96741974  1955.47663446
0.46100002 25782.03743951  1965.36480716
0.46200002 25855.32045266  2334.34771770
0.46300002 25927.04511845  2706.78363865
0.46400002 25996.65722955  2538.57369878
0.46500002 26065.77314794  2550.79668115
0.46600002 26132.02738333  2379.71318645
0.46700002 26196.59755497  2758.50185328
0.46800002 26260.11830638  2216.87929250
0.46900002 26320.80358573  1855.61674074
0.47000002 26379.82325512  1863.73460131
0.47100002 26436.96377715  2433.25826138
0.47200002 26492.23548637  2067.58661653
0.47300002 26545.24216285  2076.10348796
0.47400002 26595.35379792  2273.90285750
0.47500002 26643.77708765  2092.60235165
0.47600002 26690.72256641  3055.55406423
0.47700002 26734.02052930  2108.51229909
