# SAXS profile: number of points = 501, q_min = 0, q_max = 0.5, delta_q = 0.001
#    q    intensity    error
0.00000000 1664650.74656090 299.63713438
0.00100000 1664569.36661404 599.24498621
0.00200000 1664325.16888876 1123.41952457
0.00300000 1663918.36384584 1397.69147542
0.00400000 1663348.84559833 1372.26284976
0.00500000 1662617.09858889 1645.99099275
0.00600000 1661723.04079923 1919.29019026
0.00700000 1660667.21445639 2391.36088820
0.00800000 1659449.43961854 2240.25683807
0.00900000 1658070.98246954 2735.81723802
0.01000000 1656531.19956940 3279.93191677
0.01100000 1654831.36771542 3276.56625074
0.01200000 1652971.35659279 4190.28257268
0.01300000 1650952.37431327 3813.70015287
0.01400000 1648774.49722282 5193.63989649
0.01500000 1646438.98320186 5532.03522989
0.01600000 1643945.39383217 5868.88531834
0.01700000 1641295.83906381 7533.54823925
0.01800000 1638490.36304882 5603.63729378
0.01900000 1635529.59648867 4906.58901086
0.02000000 1632414.69393736 6684.73847406
0.02100000 1629147.67959680 5913.80634506
0.02200000 1625727.07537481 6169.63453135
0.02300000 1622156.21520557 6423.73890461
0.02400000 1618434.44548822 6676.04239205
0.02500000 1614564.40246741 8185.84189436
0.02600000 1610546.04549871 8479.52531739
0.02700000 1606381.55474269 10794.88454229
0.02800000 1602070.72711938 8362.80957908
0.02900000 1597616.00670689 8627.12683232
0.03000000 1593018.89323622 8889.04583285
0.03100000 1588279.69922244 12197.98865130
0.03200000 1583399.69879595 7837.82887004
0.03300000 1578382.80271923 9659.70319796
0.03400000 1573227.22348285 9085.38763482
0.03500000 1567936.13519851 11853.59772948
0.03600000 1562510.55187042 10406.32075637
0.03700000 1556952.59709610 8874.63021388
0.03800000 1551263.60418371 13612.33875669
0.03900000 1545445.55522471 14836.27801723
0.04000000 1539498.49578710 12308.29104417
0.04100000 1533426.30974797 11592.70343921
0.04200000 1527229.79182694 12805.82239857
0.04300000 1520909.83696314 12045.60646788
0.04400000 1514469.97967006 11244.94012129
0.04500000 1507911.66823693 13525.96829257
0.04600000 1501234.73409354 10583.70536736
0.04700000 1494443.55102467 11835.99347458
0.04800000 1487538.37395741 13120.08906876
0.04900000 1480523.13545874 13324.70883936
0.05000000 1473397.33037095 14652.93713287
0.05100000 1466165.50774563 13723.30979179
0.05200000 1458825.91058585 17396.49979444
0.05300000 1451384.58810862 11756.21571173
0.05400000 1443841.65742213 17867.54134383
0.05500000 1436199.41432865 14476.89077177
0.05600000 1428459.06067799 13434.65809259
0.05700000 1420625.69173842 17303.22173306
0.05800000 1412698.11591025 16253.09258244
0.05900000 1404679.08071475 15170.53478027
0.06000000 1396572.35418435 14056.50140157
0.06100000 1388378.92437130 14203.11706005
0.06200000 1380101.48481878 15650.35156940
0.06300000 1371742.87597165 13168.73222504
0.06400000 1363301.92779876 14621.41385944
0.06500000 1354784.86896700 17436.08207923
0.06600000 1346192.40024600 14882.15768103
0.06700000 1337526.10070800 17735.59692540
0.06800000 1328789.18815372 20629.45311173
0.06900000 1319984.54545021 18017.78988897
0.07000000 1311112.27371801 18152.35027967
0.07100000 1302176.16040954 19688.90446758
0.07200000 1293178.15054911 18408.39183544
0.07300000 1284121.06234966 17104.49335194
0.07400000 1275007.02280318 15778.21264662
0.07500000 1265837.84085983 15873.60726842
0.07600000 1256614.69031255 20319.46049494
0.07700000 1247342.60122008 14593.90911856
0.07800000 1238021.87640482 22005.83988509
0.07900000 1228654.61918721 16218.24173397
0.08000000 1219245.09030245 16295.21139632
0.08100000 1209794.22469603 16368.51662812
0.08200000 1200303.41498791 16438.15603962
0.08300000 1190776.53062549 22505.67748506
0.08400000 1181214.60970886 18072.58437685
0.08500000 1171620.77333641 25693.64476546
0.08600000 1161996.56213942 18196.86701747
0.08700000 1152345.68126673 15210.96370699
0.08800000 1142667.68236165 21356.45998632
0.08900000 1132968.13583637 24472.11288351
0.09000000 1123246.29498434 18398.77517614
0.09100000 1113505.74218223 16903.01796045
0.09200000 1103747.77393268 16937.01038681
0.09300000 1093977.79537139 18510.10516751
0.09400000 1084191.90086773 24719.57650154
0.09500000 1074396.76762962 23206.97127159
0.09600000 1064592.95308178 18587.79383458
0.09700000 1054784.64777068 17055.86855630
0.09800000 1044972.41107048 20173.19334421
0.09900000 1035158.29321366 17080.11264117
0.10000000 1025343.57951268 20194.14274818
0.10100000 1015530.31673128 26413.94478048
0.10200000 1005721.77433422 18646.08257320
0.10300000 995918.87181358 21750.86918359
0.10400000 986124.77198395 18637.75906731
0.10500000 976342.22995460 17076.22640533
0.10600001 966568.13085773 18616.10307627
0.10700001 956810.45222560 17050.36306101
0.10800001 947067.23985245 20129.91513041
0.10900001 937342.93757504 17012.77511770
0.11000001 927636.87543092 16989.67017321
0.11100001 917952.03128688 16963.75433672
0.11200001 908290.33352486 20014.17844143
0.11300001 898652.91058351 21513.75169225
0.11400001 889042.45741353 15335.98311247
0.11500001 879460.49534336 21423.65867536
0.11600001 869907.91305503 18320.26151167
0.11700001 860387.66941533 16751.74871244
0.11800001 850898.77836932 25820.52464572
0.11900001 841444.44857127 21204.40110276
0.12000001 832025.30210495 16611.38593900
0.12100001 822646.32188143 19570.75691950
0.12200001 813304.87683309 19507.11838985
0.12300001 804005.34228490 16449.95007818
0.12400001 794746.37212225 22352.24276912
0.12500001 785530.33810726 16331.17649878
0.12600001 776360.61971805 17747.60460308
0.12700001 767236.45916073 17677.12885212
0.12800001 758159.29616043 19071.49799374
0.12900001 749131.22452217 24833.70126337
0.13000001 740153.28040642 14544.01264552
0.13100001 731225.59538389 14478.26747107
0.13200001 722350.33544524 15851.97885861
0.13300001 713528.80977106 18644.50867828
0.13400001 704760.91788141 29969.95944586
0.13500001 696049.61691286 14199.41285450
0.13600001 687394.94957049 15538.56356770
0.13700001 678797.69322007 22481.78065954
0.13800001 670257.80173327 15372.36340765
0.13900001 661778.68401041 15287.08832155
0.14000001 653359.20558519 16582.25741978
0.14100001 645002.12458921 16486.25508204
0.14200001 636706.53819763 15023.09147734
0.14300001 628474.94269278 23077.60098419
0.14400001 620304.30206672 14840.78112698
0.14500001 612200.55388412 16088.63131501
0.14600001 604161.65068831 14653.94152873
0.14700001 596189.65980755 17206.03439377
0.14800001 588281.95676017 15777.72282468
0.14900001 580442.53792031 26119.91543877
0.15000001 572670.33587666 12970.98371961
0.15100001 564966.38245190 18033.72777879
0.15200001 557332.55017432 15348.93915607
0.15300001 549767.86826858 13969.60219192
0.15400001 542271.20297547 13868.58667057
0.15500001 534846.45035062 15018.48903461
0.15600001 527490.26766688 21118.07386271
0.15700001 520208.25957585 13561.82996722
0.15800001 512994.19257359 18352.36810553
0.15900001 505854.05372646 13354.54764872
0.16000001 498783.29357797 15659.30224104
0.16100001 491787.37237369 14340.52045535
0.16200001 484862.89877068 13040.38827802
0.16300001 478010.73406992 15286.78399721
0.16400001 471231.82623305 12829.28707486
0.16500001 464524.84136758 16193.33673458
0.16600001 457891.60614066 13764.22233044
0.16700001 451330.64961946 18197.65265185
0.16800001 444843.02663025 16915.15688629
0.16900001 438429.46387888 16769.92778521
0.17000001 432087.72487158 12191.35573292
0.17100001 425819.83116639 12084.76737916
0.17200001 419624.80778338 15244.96998668
0.17300001 413502.65234328 16188.62960374
0.17400001 407454.41959661 13904.38272538
0.17500001 401477.80103140 15898.52167169
0.17600001 395572.49556557 11552.69527862
0.17700001 389742.70084205 14568.58284556
0.17800001 383983.33353053 15464.92948838
0.17900001 378295.85600362 15320.98289181
0.18000001 372681.47786696 10118.30260203
0.18100001 367139.19225297 15034.35063293
0.18200001 361665.98258787 12906.05119830
0.18300001 356264.76745387 11799.48965547
0.18400001 350934.47488079 12659.96177939
0.18500001 345674.66680213 14466.48548910
0.18600001 340485.30285164 13370.85847467
0.18700001 335364.72809142 11348.74293478
0.18800001 330312.24705677 10300.78791114
0.18900001 325332.12005293 13907.94878938
0.19000001 320416.56465598 11933.91551447
0.19100001 315571.71551005 11815.00558696
0.19200001 310792.84052559 9897.19847419
0.19300001 306082.97389888 9797.71645747
0.19400001 301438.01215883 12343.88718120
0.19500001 296859.89637171 9600.44950233
0.19600001 292346.60403468 9502.72681321
0.19700001 287900.21909440 9405.70060230
0.19800001 283517.15400028 9309.28619154
0.19900001 279198.67044911 10051.15261119
0.20000001 274942.31153250 10776.36440982
0.20100001 270750.54901807 9024.11622527
0.20200001 266619.90907793 10554.14959968
0.20300001 262551.58630225 9640.89470469
0.20400001 258544.74208820 9540.30143398
0.20500001 254597.81031102 8653.77998151
0.20600001 250710.65349164 8563.02277476
0.20700001 246883.30273861 8473.03535050
0.20800001 243114.29095133 10670.28673424
0.20900001 239405.39691107 11311.90553878
0.21000001 235751.18136225 11938.44038854
0.21100001 232155.48002631 9597.30799798
0.21200001 228614.35120317 10956.34329937
0.21300001 225129.07896774 10117.30128711
0.21400001 221698.98211650 9294.73026466
0.21500001 218324.21653409 10610.55742520
0.21600001 215001.09261541 7698.11448505
0.21700001 211731.74390458 9693.07969424
0.21800001 208514.36726744 10274.54593289
0.21900001 205347.74620641 6776.47594521
0.22000001 202231.42872510 10726.35548675
0.22100001 199166.81144307 7958.70616158
0.22200001 196150.94925213 10497.99930037
0.22300001 193183.50684511 7789.15936431
0.22400001 190263.40310583 7705.66819016
0.22500001 187393.01706732 6987.88593688
0.22600001 184567.17562177 6284.51262710
0.22700001 181788.45373452 7460.59849407
0.22800001 179054.23801465 6765.56470333
0.22900001 176364.37776329 9735.31411293
0.23000001 173719.06268041 6621.30238720
0.23100001 171118.03363654 7145.88942261
0.23200001 168557.83922208 7069.31611131
0.23300001 166040.73151842 6410.83294712
0.23400001 163563.96277158 6918.75595246
0.23500001 161127.66415992 6274.31153914
0.23600001 158731.67367729 7900.07577257
0.23700001 156375.13239867 7257.37023788
0.23800001 154056.79966498 7732.11114090
0.23900001 151776.64253502 5463.95938970
0.24000001 149533.23014837 6486.75183066
0.24100001 147327.51359071 7487.18459483
0.24200001 145157.99786093 5820.11019954
0.24300001 143023.13959075 6805.04130363
0.24400001 140923.41209927 6214.72276756
0.24500001 138857.24952163 6148.59929967
0.24600001 136825.03345240 5576.30450214
0.24700001 134826.21587961 7523.30320198
0.24800001 132859.62917408 4962.30738440
0.24900001 130923.55665477 5400.59696750
0.25000001 129020.08822142 6800.64917188
0.25100001 127146.44751258 7689.81750936
0.25200001 125304.62053440 4755.31057425
0.25300001 123490.78092824 5645.99877115
0.25400001 121706.81059248 6517.40001557
0.25500001 119949.90299089 5066.68414205
0.25600001 118222.18018929 5468.95831431
0.25700001 116520.84786914 4960.29272848
0.25800001 114846.52167930 7138.86012535
0.25900001 113199.32942511 5739.20627340
0.26000001 111577.10925215 6552.36605086
0.26100001 109979.90498887 6051.09465880
0.26200001 108408.93397657 4704.40591251
0.26300001 106860.70107755 7193.86273694
0.26400001 105337.35928594 5024.59227569
0.26500001 103837.32076269 4557.42022393
0.26600001 102359.89140953 4919.41661393
0.26700001 100905.37329735 4056.39619850
0.26800001 99473.25489485  4816.49522993
0.26900001 98061.87906670  4765.80754817
0.27000001 96672.49983353  3929.73730420
0.27100001 95303.68043653  3888.39034582
0.27200001 93956.08384509  5771.25272330
0.27300001 92628.00179141  3807.01105379
0.27400001 91318.54200983  4520.26804341
0.27500001 90030.28701120  5218.15568212
0.27600001 88758.70185049  4425.50908371
0.27700001 87507.80726839  5108.70603011
0.27800001 86273.99869629  5776.90722611
0.27900001 85058.58456464  3929.70679287
0.28000001 83860.12281117  5655.52695005
0.28100001 82679.31338756  3847.06863400
0.28200001 81515.62978338  4498.44024251
0.28300001 80368.71720456  4450.81976945
0.28400001 79237.26691816  4403.61131740
0.28500001 78122.50354206  4692.03778482
0.28600001 77023.27694875  3979.02267551
0.28700001 75940.23759814  4264.80394538
0.28800001 74870.78993362  3894.77867670
0.28900001 73818.16785874  4174.41759000
0.29000001 72779.28381747  3812.17906681
0.29100001 71755.56936289  3457.18349555
0.29200001 70745.59200833  4042.04959073
0.29300001 69749.98849611  3998.76702977
0.29400001 68767.36627823  4564.43415278
0.29500001 67799.74132644  3311.33952313
0.29600001 66844.17330371  3871.28048014
0.29700001 65902.12182041  3240.40748330
0.29800001 64973.56067369  4079.69006783
0.29900001 64058.01134743  3459.13277651
0.30000001 63154.00780581  3706.82466364
0.30100001 62263.63985705  3384.65162286
0.30200001 61384.57882620  3347.91508767
0.30300001 60518.44020770  3035.60510453
0.30400001 59663.93387613  3002.58761446
0.30500001 58821.88102152  2699.92446671
0.30600001 57990.12930074  2670.44558073
0.30700001 57171.06782273  3169.56415015
0.30800001 56362.95378249  2873.66533465
0.30900001 55566.39159265  3100.60479767
0.31000001 54780.94496534  3066.63744435
0.31100001 54006.11490595  3285.73218644
0.31200001 53243.10971764  2499.76411960
0.31300001 52490.03803578  2966.73709025
0.31400001 51749.24388687  2934.18226731
0.31500001 51017.37353892  2901.86834429
0.31600002 50297.52695637  3826.63603202
0.31700002 49587.24617980  3784.49880763
0.31800002 48887.32011311  2573.18421599
0.31900002 48198.17646279  3238.91761166
0.32000002 47519.37324879  2974.47530935
0.32100002 46850.18053180  2262.86382683
0.32200002 46192.18279117  2685.61363464
0.32300002 45542.30166055  2434.69156206
0.32400002 44903.75959821  3064.68173769
0.32500002 44274.70862748  3031.04669616
0.32600002 43655.57084973  2997.82819220
0.32700002 43046.36414630  3176.82182443
0.32800002 42447.64555662  3561.14539260
0.32900002 41856.56081343  2279.08984421
0.33000002 41276.51807853  2459.25506357
0.33100002 40704.91851545  2027.10503806
0.33200002 40144.34066920  2807.29387594
0.33300002 39592.31946632  2380.29035903
0.33400002 39050.42544609  3532.11114886
0.33500002 38517.46653200  2329.53648617
0.33600002 37993.44027496  2304.68219622
0.33700002 37478.73874564  1900.17214439
0.33800002 36974.10401101  2068.14660580
0.33900002 36477.75229944  2046.40200091
0.34000002 35990.80224403  2393.20850855
0.34100002 35512.95299522  2003.99603243
0.34200002 35044.99400672  2163.67803244
0.34300002 34585.24863002  2319.97858797
0.34400002 34135.38720835  2119.80764603
0.34500002 33693.78693278  2273.31991202
0.34600002 33262.03409027  2250.67564331
0.34700002 32837.95865692  2228.38398000
0.34800002 32423.50643322  2206.58183482
0.34900002 32017.57914416  2017.10758162
0.35000002 31620.74374548  1997.79868446
0.35100002 31233.31012070  1978.94262298
0.35200002 30853.06360875  1797.03677500
0.35300002 30482.77262734  1942.36236381
0.35400002 30120.48928629  1764.30774351
0.35500002 29767.22876667  2066.44111886
0.35600002 29422.00410053  2205.76775189
0.35700002 29085.33875659  1718.07104173
0.35800002 28757.50120952  1703.45066483
0.35900002 28438.48023303  2149.94920745
0.36000002 28127.52044685  2132.34742608
0.36100002 27824.40218175  1964.12464304
0.36200002 27531.02407059  1648.97076481
0.36300002 27244.42233466  1636.30008293
0.36400002 26966.74613931  2214.64413159
0.36500002 26696.26455953  1612.18749312
0.36600002 26434.92027606  2037.33940218
0.36700002 26180.94105849  2023.26322084
0.36800002 25935.84012700  1722.65858284
0.36900002 25698.32499650  1711.50852584
0.37000002 25468.21033043  1984.22836084
0.37100002 25245.76570573  1690.45655173
0.37200002 25031.82296728  1540.58361750
0.37300002 24825.16067154  1671.22989557
0.37400002 24625.90183492  1662.24845260
0.37500002 24434.54555769  1653.73012168
0.37600002 24250.72871703  1782.79240609
0.37700002 24074.18661833  1501.50709051
0.37800002 23904.97066922  1358.99764692
0.37900002 23743.81292162  1894.75636090
0.38000002 23588.98974860  1348.11082800
0.38100002 23440.67079518  1880.41070027
0.38200002 23300.69023028  1338.62471715
0.38300002 23166.72816541  1868.16504776
0.38400002 23040.14528486  1330.56845323
0.38500002 22919.65946682  1459.75318060
0.38600002 22807.07557021  1323.95079957
0.38700002 22699.96463276  1981.70700632
0.38800002 22599.58384724  1978.02866994
0.38900002 22505.64972315  1974.87085677
0.39000002 22418.60559315  2103.76204853
0.39100002 22336.99571809  1707.44003358
0.39200002 22262.31345536  1837.30881652
0.39300002 22192.96601720  1705.08565988
0.39400002 22130.91386109  1966.88506259
0.39500002 22073.38492180  1311.15912647
0.39600002 22021.86650498  1573.68265500
0.39700002 21975.49080777  1443.13054972
0.39800002 21935.86631787  1444.14782746
0.39900002 21900.63185658  1576.84556838
0.40000002 21871.13472284  1841.76834227
0.40100002 21846.50274560  1712.54743137
0.40200002 21827.56225269  1847.26668097
0.40300002 21813.32057594  1454.07601849
0.40400002 21804.02788488  1457.05423244
0.40500002 21799.02151688  1460.31652061
0.40600002 21799.79211126  1597.05284574
0.40700002 21804.26135708  1734.74711576
0.40800002 21813.43149432  1605.90490270
0.40900002 21826.46085272  1610.79288725
0.41000002 21844.36226109  1481.37549693
0.41100002 21866.12798372  1486.45945077
0.41200002 21890.99788781  1491.76212175
0.41300002 21921.26119221  1633.57246145
0.41400002 21954.32324833  1503.32235566
0.41500002 21991.11538114  1509.47023128
0.41600002 22030.43553713  1653.60456977
0.41700002 22074.67949335  2076.12370472
0.41800002 22122.40586259  1529.43260178
0.41900002 22171.60046067  1676.17307425
0.42000002 22224.37335494  2105.20386580
0.42100002 22280.67764414  1410.36696170
0.42200002 22339.59359213  1984.42619282
0.42300002 22400.63585445  2279.48881256
0.42400002 22464.21856373  2004.93160182
0.42500002 22530.83146161  2015.60827807
0.42600002 22598.50021509  1736.92080884
0.42700002 22669.55726517  1892.00133901
0.42800002 22741.94254669  1609.78847945
0.42900002 22817.07869271  2207.55246813
0.43000002 22893.95518682  1924.12255485
0.43100002 22971.01053607  1935.07801926
0.43200002 23051.02980311  2096.03023932
0.43300002 23131.73827866  1957.63910329
0.43400002 23214.44346003  1666.21675830
0.43500002 23297.63877781  1828.39877793
0.43600002 23382.83323027  1686.01926997
0.43700002 23468.31255435  1541.86820789
0.43800002 23554.16838647  1551.04206175
0.43900002 23641.97783199  1560.37061086
0.44000002 23729.65001642  2040.63134987
0.44100002 23818.32225443  1737.07032434
0.44200002 23907.25804765  2382.95605883
0.44300002 23996.70599438  2557.08911194
0.44400002 24086.20816603  1607.75447127
0.44500002 24175.24382685  2102.52105526
0.44600002 24264.38705792  2277.69812107
0.44700002 24354.43671219  2127.60369201
0.44800002 24443.19128789  2469.37351689
0.44900002 24532.22293127  2318.29517687
0.45000002 24621.26085360  1998.75405082
0.45100002 24708.84709567  3015.46784247
0.45200002 24796.40821023  2527.37402661
0.45300002 24882.90832659  1694.52613735
0.45400002 24968.94517360  1874.54364775
0.45500002 25054.43123570  2227.84013106
0.45600002 25138.35328893  2067.88103955
0.45700002 25221.80546928  1732.73811786
0.45800002 25303.57664395  2961.65726866
0.45900002 25384.32576140  2276.97412871
0.46000002 25464.29153350  2465.19818019
0.46100002 25541.96272179  1947.06391056
0.46200002 25618.96709911  2313.00855417
0.46300002 25694.26492739  2682.48138556
0.46400002 25767.51668609  2516.19812365
0.46500002 25840.31434641  1986.86186426
0.46600002 25910.25359177  2359.51735517
0.46700002 25978.47203055  2006.05770528
0.46800002 26045.61306276  2015.53986239
0.46900002 26110.05106806  2945.21390007
0.47000002 26172.73256735  2403.83473658
0.47100002 26233.52437119  1857.33361351
0.47200002 26292.50287801  2238.54380113
0.47300002 26349.13900733  2997.47819555
0.47400002 26402.96201397  2069.33224593
0.47500002 26455.10864629  2455.56330094
0.47600002 26505.82740740  2844.73806133
0.47700002 26552.75962076  2284.59954606
