# SAXS profile: number of points = 501, q_min = 0, q_max = 0.5, delta_q = 0.001
#    q    intensity    error
0.00000000 1628779.37420969 293.18028736
0.00100000 1628699.40430852 732.91474934
0.00200000 1628459.41681707 1172.49081724
0.00300000 1628059.65120720 1172.20299063
0.00400000 1627499.98031376 1342.68753478
0.00500000 1626780.87665110 1464.10284694
0.00600000 1625902.25502602 1707.19743728
0.00700000 1624864.71298240 2534.78905760
0.00800000 1623667.99320566 2411.14707171
0.00900000 1622313.35597014 2920.16416558
0.01000000 1620800.20523284 4011.48068117
0.01100000 1619129.74885549 2914.43367483
0.01200000 1617301.92584558 4099.86056177
0.01300000 1615317.91100524 4749.03486781
0.01400000 1613177.64984577 3629.64987306
0.01500000 1610882.64456757 5412.56592676
0.01600000 1608432.14468045 4921.80258274
0.01700000 1605828.53388266 5636.45840677
0.01800000 1603071.65361725 4568.75441839
0.01900000 1600162.11908826 5760.58388865
0.02000000 1597101.19708598 6540.12969791
0.02100000 1593890.83381312 5259.83999006
0.02200000 1590529.58002381 7682.25822054
0.02300000 1587020.58352631 6855.92923290
0.02400000 1583363.38816947 8906.41946456
0.02500000 1579560.42856708 9240.42892913
0.02600000 1575611.91262915 7657.47424562
0.02700000 1571519.73268451 9240.53645141
0.02800000 1567283.80258660 7499.45333930
0.02900000 1562906.55576199 7736.38780623
0.03000000 1558389.37575682 7971.16202339
0.03100000 1553732.51888293 10441.08300732
0.03200000 1548937.45877656 8433.96485149
0.03300000 1544007.76888270 7874.43998432
0.03400000 1538942.14468200 8079.44663237
0.03500000 1533743.20401917 12423.32052624
0.03600000 1528412.18218565 11027.49440409
0.03700000 1522951.16053628 11285.06862148
0.03800000 1517361.42208717 10651.87767602
0.03900000 1511644.94465404 9976.85709675
0.04000000 1505801.81877453 10186.74977605
0.04100000 1499835.82655690 10393.86275997
0.04200000 1493747.65988452 13488.54199453
0.04300000 1487538.17799102 12763.07815960
0.04400000 1481211.05023045 12997.62756941
0.04500000 1474767.76423490 12211.07765525
0.04600000 1468207.88194685 10350.86604890
0.04700000 1461535.69318524 13679.97472444
0.04800000 1454751.81192378 10692.42631514
0.04900000 1447859.66144743 13030.73755958
0.05000000 1440859.11794597 14329.34459523
0.05100000 1433754.33553697 11183.28433815
0.05200000 1426544.05766853 12475.12836567
0.05300000 1419233.85494353 13794.95371314
0.05400000 1411823.76256562 18636.07453494
0.05500000 1404316.39189981 18874.01318759
0.05600000 1396712.55411065 13136.08218439
0.05700000 1389017.44498807 13292.89756903
0.05800000 1381230.11599344 13446.27580704
0.05900000 1373352.82530023 16068.22880649
0.06000000 1365389.49838798 17490.64029149
0.06100000 1357341.47881848 13885.60397721
0.06200000 1349210.69229348 15300.04996579
0.06300000 1341000.60088351 15448.32764447
0.06400000 1332709.69412769 19490.88018814
0.06500000 1324343.66383336 15733.20346230
0.06600000 1315904.51737152 23804.71383304
0.06700000 1307392.19155460 14668.94107573
0.06800000 1298811.25690668 17475.50627969
0.06900000 1290163.48788909 20320.07588562
0.07000000 1281449.90247472 13647.44210044
0.07100000 1272673.29554117 17868.33390631
0.07200000 1263836.44792098 17990.71267896
0.07300000 1254941.36926403 19501.78979213
0.07400000 1245990.97427410 15419.13902925
0.07500000 1236986.03189269 15511.80556701
0.07600000 1227928.61897014 19855.60669959
0.07700000 1218823.37354809 15686.25755307
0.07800000 1209670.26054422 20068.43056356
0.07900000 1200471.99315079 15846.23105284
0.08000000 1191232.21035552 14473.47203479
0.08100000 1181951.62580109 20353.20795123
0.08200000 1172632.27405960 14599.27249712
0.08300000 1163278.07001057 23451.68699205
0.08400000 1153889.27557142 23539.34232656
0.08500000 1144469.62930584 17716.39069335
0.08600000 1135019.83915183 19255.61247529
0.08700000 1125544.45732152 16342.90628773
0.08800000 1116042.61326416 16389.08654548
0.08900000 1106519.94939685 17925.62402219
0.09000000 1096975.21348351 20963.19731443
0.09100000 1087412.36315763 15006.29131659
0.09200000 1077832.89362703 15035.76957258
0.09300000 1068241.70992778 15062.20881779
0.09400000 1058635.42954918 15085.55558006
0.09500000 1049019.88170071 21148.24180911
0.09600000 1039395.98646142 16635.53354531
0.09700000 1029768.34837427 22706.39314914
0.09800000 1020136.50179191 16663.93054027
0.09900000 1010503.52355452 15157.55356606
0.10000000 1000869.88885621 15163.17952925
0.10100000 991238.10492532 18199.13246237
0.10200000 981611.29576443 18199.07427949
0.10300000 971989.95318697 18195.65277960
0.10400000 962377.57413139 22736.17125848
0.10500000 952776.72767714 21208.81095595
0.10600001 943184.85416631 22707.17643251
0.10700001 933608.71257950 22686.69278326
0.10800001 924047.40115083 18129.81086380
0.10900001 914504.84700782 19616.12989156
0.11000001 904980.33952029 21095.09270715
0.11100001 895476.89319603 22566.01877080
0.11200001 885996.43964483 19522.93246666
0.11300001 876540.09248853 17986.60354469
0.11400001 867110.65080029 17949.19131669
0.11500001 857708.89498079 16416.54902295
0.11600001 848336.77019999 22332.46652718
0.11700001 838996.27475866 20790.32866764
0.11800001 829687.13970763 22214.87421195
0.11900001 820411.99509931 17720.89992883
0.12000001 811171.76810145 17667.32194147
0.12100001 801970.97139600 22014.10420186
0.12200001 792807.67866995 20478.22330480
0.12300001 783685.06879963 14576.54296644
0.12400001 774603.16546481 17428.57204415
0.12500001 765563.33177396 24597.55100895
0.12600001 756569.58610202 17295.18155330
0.12700001 747620.18501408 15789.73905161
0.12800001 738717.31234721 18582.43486787
0.12900001 729863.04500922 18502.02906302
0.13000001 721058.21499573 14168.79459251
0.13100001 712302.99127928 16924.31987057
0.13200001 703599.17516902 19651.52588885
0.13300001 694948.38244529 20952.69471850
0.13400001 686351.07311531 15288.47087443
0.13500001 677808.89159916 20740.95306083
0.13600001 669322.35219002 16505.48998325
0.13700001 660893.10447562 20520.73186159
0.13800001 652520.01647823 16326.05158215
0.13900001 644206.45763250 17586.83712273
0.14000001 635951.88054044 13450.38290776
0.14100001 627758.87455599 14708.39112454
0.14200001 619626.47800622 14620.08743812
0.14300001 611556.63800107 13209.62400389
0.14400001 603547.28604091 17065.30031777
0.14500001 595603.68938308 14348.09355407
0.14600001 587724.09691873 14255.24864325
0.14700001 579909.97475821 15448.80245638
0.14800001 572158.92097960 14066.52773592
0.14900001 564475.71062257 16510.91531471
0.15000001 556858.43590620 15135.41300206
0.15100001 549308.25248827 12524.22874769
0.15200001 541826.70123204 12434.92338004
0.15300001 534413.51592578 13579.44808047
0.15400001 527067.15664943 15930.60556151
0.15500001 519791.58087538 14595.74827980
0.15600001 512583.79002507 14485.61858976
0.15700001 505448.37397421 13177.03973142
0.15800001 498380.46281857 13075.01205917
0.15900001 491384.69747419 16510.52661444
0.16000001 484457.22671296 21059.35663927
0.16100001 477603.45433251 16248.07028337
0.16200001 470820.03667388 17267.32566014
0.16300001 464107.55386443 13700.45563685
0.16400001 457466.89583370 18115.68993025
0.16500001 450897.18503833 14595.54256877
0.16600001 444399.54407656 14471.87183611
0.16700001 437973.34938458 14348.00760328
0.16800001 431619.52788982 16412.33332294
0.16900001 425338.05984125 14099.95734951
0.17000001 419127.23055232 10750.61397131
0.17100001 412988.73205988 12786.13174835
0.17200001 406922.41007494 11615.60074411
0.17300001 400926.85916471 12557.02982204
0.17400001 395004.63791252 14516.42112884
0.17500001 389152.31774224 15410.43251039
0.17600001 383370.30986837 15267.72331159
0.17700001 377662.40580982 14117.02139593
0.17800001 372023.62894606 13984.36887259
0.17900001 366455.86639574 11873.17063203
0.18000001 360959.36552599 11760.05668432
0.18100001 355533.58166779 10676.67396181
0.18200001 350176.23004195 11534.80556246
0.18300001 344888.97222654 15230.29773299
0.18400001 339671.60421432 9425.88746223
0.18500001 334523.45607952 9333.20486554
0.18600001 329444.22281297 9240.91088648
0.18700001 324433.07306162 12808.61832961
0.18800001 319488.63317964 11774.75413215
0.18900001 314615.11830973 9863.18442502
0.19000001 309804.43585207 11538.66675850
0.19100001 305063.65286878 9664.41697953
0.19200001 300387.79951764 10435.47264833
0.19300001 295779.20248354 11189.32775868
0.19400001 291234.51288178 11074.19287563
0.19500001 286755.36605683 8430.60816046
0.19600001 282340.06053301 13349.03869283
0.19700001 277990.16831627 10733.20090592
0.19800001 273702.39090579 10621.02178104
0.19900001 269478.26442267 11318.08764064
0.20000001 265314.66918158 8799.16141927
0.20100001 261214.65782742 11080.72630874
0.20200001 257174.44779867 10180.25099726
0.20300001 253195.52062777 9297.33995689
0.20400001 249277.42753111 9198.33751066
0.20500001 245417.41590720 8341.73836097
0.20600001 241616.10399031 9002.61646021
0.20700001 237873.57928719 10390.31843441
0.20800001 234187.97586564 11746.86942470
0.20900001 230561.98095071 10167.78384057
0.21000001 226989.21771178 7184.20908019
0.21100001 223473.56108276 8527.75149405
0.21200001 220011.94624453 8435.25841779
0.21300001 216604.95189966 9038.92507009
0.21400001 213252.08667047 8252.85614431
0.21500001 209953.13037796 8843.22626961
0.21600001 206705.05751939 8073.89992843
0.21700001 203509.56146685 7320.23927206
0.21800001 200365.10131780 9872.99083424
0.21900001 197270.67309111 7811.91902377
0.22000001 194225.47654840 9014.00479282
0.22100001 191230.81336945 8915.18094082
0.22200001 188284.03951538 10076.96227135
0.22300001 185384.63058365 6851.81627036
0.22400001 182531.90517878 6776.49730020
0.22500001 179727.51868723 11576.25002605
0.22600001 176967.08532252 8436.02135625
0.22700001 174252.56101913 7747.26922927
0.22800001 171582.14897820 7662.00122496
0.22900001 168954.91841000 7577.62844904
0.23000001 166371.21462484 8070.66800313
0.23100001 163831.31093587 9122.12782432
0.23200001 161330.97288530 7330.07309971
0.23300001 158873.23505808 7807.03113998
0.23400001 156455.18848734 7169.55935152
0.23500001 154076.35910744 8726.88539259
0.23600001 151737.11713750 5394.25476937
0.23700001 149436.91281338 6935.36745170
0.23800001 147173.96445517 7386.66162538
0.23900001 144948.40115761 7827.21403273
0.24000001 142759.00593027 5676.81213933
0.24100001 140606.56091995 5614.42024310
0.24200001 138489.54665867 6057.53305738
0.24300001 136406.50089664 6490.22161967
0.24400001 134358.01037821 6418.95424946
0.24500001 132342.28374638 6348.45965162
0.24600001 130360.13554152 6278.79622538
0.24700001 128410.52410043 5254.55889476
0.24800001 126492.47703786 7086.74136130
0.24900001 124604.79540841 5607.21605864
0.25000001 122748.76118203 4621.49107714
0.25100001 120921.82192409 5942.09861046
0.25200001 119126.33722416 5425.01365384
0.25300001 117358.49540999 7154.17421866
0.25400001 115619.96388784 6191.44935912
0.25500001 113907.72013824 4811.46232628
0.25600001 112224.06705622 5624.10938661
0.25700001 110566.43295637 4706.81327365
0.25800001 108935.49382848 5925.00178967
0.25900001 107330.97374240 7116.04389581
0.26000001 105751.36365373 4140.16608294
0.26100001 104195.81319188 4504.38521742
0.26200001 102666.38827059 4050.18920892
0.26300001 101158.99109043 4406.48586040
0.26400001 99676.60662387  4358.35983086
0.26500001 98216.74375260  4310.73308728
0.26600001 96779.26854393  3876.00988860
0.26700001 95364.11048827  4217.00116534
0.26800001 93970.97550800  4550.07484941
0.26900001 92598.55974519  4125.26603186
0.27000001 91247.71062795  5192.90745758
0.27100001 89916.89862938  4769.19252899
0.27200001 88606.97509357  3991.30138197
0.27300001 87316.56764017  3947.58220983
0.27400001 86044.28467689  4259.19229307
0.27500001 84793.07609732  3861.47686822
0.27600001 83558.17114752  3819.02639304
0.27700001 82343.59688681  3777.10096796
0.27800001 81145.89443689  3735.55142720
0.27900001 79966.31986368  5037.87838984
0.28000001 78803.65373780  4650.20382715
0.28100001 77658.23217388  3613.43771407
0.28200001 76529.90794555  3898.43369526
0.28300001 75417.74010901  3534.07546878
0.28400001 74321.13669404  4448.12024167
0.28500001 73240.99919411  3770.44681697
0.28600001 72176.13623740  5592.92906176
0.28700001 71127.39595216  3994.51474574
0.28800001 70092.10870198  3342.34236166
0.28900001 69073.09550814  3305.14777651
0.29000001 68068.21711411  4159.64894474
0.29100001 67078.07446019  3819.42574055
0.29200001 66101.63529899  3776.71711158
0.29300001 65139.26715550  3159.90599929
0.29400001 64189.87398282  3124.44226401
0.29500001 63255.35379498  2808.53784144
0.29600001 62332.65978499  3332.30414985
0.29700001 61423.83175547  4118.46811416
0.29800001 60527.97824191  4343.48792425
0.29900001 59644.97404333  2952.42635491
0.30000001 58773.85097902  2919.00344706
0.30100001 57915.87295044  3148.30700263
0.30200001 57069.19208244  2853.17439323
0.30300001 56235.42009598  2820.76880555
0.30400001 55413.33131030  2788.67603021
0.30500001 54603.36755157  3508.81256498
0.30600001 53803.91850414  3964.27290306
0.30700001 53016.85581931  3184.19251126
0.30800001 52240.78950889  3874.17713340
0.30900001 51476.16211433  2872.36998197
0.31000001 50722.67618679  3076.07684298
0.31100001 49979.70582795  2572.95537784
0.31200001 49248.64164179  2774.66860147
0.31300001 48527.43451339  2742.77072856
0.31400001 47818.33748398  2711.29986371
0.31500001 47118.63132971  2456.76555385
0.31600002 46430.35410738  2207.76344234
0.31700002 45751.79966047  2618.83313656
0.31800002 45083.45154587  2157.24325861
0.31900002 44426.03533105  2558.93975623
0.32000002 43778.82222554  2318.74542897
0.32100002 43141.43363222  2500.47761172
0.32200002 42514.84798299  2471.81337877
0.32300002 41896.55482122  2239.78992680
0.32400002 41289.46499406  2214.14766515
0.32500002 40692.04152625  2586.79320231
0.32600002 40104.55947625  2163.84160900
0.32700002 39526.64787397  2528.12451773
0.32800002 38959.39988513  3268.49900814
0.32900002 38399.78320621  2090.86829459
0.33000002 37851.27271194  1879.31577914
0.33100002 37311.13632853  2229.71361258
0.33200002 36781.94891595  2020.98427889
0.33300002 36261.44652458  1998.36841260
0.33400002 35751.06919654  2155.78957464
0.33500002 35249.29585790  2309.53397398
0.33600002 34756.61064425  2108.33610152
0.33700002 34273.31427015  2780.25138526
0.33800002 33799.99848482  1718.73000435
0.33900002 33335.03546825  1700.08688939
0.34000002 32879.29127027  2354.48615937
0.34100002 32432.69531950  1830.17708355
0.34200002 31995.98996563  2304.67126637
0.34300002 31567.69059563  1954.67149425
0.34400002 31148.87703535  1934.34535551
0.34500002 30738.55548697  2392.99665799
0.34600002 30337.74321125  1736.98756982
0.34700002 29944.68639795  2657.29159681
0.34800002 29561.38650073  2785.56958189
0.34900002 29186.49451633  2145.20744855
0.35000002 28820.59402440  1972.62565143
0.35100002 28464.21011191  1502.91036509
0.35200002 28114.70547865  1935.27584328
0.35300002 27775.30671635  1622.35574214
0.35400002 27444.03685244  2192.09254741
0.35500002 27121.55477196  2172.43664013
0.35600002 26806.86461418  2296.81226893
0.35700002 26500.87611189  2276.95538338
0.35800002 26203.55390948  1411.06144486
0.35900002 25915.10251297  2239.06496317
0.36000002 25634.64621895  1388.11615851
0.36100002 25361.85131268  1514.86345066
0.36200002 25098.72797554  2049.93870450
0.36300002 24842.53165649  1492.04252196
0.36400002 24595.00900303  1750.54984871
0.36500002 24354.65842380  1871.89913512
0.36600002 24123.30236116  1460.78664367
0.36700002 23899.25929672  1451.16309324
0.36800002 23683.98522729  1441.99950887
0.36900002 23476.29622158  1433.22795222
0.37000002 23275.81888014  1683.88919665
0.37100002 23082.93048915  1416.83034054
0.37200002 22898.44581995  1793.63534604
0.37300002 22721.10146171  1529.58462286
0.37400002 22551.21556966  1522.20712306
0.37500002 22389.01002019  1262.74022496
0.37600002 22234.34639373  1760.29328738
0.37700002 22086.59295445  1628.00284379
0.37800002 21946.28823314  1372.41119967
0.37900002 21813.75345024  1367.72240612
0.38000002 21687.51015024  1859.16189570
0.38100002 21567.63324669  1606.57307665
0.38200002 21456.01070120  1232.64787318
0.38300002 21350.16234696  1475.72329133
0.38400002 21251.69497736  1840.92816463
0.38500002 21159.29621009  1347.63563946
0.38600002 21074.35941975  1223.36662227
0.38700002 20994.94821304  1344.09664828
0.38800002 20922.14876477  1464.96892591
0.38900002 20855.50075348  1342.05153707
0.39000002 20795.75920212  1341.63846849
0.39100002 20741.32099368  2195.26151797
0.39200002 20693.19190598  1463.83646478
0.39300002 20650.81237512  1708.64829687
0.39400002 20615.12453256  1710.02466099
0.39500002 20584.14800213  1467.23813911
0.39600002 20559.00316739  1346.71756628
0.39700002 20538.62290993  1226.15584582
0.39800002 20524.86591229  2088.30258119
0.39900002 20515.42233462  1600.20301792
0.40000002 20511.54782010  1357.14662582
0.40100002 20512.33613915  1236.89392779
0.40200002 20518.65574712  1488.42335842
0.40300002 20529.40118026  1866.12265570
0.40400002 20544.87558212  1622.53162597
0.40500002 20564.67847729  1377.62787647
0.40600002 20589.88082031  1508.41474037
0.40700002 20618.93444811  1388.06673281
0.40800002 20652.03444453  1267.00237320
0.40900002 20688.87088046  1272.36561943
0.41000002 20730.63327840  1405.84796239
0.41100002 20775.82339428  1540.73513592
0.41200002 20824.17850781  1677.07529559
0.41300002 20877.38100264  1815.07959037
0.41400002 20933.42451118  1694.03745884
0.41500002 20992.93342510  1833.94275092
0.41600002 21054.98479434  1448.68829742
0.41700002 21121.59242116  1721.62107983
0.41800002 21191.40675915  1465.06797571
0.41900002 21262.45957652  1473.48851847
0.42000002 21336.91123909  1616.91121031
0.42100002 21414.77290487  1355.55518911
0.42200002 21495.03627764  2045.79017466
0.42300002 21577.20251044  1784.00318810
0.42400002 21661.83054087  1519.03593866
0.42500002 21748.95336419  1528.73400441
0.42600002 21837.09233927  1818.26557979
0.42700002 21928.44526400  1689.36750319
0.42800002 22020.92579246  2408.97929122
0.42900002 22116.13073034  1997.08669959
0.43000002 22212.46787289  1436.03611603
0.43100002 22309.01873786  1879.31182753
0.43200002 22408.22531168  1746.49716356
0.43300002 22508.00219868  1465.27101257
0.43400002 22609.36621954  1622.78733731
0.43500002 22711.25174073  1782.37912108
0.43600002 22814.66016834  1495.50104490
0.43700002 22918.36685647  2108.03148336
0.43800002 23022.15736193  2274.01370119
0.43900002 23127.68712962  2594.92661892
0.44000002 23232.94705432  2151.60332866
0.44100002 23338.89377086  1856.84247641
0.44200002 23444.93205541  2336.87371337
0.44300002 23551.32870412  1882.22227923
0.44400002 23657.40205863  2052.87116092
0.44500002 23763.05544954  1907.69818190
0.44600002 23868.47024523  1920.45720694
0.44700002 23974.40991026  2094.40454902
0.44800002 24079.09191396  1783.89960899
0.44900002 24183.77126259  1958.88556511
0.45000002 24288.30118706  1971.72438381
0.45100002 24391.04142188  2149.82649281
0.45200002 24493.60692012  2163.64286983
0.45300002 24595.05099362  1674.92305204
0.45400002 24695.59870590  1854.02216071
0.45500002 24795.40449342  1696.00574773
0.45600002 24893.65950197  2047.75252768
0.45700002 24991.03261715  2747.01443547
0.45800002 25086.66038019  2418.10330865
0.45900002 25181.04457536  2258.73980546
0.46000002 25274.41590358  2446.81631959
0.46100002 25365.39912152  2460.95113941
0.46200002 25455.39150102  1944.66472589
0.46300002 25543.47717004  2133.39131435
0.46400002 25629.33596557  1966.41089516
0.46500002 25714.56838176  1977.19325658
0.46600002 25796.69965732  3072.00012429
0.46700002 25877.09990304  2724.85874894
0.46800002 25956.04178483  2556.41067655
0.46900002 26032.19813881  2018.79706135
0.47000002 26106.41496060  2951.06928702
0.47100002 26178.65208005  1853.44865512
0.47200002 26248.63597471  2421.04305388
0.47300002 26316.20462333  2058.19046114
0.47400002 26380.95891820  2255.57209441
0.47500002 26443.70508063  2076.88869547
0.47600002 26504.64851121  2465.32999812
0.47700002 26561.98303190  2285.39312839
