# SAXS profile: number of points = 501, q_min = 0, q_max = 0.5, delta_q = 0.001
#    q    intensity    error
0.00000000 1628779.37420969 293.18028736
0.00100000 1628699.40082567 732.91474778
0.00200000 1628459.40640276 952.64878291
0.00300000 1628059.62469673 1074.51939058
0.00400000 1627499.92978702 1464.74999247
0.00500000 1626780.80978320 1610.51306543
0.00600000 1625902.14961198 2390.07625723
0.00700000 1624864.55937575 1949.83755229
0.00800000 1623667.80286344 2411.14678905
0.00900000 1622313.12173707 2920.16374396
0.01000000 1620799.90329294 3476.61594268
0.01100000 1619129.40267713 4663.09288274
0.01200000 1617301.49067067 3153.73804508
0.01300000 1615317.39767573 4070.60002168
0.01400000 1613177.06439825 4355.57826696
0.01500000 1610881.97948396 6572.39876896
0.01600000 1608431.43695458 4921.80041710
0.01700000 1605827.66650916 5636.45536229
0.01800000 1603070.68532418 4568.75165876
0.01900000 1600161.05991316 5280.53173598
0.02000000 1597100.05364287 6540.12501551
0.02100000 1593889.58303447 6311.80303498
0.02200000 1590528.14761770 7682.25130202
0.02300000 1587019.10793390 5713.26904862
0.02400000 1583361.71793441 7125.12805559
0.02500000 1579558.67583870 6776.30702883
0.02600000 1575609.95988145 8295.58681820
0.02700000 1571517.66803334 9900.56176207
0.02800000 1567281.60298920 8862.97787136
0.02900000 1562904.20531587 8439.68309621
0.03000000 1558386.76912958 11594.39809526
0.03100000 1553729.78869290 10441.06466044
0.03200000 1548934.54742534 8433.94899918
0.03300000 1544004.74156122 9449.30945397
0.03400000 1538938.96102849 10503.25889364
0.03500000 1533739.85870200 9938.63474334
0.03600000 1528408.58796860 9330.93486077
0.03700000 1522947.36792848 11285.04051826
0.03800000 1517357.47333957 14202.46660774
0.03900000 1511640.83609580 11790.79906758
0.04000000 1505797.48186364 10186.72043685
0.04100000 1499831.23738809 10393.83095703
0.04200000 1493742.82572713 10598.10584021
0.04300000 1487533.19428608 13744.80735321
0.04400000 1481205.90493220 11997.76838715
0.04500000 1474762.37623711 14246.20521640
0.04600000 1468202.23664264 11385.90887446
0.04700000 1461529.90523297 12627.61896850
0.04800000 1454745.84572495 10692.38246357
0.04900000 1447853.31860170 13030.68047396
0.05000000 1440852.57081854 12124.77494804
0.05100000 1433747.59564065 22366.46353391
0.05200000 1426537.08023126 14743.26141124
0.05300000 1419226.67242748 11495.73658257
0.05400000 1411816.33218718 13976.98234045
0.05500000 1404308.71929659 14155.43255085
0.05600000 1396704.74413524 19106.92179138
0.05700000 1389009.30919402 13292.81970948
0.05800000 1381221.78845653 17113.33875804
0.05900000 1373344.17636548 13596.10798104
0.06000000 1365380.70607345 12493.23404424
0.06100000 1357332.40785000 13885.51118119
0.06200000 1349201.39773411 12749.95380457
0.06300000 1340991.02552609 14160.86589165
0.06400000 1332699.88258693 15592.58935548
0.06500000 1324333.69450153 20977.44670218
0.06600000 1315894.21300723 17192.15869734
0.06700000 1307381.67998363 14668.82313590
0.06800000 1298800.41068359 18819.61883173
0.06900000 1290152.71546141 18965.24580521
0.07000000 1281438.62883029 19106.25085058
0.07100000 1272661.86539556 23366.07294308
0.07200000 1263824.66696228 16606.65690185
0.07300000 1254929.45255718 20894.57636410
0.07400000 1245978.83676882 18222.44134172
0.07500000 1236973.75818832 14101.50150432
0.07600000 1227916.03803360 15600.67399459
0.07700000 1218810.56809104 19964.11804142
0.07800000 1209657.26395460 17201.32710011
0.07900000 1200458.76621130 15846.05645723
0.08000000 1191218.69334011 15920.63858334
0.08100000 1181938.01111827 17445.40586261
0.08200000 1172618.37209266 21898.64912643
0.08300000 1163263.80566491 16122.83710319
0.08400000 1153875.05283659 23539.05218276
0.08500000 1144455.10446143 17716.16584875
0.08600000 1135005.08493588 22217.72558078
0.08700000 1125529.51751772 14856.99032888
0.08800000 1116027.44065896 14898.96703251
0.08900000 1106504.48564705 22406.71688679
0.09000000 1096959.68240328 16470.85040501
0.09100000 1087396.74700237 19507.89855773
0.09200000 1077816.83946030 24056.87298711
0.09300000 1068225.68663601 16568.18117830
0.09400000 1058619.28889409 18102.39069086
0.09500000 1049003.52441297 18126.78175386
0.09600000 1039379.43445371 22684.45722330
0.09700000 1029751.62907940 22706.02448867
0.09800000 1020119.68096575 22723.16696190
0.09900000 1010486.45689626 16673.02732280
0.10000000 1000852.80448519 25776.96519173
0.10100000 991220.93437213 15165.68100916
0.10200000 981593.84829909 18198.75080347
0.10300000 971972.29367363 15162.76849458
0.10400000 962359.85644277 25767.18636847
0.10500000 952759.10301298 19693.53158585
0.10600001 943166.98593285 18165.39700381
0.10700001 933590.68235577 16636.58674246
0.10800001 924029.25279193 18129.45479298
0.10900001 914486.64464903 19615.73945095
0.11000001 904962.02403153 22601.42761403
0.11100001 895458.42311458 19556.81288143
0.11200001 885977.96369034 16519.05991068
0.11300001 876521.64367142 17986.22497494
0.11400001 867092.09897458 17948.80729388
0.11500001 857690.35103879 16416.19409189
0.11600001 848318.18033736 20843.17867243
0.11700001 838977.67247480 22274.85825324
0.11800001 829668.32510012 22214.37045081
0.11900001 820393.17677572 16243.78566527
0.12000001 811153.08093841 14722.42911253
0.12100001 801952.14996498 14675.72503571
0.12200001 792788.94715067 16089.65244043
0.12300001 783666.28482059 14576.19358441
0.12400001 774584.39810397 17428.14977851
0.12500001 765544.43715264 14468.79054396
0.12600001 756550.69637035 14412.29144501
0.12700001 747601.25664338 18660.12824520
0.12800001 738698.62110442 17152.58279043
0.12900001 729844.32415699 17078.35799021
0.13000001 721039.50186222 15585.26956736
0.13100001 712284.46584232 15513.55639732
0.13200001 703580.62024099 16843.72084259
0.13300001 694930.01152710 20952.14083529
0.13400001 686332.65711486 19457.53174654
0.13500001 677790.58849725 19357.70012016
0.13600001 669304.10407372 17880.45998341
0.13700001 660874.76870815 17784.14086452
0.13800001 652501.79300813 14965.12932833
0.13900001 644188.46423223 14880.75422551
0.14000001 635934.09474258 14795.00741193
0.14100001 627741.09681163 18719.24038978
0.14200001 619608.97784098 14619.67452170
0.14300001 611539.11815798 14530.17013279
0.14400001 603530.07646587 14439.45776055
0.14500001 595586.39352677 18260.67968693
0.14600001 587706.95974824 15550.72688853
0.14700001 579893.10905198 18023.07867960
0.14800001 572142.19872139 15344.85449366
0.14900001 564459.07967712 15240.39587034
0.15000001 556842.04435233 15134.96747961
0.15100001 549291.89042262 12523.85569257
0.15200001 541810.84661503 14921.47141988
0.15300001 534397.65100044 19751.33811302
0.15400001 527051.68408788 17155.53312665
0.15500001 519776.19499463 13379.03989056
0.15600001 512568.61415369 15692.28886291
0.15700001 505433.36851776 15572.40281900
0.15800001 498365.63283451 19017.63344657
0.15900001 491370.18200740 11792.88492481
0.16000001 484443.01060864 15209.08903596
0.16100001 477589.39100266 17408.13412378
0.16200001 470806.21892690 14964.57637501
0.16300001 464093.97784424 11416.71239393
0.16400001 457453.64888734 14718.57184781
0.16500001 450884.30523342 13472.42367643
0.16600001 444386.84780095 13358.26927558
0.16700001 437961.10369283 14347.60643440
0.16800001 431607.32157681 14223.61995415
0.16900001 425326.06502084 11930.39668716
0.17000001 419115.56795078 13975.40927323
0.17100001 412977.37341441 11720.29841095
0.17200001 406911.32207861 11615.28423724
0.17300001 400916.16544403 14649.47737714
0.17400001 394994.26816957 10368.60002912
0.17500001 389142.34083845 13355.36576832
0.17600001 383360.56605103 10178.22350936
0.17700001 377652.90898895 10083.33314625
0.17800001 372014.51640728 10987.44926105
0.17900001 366446.95959864 12862.28888944
0.18000001 360950.77678751 14699.72107901
0.18100001 355525.51808088 10676.43181229
0.18200001 350168.37075709 9612.12223134
0.18300001 344881.39339752 12374.34497966
0.18400001 339664.56447908 9425.69210957
0.18500001 334516.59776843 12132.91757425
0.18600001 329437.86852190 15709.24550263
0.18700001 324426.99762713 12808.37847145
0.18800001 319482.89539102 9963.07456349
0.18900001 314609.65971934 8966.37572564
0.19000001 309799.36047233 10650.90251628
0.19100001 305059.01330840 17571.39999681
0.19200001 300383.43059961 10435.32087211
0.19300001 295775.12358801 12049.87910436
0.19400001 291230.93724514 8518.50531695
0.19500001 286752.23995857 11802.72275443
0.19600001 282337.13175782 10011.67516525
0.19700001 277987.60776555 9081.85557489
0.19800001 273700.23947016 10620.93829457
0.19900001 269476.48797295 10509.58352763
0.20000001 265313.13595189 10398.94885510
0.20100001 261213.59876821 7914.77241675
0.20200001 257173.74855030 10180.22331752
0.20300001 253195.14286191 10072.10325910
0.20400001 249277.41972203 9964.86532439
0.20500001 245417.75669641 13650.13627265
0.20600001 241616.72093067 8252.41949346
0.20700001 237874.67290195 10390.36620350
0.20800001 234189.39609750 8810.20549765
0.20900001 230563.73846709 10894.13715755
0.21000001 226991.29669686 8621.12985609
0.21100001 223476.05103051 12791.76976570
0.21200001 220014.65841756 10544.20300313
0.21300001 216608.07826156 10429.67946136
0.21400001 213255.57536452 7565.24189371
0.21500001 209957.03109408 10884.17300649
0.21600001 206709.24299879 8746.90203103
0.21700001 203514.16361052 7320.40481118
0.21800001 200370.01390294 8556.80184830
0.21900001 197275.99913103 9114.15159078
0.22000001 194231.13653644 10945.89621706
0.22100001 191236.66843091 7641.81763183
0.22200001 188290.23823611 7557.97052017
0.22300001 185391.12951037 6229.14224610
0.22400001 182538.69192917 8008.88548710
0.22500001 179734.64574802 7311.60573478
0.22600001 176974.57956857 9038.97707890
0.22700001 174260.27280181 7151.64193398
0.22800001 171590.28686365 7662.36462225
0.22900001 168963.29548852 6995.08076403
0.23000001 166379.83285659 8071.08607357
0.23100001 163840.20778858 5701.63950069
0.23200001 161340.23590108 7330.49396485
0.23300001 158882.70631633 7807.49655764
0.23400001 156464.95775443 8273.08503254
0.23500001 154086.44567765 9818.38878295
0.23600001 151747.38343190 5934.08170977
0.23700001 149447.59350923 6935.86314281
0.23800001 147184.75129160 6859.54565839
0.23900001 144959.41861086 6784.10111187
0.24000001 142770.31141850 5677.26170209
0.24100001 140618.04457564 5614.87878550
0.24200001 138501.25169607 8077.39338099
0.24300001 136418.46118536 5492.20750712
0.24400001 134370.25039489 6419.53901628
0.24500001 132354.68535978 5372.27693289
0.24600001 130372.75926719 5313.34205528
0.24700001 128423.33659371 5732.81801674
0.24800001 126505.46890442 6142.47333323
0.24900001 124618.01443273 6075.12849099
0.25000001 122762.23814697 6008.59803036
0.25100001 120935.36538132 6399.89983875
0.25200001 119140.06345395 5425.63874638
0.25300001 117372.36670648 6707.83107463
0.25400001 115633.97470199 4422.99974161
0.25500001 113921.87389733 6124.44023048
0.25600001 112238.33458762 4326.78800306
0.25700001 110580.84106493 4707.42662686
0.25800001 108950.01457032 5079.24991959
0.25900001 107345.60991250 4605.12688314
0.26000001 105766.14431037 5382.96816937
0.26100001 104210.58198140 4505.02367222
0.26200001 102681.33277377 4455.85664655
0.26300001 101174.08796607 4407.14348034
0.26400001 99691.73759141  3962.74675677
0.26500001 98231.96866540  5879.18360282
0.26600001 96794.53449890  6202.59406419
0.26700001 95379.39080897  5751.37753794
0.26800001 93986.38453984  4550.82095477
0.26900001 92613.99048213  4876.12682963
0.27000001 91263.16885475  4822.80238635
0.27100001 89932.36644374  5870.78515927
0.27200001 88622.47438463  5080.72669691
0.27300001 87332.09740116  3948.28431036
0.27400001 86059.79457148  4969.95337170
0.27500001 84808.63275120  3862.18531827
0.27600001 83573.68334447  5208.73006095
0.27700001 82359.01151148  4121.24513108
0.27800001 81161.31555459  3396.60121671
0.27900001 79981.76836961  4367.00475966
0.28000001 78819.03724264  3322.22257701
0.28100001 77673.56716548  3614.15125126
0.28200001 76545.18613465  3899.21196625
0.28300001 75432.96599233  3856.13340404
0.28400001 74336.29468648  3495.66442308
0.28500001 73256.06951431  3771.22263709
0.28600001 72191.15217044  4040.17802245
0.28700001 71142.32327420  3073.34851091
0.28800001 70106.92559372  3343.04890517
0.28900001 69087.83649320  3606.38523565
0.29000001 68082.82658681  4457.72328177
0.29100001 67092.54332056  3526.38424385
0.29200001 66116.00906207  4649.27797732
0.29300001 65153.50587994  3735.25066891
0.29400001 64203.98649977  3693.33449823
0.29500001 63269.34683324  3370.99095885
0.29600001 62346.44404932  3333.04105665
0.29700001 61437.52899969  3295.50921155
0.29800001 60541.47197224  2715.28514649
0.29900001 59658.33921578  2953.08793098
0.30000001 58786.96745336  2654.23170617
0.30100001 57928.81778587  2886.59312692
0.30200001 57081.94440433  3113.24939520
0.30300001 56248.01380715  4103.85528165
0.30400001 55425.68621433  3042.87031722
0.30500001 54615.51586050  2757.53752634
0.30600001 53815.84249455  2726.04163062
0.30700001 53028.60197657  2939.90583277
0.30800001 52252.24255041  2664.08071256
0.30900001 51487.50254274  2873.00277791
0.31000001 50733.68280144  3076.74433916
0.31100001 49990.51968378  3743.29029115
0.31200001 49259.23186568  2312.72104559
0.31300001 48537.76899713  3200.58063921
0.31400001 47828.46167086  2485.88441304
0.31500001 47128.47044104  2680.66752561
0.31600002 46439.96032028  2429.04223956
0.31700002 45761.11459368  2401.08579642
0.31800002 45092.53166098  2373.44551635
0.31900002 44434.84606422  3839.17088173
0.32000002 43787.36186579  2108.36157367
0.32100002 43149.68884368  2084.13006983
0.32200002 42522.84376560  2472.27825360
0.32300002 41904.22238419  2443.85436516
0.32400002 41296.85838865  2214.54413595
0.32500002 40699.16070840  2388.22686346
0.32600002 40111.41226309  2557.70432407
0.32700002 39533.14173875  2139.53373221
0.32800002 38965.60586953  2692.13383701
0.32900002 38405.69054271  2091.18994908
0.33000002 37856.88070307  2255.51305910
0.33100002 37316.46619408  2415.86813581
0.33200002 36786.99020099  2021.26127231
0.33300002 36266.14168942  2362.01392009
0.33400002 35755.43611468  2335.72397480
0.33500002 35253.39158956  2487.47942836
0.33600002 34760.34124555  2108.56239981
0.33700002 34276.81098525  2606.75159888
0.33800002 33803.11091099  2406.44357972
0.33900002 33337.86836982  2040.27764086
0.34000002 32881.82522398  1850.09598384
0.34100002 32434.85602030  2163.08065043
0.34200002 31997.88361803  1975.54942814
0.34300002 31569.25064569  2117.66543360
0.34400002 31150.12404816  1773.22089542
0.34500002 30739.45259668  1595.37766532
0.34600002 30338.35031264  2210.75569198
0.34700002 29944.97820586  1875.75352365
0.34800002 29561.34869700  1857.04401310
0.34900002 29186.18556118  1838.72977744
0.35000002 28819.98486302  1517.37227490
0.35100002 28463.26543411  1953.71863193
0.35200002 28113.40468841  1786.32581851
0.35300002 27773.71717153  1769.74134199
0.35400002 27442.13221620  2191.94041459
0.35500002 27119.37184016  2027.44433480
0.35600002 26804.39540346  1435.37544184
0.35700002 26498.07442226  2134.41999581
0.35800002 26200.44926744  1834.16253784
0.35900002 25911.71912372  1539.15618885
0.36000002 25630.95742618  1387.91641037
0.36100002 25357.85700491  1927.70438082
0.36200002 25094.49371564  1503.03477229
0.36300002 24837.95247535  2169.84363103
0.36400002 24590.12503249  1750.20223209
0.36500002 24349.53888954  1336.78974836
0.36600002 24117.87239681  1725.99561983
0.36700002 23893.56451750  1582.70978861
0.36800002 23677.98885497  1310.57674520
0.36900002 23470.04193526  1953.88108366
0.37000002 23269.28525657  1553.92294304
0.37100002 23076.19321624  1416.41680671
0.37200002 22891.49499744  1536.93504693
0.37300002 22713.87355233  2038.79738664
0.37400002 22543.70431225  2155.74182698
0.37500002 22381.28311736  3029.53062628
0.37600002 22226.38155657  1508.28232388
0.37700002 22078.36356048  2128.13356441
0.37800002 21937.82590859  1496.59855438
0.37900002 21805.05293377  1740.04330655
0.38000002 21678.62041905  1362.82653720
0.38100002 21558.56583243  1482.36705686
0.38200002 21446.67044676  1355.32240309
0.38300002 21340.60769086  1597.98477959
0.38400002 21241.94920329  1962.75619937
0.38500002 21149.35110774  1224.54748715
0.38600002 21064.27812657  1589.61582413
0.38700002 20984.68481540  1587.70132835
0.38800002 20911.67231390  1342.21575106
0.38900002 20844.83086263  1951.07626118
0.39000002 20785.00272536  1462.84856111
0.39100002 20730.34721098  1828.41671063
0.39200002 20682.06205779  1219.20761607
0.39300002 20639.49736984  1219.79435235
0.39400002 20603.67589064  1709.07499610
0.39500002 20572.59504589  1344.21342398
0.39600002 20547.31868193  1468.31146258
0.39700002 20526.82275131  1347.99651394
0.39800002 20512.95596940  2209.86085128
0.39900002 20503.38441645  1476.24374793
0.40000002 20499.41775878  1479.64804393
0.40100002 20500.12766087  1854.23663478
0.40200002 20506.33102214  1363.56854592
0.40300002 20516.94960937  1367.65992576
0.40400002 20532.39770759  1621.54618579
0.40500002 20552.09015703  1877.43352480
0.40600002 20577.24973085  1507.48938671
0.40700002 20606.25737321  1261.10301099
0.40800002 20639.29359147  1519.46486620
0.40900002 20676.04758576  1907.36548016
0.41000002 20717.78389563  1404.97658145
0.41100002 20762.93475851  1668.09425754
0.41200002 20811.22699001  1676.03224505
0.41300002 20864.42880453  1425.24919917
0.41400002 20920.46951891  1432.52921818
0.41500002 20980.01767026  1309.15316466
0.41600002 21042.01324585  1579.41358907
0.41700002 21108.65442584  1588.21523426
0.41800002 21178.43933377  1863.49096528
0.41900002 21249.52915727  1472.59244038
0.42000002 21324.02633936  1885.25725799
0.42100002 21401.90256589  1896.63669526
0.42200002 21482.23386692  2317.18126586
0.42300002 21564.40057043  1920.09431778
0.42400002 21649.05292209  1518.13990810
0.42500002 21736.27457632  1666.73761349
0.42600002 21824.47367954  2236.57216866
0.42700002 21915.89814678  1547.70080047
0.42800002 22008.49039957  1982.74499405
0.42900002 22103.73264765  1710.82898800
0.43000002 22200.09848865  1722.28372236
0.43100002 22296.78671817  1589.31503258
0.43200002 22396.10402184  1454.62702515
0.43300002 22495.92492522  1610.93326023
0.43400002 22597.47752915  1769.38257438
0.43500002 22699.39304207  2078.35652542
0.43600002 22802.93491582  1943.15219093
0.43700002 22906.77006541  1504.97486462
0.43800002 23010.71808999  1666.78144384
0.43900002 23116.44000522  2135.95915770
0.44000002 23221.81611917  1843.34785090
0.44100002 23327.87645681  2010.62976710
0.44200002 23434.07633141  2491.51111363
0.44300002 23540.65801485  2508.49263694
0.44400002 23646.84993149  1894.11276928
0.44500002 23752.71264140  1906.86786122
0.44600002 23858.24046301  2079.60362851
0.44700002 23964.40953735  1932.49007668
0.44800002 24069.23695489  2269.48846003
0.44900002 24174.11521889  1631.75285461
0.45000002 24278.84835929  2463.69625402
0.45100002 24381.79184026  1983.70267814
0.45200002 24484.55313054  2329.21564970
0.45300002 24586.15761793  2511.47611970
0.45400002 24686.91894532  1684.88229787
0.45500002 24786.93639448  1695.42652973
0.45600002 24885.38845966  2388.25084366
0.45700002 24982.99482875  2402.86455651
0.45800002 25078.83347101  2244.68109621
0.45900002 25173.45328494  2084.36203078
0.46000002 25266.99488808  2446.09789105
0.46100002 25358.20436610  2460.25310420
0.46200002 25448.44532609  2474.35245633
0.46300002 25536.80210671  1955.09766195
0.46400002 25622.90721339  1965.91764912
0.46500002 25708.33736040  1976.71415333
0.46600002 25790.72767501  2529.29678297
0.46700002 25871.35428718  2179.40298845
0.46800002 25950.54145776  2555.86894931
0.46900002 26027.00400438  2385.37503006
0.47000002 26101.45785325  2212.88170168
0.47100002 26173.87674376  2223.73267355
0.47200002 26244.16385537  2420.63056793
0.47300002 26311.98680332  1870.78235039
0.47400002 26376.94425227  2819.03605058
0.47500002 26439.96593368  2454.15775429
0.47600002 26501.18862566  2275.39216325
0.47700002 26558.74302548  2094.68816170
