# SAXS profile: number of points = 501, q_min = 0, q_max = 0.5, delta_q = 0.001
#    q    intensity    error
0.00000000 1664650.74656090 349.57665678
0.00100000 1664569.81610185 649.18224370
0.00200000 1664326.96087663 748.94715611
0.00300000 1663922.40607292 1098.18882713
0.00400000 1663356.02406477 2120.77901127
0.00500000 1662628.31296951 1646.00209499
0.00600000 1661739.17280756 1744.82620248
0.00700000 1660689.17215108 2391.39250728
0.00800000 1659478.12131888 2912.38422588
0.00900000 1658107.23378963 3482.02533981
0.01000000 1656575.91738264 3006.68541988
0.01100000 1654885.41692322 2978.79388016
0.01200000 1653035.64225141 4190.44553683
0.01300000 1651027.77400109 3813.87432615
0.01400000 1648861.78755619 4451.92702376
0.01500000 1646539.11672772 3951.69405611
0.01600000 1644059.12046535 5450.05622798
0.01700000 1641424.14420973 4875.02992699
0.01800000 1638634.01999820 6538.15003399
0.01900000 1635689.36728419 4907.06832327
0.02000000 1632591.47242693 5656.92970785
0.02100000 1629342.28128493 6452.19572642
0.02200000 1625940.30054987 5609.49429175
0.02300000 1622388.79370989 8176.83989249
0.02400000 1618687.20760965 7891.10049691
0.02500000 1614838.11914395 11336.16411412
0.02600000 1610841.51053423 7176.29925766
0.02700000 1606699.55377024 7422.95227840
0.02800000 1602411.97248512 7667.54163997
0.02900000 1597981.28459055 9348.19094407
0.03000000 1593408.85126979 8150.28664888
0.03100000 1588695.00509820 7625.73637536
0.03200000 1583841.19839893 10192.01858112
0.03300000 1578851.13844978 8857.35529503
0.03400000 1573722.88464136 9088.25007814
0.03500000 1568459.94772622 11010.58934149
0.03600000 1563063.22339415 13880.00206519
0.03700000 1557534.68705504 12429.12737752
0.03800000 1551875.68885125 14525.55711988
0.03900000 1546088.40249848 10204.18392905
0.04000000 1540172.57517155 13260.88648672
0.04100000 1534132.24797525 13531.04705453
0.04200000 1527968.11571562 12812.01324466
0.04300000 1521681.12936353 16068.95347197
0.04400000 1515274.89667899 17387.78024691
0.04500000 1508750.41969833 17697.64324538
0.04600000 1502108.13775654 12707.83543617
0.04700000 1495351.79088262 11843.18673459
0.04800000 1488482.21849888 12034.37929650
0.04900000 1481502.81269783 14444.65309617
0.05000000 1474413.40008043 14663.04194660
0.05100000 1467218.14861602 11444.30209233
0.05200000 1459915.85557768 12766.96475198
0.05300000 1452512.09377358 17648.02276206
0.05400000 1445007.03722851 14305.57033569
0.05500000 1437403.09747306 15696.44255663
0.05600000 1429701.31308680 13446.34147704
0.05700000 1421906.90143033 17318.82686784
0.05800000 1414018.43084500 13765.47006702
0.05900000 1406038.94832223 13919.78623853
0.06000000 1397971.81151557 15349.73120756
0.06100000 1389818.45412347 15510.37467284
0.06200000 1381581.30354867 16972.72710746
0.06300000 1373263.09112614 14501.65892032
0.06400000 1364862.80389138 15968.89555234
0.06500000 1356386.31678640 14771.04768076
0.06600000 1347834.78569139 17609.46229898
0.06700000 1339209.67695810 19123.91508194
0.06800000 1330513.89396789 17902.06528132
0.06900000 1321750.29668438 15266.21664145
0.07000000 1312919.49370887 15380.85258906
0.07100000 1304024.60621754 18308.50632882
0.07200000 1295068.07902644 24107.69342045
0.07300000 1286052.28781501 17130.21727634
0.07400000 1276979.74613192 21549.03422585
0.07500000 1267851.75070930 18789.56382623
0.07600000 1258669.82073520 15991.40082213
0.07700000 1249439.09534651 17542.12572119
0.07800000 1240159.49639779 16165.47979365
0.07900000 1230833.46801270 17724.00277070
0.08000000 1221464.80238546 17808.95765422
0.08100000 1212054.56624130 20871.58060993
0.08200000 1202604.47673262 17966.91172549
0.08300000 1193118.02752376 18039.94542281
0.08400000 1183596.56012747 19618.11390496
0.08500000 1174042.77642748 18174.18303229
0.08600000 1164458.22580098 21274.65278426
0.08700000 1154847.12553713 16768.38105020
0.08800000 1145208.37643102 19875.09230637
0.08900000 1135547.99944282 16862.88858377
0.09000000 1125864.91507282 16904.86249393
0.09100000 1116162.55758904 23104.56602757
0.09200000 1106442.86260342 16978.36652441
0.09300000 1096710.45565265 24741.78904219
0.09400000 1086962.09198067 15489.21053868
0.09500000 1077203.80258210 26369.95032667
0.09600000 1067436.45610793 18637.44139975
0.09700000 1057664.69276109 15547.67171453
0.09800000 1047887.85869566 20229.47606326
0.09900000 1038109.21119308 20243.13057015
0.10000000 1028329.09001080 20252.94238020
0.10100000 1018550.10274896 18700.58076599
0.10200000 1008775.43150682 18702.69737984
0.10300000 999005.81002033 20259.83878025
0.10400000 989244.44122868 17138.66075058
0.10500000 979494.04958471 23360.93418171
0.10600001 969751.68200565 18677.41827427
0.10700001 960025.05395126 21773.36924822
0.10800001 950312.46184257 17091.37043059
0.10900001 940617.81732811 15520.19471638
0.11000001 930941.20931855 21700.24061064
0.11100001 921285.13568156 18573.10920964
0.11200001 911651.36453583 21633.48789888
0.11300001 902041.38497160 16967.39925015
0.11400001 892457.70154951 21552.85450722
0.11500001 882901.72541490 16898.73982017
0.11600001 873374.55738078 24524.35872614
0.11700001 863879.00628965 16819.72504458
0.11800001 854414.03852308 19826.67869773
0.11900001 844982.79733993 25856.47481648
0.12000001 835586.35435766 16682.48235058
0.12100001 826229.14624492 22679.99113283
0.12200001 816909.08937609 22607.96011357
0.12300001 807629.68920291 18026.29551231
0.12400001 798390.31964519 14969.81919869
0.12500001 789193.09343457 16407.32518563
0.12600001 780041.55755169 22289.68855741
0.12700001 770934.50161662 17762.33175432
0.12800001 761873.53908880 14742.25367616
0.12900001 752861.15516112 19085.03118285
0.13000001 743898.08074635 19002.87736836
0.13100001 734984.31705194 24739.57327813
0.13200001 726122.47682802 24626.44496252
0.13300001 717313.30339629 17301.59769357
0.13400001 708557.20131462 20087.59760431
0.13500001 699856.53450103 21415.61096544
0.13600001 691211.63810633 15624.83981612
0.13700001 682623.72206234 14130.31171298
0.13800001 674091.79910081 15460.29614142
0.13900001 665620.30140117 18171.43508518
0.14000001 657207.29524778 13899.93495002
0.14100001 648855.83128203 16584.75582975
0.14200001 640565.16813859 19236.17290648
0.14300001 632337.79510906 17756.04612417
0.14400001 624170.05363044 16290.83916819
0.14500001 616068.87499293 16190.29079854
0.14600001 608031.36844200 14747.80153728
0.14700001 600060.02671682 15985.59986588
0.14800001 592152.00429941 17204.97729663
0.14900001 584311.53660372 15776.41223264
0.15000001 576537.38806720 16976.14419262
0.15100001 568830.80964457 15563.21168622
0.15200001 561193.17990158 15455.26090378
0.15300001 553624.08335996 17904.20370074
0.15400001 546122.05666165 15236.80609990
0.15500001 538691.16001085 15126.44848697
0.15600001 531328.16300055 15015.33459504
0.15700001 524038.15431143 16145.61629636
0.15800001 516815.65667960 14791.26479230
0.15900001 509665.93268529 13455.18125798
0.16000001 502585.07744699 12137.43019326
0.16100001 495577.85849887 13246.79678298
0.16200001 488641.68765790 13142.01880994
0.16300001 481776.73081058 13036.87895118
0.16400001 474984.42358353 15282.62455029
0.16500001 468263.31298099 16323.65986118
0.16600001 461615.09633927 12719.80458017
0.16700001 455038.24986467 11466.96443800
0.16800001 448533.94145919 13644.40314343
0.16900001 442103.25568433 12400.99690750
0.17000001 435743.36872474 14529.86331622
0.17100001 429456.83033917 11079.98674596
0.17200001 423242.21265627 13179.76312450
0.17300001 417099.77293963 11974.93504661
0.17400001 411030.46234263 14026.41518985
0.17500001 405032.16949001 13900.70471339
0.17600001 399104.56204976 11655.84928516
0.17700001 393251.79049299 13649.77029270
0.17800001 387468.70630428 13524.59583235
0.17900001 381756.82077549 10307.43464780
0.18000001 376117.53619436 14296.22822603
0.18100001 370549.51547741 12139.20270045
0.18200001 365050.08519187 11022.68784306
0.18300001 359621.87421052 11910.67703650
0.18400001 354263.88497295 11796.98792690
0.18500001 348975.93764420 20446.50115251
0.18600001 343757.82252926 9642.40737749
0.18700001 338608.11277340 9548.74923134
0.18800001 333525.85208952 13237.64169486
0.18900001 328515.31841788 11235.22442073
0.19000001 323568.71305338 11124.29288038
0.19100001 318692.38019016 13767.51147473
0.19200001 313881.62260010 9995.56074400
0.19300001 309139.21648454 8995.95162478
0.19400001 304461.37609692 9796.04523882
0.19500001 299849.92346959 8815.58816659
0.19600001 295302.72906391 11344.05487307
0.19700001 290822.02632159 8637.41458993
0.19800001 286404.40696822 9404.08914723
0.19900001 282050.77635969 10153.82842882
0.20000001 277758.71597451 9211.86825066
0.20100001 273531.12985627 12431.99043953
0.20200001 269364.22518974 8202.14104469
0.20300001 265259.25868911 8928.62706948
0.20400001 261215.54577605 9638.85409472
0.20500001 257231.28892524 10332.98136453
0.20600001 253306.50265149 11797.75091865
0.20700001 249441.15785455 7782.56449294
0.20800001 245633.93763051 13091.06132483
0.20900001 241886.68401536 9143.31708800
0.21000001 238193.81392116 9046.60148038
0.21100001 234559.06988913 7458.97877509
0.21200001 230978.80821831 7379.77327145
0.21300001 227454.21946351 10951.92118493
0.21400001 223984.62220982 9390.55573010
0.21500001 220570.04992417 11434.35192866
0.21600001 217207.02041045 8484.10661835
0.21700001 213897.55910204 9092.78566733
0.21800001 210639.99181151 8995.38127562
0.21900001 207433.10543657 6845.29280306
0.22000001 204276.31075685 7448.93602395
0.22100001 201171.22104732 8708.70257092
0.22200001 198114.90272544 10603.11009523
0.22300001 195106.70517063 7866.70272446
0.22400001 192145.95257405 8430.40406783
0.22500001 189234.80405776 6415.06016091
0.22600001 186368.29379916 6345.84070394
0.22700001 183548.79696571 8788.31681431
0.22800001 180773.91479542 6830.54269356
0.22900001 178043.38782068 7985.24632139
0.23000001 175357.34801556 9114.19859414
0.23100001 172715.75816998 6611.55953543
0.23200001 170115.04895807 7729.17761495
0.23300001 167557.54389820 7057.52408277
0.23400001 165040.38320510 7562.97591807
0.23500001 162563.74517497 6905.70822165
0.23600001 160127.69505107 7969.55575963
0.23700001 157731.03343780 6194.09797607
0.23800001 155372.85564523 5570.11713834
0.23900001 153053.01576228 7713.87235928
0.24000001 150770.08569748 8175.50828365
0.24100001 148525.09941038 7008.89977270
0.24200001 146316.38238442 6399.87886822
0.24300001 144142.65389119 6330.74565836
0.24400001 142004.05468920 5740.51418236
0.24500001 139899.38291515 6710.97371590
0.24600001 137828.94930790 6127.87537611
0.24700001 135792.27328184 6566.91464656
0.24800001 133787.88613992 5996.37334046
0.24900001 131814.41201635 5437.34475290
0.25000001 129873.84727931 5378.72563953
0.25100001 127963.20811165 6771.81329364
0.25200001 126084.86132042 7177.38107022
0.25300001 124234.83576332 5206.68221317
0.25400001 122415.08431429 6555.32807517
0.25500001 120622.36938744 5558.27904435
0.25600001 118859.43669479 5498.43780165
0.25700001 117123.20440064 6799.00233714
0.25800001 115414.36803824 8070.92713878
0.25900001 113733.06723912 5322.70779863
0.26000001 112077.09726949 6142.94599200
0.26100001 110446.56489636 4774.60522639
0.26200001 108842.45435490 5152.60203297
0.26300001 107261.64984382 5521.82999524
0.26400001 105706.28002115 5882.55476153
0.26500001 104174.51800406 7066.15789058
0.26600001 102665.71538484 4522.93830530
0.26700001 101180.31885704 4880.93881263
0.26800001 99717.71302043  4425.97090185
0.26900001 98276.39117934  3980.19403111
0.27000001 96857.45347091  3937.25566991
0.27100001 95459.54325369  5063.17441378
0.27200001 94083.17482260  4237.97681044
0.27300001 92727.08683430  4954.40848402
0.27400001 91389.91265341  4523.80089043
0.27500001 90074.45825076  4847.80757248
0.27600001 88776.35522399  5532.98660119
0.27700001 87499.11218127  5108.19841090
0.27800001 86239.57816496  3609.12651701
0.27900001 84998.90965939  4997.93612451
0.28000001 83775.70104640  3884.26056285
0.28100001 82570.59523043  4191.28361227
0.28200001 81383.32155772  5527.55546182
0.28300001 80212.98050144  4442.19507042
0.28400001 79058.77527906  3379.76280315
0.28500001 77921.90628597  3342.84993789
0.28600001 76800.92704091  3636.90807216
0.28700001 75696.73669262  3597.10909789
0.28800001 74606.55704321  3234.19440091
0.28900001 73533.74361711  3198.71799875
0.29000001 72475.21832870  4112.60645873
0.29100001 71432.31016672  4380.22946676
0.29200001 70403.75710847  4950.79243421
0.29300001 69390.09197537  4896.16512155
0.29400001 68389.91358406  3026.25381935
0.29500001 67405.11337145  3591.34461043
0.29600001 66432.94697103  2959.58792766
0.29700001 65475.11323665  3219.41147025
0.29800001 64530.93389517  4630.74003553
0.29900001 63600.38281027  3720.62257053
0.30000001 62682.05277183  3679.12326161
0.30100001 61777.61518390  3078.37871034
0.30200001 60885.08996442  3874.11845784
0.30300001 60005.90746403  3557.15036287
0.30400001 59139.13567208  4328.98493614
0.30500001 58284.92150650  2675.27802380
0.30600001 57441.90616286  4496.83983685
0.30700001 56611.80251647  3661.65156012
0.30800001 55793.22291039  3361.82080563
0.30900001 54986.67591160  3323.94471623
0.31000001 54191.83408320  4550.48852341
0.31100001 53407.91944801  3249.33797306
0.31200001 52636.42733873  2718.40841861
0.31300001 51875.27938768  2931.99092981
0.31400001 51126.84751188  2898.89239118
0.31500001 50387.94237913  3582.58287278
0.31600002 49661.47659063  3069.82432080
0.31700002 48944.98686088  3035.07877895
0.31800002 48239.31023196  2769.90132467
0.31900002 47544.92179517  3195.01889592
0.32000002 46861.25057697  2933.28011875
0.32100002 46187.74157741  3123.21523335
0.32200002 45525.72045183  2867.43763843
0.32300002 44872.34458234  2180.79604996
0.32400002 44230.71189736  3018.74622994
0.32500002 43598.91395453  2345.18569266
0.32600002 42977.49287068  2529.65535015
0.32700002 42366.24270328  2709.74501162
0.32800002 41766.01006992  2679.49850292
0.32900002 41173.80949977  2241.91403343
0.33000002 40592.96200034  3627.79318576
0.33100002 40021.03242206  2192.35225990
0.33200002 39460.49185029  2168.15682739
0.33300002 38908.90003886  2924.00397639
0.33400002 38367.70933293  2699.16847939
0.33500002 37835.73938672  2097.61349093
0.33600002 37313.13294057  4149.59371083
0.33700002 36800.26402733  1865.77347454
0.33800002 36297.57853705  2584.02473843
0.33900002 35803.71957587  2373.78672030
0.34000002 35319.38077750  1987.24505356
0.34100002 34844.66660868  1787.53148168
0.34200002 34379.98895746  2830.16082501
0.34300002 33923.90718399  2100.56843231
0.34400002 33477.78738989  2078.97069537
0.34500002 33040.48377854  2057.76142718
0.34600002 32613.13584013  1867.26518096
0.34700002 32193.59633060  2016.60696966
0.34800002 31784.15627266  1830.29072565
0.34900002 31383.38660791  2306.67902493
0.35000002 30992.07590048  1631.73287344
0.35100002 30610.29802880  1939.46857496
0.35200002 30235.85093176  1921.18605920
0.35300002 29871.71858514  2537.90133120
0.35400002 29515.73717229  2043.22700253
0.35500002 29168.93591792  1869.14550215
0.35600002 28830.31553216  2624.56789878
0.35700002 28500.52200601  1989.62153548
0.35800002 28179.72988931  2124.46993698
0.35900002 27867.97811808  1805.84506759
0.36000002 27564.50144439  2537.45030065
0.36100002 27268.76582272  1628.76345974
0.36200002 26983.17472273  1763.08071989
0.36300002 26704.37014475  2187.08801845
0.36400002 26434.60180776  1592.02396928
0.36500002 26172.31249548  1724.23202887
0.36600002 25919.15556424  1997.58941396
0.36700002 25673.44148529  1842.32624825
0.36800002 25436.71536869  1689.50671482
0.36900002 25207.76247512  1678.83706037
0.37000002 24986.07978833  1807.61802791
0.37100002 24772.39329486  1658.75953360
0.37200002 24567.18315380  1924.34754759
0.37300002 24369.28567496  1777.25208846
0.37400002 24178.92986375  2176.10379082
0.37500002 23996.43753642  1353.39914117
0.37600002 23821.78576494  1885.97086835
0.37700002 23654.21206697  1475.31327651
0.37800002 23493.93053853  1469.19301583
0.37900002 23341.87725396  1862.68189311
0.38000002 23196.03984336  1458.21911383
0.38100002 23056.85365650  1717.50511024
0.38200002 22925.91047739  1712.22170512
0.38300002 22801.16876884  1313.34738330
0.38400002 22683.74580275  2488.97412612
0.38500002 22572.41639964  1437.63726860
0.38600002 22468.85182258  1434.74860110
0.38700002 22370.87861264  1822.77927571
0.38800002 22279.54170921  1560.01358438
0.38900002 22194.54720257  1817.73350201
0.39000002 22116.59217465  1815.99346950
0.39100002 22043.85343639  1814.65010085
0.39200002 21978.01972667  1684.28562155
0.39300002 21917.59670361  2461.12705045
0.39400002 21864.20616492  1684.09055964
0.39500002 21815.43121883  1295.83667579
0.39600002 21772.58634663  1685.52485188
0.39700002 21734.75983274  1427.32174584
0.39800002 21703.69689972  1948.44948149
0.39900002 21676.81830875  1950.91374022
0.40000002 21655.75219168  1563.11226725
0.40100002 21639.31130527  1826.79074694
0.40200002 21628.55496660  1961.16931452
0.40300002 21622.33779986  1441.34510603
0.40400002 21621.05592252  1970.21881429
0.40500002 21624.00946599  1316.90223887
0.40600002 21632.47887293  1452.72918754
0.40700002 21644.79624299  1986.99238925
0.40800002 21661.33869547  1993.38478790
0.40900002 21681.79683450  2000.14585275
0.41000002 21707.09641262  1472.06681297
0.41100002 21736.03387857  1477.61565308
0.41200002 21768.00307699  1483.38063997
0.41300002 21805.08345356  1489.50532129
0.41400002 21845.02375801  1903.79391072
0.41500002 21888.50515886  2185.34845861
0.41600002 21934.33561726  1920.78986102
0.41700002 21985.04658684  1516.30873494
0.41800002 22039.03742442  2216.24570841
0.41900002 22094.30882268  1670.32982614
0.42000002 22153.07278596  1678.75993527
0.42100002 22215.35691153  1968.72502279
0.42200002 22279.88436535  1555.02460296
0.42300002 22346.53405624  1563.36359666
0.42400002 22415.60895169  1857.69367990
0.42500002 22487.49918865  2011.73177274
0.42600002 22560.32975013  1733.98702676
0.42700002 22636.30775342  1598.57612930
0.42800002 22713.53757433  1753.93945460
0.42900002 22793.53022956  1470.18276947
0.43000002 22874.84078102  1626.74437923
0.43100002 22956.36961414  2082.60195008
0.43200002 23040.56251021  1496.48460595
0.43300002 23125.43381733  1806.55897542
0.43400002 23212.02336529  1514.58459636
0.43500002 23299.04382499  2133.26055371
0.43600002 23387.85285000  2146.30335776
0.43700002 23476.78459688  2005.15226744
0.43800002 23566.11149155  1862.19421831
0.43900002 23657.05778536  2498.18542052
0.44000002 23747.86264436  2042.19754488
0.44100002 23839.36062945  1580.54968463
0.44200002 23930.98996474  1749.23579437
0.44300002 24023.09023158  2239.91303934
0.44400002 24114.99549369  1770.64362804
0.44500002 24206.52544453  1781.35829188
0.44600002 24297.77870044  1954.99936689
0.44700002 24389.83387223  1638.99691389
0.44800002 24480.42259751  2638.01046413
0.44900002 24571.24991326  1824.41539252
0.45000002 24661.93285938  2335.73177181
0.45100002 24751.08167203  2349.37278365
0.45200002 24839.97156057  2025.45137704
0.45300002 24927.73114319  1697.57857130
0.45400002 25014.81707211  2902.34428834
0.45500002 25101.17189850  2403.68833492
0.45600002 25186.01744546  2417.10220880
0.45700002 25270.15017236  2083.27127894
0.45800002 25352.55580815  1920.07590513
0.45900002 25433.70812827  1930.41853843
0.46000002 25513.92722956  2470.00341216
0.46100002 25591.84666082  2128.21806918
0.46200002 25668.93468820  1782.70759859
0.46300002 25744.27869048  1970.98206996
0.46400002 25817.38748807  3061.29686649
0.46500002 25889.87144973  1809.70210011
0.46600002 25959.47768191  2000.30764759
0.46700002 26027.25349968  2192.53593873
0.46800002 26093.84223164  2386.41245440
0.46900002 26157.63414632  1844.11329472
0.47000002 26219.53450219  2222.89224045
0.47100002 26279.56748174  2232.71215907
0.47200002 26337.54611727  2055.51388415
0.47300002 26393.19725217  2439.52333764
0.47400002 26445.92675010  2826.40855538
0.47500002 26496.84906305  1891.87511277
0.47600002 26546.15653472  2469.19086711
0.47700002 26591.81902741  2287.96021756
