# SAXS profile: number of points = 501, q_min = 0, q_max = 0.5, delta_q = 0.001
#    q    intensity    error
0.00000000 1646666.22097351 321.09991309
0.00100000 1646585.74173372 592.77088110
0.00200000 1646344.23134965 814.94042032
0.00300000 1645941.92467692 1086.32170898
0.00400000 1645378.69488629 1480.84088167
0.00500000 1644655.01858305 1776.22749037
0.00600000 1643770.81699012 2071.15131373
0.00700000 1642726.66528220 1971.27208027
0.00800000 1641522.33767862 2659.26629931
0.00900000 1640159.07790989 2952.28646644
0.01000000 1638636.29884110 3244.50001180
0.01100000 1636955.19524186 3535.82337567
0.01200000 1635115.74511179 3507.32342704
0.01300000 1633119.06953777 3429.55019729
0.01400000 1630965.15761163 5504.50765096
0.01500000 1628655.47434561 5863.15996872
0.01600000 1626189.33298373 4146.78298448
0.01700000 1623569.08956922 6137.09143387
0.01800000 1620794.58558241 5081.19125444
0.01900000 1617866.42727044 5824.31940098
0.02000000 1614785.88608345 5595.23334838
0.02100000 1611554.93348918 6381.75782596
0.02200000 1608172.12373835 6657.83289476
0.02300000 1604640.60259337 6354.37707551
0.02400000 1600959.86182055 7804.67968225
0.02500000 1597132.45568262 6228.81686164
0.02600000 1593158.47550550 7742.75054510
0.02700000 1589039.92140269 9343.55516579
0.02800000 1584776.64944205 7583.15661534
0.02900000 1580371.07845880 7111.67017959
0.03000000 1575824.69926713 9525.86074493
0.03100000 1571137.67736109 7541.46119834
0.03200000 1566311.49902833 9303.89073275
0.03300000 1561349.85696887 9555.46156516
0.03400000 1556251.09844507 8987.35050820
0.03500000 1551018.31114941 15075.89868055
0.03600000 1545652.55129260 12867.55808417
0.03700000 1540155.84981389 9656.77762494
0.03800000 1534529.44840259 8976.99768861
0.03900000 1528775.55274632 11007.18448952
0.04000000 1522894.04650052 9365.79881998
0.04100000 1516888.79939417 12423.31984306
0.04200000 1510760.52079256 10718.84639230
0.04300000 1504510.09826190 9929.76710945
0.04400000 1498141.20809025 14157.43507395
0.04500000 1491655.03631905 11321.66225172
0.04600000 1485051.71522194 15704.42261852
0.04700000 1478335.13146780 10644.01344160
0.04800000 1471506.08848033 14060.24132963
0.04900000 1464567.99970020 13181.11261085
0.05000000 1457520.52576827 11150.03254134
0.05100000 1450368.10301017 12444.15890353
0.05200000 1443109.37565501 12619.99207821
0.05300000 1435749.85926645 16281.40416309
0.05400000 1428289.80520121 11783.39144241
0.05500000 1420731.60506027 15514.38985099
0.05600000 1413076.19813815 15706.34267523
0.05700000 1405328.86059557 23230.08714999
0.05800000 1397488.43331238 14841.32785475
0.05900000 1389557.36937373 15007.22029016
0.06000000 1381539.49815436 16433.41309830
0.06100000 1373436.17036821 15327.54837759
0.06200000 1365249.49715968 12901.60835123
0.06300000 1356982.68012582 16935.14463978
0.06400000 1348634.41985100 14464.10482934
0.06500000 1340210.43827797 17248.50914748
0.06600000 1331712.36576101 18737.19386294
0.06700000 1323140.93665079 18894.45345961
0.06800000 1314499.86236468 14965.58163355
0.06900000 1305791.35359481 16452.97182560
0.07000000 1297016.53317208 15194.54939765
0.07100000 1288177.96028967 16694.78714730
0.07200000 1279278.58673724 18210.53153531
0.07300000 1270320.32274824 21150.83436479
0.07400000 1261306.11102500 19865.57217963
0.07500000 1252236.84629215 17130.60086023
0.07600000 1243114.47490762 15793.77014412
0.07700000 1233943.66199693 20211.99813122
0.07800000 1224724.57556152 18866.88297131
0.07900000 1215459.65890154 17502.61990912
0.08000000 1206152.78257990 21982.13549372
0.08100000 1196804.50523700 19136.90493661
0.08200000 1187417.17620636 17740.01344498
0.08300000 1177994.05844644 25232.63391614
0.08400000 1168536.27909796 19368.48973518
0.08500000 1159046.90492689 17942.04693056
0.08600000 1149527.04374801 18001.59435030
0.08700000 1139981.10074850 16552.52636014
0.08800000 1130408.21910947 16600.04547722
0.08900000 1120814.13203975 15130.99149323
0.09000000 1111197.62751577 22751.77249216
0.09100000 1101562.35447297 19762.02956769
0.09200000 1091910.23650711 19801.79306948
0.09300000 1082245.93299814 19837.56888407
0.09400000 1072566.05884451 18340.88046822
0.09500000 1062876.65807924 19897.05197446
0.09600000 1053178.54430207 19920.87310191
0.09700000 1043476.45640566 16873.01509333
0.09800000 1033769.65540721 26097.51617780
0.09900000 1024061.56916652 19969.20153775
0.10000000 1014352.29828590 21514.41325841
0.10100000 1004644.59575597 23056.59455699
0.10200000 994941.66536998 21520.58923420
0.10300000 985243.92601026 16906.78656564
0.10400000 975554.81487553 21510.98467999
0.10500000 965876.94659599 19964.67742546
0.10600001 956207.80124528 21485.99030497
0.10700001 946554.26896361 19934.43384244
0.10800001 936915.36542428 21445.99372385
0.10900001 927294.68402103 19890.47190841
0.11000001 917692.16271594 18335.49027411
0.11100001 908110.52952186 22884.38642120
0.11200001 898551.50597750 18276.53849199
0.11300001 889016.45730642 16722.40034924
0.11400001 879508.10552180 16688.66708805
0.11500001 870027.51895706 16652.32749696
0.11600001 860576.14227008 18123.73440968
0.11700001 851156.44069199 15065.46970976
0.11800001 841767.90870160 24040.89260480
0.11900001 832413.14044987 14983.43723384
0.12000001 823093.27190963 17926.97230664
0.12100001 813812.77215273 16382.05187516
0.12200001 804569.78148185 17813.17580121
0.12300001 795367.33765895 16273.21649521
0.12400001 786205.52085521 20637.89589485
0.12500001 777085.68145828 17624.30408594
0.12600001 768011.95688219 17556.75416166
0.12700001 758982.61193601 18944.20688669
0.12800001 749999.48090908 17414.98876746
0.12900001 741065.19567606 23121.23519484
0.13000001 732180.30935943 18703.54688418
0.13100001 723344.91469475 18618.89898189
0.13200001 714561.26340786 17106.59745239
0.13300001 705830.52601334 15605.91366586
0.13400001 697153.06841789 15529.08533114
0.13500001 688530.97909287 16855.23916289
0.13600001 679964.64586579 18165.25637081
0.13700001 671455.59656046 18068.87095545
0.13800001 663002.61217175 15205.96562721
0.13900001 654609.72682014 13746.80491150
0.14000001 646275.54200280 19136.21970118
0.14100001 638002.98719598 16307.35712183
0.14200001 629791.21326123 14859.92437777
0.14300001 621642.48988185 20141.21762218
0.14400001 613553.72541614 16013.75298873
0.14500001 605531.36958307 19891.70642914
0.14600001 597572.85265405 17129.42662940
0.14700001 589680.22759798 17018.17217134
0.14800001 581850.81946334 15605.23971424
0.14900001 574089.25048734 14208.70961994
0.15000001 566393.80936172 12828.82038734
0.15100001 558765.80410515 15287.83312167
0.15200001 551206.58059347 21505.32575663
0.15300001 543715.98350048 16327.79175501
0.15400001 536292.27526293 14962.55518593
0.15500001 528939.70583310 13614.90867067
0.15600001 521654.89331433 14741.96798081
0.15700001 514442.94578298 12192.29839049
0.15800001 507298.52530853 12099.07039967
0.15900001 500226.61275987 15607.07105477
0.16000001 493223.42080280 13102.48079210
0.16100001 486293.91962603 12998.63708519
0.16200001 479435.23278778 11722.19199502
0.16300001 472647.59833838 18603.41034883
0.16400001 465932.23908902 17297.73519280
0.16500001 459288.01819522 17154.40828947
0.16600001 452716.53365471 14742.71461451
0.16700001 446216.26902651 12369.11556142
0.16800001 439788.67994623 11148.64356304
0.16900001 433434.05561883 13263.08272819
0.17000001 427150.17777540 10956.40257730
0.17100001 420939.34839959 13032.28284185
0.17200001 414800.47959076 11840.48024906
0.17300001 408733.25260215 11734.73223637
0.17400001 402739.28518342 13743.47875593
0.17500001 396815.77274566 12571.12427429
0.17600001 390962.87895187 17646.11037490
0.17700001 385184.53284752 13369.75576660
0.17800001 379475.63291422 13245.59759249
0.17900001 373837.82863852 10093.62185000
0.18000001 368272.10439750 13998.02334935
0.18100001 362777.31586808 9903.82119102
0.18200001 357351.21222253 11771.14948665
0.18300001 351995.75129783 11658.09983370
0.18400001 346710.44210546 10583.33674523
0.18500001 341494.75244653 11433.24485204
0.18600001 336348.49004197 12264.94826882
0.18700001 331270.54773941 14946.92782017
0.18800001 326259.65002645 13874.19227288
0.18900001 321320.26006494 12820.67898234
0.19000001 316444.30801647 9066.12985304
0.19100001 311638.35660057 12565.25913184
0.19200001 306897.88937194 13327.04147570
0.19300001 302225.19383830 10553.70426752
0.19400001 297616.69099298 8705.28862290
0.19500001 293074.21436848 13786.21169536
0.19600001 288595.88827812 10233.61068195
0.19700001 284183.53223067 14348.42722040
0.19800001 279833.82900830 9188.34420972
0.19900001 275547.92939845 10746.36975441
0.20000001 271323.22121781 8180.39550633
0.20100001 267162.48734300 9714.02849890
0.20200001 263062.13583049 10413.31513902
0.20300001 259023.32968174 8718.72568917
0.20400001 255045.63646480 11763.98053797
0.20500001 251126.71806348 9311.77914593
0.20600001 247267.04906720 9213.17068373
0.20700001 243466.34073287 9115.38022791
0.20800001 239723.32832098 10521.45737736
0.20900001 236039.95161972 9665.83647574
0.21000001 232410.56573152 8091.37422844
0.21100001 228838.78677041 9460.19589230
0.21200001 225321.30176717 7199.01593179
0.21300001 221858.94868867 10682.50888438
0.21400001 218451.15712082 11272.08024034
0.21500001 215098.01322286 6969.17595791
0.21600001 211795.93656332 8272.74967329
0.21700001 208546.99014447 7501.43559016
0.21800001 205349.56214892 9444.02680975
0.21900001 202202.48568922 11343.55998351
0.22000001 199105.05856187 6600.33300341
0.22100001 196058.86537120 8487.38868323
0.22200001 193060.91120706 7749.46534228
0.22300001 190110.75451554 9581.58248065
0.22400001 187207.69697364 6318.26007163
0.22500001 184353.61938277 9374.38198890
0.22600001 181543.78917703 7417.87957655
0.22700001 178780.48214042 6725.72205618
0.22800001 176061.56557538 9676.34410162
0.22900001 173386.31480739 6580.01095812
0.23000001 170755.23348971 7691.66985630
0.23100001 168168.05887709 7607.92334340
0.23200001 165621.27500308 7525.00298565
0.23300001 163117.37822323 6297.96227106
0.23400001 160653.50889565 7928.25103897
0.23500001 158229.45458068 7841.85213991
0.23600001 155845.55996433 7202.40289440
0.23700001 153500.72122179 6027.97360749
0.23800001 151193.87993299 7046.39110756
0.23900001 148924.95287373 5361.29855704
0.24000001 146692.35573718 6363.51469288
0.24100001 144497.38521418 7343.35746393
0.24200001 142338.18422250 8301.16329652
0.24300001 140213.42716693 5644.99284476
0.24400001 138123.46976747 6598.84908029
0.24500001 136066.91694916 5522.95642023
0.24600001 134044.26998776 7449.51065697
0.24700001 132054.66704100 5894.92061557
0.24800001 130097.07284990 4859.12590081
0.24900001 128169.90323223 6728.92023802
0.25000001 126275.23241135 4754.26272520
0.25100001 124410.02636900 5172.96914115
0.25200001 122576.50555898 6047.31218785
0.25300001 120771.06310109 5981.79103840
0.25400001 118995.38332077 8192.83252925
0.25500001 117246.29985526 4952.48394020
0.25600001 115526.38021398 8016.37590232
0.25700001 113832.81288889 4405.33006723
0.25800001 112166.28469342 6972.25658643
0.25900001 110526.71270485 6034.75879922
0.26000001 108912.15486725 5116.69327776
0.26100001 107322.42194674 5904.87993491
0.26200001 105758.89283831 5423.84507585
0.26300001 104217.98617776 5365.14218230
0.26400001 102702.19835681 4082.41257786
0.26500001 101209.56218530 6461.21875565
0.26600001 99739.43899880  4394.02119302
0.26700001 98292.28277661  5927.02493190
0.26800001 96867.40783887  4299.46010038
0.26900001 95463.46651805  4252.89763463
0.27000001 94081.52817153  5354.18002161
0.27100001 92720.07698688  4539.57518410
0.27200001 91379.80734538  4116.20361667
0.27300001 90059.25331203  3701.43548629
0.27400001 88757.40656900  4759.61615251
0.27500001 87476.65777427  5432.30070487
0.27600001 86212.85421366  4298.57311453
0.27700001 84969.60150823  4251.87906070
0.27800001 83743.61058998  4205.60432287
0.27900001 82535.98749558  5546.41862220
0.28000001 81345.54683959  4457.32945003
0.28100001 80172.79064684  3730.44012536
0.28200001 79017.34480469  4360.57237943
0.28300001 77878.46820590  3317.62290260
0.28400001 76755.39893913  3609.42280595
0.28500001 75649.10373193  5192.55472593
0.28600001 74558.42994956  3530.71461738
0.28700001 73484.11589533  5079.22233110
0.28800001 72423.47009046  4081.42485013
0.28900001 71379.62458301  4036.51796123
0.29000001 70349.90343601  4299.08280247
0.29100001 69335.31410125  3340.57559152
0.29200001 68334.68796997  3303.64064629
0.29300001 67348.55427430  3861.09279931
0.29400001 66375.55371317  2937.11839084
0.29500001 65417.58720549  3194.99511036
0.29600001 64471.91305446  4308.33579381
0.29700001 63540.09261346  3124.26650170
0.29800001 62621.65417599  3651.15571957
0.29900001 61716.39509897  2777.23791093
0.30000001 60823.17017735  2746.16626351
0.30100001 59943.32182009  2986.97586770
0.30200001 59075.13213248  2953.46137078
0.30300001 58219.85499799  3716.75571903
0.30400001 57376.65264627  4462.46937082
0.30500001 56545.75896485  3633.63064311
0.30600001 55725.63348142  3336.01520630
0.30700001 54918.18147459  3805.83015637
0.30800001 54121.82911289  2759.40158796
0.30900001 53337.17916170  2728.19684329
0.31000001 52563.85537135  2942.52476300
0.31100001 51801.31181049  2909.16180901
0.31200001 51050.73346197  2396.83204952
0.31300001 50310.30642176  3317.46176252
0.31400001 49582.22711044  2811.31241027
0.31500001 48863.47030080  2779.35432230
0.31600002 48156.68359445  3434.77562000
0.31700002 47459.62320577  3169.35378774
0.31800002 46773.09799095  2685.71141381
0.31900002 46097.54003484  3097.75483702
0.32000002 45432.33562570  3062.59388954
0.32100002 44777.15036199  2595.28375787
0.32200002 44133.09945001  3848.84778528
0.32300002 43497.36416556  3170.95799782
0.32400002 42873.10537739  2299.07038473
0.32500002 42258.56472249  2479.73269534
0.32600002 41654.09640501  2247.44687795
0.32700002 41059.41891716  2020.12350638
0.32800002 40475.58371006  2996.20522602
0.32900002 39899.50801554  2172.52831432
0.33000002 39334.56766550  2734.14592790
0.33100002 38778.24907777  2510.50396418
0.33200002 38233.00444825  2482.66026141
0.33300002 37696.57168510  3210.61716246
0.33400002 37170.33568079  2428.15229333
0.33500002 36653.06366118  2586.24029441
0.33600002 36144.82053753  2375.25699411
0.33700002 35646.14199181  1987.98543303
0.33800002 35157.52439087  1787.76019994
0.33900002 34677.33593584  2475.96190307
0.34000002 34206.61210486  1924.63512123
0.34100002 33745.10716733  1904.23648763
0.34200002 33293.58326464  2398.13691613
0.34300002 32850.44549653  2203.60798827
0.34400002 32417.05400758  2180.85741164
0.34500002 31992.25576304  2324.55741383
0.34600002 31577.11924411  1972.30696140
0.34700002 31169.81683808  2115.18387081
0.34800002 30772.25683082  1933.11326567
0.34900002 30383.27816856  1754.63439734
0.35000002 30003.44839227  2527.49061227
0.35100002 29633.09283932  1877.55285122
0.35200002 29269.88708963  2014.79277324
0.35300002 28916.80558350  1535.48244921
0.35400002 28571.78434524  2130.02662382
0.35500002 28235.71730260  2261.68106306
0.35600002 27907.56166586  2092.22999719
0.35700002 27588.16857938  1629.63319517
0.35800002 27277.60144484  1909.56857959
0.35900002 26975.96285507  1602.37226949
0.36000002 26682.37012786  1589.33545195
0.36100002 26396.50008022  1576.66302447
0.36200002 26120.44954261  1706.71025396
0.36300002 25851.18878408  1411.47497447
0.36400002 25590.86468686  2241.75985275
0.36500002 25337.69309496  1391.03941680
0.36600002 25093.67213167  1933.96940280
0.36700002 24856.92529032  1372.10234102
0.36800002 24629.10550818  1635.86526534
0.36900002 24408.85050688  2302.97515441
0.37000002 24195.88136306  2423.70155095
0.37100002 23990.63761589  1338.67764238
0.37200002 23793.82841466  1597.51771544
0.37300002 23604.23590958  1589.03723671
0.37400002 23422.05912862  2107.98542143
0.37500002 23247.68415429  1573.40333810
0.37600002 23080.96723326  1566.27451065
0.37700002 22921.21109634  1429.59600380
0.37800002 22768.76280747  2200.48718577
0.37900002 22624.38694278  2321.26221029
0.38000002 22486.21316528  1670.61328626
0.38100002 22354.44360443  2049.45548674
0.38200002 22231.01363423  1404.88897317
0.38300002 22113.54453400  1528.48827060
0.38400002 22003.37091747  1397.76420375
0.38500002 21899.21362362  1267.96452888
0.38600002 21802.77407351  1392.21620442
0.38700002 21711.78050305  1389.98825366
0.38800002 21627.48036991  1388.15989331
0.38900002 21549.42119307  2395.21827909
0.39000002 21478.20366425  1259.69670459
0.39100002 21412.33827069  1384.95010496
0.39200002 21353.06689657  1258.76335319
0.39300002 21299.35361643  1258.79185837
0.39400002 21252.52261565  1511.05442956
0.39500002 21210.35381703  1259.89507642
0.39600002 21173.92920884  1513.08905295
0.39700002 21142.54118499  1893.31465282
0.39800002 21117.80719715  1516.68098476
0.39900002 21097.27782569  1898.75509427
0.40000002 21082.48384742  1394.92260985
0.40100002 21072.32938709  1397.72767447
0.40200002 21067.74269045  1273.54510598
0.40300002 21067.72630260  1787.38598420
0.40400002 21072.44089863  1408.16592977
0.40500002 21081.48599671  1540.63506964
0.40600002 21096.07978418  1931.87359777
0.40700002 21114.29898137  1679.85370655
0.40800002 21136.86775908  1296.74689846
0.40900002 21163.17975129  1561.84273965
0.41000002 21194.41056468  1437.29902055
0.41100002 21229.19652649  1574.35728900
0.41200002 21267.04829179  1317.49370410
0.41300002 21309.94614398  1455.68249007
0.41400002 21355.69986793  1462.33161775
0.41500002 21404.93288987  2003.50181342
0.41600002 21456.59524511  1878.95413465
0.41700002 21513.00157193  2023.29789371
0.41800002 21572.71818698  1355.84540230
0.41900002 21633.68576728  1635.50672150
0.42000002 21698.13261427  1918.33199533
0.42100002 21765.97098646  2066.67904309
0.42200002 21836.26280000  1662.61312838
0.42300002 21908.49856793  1950.73280492
0.42400002 21983.22230329  1541.57353707
0.42500002 22060.65555643  1973.54633960
0.42600002 22139.06211003  2127.01049301
0.42700002 22220.67201008  2139.85081597
0.42800002 22303.47551945  2152.84307653
0.42900002 22388.96749436  1444.08847182
0.43000002 22475.84206361  1453.06325827
0.43100002 22562.87066488  1608.28149720
0.43200002 22652.60687259  1618.41557471
0.43300002 22742.98960485  2072.79617081
0.43400002 22835.09658658  1936.98715975
0.43500002 22927.56588991  1949.30174434
0.43600002 23021.90902319  1810.90344958
0.43700002 23116.34342023  1974.36698509
0.43800002 23211.06563496  1681.29361894
0.43900002 23307.53691263  2307.44626370
0.44000002 23403.82037978  3870.40697872
0.44100002 23500.80371536  2492.96537627
0.44200002 23597.94823877  1881.70048173
0.44300002 23695.51149684  2209.36959667
0.44400002 23792.86768604  1588.17399331
0.44500002 23889.79768404  1758.05029488
0.44600002 23986.56503437  1929.95911413
0.44700002 24083.98966161  1942.13301835
0.44800002 24180.09626760  2605.64729728
0.44900002 24276.29610024  2294.11009020
0.45000002 24372.45044341  2638.07416102
0.45100002 24466.94439005  1990.63068992
0.45200002 24561.24064141  2503.40457102
0.45300002 24654.47899461  1846.86710901
0.45400002 24746.94787600  1857.87719984
0.45500002 24838.70661249  1868.86437410
0.45600002 24928.95158865  2050.65565487
0.45700002 25018.46794508  1890.64571221
0.45800002 25106.25386641  1728.56566063
0.45900002 25192.81391556  2085.96509107
0.46000002 25278.47905168  2097.60829112
0.46100002 25361.76665098  2460.59871710
0.46200002 25444.28487543  1943.81623519
0.46300002 25524.89071686  2842.45196495
0.46400002 25603.35699588  2500.16792914
0.46500002 25681.24560992  2154.14298386
0.46600002 25756.17426800  2345.48612088
0.46700002 25829.31442965  1994.53975479
0.46800002 25901.17795350  2186.57754647
0.46900002 25970.29683923  2746.35902092
0.47000002 26037.51909864  1839.55081151
0.47100002 26102.85546148  2217.69870512
0.47200002 26166.13081855  2042.13577652
0.47300002 26226.98782622  2424.16059968
0.47400002 26284.99727107  1872.80614433
0.47500002 26341.19807355  2068.83779475
0.47600002 26395.79418339  2266.34299601
0.47700002 26446.62750564  3413.20190766
