# SAXS profile: number of points = 501, q_min = 0, q_max = 0.5, delta_q = 0.001
#    q    intensity    error
0.00000000 1646666.22097351 345.79990640
0.00100000 1646585.73854182 740.96359994
0.00200000 1646344.22113294 963.11139986
0.00300000 1645941.90047508 1086.32169301
0.00400000 1645378.64548346 1604.24424030
0.00500000 1644654.95543824 2072.26532587
0.00600000 1643770.71590267 2243.74711855
0.00700000 1642726.51794459 2562.65347450
0.00800000 1641522.15762890 2659.26600763
0.00900000 1640158.85735406 2706.26223032
0.01000000 1638636.01372825 4325.99926304
0.01100000 1636954.86976515 3830.47456203
0.01200000 1635115.32324567 4145.01752616
0.01300000 1633118.57107047 4801.36881071
0.01400000 1630964.60254537 5137.53872577
0.01500000 1628654.84100495 4299.64897171
0.01600000 1626188.65898026 4146.78126578
0.01700000 1623568.26345823 5698.72486038
0.01800000 1620793.65668645 6005.04076824
0.01900000 1617865.42030582 8251.11401587
0.02000000 1614784.78908075 7121.20124198
0.02100000 1611553.74554430 5318.12760141
0.02200000 1608170.75464776 7212.64616228
0.02300000 1604639.19970734 6354.37152008
0.02400000 1600958.28439298 7204.31260827
0.02500000 1597130.78557107 7474.57241784
0.02600000 1593156.62432115 7097.51308598
0.02700000 1589037.95528725 7341.35568967
0.02800000 1584774.54422671 9651.27741694
0.02900000 1580368.84938585 8533.99217852
0.03000000 1575822.21144022 7327.57362001
0.03100000 1571135.07527705 9049.73845000
0.03200000 1566308.72911832 10079.19713611
0.03300000 1561346.98648274 8759.15699797
0.03400000 1556248.08268933 8170.30281110
0.03500000 1551015.13357732 13400.77137293
0.03600000 1545649.12198869 11151.85893052
0.03700000 1540152.23888691 8778.86816766
0.03800000 1534525.68624200 14363.16108795
0.03900000 1528771.63664538 10089.89326912
0.04000000 1522889.94565171 11238.92831971
0.04100000 1516884.43349995 11467.64684897
0.04200000 1510755.92803117 11693.25142544
0.04300000 1504505.38317197 12908.65678681
0.04400000 1498136.33723414 11123.66282057
0.04500000 1491649.93240503 11321.62351301
0.04600000 1485046.36587982 11516.53510277
0.04700000 1478329.63599089 17030.35819866
0.04800000 1471500.43007358 14060.18726355
0.04900000 1464561.96673968 10984.21526184
0.05000000 1457514.31349829 14494.98052272
0.05100000 1450361.71785315 12444.10411888
0.05200000 1443102.74964921 11472.66739435
0.05300000 1435743.06011954 12792.47126202
0.05400000 1428282.75466101 15318.33325809
0.05500000 1420724.34282423 17901.12755466
0.05600000 1413068.80651794 14498.08663142
0.05700000 1405321.17751067 22007.33066709
0.05800000 1397480.53496939 12367.70331196
0.05900000 1389549.19794227 12505.94336558
0.06000000 1381531.15660387 12641.01067350
0.06100000 1373427.58102217 24268.46649076
0.06200000 1365240.71162014 14191.67786066
0.06300000 1356973.63365451 13026.94749216
0.06400000 1348625.12195463 17093.82422020
0.06500000 1340201.00065505 18575.18673799
0.06600000 1331702.62752583 18737.05684597
0.06700000 1323131.00067363 17544.71789001
0.06800000 1314489.62540883 16325.96191178
0.06900000 1305781.22214639 17823.91451679
0.07000000 1297005.87662031 15194.42455614
0.07100000 1288167.19075577 18085.86820531
0.07200000 1279267.45935766 15408.77726981
0.07300000 1270309.10218562 25380.77705090
0.07400000 1261294.65937818 17027.47869958
0.07500000 1252225.27821059 17130.44260887
0.07600000 1243102.59801797 15793.61924823
0.07700000 1233931.58992613 15880.70030697
0.07800000 1224712.34358399 17415.41034248
0.07900000 1215447.22027542 16043.90406015
0.08000000 1206140.07416313 20516.44362396
0.08100000 1196791.74077663 20608.75474310
0.08200000 1187404.08855630 23653.09055397
0.08300000 1177980.70241488 16326.81330172
0.08400000 1168522.88355658 14898.66746467
0.08500000 1159033.25007750 14951.52962790
0.08600000 1149513.21768640 18001.37783416
0.08700000 1139967.12426418 15047.56674689
0.08800000 1130393.97932708 16599.83636601
0.08900000 1120799.64771047 24209.27352765
0.09000000 1111183.08444921 18201.17977829
0.09100000 1101547.73115256 15201.35940408
0.09200000 1091895.23449330 21324.71493163
0.09300000 1082230.97851969 15259.45751420
0.09400000 1072550.99375187 18340.62285512
0.09500000 1062861.40370649 21427.28690586
0.09600000 1053163.12109571 18388.22895872
0.09700000 1043460.88689409 21474.42606185
0.09800000 1033753.95074892 24561.99502464
0.09900000 1024045.68781902 19968.89185146
0.10000000 1014336.40533367 19977.35644253
0.10100000 1004628.62662326 16907.90058128
0.10200000 994925.44327468 24594.55811459
0.10300000 985227.51588934 21517.36995922
0.10400000 975538.41657915 16901.20386235
0.10500000 965860.62255394 18428.62154538
0.10600001 956191.24374852 18416.24422115
0.10700001 946537.59300715 16867.30070112
0.10800001 936898.55738181 18381.95056092
0.10900001 927277.84979312 16830.09376586
0.11000001 917675.22917897 19863.08127052
0.11100001 908093.50152851 19832.76300698
0.11200001 898534.50020716 19799.20864415
0.11300001 888999.51867863 21282.64947917
0.11400001 879491.01973462 16688.34288523
0.11500001 870010.51850071 27248.73072253
0.11600001 860559.15095997 18123.37657267
0.11700001 851139.35908753 18078.20083841
0.11800001 841750.66983187 15025.25016416
0.11900001 832395.87464888 17979.75173929
0.12000001 823076.23201936 20914.36804078
0.12100001 813795.63557735 22338.69124893
0.12200001 804552.72471282 22265.99770541
0.12300001 795350.24985184 17752.21841308
0.12400001 786188.41838303 16215.13689317
0.12500001 777068.54438709 20561.23465334
0.12600001 767994.82366269 14630.30208020
0.12700001 758965.47575620 23315.42051400
0.12800001 749982.59324677 14512.16386327
0.12900001 741048.32847390 14450.44308632
0.13000001 732163.43191892 14387.01211534
0.13100001 723328.24617329 20050.65992906
0.13200001 714544.59217555 21382.74792884
0.13300001 705814.06735741 17024.23610723
0.13400001 697136.60644980 16940.42033540
0.13500001 688514.64436889 15450.26934809
0.13600001 679948.32056951 16767.52637585
0.13700001 671439.25884572 15288.67264483
0.13800001 662986.42947379 19352.57478892
0.13900001 654593.73910876 15121.11608650
0.14000001 646259.78243284 16402.07405168
0.14100001 637987.30605988 19024.78236397
0.14200001 629775.77458157 20263.03650287
0.14300001 621627.05602111 20140.71756507
0.14400001 613538.71877760 16013.36131544
0.14500001 605516.27054950 13260.80695057
0.14600001 597557.88394523 14493.76715883
0.14700001 589665.56767746 14399.63384201
0.14800001 581836.30917447 13004.04212356
0.14900001 574074.89252608 21958.36567514
0.15000001 566379.63358058 19242.74895883
0.15100001 558751.72835350 19109.31001136
0.15200001 551193.07679173 20239.81073485
0.15300001 543702.41916308 15071.43177041
0.15400001 536279.12174382 17455.88623652
0.15500001 528926.65592805 16089.94963266
0.15600001 521642.09182807 17198.54057926
0.15700001 514430.38803483 13411.20084903
0.15800001 507286.08743083 14518.52850753
0.15900001 500214.54739618 13205.66467457
0.16000001 493211.62923743 14293.27368998
0.16100001 486282.34038210 17724.99214362
0.16200001 479423.86576090 11721.91407120
0.16300001 472636.52022893 20928.34610372
0.16400001 465921.52592165 14991.02580425
0.16500001 459277.68982682 14866.81952158
0.16600001 452706.32589594 14742.38219883
0.16700001 446206.54542953 12368.84602330
0.16800001 439779.10950088 14492.92123791
0.16900001 433424.69459190 14368.02930415
0.17000001 427141.22934776 13147.40766014
0.17100001 420930.60882433 10860.01022049
0.17200001 414792.02631747 12916.62430949
0.17300001 408725.20787549 12801.27411519
0.17400001 402731.58683702 15857.55698060
0.17500001 396808.49250078 13618.46810579
0.17600001 390955.84742371 11417.86606327
0.17700001 385177.78561793 13369.52157025
0.17800001 379469.23803692 12226.49942703
0.17900001 373831.70060082 11102.80203227
0.18000001 368266.30334862 12997.95979065
0.18100001 362772.01161392 11884.41166185
0.18200001 357346.16991257 13732.81395845
0.18300001 351991.01877736 9714.95257718
0.18400001 346706.14456508 12507.42475604
0.18500001 341490.75706536 10480.35182945
0.18600001 336345.01881952 12264.82169069
0.18700001 331267.31768732 13078.43432018
0.18800001 326256.83735694 9249.38177607
0.18900001 321317.72634957 12820.57788709
0.19000001 316442.21599858 9972.67690839
0.19100001 311636.66361395 8975.13633616
0.19200001 306896.35610858 13326.97489373
0.19300001 302224.04090375 14071.55200940
0.19400001 297616.09060046 13928.43369827
0.19500001 293074.06311560 12924.56679415
0.19600001 288595.97120868 11939.21589311
0.19700001 284183.96685163 13504.42274298
0.19800001 279834.65851094 10023.67794157
0.19900001 275549.21040197 9919.77204328
0.20000001 271324.71258744 8998.48451824
0.20100001 267164.49470977 9714.10148676
0.20200001 263064.46012217 8010.31318932
0.20300001 259026.00742036 8718.81582186
0.20400001 255048.67153341 8627.02172238
0.20500001 251130.16361567 10087.89914926
0.20600001 247270.77291424 11516.63679285
0.20700001 243470.58614496 10634.79570551
0.20800001 239727.78270563 9018.55961169
0.20900001 236044.82397987 8922.49476822
0.21000001 232415.73497281 8091.55419559
0.21100001 228844.37899613 10915.87739415
0.21200001 225327.21241789 8639.04573251
0.21300001 221865.22763425 7834.06155812
0.21400001 218457.78884212 9158.84323020
0.21500001 215105.01695999 9060.22374270
0.21600001 211803.34145640 8273.03890842
0.21700001 208554.73957916 7501.71433734
0.21800001 205357.61222631 8769.79724477
0.21900001 202211.00807941 11344.03808962
0.22000001 199113.90820534 7920.75164292
0.22100001 196067.91777069 9793.59295572
0.22200001 193070.29896115 9041.48252787
0.22300001 190120.44865204 6388.04737677
0.22400001 187217.64413840 10109.75326153
0.22500001 184363.96690543 8749.91428309
0.22600001 181554.50134030 7418.31727556
0.22700001 178791.42037680 6726.13355265
0.22800001 176072.86004542 6652.91333143
0.22900001 173397.89048996 7178.67300577
0.23000001 170767.09388212 7100.49609941
0.23100001 168180.23751356 7608.47430494
0.23200001 165633.76374619 6367.79034838
0.23300001 163130.08196158 6298.45276242
0.23400001 160666.45194423 7928.88977845
0.23500001 158242.73672211 7842.51040287
0.23600001 155858.99782332 7203.02392509
0.23700001 153514.63333253 8220.70900378
0.23800001 151207.96142460 5962.88624082
0.23900001 148939.16559300 5897.99123645
0.24000001 146706.90475893 6894.49131526
0.24100001 144512.07294707 5770.36734572
0.24200001 142353.06304706 5707.64633285
0.24300001 140228.59847463 5645.60364164
0.24400001 138138.91550223 6091.92646182
0.24500001 136082.52903964 5523.59011501
0.24600001 134060.03909150 5463.61715163
0.24700001 132070.63017771 5404.33044253
0.24800001 130113.21142787 4859.72867673
0.24900001 128186.36873938 4806.98905513
0.25000001 126291.80629471 6181.35275152
0.25100001 124426.71780527 4703.33015555
0.25200001 122593.39714158 6048.14553412
0.25300001 120788.06485762 7363.24078208
0.25400001 119012.43808972 5462.67116676
0.25500001 117263.56569406 6304.08958997
0.25600001 115543.81087065 4899.63553178
0.25700001 113850.37865914 6609.01479386
0.25800001 112183.97875703 4358.34778092
0.25900001 110544.42462629 5604.60259373
0.26000001 108930.03641959 4691.07224037
0.26100001 107340.26609329 4640.31992278
0.26200001 105776.90222411 5424.76868725
0.26300001 104236.14006559 5366.07674449
0.26400001 102720.40712045 5308.07728912
0.26500001 101227.75888076 4846.78532456
0.26600001 99757.75292907  4394.82801325
0.26700001 98310.57521396  5137.71090380
0.26800001 96885.81050499  5082.14543053
0.26900001 95481.91152434  4253.71935970
0.27000001 94099.93320005  6120.25994496
0.27100001 92738.47225589  4540.47581652
0.27200001 91398.21271814  5239.85978310
0.27300001 90077.79945488  3702.19773280
0.27400001 88775.79965858  3662.00190922
0.27500001 87495.19220915  3622.30112889
0.27600001 86231.28601914  3941.20111403
0.27700001 84987.92818669  3898.39645042
0.27800001 83761.84561712  3855.97674548
0.27900001 82554.31934593  3467.28157663
0.28000001 81363.78468057  4115.38042392
0.28100001 80190.92071204  4409.69893866
0.28200001 79035.41234782  4361.56943685
0.28300001 77896.43775212  3318.38840530
0.28400001 76773.32842287  4266.67792905
0.28500001 75666.98542595  3246.11382842
0.28600001 74576.20021473  3852.60668544
0.28700001 73501.69569073  4445.38276579
0.28800001 72440.91904919  4082.40818625
0.28900001 71397.00323245  4037.50072390
0.29000001 70367.11827029  3685.82982946
0.29100001 69352.44583871  3341.40099867
0.29200001 68351.65535831  3304.46093472
0.29300001 67365.34710423  5644.54270105
0.29400001 66392.18722687  3525.42530863
0.29500001 65434.16678460  3195.80485704
0.29600001 64488.19679043  2872.94930301
0.29700001 63556.33094074  3125.06494029
0.29800001 62637.60216855  2809.29659025
0.29900001 61732.21667216  3055.74486993
0.30000001 60838.66167021  2746.86570445
0.30100001 59958.68443630  2987.74138690
0.30200001 59090.23984544  2685.65152812
0.30300001 58234.84867656  3983.26383805
0.30400001 57391.34662657  3150.78507896
0.30500001 56560.24490511  2855.72690046
0.30600001 55739.87951665  4106.91451722
0.30700001 54932.14083130  3806.79753984
0.30800001 54135.52596603  2509.18174732
0.30900001 53350.73018009  2976.97088499
0.31000001 52577.10733077  2697.99439041
0.31100001 51814.24771289  2424.90690777
0.31200001 51063.49773178  3116.66073162
0.31300001 50322.76354717  3081.26295788
0.31400001 49594.40218342  2577.66917553
0.31500001 48875.38936329  3475.04034826
0.31600002 48168.33287221  2748.48520382
0.31700002 47470.92868433  2717.23608655
0.31800002 46784.09761429  2910.20492989
0.31900002 46108.22191323  2877.15318362
0.32000002 45442.84483157  2844.49500692
0.32100002 44787.31424156  2379.55011833
0.32200002 44142.95312464  2138.72618016
0.32300002 43506.90319110  2537.32271425
0.32400002 42882.29089257  2508.61413600
0.32500002 42267.40484067  2480.25143350
0.32600002 41662.66667814  2860.97545626
0.32700002 41067.65542556  2828.74023966
0.32800002 40483.40951346  1997.85635409
0.32900002 39907.00425250  2172.93648444
0.33000002 39341.79109908  2343.98402468
0.33100002 38785.16636846  2510.95178960
0.33200002 38239.59808900  2483.08841950
0.33300002 37702.76454829  2077.79945265
0.33400002 37176.15480013  2054.91205389
0.33500002 36658.56150228  1847.59158721
0.33600002 36149.97938713  2010.11969901
0.33700002 35650.91173118  2711.25196555
0.33800002 35161.95510984  2324.38115261
0.33900002 34681.45091849  1945.62948867
0.34000002 34210.34839558  1924.84534363
0.34100002 33748.49475212  1731.29786278
0.34200002 33296.65023720  2912.29165092
0.34300002 32853.14924579  1864.74483950
0.34400002 32419.40968563  1845.47498376
0.34500002 31994.23043438  1826.55070200
0.34600002 31578.79078730  1808.04375216
0.34700002 31171.07175849  2115.26902971
0.34800002 30773.19311599  1772.07440951
0.34900002 30383.87909505  1754.66910084
0.35000002 30003.71790235  2369.54373356
0.35100002 29632.96514297  1721.08269702
0.35200002 29269.38192940  2324.72076985
0.35300002 28915.93630157  1688.97991937
0.35400002 28570.57710695  1825.65996360
0.35500002 28234.17204011  2563.09825920
0.35600002 27905.77811072  1793.22538633
0.35700002 27586.00908178  1925.77938521
0.35800002 27275.06798604  1909.39122480
0.35900002 26973.04704663  1893.50799236
0.36000002 26679.12527025  1733.60964217
0.36100002 26392.95489492  1576.45127054
0.36200002 26116.57116442  1848.66157744
0.36300002 25847.00574027  1975.74521237
0.36400002 25586.24218520  1821.10087379
0.36500002 25332.88503932  1529.85299999
0.36600002 25088.44553816  1795.45468999
0.36700002 24851.42325799  1920.51808035
0.36800002 24623.25162114  2044.34556268
0.36900002 24402.71794403  1896.09127407
0.37000002 24189.41608189  1480.75517560
0.37100002 23983.92705710  1338.30319318
0.37200002 23786.83276358  1330.87335617
0.37300002 23596.89906688  1588.54332043
0.37400002 23414.45546320  2107.30109151
0.37500002 23239.80095501  1572.86980314
0.37600002 23072.78577371  1565.71931677
0.37700002 22912.70512043  1299.15044187
0.37800002 22760.04936802  1811.47241501
0.37900002 22615.32271666  1675.79549269
0.38000002 22476.92741383  1413.01210881
0.38100002 22344.99862643  1792.51587473
0.38200002 22221.24597799  1276.61064191
0.38300002 22103.49012393  2164.37385547
0.38400002 21993.04218217  1270.09824619
0.38500002 21888.71498047  1520.82798889
0.38600002 21792.01105517  1391.52893185
0.38700002 21700.82999056  1262.98836528
0.38800002 21616.24525570  1513.56956451
0.38900002 21537.95327036  1511.96439121
0.39000002 21466.64733769  1259.01892600
0.39100002 21400.50514943  1761.68966736
0.39200002 21341.01983146  1635.46913227
0.39300002 21287.08615004  1383.87353618
0.39400002 21240.09306020  1258.47557344
0.39500002 21197.69152427  1385.05722982
0.39600002 21161.17807749  1638.19267848
0.39700002 21129.57604022  1513.72289924
0.39800002 21104.65590155  1894.67057333
0.39900002 21084.00132604  1265.04013950
0.40000002 21069.04797537  2027.68527322
0.40100002 21058.74714390  2158.73227200
0.40200002 21054.04002761  1654.53181396
0.40300002 21053.84538064  1531.03570862
0.40400002 21058.46154376  1535.16191928
0.40500002 21067.35246257  1411.30200834
0.40600002 21081.78586649  1801.86032338
0.40700002 21099.99573101  1291.31979992
0.40800002 21122.42100160  2073.37694376
0.40900002 21148.63248978  2341.15372755
0.41000002 21179.78170715  1958.60040617
0.41100002 21214.47588360  1573.26560607
0.41200002 21252.22828377  2238.17852776
0.41300002 21295.08273557  1586.90964065
0.41400002 21340.76285087  1727.00131554
0.41500002 21389.95616172  1334.73332774
0.41600002 21441.56294256  1877.63775585
0.41700002 21497.91109248  1482.71099830
0.41800002 21557.57520710  1490.38303256
0.41900002 21618.53232876  1361.96760125
0.42000002 21683.00606260  1780.06646706
0.42100002 21750.80951419  2202.92209198
0.42200002 21821.05193115  1799.90955383
0.42300002 21893.32008037  1531.65674540
0.42400002 21967.99259062  1960.64343162
0.42500002 22045.42290959  1549.57284974
0.42600002 22123.84829209  1700.43906031
0.42700002 22205.48268943  1853.26967308
0.42800002 22288.39041645  1721.10958952
0.42900002 22373.86813341  2020.36038819
0.43000002 22460.69455167  1452.08397158
0.43100002 22547.80482226  2337.75651475
0.43200002 22637.64406982  2352.50408322
0.43300002 22727.98234626  1627.55089294
0.43400002 22820.21303242  2531.33225058
0.43500002 22912.73173031  1498.49272617
0.43600002 23007.11332490  1809.73961990
0.43700002 23101.67098577  1517.77985569
0.43800002 23196.47227348  1985.73410307
0.43900002 23293.09546129  1691.07881063
0.44000002 23389.40320595  1547.20909540
0.44100002 23486.47581956  2024.29944682
0.44200002 23583.72997214  2664.13618256
0.44300002 23681.37787461  2365.76976179
0.44400002 23778.85367820  1745.96241406
0.44500002 23875.92048686  2555.67865003
0.44600002 23972.76569420  1607.37401597
0.44700002 24070.39296158  1779.28353204
0.44800002 24166.59574191  1790.38233039
0.44900002 24262.95793129  1801.52471178
0.45000002 24359.26913613  1812.69509867
0.45100002 24453.87780195  2321.16219097
0.45200002 24548.32754534  2001.67072291
0.45300002 24641.66190181  2013.71670605
0.45400002 24734.30972775  2363.36340649
0.45500002 24826.25072643  2037.73875620
0.45600002 24916.63069774  1878.83862681
0.45700002 25006.30396428  1889.72648014
0.45800002 25094.29659889  1727.74240272
0.45900002 25181.02608685  2084.98905881
0.46000002 25266.82446026  2620.80149135
0.46100002 25350.31653426  2635.16552863
0.46200002 25432.96488328  2472.84729280
0.46300002 25513.83707037  2130.91577311
0.46400002 25592.46253545  1785.07434645
0.46500002 25670.53575473  2691.55580145
0.46600002 25745.66312514  1983.83216613
0.46700002 25818.98525860  1993.74213616
0.46800002 25891.06023240  2003.57979105
0.46900002 25960.39086316  2379.26993538
0.47000002 26027.83686869  1838.86676193
0.47100002 26093.31112131  2032.14716644
0.47200002 26156.81554299  2783.73922610
0.47300002 26217.89600114  2050.50174344
0.47400002 26276.10717714  1872.17272511
0.47500002 26332.52821127  2068.15686374
0.47600002 26387.29226649  1888.01085115
0.47700002 26438.37179411  2085.19448224
