# SAXS profile: number of points = 501, q_min = 0, q_max = 0.5, delta_q = 0.001
#    q    intensity    error
0.00000000 1664650.74656091 299.63713438
0.00100000 1664569.80505696 549.30804871
0.00200000 1664326.91783220 1048.52599144
0.00300000 1663922.30297486 1098.18875908
0.00400000 1663355.83845460 1871.27538937
0.00500000 1662628.01473216 1795.63832698
0.00600000 1661738.74781244 2268.27348311
0.00700000 1660688.60651094 2590.67433383
0.00800000 1659477.36412839 2464.32398977
0.00900000 1658106.29711531 3482.02337279
0.01000000 1656574.75397705 3280.01815450
0.01100000 1654884.00536598 3872.42874116
0.01200000 1653033.97349100 4835.12458445
0.01300000 1651025.82417044 5200.73157551
0.01400000 1648859.55382835 5935.89465693
0.01500000 1646536.53117670 5137.19420602
0.01600000 1644056.17282258 5869.28079935
0.01700000 1641420.82495767 5318.20371143
0.01800000 1638630.25095763 5137.10606791
0.01900000 1635685.19067228 4907.05579344
0.02000000 1632586.88940390 5656.91382768
0.02100000 1629337.21583368 6452.17566723
0.02200000 1625934.75372978 7853.26521731
0.02300000 1622382.70748157 7008.69361534
0.02400000 1618680.61586246 6070.05258626
0.02500000 1614830.98295929 11336.11401810
0.02600000 1610833.82932775 6523.87730717
0.02700000 1606691.20920080 6748.10338771
0.02800000 1602402.97706410 11152.72523183
0.02900000 1597971.67646613 7909.96016169
0.03000000 1593398.56382233 8150.23402858
0.03100000 1588684.10199034 8388.25244448
0.03200000 1583829.60795928 8623.95261254
0.03300000 1578838.76647883 10467.70150432
0.03400000 1573709.89902420 10740.57055641
0.03500000 1568446.09416346 8469.60929959
0.03600000 1563048.61268904 8674.92020132
0.03700000 1557519.29049137 9765.64640302
0.03800000 1551859.43627379 11801.89155905
0.03900000 1546071.31439321 9276.42831595
0.04000000 1540154.66697855 12313.53713309
0.04100000 1534113.49231080 12564.39008459
0.04200000 1527948.42095764 12811.84810411
0.04300000 1521660.53011095 16068.73594385
0.04400000 1515253.29534575 13296.34828417
0.04500000 1508728.00079052 12492.26842700
0.04600000 1502084.65559155 12707.63677704
0.04700000 1495327.44622952 13996.26554765
0.04800000 1488456.74741911 15316.22064358
0.04900000 1481476.39981771 13333.28821899
0.05000000 1474385.95754336 12406.95841047
0.05100000 1467189.82744480 16021.71366205
0.05200000 1459886.32443942 13927.31618418
0.05300000 1452481.54662036 11765.10107609
0.05400000 1444975.41377146 16689.46680735
0.05500000 1437370.32918611 15696.08472692
0.05600000 1429667.54419859 15890.75549530
0.05700000 1421871.87861545 19792.45747421
0.05800000 1413982.24977533 18770.61524221
0.05900000 1406001.61376679 13919.41662641
0.06000000 1397933.44100092 16628.41905757
0.06100000 1389778.91150581 12924.94448100
0.06200000 1381540.53532138 16972.22626976
0.06300000 1373220.94618281 18456.09037962
0.06400000 1364819.35879411 17299.08618174
0.06500000 1356341.82487923 17456.12010275
0.06600000 1347789.05793746 13545.28066604
0.06700000 1339162.65426804 15025.40568406
0.06800000 1330465.72297238 15147.35296507
0.06900000 1321700.82129352 15265.64520066
0.07000000 1312868.88373291 16778.46511982
0.07100000 1303972.47236630 18307.77436952
0.07200000 1295014.65324234 17016.49334077
0.07300000 1285997.73806600 15702.03311751
0.07400000 1276923.81290770 14365.39356843
0.07500000 1267794.50383032 14452.85802111
0.07600000 1258611.25642958 18898.04890124
0.07700000 1249379.25037592 14617.73791480
0.07800000 1240098.34509454 16164.68268637
0.07900000 1230771.05123375 17723.10396905
0.08000000 1221401.02055097 19292.03002461
0.08100000 1211989.38109013 19379.71111289
0.08200000 1202537.92403907 17965.91742820
0.08300000 1193050.21056557 16535.67669449
0.08400000 1183527.27183764 16598.97076666
0.08500000 1173972.19917706 18173.09049640
0.08600000 1164386.15471229 18234.28803892
0.08700000 1154773.75048132 21340.21991098
0.08800000 1145133.72826931 15287.53599036
0.08900000 1135471.80021026 16861.75702511
0.09000000 1125787.50200176 16903.70013662
0.09100000 1116083.83559456 18482.34918577
0.09200000 1106362.74690303 16977.13714893
0.09300000 1096628.89272815 17008.71492549
0.09400000 1086879.19011335 17036.83210571
0.09500000 1077119.45502131 17061.57296948
0.09600000 1067350.94706241 17082.95271077
0.09700000 1057577.69908257 18655.67148887
0.09800000 1047799.50272137 18671.78801640
0.09900000 1038019.49081053 26469.49826033
0.10000000 1028237.97592062 17135.58667456
0.10100000 1018457.76104147 26490.08761056
0.10200000 1008681.80443915 18700.96153393
0.10300000 998910.73393425 23374.51227362
0.10400000 989147.95389978 18694.89720821
0.10500000 979396.26684128 20244.12178808
0.10600001 969652.63500377 20231.80318133
0.10700001 959924.67553591 18660.93657056
0.10800001 950210.84803411 15535.94809651
0.10900001 940514.92135307 26381.44478561
0.11000001 930837.05660843 21697.81281085
0.11100001 921179.63355951 18570.98228676
0.11200001 911544.54428727 15450.68075304
0.11300001 901933.45799101 20049.98171511
0.11400001 892348.36058013 21550.21392269
0.11500001 882791.28896292 18432.68298150
0.11600001 873262.92545125 16858.34156972
0.11700001 863766.05759667 19875.25792132
0.11800001 854300.02497568 15249.25616403
0.11900001 844867.66514223 19769.90429552
0.12000001 835469.94373696 18196.53623174
0.12100001 826111.69908924 19653.19824716
0.12200001 816790.30793447 15069.78189135
0.12300001 807509.80036195 18023.61959325
0.12400001 798269.28271621 17961.05970739
0.12500001 789070.95015801 14913.44166071
0.12600001 779918.34325513 20800.42319480
0.12700001 770810.15558200 23679.28909540
0.12800001 761748.49103630 19161.78419510
0.12900001 752734.93034544 22017.49775033
0.13000001 743770.80158638 17538.11632806
0.13100001 734855.84324049 21825.21957303
0.13200001 725993.14715035 18828.63315893
0.13300001 717183.07147152 21623.07062424
0.13400001 708425.80093237 15780.18545974
0.13500001 699724.44068964 22839.00682093
0.13600001 691078.50244187 14201.66389480
0.13700001 682489.68394840 18365.79826106
0.13800001 673957.01141951 19672.80609102
0.13900001 665484.66656287 16770.21438824
0.14000001 657070.92517194 18066.16593961
0.14100001 648718.76527674 13817.71035208
0.14200001 640427.16051954 16484.59588927
0.14300001 632198.85019641 17752.14455084
0.14400001 624030.51315029 14929.93073136
0.14500001 615928.59961606 17535.48805826
0.14600001 607890.30700596 20105.97285271
0.14700001 599918.36561752 15981.82601402
0.14800001 592009.72505309 19847.12696877
0.14900001 584168.73534838 17086.93631512
0.15000001 576394.06028598 15666.39129776
0.15100001 568686.83877032 15559.27264292
0.15200001 561048.79152990 18026.49852247
0.15300001 553479.08335494 14063.90417171
0.15400001 545976.64358429 16502.14483109
0.15500001 538545.26987674 15122.35189181
0.15600001 531181.81260585 13760.26550497
0.15700001 523891.38461224 13657.84904145
0.15800001 516668.46841393 14787.05226394
0.15900001 509518.40671106 15896.97503973
0.16000001 502437.18639717 15774.01621151
0.16100001 495429.78859618 13242.83887429
0.16200001 488493.17473350 15526.75629186
0.16300001 481628.06258141 13032.85598871
0.16400001 474835.57493330 17628.27155162
0.16500001 468114.32896644 12821.65207572
0.16600001 461465.87633727 12715.69282282
0.16700001 454888.92010411 12609.52146064
0.16800001 448384.45015325 14776.51025249
0.16900001 441953.71616598 12396.80232381
0.17000001 435593.86673457 12290.28153026
0.17100001 429307.16616367 14398.96303307
0.17200001 423092.59786375 12077.17877634
0.17300001 416950.31419721 13058.88445736
0.17400001 410880.98089001 15099.87676082
0.17500001 404882.86290550 11757.79889407
0.17600001 398955.49977833 13769.94972519
0.17700001 393102.79937676 15743.76785863
0.17800001 387319.85513544 11439.49246174
0.17900001 381608.14133022 12364.10436310
0.18000001 375969.20601726 11228.32086808
0.18100001 370401.27600129 12134.34637499
0.18200001 364902.29719574 12019.88223742
0.18300001 359474.49639884 9921.49656929
0.18400001 354116.83101988 11792.09103003
0.18500001 348829.38821230 11678.80846908
0.18600001 343611.60475265 10602.13656552
0.18700001 338462.33237657 10499.10204635
0.18800001 333380.60916199 15122.14514605
0.18900001 328370.60212515 10294.41886301
0.19000001 323424.60349932 11119.33839368
0.19100001 318548.80638984 10091.62666326
0.19200001 313738.59094055 9991.00590059
0.19300001 308996.91454713 8991.81063821
0.19400001 304319.80424721 9791.49016434
0.19500001 299709.02804685 11454.87959325
0.19600001 295162.51263481 8722.05266053
0.19700001 290682.60844857 11223.25604258
0.19800001 286265.67923423 10254.03711476
0.19900001 281912.92332896 11840.34333939
0.20000001 277621.77096018 12555.44518506
0.20100001 273394.95456957 8283.86751497
0.20200001 269228.94402165 9837.62607951
0.20300001 265124.84703069 10546.66691337
0.20400001 261082.10988689 14450.89546527
0.20500001 257098.90298656 8738.79212557
0.20600001 253175.11572406 7861.08771481
0.20700001 249310.89802379 13223.45065624
0.20800001 245504.54089503 7696.56772088
0.20900001 241758.49403419 9900.01079869
0.21000001 238066.69172498 9041.77337914
0.21100001 234432.98239172 8945.96303097
0.21200001 230854.02153131 8850.94360393
0.21300001 227330.60762715 8027.04413480
0.21400001 223862.21118287 9385.42364755
0.21500001 220448.83031082 7856.79668373
0.21600001 217087.07744978 7772.80317558
0.21700001 213778.81617201 9786.79466707
0.21800001 210522.69302710 8298.80495150
0.21900001 207317.03774698 10262.19385369
0.22000001 204161.68665333 8798.34830233
0.22100001 201057.85824910 8034.27239552
0.22200001 198002.95949916 7947.83917011
0.22300001 194996.26554148 7862.24979840
0.22400001 192036.91803755 7129.37091927
0.22500001 189127.22922323 7052.55471123
0.22600001 186262.19667503 8244.89652571
0.22700001 183444.11218684 8783.30450686
0.22800001 180670.78714357 9309.06274780
0.22900001 177941.85888108 6752.89386389
0.23000001 175257.33431999 9109.00038206
0.23100001 172617.26913242 9010.62187485
0.23200001 170018.11564919 10101.62681904
0.23300001 167462.24181312 10580.26493814
0.23400001 164946.69625624 9884.43124064
0.23500001 162471.74224878 5751.49994763
0.23600001 160037.23454144 7965.05353985
0.23700001 157642.32511267 6753.39752725
0.23800001 155285.72430550 6680.39217560
0.23900001 152967.54165732 7158.88128817
0.24000001 150686.40992224 5447.31397635
0.24100001 148443.16416049 5927.33582530
0.24200001 146236.11084318 6396.36779084
0.24300001 144064.05757531 6854.56818367
0.24400001 141927.26194207 5737.40983541
0.24500001 139824.32000723 9287.13177420
0.24600001 137755.60896734 5614.23010905
0.24700001 135720.70759717 8078.09689833
0.24800001 133718.07170072 6492.68127858
0.24900001 131746.55754866 5434.54575598
0.25000001 129807.67963240 9285.79280180
0.25100001 127898.79814001 4834.57479841
0.25200001 126022.30498538 5739.05604055
0.25300001 124174.11342413 6150.34412887
0.25400001 122356.11894101 7020.18265637
0.25500001 120565.18652729 5555.64405803
0.25600001 118804.08682028 5037.88753997
0.25700001 117069.68656779 6795.89562680
0.25800001 115362.66455009 5826.39164877
0.25900001 113683.19726240 5320.37388361
0.26000001 112029.19989715 4385.94338350
0.26100001 110400.36607292 4772.60805115
0.26200001 108798.10511539 5150.50253987
0.26300001 107219.20595557 4670.46883242
0.26400001 105665.57127502 5460.26865401
0.26500001 104135.57801897 4155.00975957
0.26600001 102628.70015816 4521.30759941
0.26700001 101145.03811400 5692.44301442
0.26800001 99684.33892762  4826.71591928
0.26900001 98244.81656010  5172.58983666
0.27000001 96827.57815743  5510.45773371
0.27100001 95431.50017501  5061.68700882
0.27200001 94056.92607682  5007.12069665
0.27300001 92702.73339252  4572.09902729
0.27400001 91367.12071035  6030.23025226
0.27500001 90053.62127905  4846.68612661
0.27600001 88757.22943042  5531.79458605
0.27700001 87481.75962767  3647.98954912
0.27800001 86223.84679288  4330.16179087
0.27900001 84984.99141704  5710.99169351
0.28000001 83763.55278027  3883.69730847
0.28100001 82560.09154424  4539.97964889
0.28200001 81374.43746387  3454.34503383
0.28300001 80205.80097251  3758.44401146
0.28400001 79053.28979757  3717.48112868
0.28500001 77918.09863608  3676.95524867
0.28600001 76798.72878804  4628.65960314
0.28700001 75696.09664328  4251.09298870
0.28800001 74607.61285190  3234.24017022
0.28900001 73536.35338068  4798.24728521
0.29000001 72479.33657579  3796.46782954
0.29100001 71438.07967699  4693.48205694
0.29200001 70411.07378601  3094.56683938
0.29300001 69398.78346711  4590.72974366
0.29400001 68400.17029423  3329.37844667
0.29500001 67416.90571148  2993.31075528
0.29600001 66446.16024552  2960.17657907
0.29700001 65489.83972499  2927.39597428
0.29800001 64547.08355293  4631.89893503
0.29900001 63617.89568191  4866.76925005
0.30000001 62700.83083802  3397.13117562
0.30100001 61797.80260205  3359.32870848
0.30200001 60906.59176609  2768.20472682
0.30300001 60028.80065265  3011.04478328
0.30400001 59163.28762672  2706.72053706
0.30500001 58310.35730306  3479.37918500
0.30600001 57468.49223199  3704.99386960
0.30700001 56639.62450279  4186.80124146
0.30800001 55822.23253175  2846.09666038
0.30900001 55016.88142699  2558.28510748
0.31000001 54223.20691061  4553.12289985
0.31100001 53440.43082675  4001.61964976
0.31200001 52669.97008338  3214.71177624
0.31300001 51909.91808964  2689.45298356
0.31400001 51162.51689393  2659.17194147
0.31500001 50424.66824783  2390.12938811
0.31600002 49699.11029041  3072.15064806
0.31700002 48983.60084538  2803.82144515
0.31800002 48278.81498812  3003.18382853
0.31900002 47585.36190388  2969.32672340
0.32000002 46902.55939240  3161.70167835
0.32100002 46229.89735412  2232.90414793
0.32200002 45568.66404065  3974.04337916
0.32300002 44916.07984851  3274.38237600
0.32400002 44275.26140911  2374.26100549
0.32500002 43644.12353510  2561.03729031
0.32600002 43023.36538599  2321.32578932
0.32700002 42412.82876916  2712.72465653
0.32800002 41813.19286217  2269.82928201
0.32900002 41221.63502871  2448.56523665
0.33000002 40641.45884360  2017.84852714
0.33100002 40070.03529299  2993.23177813
0.33200002 39510.03782084  2565.58442739
0.33300002 38958.95727199  2732.58139246
0.33400002 38418.12773275  2123.56211099
0.33500002 37886.67587075  2100.43740974
0.33600002 37364.46551401  3210.91549600
0.33700002 36851.90589498  2055.23088909
0.33800002 36349.64670270  2402.89350908
0.33900002 35856.11913932  2925.85946033
0.34000002 35372.02022318  2171.13470412
0.34100002 34897.60645476  1790.24729591
0.34200002 34433.15245460  1948.74435546
0.34300002 33977.30063865  2454.52031438
0.34400002 33531.27978278  2949.91447860
0.34500002 33094.20292198  2232.86597689
0.34600002 32666.91673530  2380.43833524
0.34700002 32247.45366522  1851.64887715
0.34800002 31838.16453990  2000.07359112
0.34900002 31437.39876825  1980.55621620
0.35000002 31046.04618800  2778.77649567
0.35100002 30664.26746858  1780.98073893
0.35200002 30289.70606622  2084.99201582
0.35300002 29925.47887008  2383.56450490
0.35400002 29569.45429182  2046.94557030
0.35500002 29222.47789699  1716.52843297
0.35600002 28883.79852942  1701.40023296
0.35700002 28553.75819958  1840.00426553
0.35800002 28232.75138782  1824.40048109
0.35900002 27920.75832417  1507.72102092
0.36000002 27617.02195006  2093.64653320
0.36100002 27321.10973604  2076.95086051
0.36200002 27035.07272938  1766.47173581
0.36300002 26756.01504670  1460.87849075
0.36400002 26485.83790342  1740.11963268
0.36500002 26223.22525144  1439.65513450
0.36600002 25969.60525844  1715.55220464
0.36700002 25723.51662755  1561.93200361
0.36800002 25486.32671176  1974.93555044
0.36900002 25256.86496116  1401.75607174
0.37000002 25034.71968445  1811.13688136
0.37100002 24820.51521630  1384.98481468
0.37200002 24614.80468937  1652.63806513
0.37300002 24416.30392834  1506.73018679
0.37400002 24225.45017024  1498.94980029
0.37500002 24042.35686652  2033.98348726
0.37600002 23867.01495954  1619.61571188
0.37700002 23698.79083932  1343.72150424
0.37800002 23537.94000496  1471.94514794
0.37900002 23385.11421585  1599.54188814
0.38000002 23238.70270665  1859.32869164
0.38100002 23098.80638219  1323.56166840
0.38200002 22967.10198234  1715.29809281
0.38300002 22841.69964748  2236.65933544
0.38400002 22723.48952914  1705.96605722
0.38500002 22611.38569754  1571.03915269
0.38600002 22507.02782814  1437.18633005
0.38700002 22408.28671317  1434.57858334
0.38800002 22316.12881836  2083.43388519
0.38900002 22230.34385297  1430.52269471
0.39000002 22151.56515368  1559.02722938
0.39100002 22078.04294042  1817.46458096
0.39200002 22011.32554079  1427.32447231
0.39300002 21950.04999254  1426.97281762
0.39400002 21895.79251520  1556.79092159
0.39500002 21846.17160568  1297.66265486
0.39600002 21802.46725066  1817.67178080
0.39700002 21763.76252858  1948.94502677
0.39800002 21731.76418463  1430.71076288
0.39900002 21704.02890270  1302.24179586
0.40000002 21682.02333491  2477.93015423
0.40100002 21664.69166911  1306.38096954
0.40200002 21652.98981579  1439.81562602
0.40300002 21645.93188386  1442.91788774
0.40400002 21643.63021247  1314.85059771
0.40500002 21645.68603604  1450.04457626
0.40600002 21653.21684215  1718.50763610
0.40700002 21664.66432984  1591.05302377
0.40800002 21680.20905115  1463.08897714
0.40900002 21699.72682591  1467.98658933
0.41000002 21724.14287133  1607.15216577
0.41100002 21752.15690697  1344.28336055
0.41200002 21783.20013229  1349.46931214
0.41300002 21819.36361708  1761.47730827
0.41400002 21858.36641566  1496.75171123
0.41500002 21900.89958905  1503.27781902
0.41600002 21945.85707248  1372.71342493
0.41700002 21995.63294973  1517.03887643
0.41800002 22048.78238157  1662.91924601
0.41900002 22103.06666826  1810.24124591
0.42000002 22160.94815191  1539.41033632
0.42100002 22222.34154030  1688.00914339
0.42200002 22286.04343748  1555.45447542
0.42300002 22351.80516826  2416.67728931
0.42400002 22420.00840473  1715.13072423
0.42500002 22490.98462516  1868.32618134
0.42600002 22562.99776874  1589.67608313
0.42700002 22638.13798727  1744.04223318
0.42800002 22714.58852799  2338.69414567
0.42900002 22793.75689583  1617.21712839
0.43000002 22874.19525774  2661.87022828
0.43100002 22954.95886070  1636.22954513
0.43200002 23038.38920056  2693.41820907
0.43300002 23122.44509386  1505.27124694
0.43400002 23208.27626830  1817.20811792
0.43500002 23294.57007866  2437.54392854
0.43600002 23382.58641965  1686.00147369
0.43700002 23470.82895988  1850.44024289
0.43800002 23559.42941243  1706.52735036
0.43900002 23649.73144473  2341.32352398
0.44000002 23739.81337159  2041.50534764
0.44100002 23830.65004632  1579.97217295
0.44200002 23921.67663245  1748.55503631
0.44300002 24013.11067873  1759.20057169
0.44400002 24104.35687558  1930.75907723
0.44500002 24195.27693234  1780.53051383
0.44600002 24285.95025557  1791.21034599
0.44700002 24377.47760877  1965.79988753
0.44800002 24467.50279507  1812.67503048
0.44900002 24557.84645507  2486.48207142
0.45000002 24648.09374279  1667.44362072
0.45100002 24736.65085719  2180.28850988
0.45200002 24825.08581237  1855.55112699
0.45300002 24912.31910152  2375.14061570
0.45400002 24999.00652388  2047.41873134
0.45500002 25084.95638596  2058.97331774
0.45600002 25169.37414350  2070.43281517
0.45700002 25253.08501468  1908.37572500
0.45800002 25335.13975786  2442.05423700
0.45900002 25415.95972775  2279.81169563
0.46000002 25495.82999022  2820.85876381
0.46100002 25573.52769486  1949.47010857
0.46200002 25650.27845624  2850.25907714
0.46300002 25725.35317625  1790.48466593
0.46400002 25798.23747178  2159.31257873
0.46500002 25870.51978415  2531.68918607
0.46600002 25939.89894728  2180.50800886
0.46700002 26007.52348565  2190.87388227
0.46800002 26073.91532814  2201.16003633
0.46900002 26137.56065843  1842.69811376
0.47000002 26199.34600423  1850.98388293
0.47100002 26259.30452342  2230.99061805
0.47200002 26317.17706214  2240.64456127
0.47300002 26372.75287178  2062.61309986
0.47400002 26425.45494747  1882.81375425
0.47500002 26476.36778711  2268.49529952
0.47600002 26525.63746747  2087.70039583
0.47700002 26571.36747275  2286.20056572
