# SAXS profile: number of points = 501, q_min = 0, q_max = 0.5, delta_q = 0.001
#    q    intensity    error
0.00000000 1646666.22097350 296.39991978
0.00100000 1646585.72496451 642.16844799
0.00200000 1646344.16479762 814.94038738
0.00300000 1645941.76748170 1086.32160524
0.00400000 1645378.41937310 1604.24401985
0.00500000 1644654.58529564 2812.35945217
0.00600000 1643770.19420763 2243.74640644
0.00700000 1642725.82452337 1971.27107135
0.00800000 1641521.23039470 2880.86988097
0.00900000 1640157.68815462 2460.23663740
0.01000000 1638634.57835119 3244.49660523
0.01100000 1636953.11994819 3535.81889304
0.01200000 1635113.27314523 3188.47102243
0.01300000 1633116.16225969 3429.54409200
0.01400000 1630961.82658297 3669.66427249
0.01500000 1628651.63384386 4299.64050481
0.01600000 1626184.94978150 4976.12616878
0.01700000 1623564.16252486 4383.62343546
0.01800000 1620789.03060615 5081.17383959
0.01900000 1617860.26730959 6309.65532722
0.02000000 1614779.07274372 5595.20974016
0.02100000 1611547.42330635 5318.10673803
0.02200000 1608163.87244155 6102.98217319
0.02300000 1604631.58360934 7509.67615312
0.02400000 1600950.08962083 7804.63204277
0.02500000 1597121.86937343 6228.77557503
0.02600000 1593147.05086456 7097.47043623
0.02700000 1589027.57455151 8676.09095443
0.02800000 1584763.36178676 7583.09303391
0.02900000 1580356.83566622 8533.92730443
0.03000000 1575809.47825238 8793.01729282
0.03100000 1571121.51764291 9803.79872120
0.03200000 1566294.28642272 11629.73561233
0.03300000 1561331.55226627 7962.79128365
0.03400000 1556231.73006590 11438.30374375
0.03500000 1550997.76948731 9212.92717619
0.03600000 1545630.89924169 11151.72745339
0.03700000 1540132.97772776 11412.38589276
0.03800000 1534505.35900403 11669.91379530
0.03900000 1528750.20263420 10089.75180464
0.04000000 1522867.46297830 12175.32593070
0.04100000 1516860.91449051 14334.33630657
0.04200000 1510731.28470941 14616.32585766
0.04300000 1504479.52661667 11915.47840390
0.04400000 1498109.22818107 13145.90908781
0.04500000 1491621.71613216 12350.62838344
0.04600000 1485016.86935259 14657.11718187
0.04700000 1478298.90202736 10643.75258962
0.04800000 1471468.29546892 11896.82172240
0.04900000 1464528.73083176 12082.36259177
0.05000000 1457479.79195297 13379.66511317
0.05100000 1450325.87180522 12443.79655977
0.05200000 1443065.51315679 14914.08277349
0.05300000 1435704.35573482 12792.12640594
0.05400000 1428242.75842797 11783.00330652
0.05500000 1420682.88259267 16707.23147867
0.05600000 1413025.82935776 13289.50854525
0.05700000 1405276.81378483 13448.49973568
0.05800000 1397434.61578801 14840.75631262
0.05900000 1389501.91924177 18758.27678588
0.06000000 1381482.34376615 16432.73324682
0.06100000 1373377.22925304 14049.64971182
0.06200000 1365188.77770951 18061.44837335
0.06300000 1356920.05462827 13026.43313349
0.06400000 1348569.89042930 13148.55704660
0.06500000 1340144.21232871 14594.17115494
0.06600000 1331644.23677412 13383.02520575
0.06700000 1323070.94650106 16194.38914305
0.06800000 1314428.05615628 16325.19722163
0.06900000 1305717.62318949 17823.04639099
0.07000000 1296940.87619880 17956.14727183
0.07100000 1288100.31895496 18084.92932519
0.07200000 1279199.00760136 25213.01362097
0.07300000 1270238.87848833 19739.51309662
0.07400000 1261222.63610910 18445.38191752
0.07500000 1252151.43252146 25694.14859969
0.07600000 1243027.09770745 15792.66001674
0.07700000 1233854.30604926 15879.70566343
0.07800000 1224633.21065714 14511.90422684
0.07900000 1215366.31448813 18959.71539530
0.08000000 1206057.35733200 17584.31709480
0.08100000 1196707.16588286 16191.44871407
0.08200000 1187317.70343092 20694.94854192
0.08300000 1177892.67849816 19293.88297930
0.08400000 1168432.68927607 20856.52448256
0.08500000 1158941.30352222 20930.48092420
0.08600000 1149419.32880200 16499.91523965
0.08700000 1139871.38046230 15046.30292864
0.08800000 1130296.42825962 21125.24123629
0.08900000 1120700.18554610 22694.17982325
0.09000000 1111081.64658908 15166.26518838
0.09100000 1101444.33723114 18239.91908148
0.09200000 1091790.25497034 19799.61720421
0.09300000 1082123.75426653 22886.91847824
0.09400000 1072441.84156912 16810.52665665
0.09500000 1062750.30435542 19894.68663264
0.09600000 1053050.28233476 24515.01172515
0.09700000 1043346.03088954 16870.90611263
0.09800000 1033637.21890349 21489.31879138
0.09900000 1023926.93258921 15358.90471105
0.10000000 1014215.68335834 19974.97882311
0.10100000 1004505.91570087 18442.72947966
0.10200000 994801.01341956 18443.61165632
0.10300000 985101.21646197 15367.57969971
0.10400000 975409.97747080 18435.24944149
0.10500000 965730.18592986 19961.64388235
0.10600001 956058.99495386 18413.69710924
0.10700001 946403.56222693 16864.91227251
0.10800001 936762.60160930 19910.89003425
0.10900001 927139.99485093 18357.37276205
0.11000001 917535.51021103 19860.05705332
0.11100001 907951.91701791 16778.95221633
0.11200001 898390.88798910 19796.04414878
0.11300001 888853.97533513 18239.28443260
0.11400001 879343.64604325 21236.15005184
0.11500001 869861.23871732 16649.14489302
0.11600001 860408.04573193 16610.17810505
0.11700001 850986.35794015 15062.45924491
0.11800001 841596.08243510 19529.23801270
0.11900001 832239.53786584 16478.34362590
0.12000001 822917.81328181 16429.55491608
0.12100001 813635.64965859 22334.29963526
0.12200001 804390.64828232 20777.41142398
0.12300001 795186.50066444 19227.61049196
0.12400001 786022.94212200 16211.72394512
0.12500001 776901.47915147 17620.12637742
0.12600001 767825.98534685 16089.79428115
0.12700001 758795.05398407 18939.52543999
0.12800001 749810.42224722 15959.71558970
0.12900001 740874.54087620 23115.28676481
0.13000001 731987.98384345 17260.27747259
0.13100001 723150.98458082 18613.90722053
0.13200001 714365.86602901 18527.07960883
0.13300001 705633.65527162 15601.56085356
0.13400001 696954.56335306 19758.66280259
0.13500001 688331.13276506 19658.73807864
0.13600001 679763.48475348 16762.96832441
0.13700001 671252.97623896 15284.43098967
0.13800001 662798.72764120 16583.22494758
0.13900001 654404.45280537 19239.49181978
0.14000001 646069.05943237 17763.66962684
0.14100001 637795.38029318 16302.05068915
0.14200001 629582.22756420 13504.53941820
0.14300001 621432.23489300 16107.52428818
0.14400001 613342.41252412 18676.27734232
0.14500001 605318.99515666 17233.43260505
0.14600001 597359.32983189 14488.95122858
0.14700001 589465.64059637 14394.75162246
0.14800001 581635.36154764 15599.46113267
0.14900001 573872.80475663 14203.35258785
0.15000001 566176.47756957 16671.06716863
0.15100001 558547.51207690 15281.86065150
0.15200001 550987.51568270 13909.68048977
0.15300001 543496.02595463 15065.71055040
0.15400001 536071.61672866 13710.03224483
0.15500001 528718.37619840 17320.81482168
0.15600001 521432.88153460 13507.71943365
0.15700001 514220.24479770 13405.72241458
0.15800001 507075.25980987 12093.74551727
0.15900001 500002.72093652 14400.07904266
0.16000001 492998.98416192 14287.11123540
0.16100001 486069.10626364 17717.21975964
0.16200001 479209.89200310 19918.36010138
0.16300001 472421.94104046 19756.68650698
0.16400001 465706.30360126 13831.47786994
0.16500001 459061.81474172 12573.70369940
0.16600001 452489.91594599 15868.82210144
0.16700001 445989.56289226 13486.72501863
0.16800001 439561.79043680 15600.04867918
0.16900001 433207.05563887 12151.45848444
0.17000001 426923.19890796 13140.69668289
0.17100001 420712.26798132 11939.81472912
0.17200001 414573.50151485 11834.00115958
0.17300001 408506.34421918 12794.41930515
0.17400001 402512.43135500 11622.54700426
0.17500001 396589.13435841 11516.94900569
0.17600001 390736.53289412 18673.29978893
0.17700001 384958.49183546 13361.90988270
0.17800001 379249.81472925 14256.00120901
0.17900001 373612.40292476 11096.28889098
0.18000001 368047.11010523 11990.97541362
0.18100001 362552.69201481 10887.45785549
0.18200001 357127.18554426 9803.14170627
0.18300001 351772.30546284 10679.80769836
0.18400001 346487.55016376 10576.53296839
0.18500001 341272.65177661 12377.95966470
0.18600001 336127.05582047 10371.20079731
0.18700001 331049.80143668 14003.40726236
0.18800001 326039.80712485 9243.22896870
0.18900001 321101.32146236 14642.22095049
0.19000001 316226.26926962 9965.87134691
0.19100001 311421.32362972 10762.72145318
0.19200001 306681.73987270 10654.12414660
0.19300001 302010.15938012 13182.74407986
0.19400001 297402.84809810 9568.93708973
0.19500001 292861.48037477 9471.14072288
0.19600001 288384.36372608 12782.63752622
0.19700001 283973.24090272 8434.00565338
0.19800001 279624.83223573 11685.52229137
0.19900001 275340.35716675 9086.23221592
0.20000001 271117.08752872 14713.52503556
0.20100001 266957.73970469 14559.87581163
0.20200001 262858.86628271 8804.45814227
0.20300001 258821.60955363 9503.92995201
0.20400001 254845.48882771 9403.79898222
0.20500001 250928.31470844 8529.05382008
0.20600001 247070.29877829 13041.60633746
0.20700001 243271.36754675 11385.10053935
0.20800001 239530.04991918 9011.12090392
0.20900001 235848.62309325 10400.92477008
0.21000001 232221.06412781 10289.71583792
0.21100001 228651.19141163 9452.44069981
0.21200001 225135.78399925 10789.63295824
0.21300001 221675.39574302 7827.35859373
0.21400001 218269.67731739 7039.19742627
0.21500001 214918.56522597 9052.37039529
0.21600001 211618.66835723 11021.10076911
0.21700001 208371.88816339 8176.51327811
0.21800001 205176.77938932 9436.08053026
0.21900001 202031.89605457 6667.05288503
0.22000001 198936.84080590 7254.23224299
0.22100001 195892.94303020 8480.20590475
0.22200001 192897.38481045 8388.14317511
0.22300001 189949.73949548 7658.77385861
0.22400001 187049.15986238 6312.90944387
0.22500001 184197.62704920 7493.15982269
0.22600001 181390.32464077 7411.60901530
0.22700001 178629.55404643 9163.69655593
0.22800001 175913.25694519 7855.40686037
0.22900001 173240.75474085 7769.84821757
0.23000001 170612.37213453 7094.06276884
0.23100001 168027.93309480 5847.37234824
0.23200001 165483.82933669 6362.02611973
0.23300001 162982.78577022 6292.76565620
0.23400001 160521.77256494 6224.23202558
0.23500001 158100.56951693 5596.76042560
0.23600001 155719.51432407 7196.57769486
0.23700001 153377.67887584 6570.70007382
0.23800001 151073.78304136 7040.79399166
0.23900001 148807.75750020 6428.49542807
0.24000001 146578.24158836 7418.32515768
0.24100001 144386.33731666 6289.46915101
0.24200001 142230.16456362 8294.86358971
0.24300001 140108.50611917 7179.16019314
0.24400001 138021.67729954 6593.98594490
0.24500001 135968.28693718 6522.39903291
0.24600001 133948.70894209 5955.35988128
0.24700001 131962.32596957 6381.69838578
0.24800001 130007.86877665 7283.69119278
0.24900001 128084.15549610 6724.41848166
0.25000001 126192.56117204 5701.38018348
0.25100001 124330.63344387 5169.66798317
0.25200001 122500.43617494 6043.55930461
0.25300001 120698.24848123 5978.18453011
0.25400001 118925.81171431 6823.36876993
0.25500001 117180.08178435 7649.51610080
0.25600001 115463.53907083 5786.45553431
0.25700001 113773.30215880 4843.32970205
0.25800001 112110.11393944 5226.57375915
0.25900001 110473.94329703 4308.48399244
0.26000001 108862.82556957 4688.17780498
0.26100001 107276.39340069 5059.15495216
0.26200001 105716.27921919 5004.60889504
0.26300001 104178.80965283 4950.57726895
0.26400001 102666.42700844 4080.99066669
0.26500001 101177.09482905 5651.75278459
0.26600001 99710.52831119  4792.08821740
0.26700001 98266.66255136  4740.38402579
0.26800001 96845.26954850  4689.24817344
0.26900001 95444.74282625  3865.51226739
0.27000001 94066.15261394  4206.16821318
0.27100001 92708.14138777  4160.74158238
0.27200001 91371.28881477  4115.81989944
0.27300001 90054.21073760  5551.84235471
0.27400001 88755.64408883  4759.52163951
0.27500001 87478.40939208  3621.60632023
0.27600001 86217.94125443  4657.06231726
0.27700001 84978.08797280  4606.66236702
0.27800001 83755.39540509  3505.16346359
0.27900001 82551.19345817  4507.29537614
0.28000001 81364.10392592  4458.34628563
0.28100001 80194.65507478  3731.45747724
0.28200001 79042.50855809  3355.35464710
0.28300001 77906.91310014  3982.60158618
0.28400001 76787.18387751  4267.44794597
0.28500001 75684.16964429  4220.90634084
0.28600001 74596.68474472  3853.66491631
0.28700001 73525.60090484  3811.56733132
0.28800001 72468.20595072  3769.79625199
0.28900001 71427.53729195  3107.09801927
0.29000001 70400.98989954  3994.90436094
0.29100001 69389.60155154  3951.04409937
0.29200001 68392.10792082  3606.99994248
0.29300001 67408.95929412  3270.00877015
0.29400001 66439.07087139  3527.91483027
0.29500001 65484.22335672  4070.49951654
0.29600001 64541.53337129  4600.52071648
0.29700001 63612.71510626  4265.23274978
0.29800001 62697.29052510  2811.97361317
0.29900001 61794.89601357  4171.15567838
0.30000001 60904.48477420  3024.82137950
0.30100001 60027.58854254  2719.24988971
0.30200001 59162.17179994  4571.16542052
0.30300001 58309.74110447  2924.81675226
0.30400001 57469.31391094  3417.98760667
0.30500001 56641.14451027  3639.76011854
0.30600001 55823.69673845  3341.88576346
0.30700001 55018.85314304  2541.87113555
0.30800001 54225.13609046  2764.66869446
0.30900001 53443.05582464  2485.10221350
0.31000001 52672.30242082  3440.02823397
0.31100001 51912.22692275  2915.39080201
0.31200001 51164.10405035  2642.37027879
0.31300001 50426.12616664  2612.57772039
0.31400001 49700.34234579  2348.34128702
0.31500001 48983.96707414  3482.76022387
0.31600002 48279.39440887  3443.52796926
0.31700002 47584.60054181  2723.74266398
0.31800002 46900.21791156  2693.01063999
0.31900002 46226.82807702  2662.66542331
0.32000002 45563.73726813  2632.67286401
0.32100002 44910.58460887  2603.01760718
0.32200002 44268.49371154  2573.77034626
0.32300002 43634.73671362  3605.10211798
0.32400002 43012.39819001  2935.59631547
0.32500002 42399.62425766  2488.01006925
0.32600002 41796.89145861  2460.16514775
0.32700002 41204.04588575  2635.41089965
0.32800002 40621.81442284  2405.62396403
0.32900002 40047.40995549  2180.58157533
0.33000002 39484.14692358  2156.42678635
0.33100002 38929.33524128  2326.41718418
0.33200002 38385.54678417  2109.09396793
0.33300002 37850.53016503  2085.94281617
0.33400002 37325.61758081  1875.61237226
0.33500002 36809.70690776  2782.81397401
0.33600002 36302.71473485  2018.61254843
0.33700002 35805.17174401  2722.98344008
0.33800002 35317.76054666  3053.04395504
0.33900002 34838.69098217  1776.77332423
0.34000002 34368.91692928  2109.56422102
0.34100002 33908.43752294  2435.30409823
0.34200002 33457.86322284  2065.68857321
0.34300002 33015.59525300  2044.32575488
0.34400002 32582.98935870  2360.63769084
0.34500002 32158.93289909  2169.76330546
0.34600002 31744.51420966  2147.99265573
0.34700002 31337.81172728  1799.41723460
0.34800002 30940.94281081  1943.71011943
0.34900002 30552.38289942  1764.40019601
0.35000002 30173.00411719  2224.05223881
0.35100002 29803.08840456  2203.04439921
0.35200002 29440.18826702  2338.28706386
0.35300002 29087.37724935  2780.17164917
0.35400002 28742.59130814  2601.92320141
0.35500002 28406.72725297  1971.99509930
0.35600002 28078.75499307  1954.70262143
0.35700002 27759.45101299  1639.75084900
0.35800002 27448.82665207  1921.55520079
0.35900002 27147.07424488  1465.94207866
0.36000002 26853.41466742  1454.11247312
0.36100002 26567.41796709  1586.87195034
0.36200002 26291.09222088  1861.01505100
0.36300002 26021.62945417  2131.17155324
0.36400002 25760.90617072  1833.53258355
0.36500002 25507.40233610  1680.42774550
0.36600002 25262.92328401  1529.79639193
0.36700002 25025.69978039  1519.56056264
0.36800002 24797.30138487  1647.03683600
0.36900002 24576.48811058  1500.39467022
0.37000002 24362.85790651  1491.37241739
0.37100002 24156.89139160  1617.54552420
0.37200002 23959.29160422  1340.52242876
0.37300002 23768.84346217  1466.77539953
0.37400002 23585.90960411  1459.37822589
0.37500002 23410.58635705  1320.35713308
0.37600002 23242.82081926  1445.81973755
0.37700002 23082.06036623  2355.75519257
0.37800002 22928.62721700  2085.58803046
0.37900002 22783.04522157  2077.81382264
0.38000002 22643.75235088  1811.72671142
0.38100002 22510.81318142  1418.85662204
0.38200002 22386.08027011  1414.68840969
0.38300002 22267.34396978  1667.37879545
0.38400002 22155.76726213  1791.29386800
0.38500002 22050.24255718  2042.73456727
0.38600002 21952.30242347  1274.33121605
0.38700002 21859.87658023  1399.46936497
0.38800002 21774.03462951  1524.61797699
0.38900002 21694.39372583  1649.85872101
0.39000002 21621.57290904  2409.40009127
0.39100002 21554.11013094  1394.11990932
0.39200002 21493.10984772  2027.23021688
0.39300002 21437.65709759  1647.05527284
0.39400002 21389.04822566  1647.49151764
0.39500002 21345.06971315  2028.63552165
0.39600002 21306.86655467  1522.58875613
0.39700002 21273.55784397  1778.04404884
0.39800002 21246.90357506  1653.11541098
0.39900002 21224.42965858  1655.50559180
0.40000002 21207.61933004  1658.32987208
0.40100002 21195.46719071  1789.32142502
0.40200002 21188.87122359  1537.04079138
0.40300002 21186.78761262  2696.23071933
0.40400002 21189.37265754  1415.97989493
0.40500002 21196.26243988  1549.02293250
0.40600002 21208.64097743  1812.70263023
0.40700002 21224.76796461  1688.64261927
0.40800002 21245.07868896  1694.40133112
0.40900002 21269.18088343  1569.66562357
0.41000002 21298.17180387  1838.24529549
0.41100002 21330.64780125  1581.88091589
0.41200002 21366.19345451  2250.18077028
0.41300002 21406.76705920  1462.29632710
0.41400002 21450.19241129  1869.38435722
0.41500002 21497.01928705  1609.69688049
0.41600002 21546.37190016  1347.72562622
0.41700002 21600.32816299  1489.77470399
0.41800002 21657.68499213  2041.77834938
0.41900002 21716.17211848  1504.93079912
0.42000002 21778.20680546  1787.88197241
0.42100002 21843.57911599  1520.96848592
0.42200002 21911.40630366  2363.47395294
0.42300002 21981.17229086  1537.80288634
0.42400002 22053.43327045  1687.08772513
0.42500002 22128.34084012  1696.80125602
0.42600002 22204.24724971  1991.05494523
0.42700002 22283.37413915  1716.71122503
0.42800002 22363.69167530  1439.10362750
0.42900002 22446.65963507  1882.15249959
0.43000002 22530.97279606  1602.29020632
0.43100002 22615.49893994  2344.77504121
0.43200002 22702.76902205  2064.36288500
0.43300002 22790.58887319  1928.76762774
0.43400002 22880.15983598  2090.10270006
0.43500002 22970.16746190  1802.69882784
0.43600002 23061.94145307  1814.05240066
0.43700002 23153.88267723  2586.05727877
0.43800002 23246.09810858  1989.98232289
0.43900002 23340.07142331  1848.53374433
0.44000002 23433.82136008  2325.22103465
0.44100002 23528.35774118  1715.92321138
0.44200002 23623.03580258  2197.65112486
0.44300002 23718.09471808  1737.58770139
0.44400002 23812.99335174  1907.42085787
0.44500002 23907.45124470  2559.05370251
0.44600002 24001.79509684  2574.91270002
0.44700002 24096.82662289  1781.23750838
0.44800002 24190.51024095  1792.15403613
0.44900002 24284.39082696  1967.03575020
0.45000002 24378.19041706  2803.61392178
0.45100002 24470.26951633  1824.99278702
0.45200002 24562.24627452  1835.90518480
0.45300002 24653.08898582  2014.65052740
0.45400002 24743.29729969  1857.60313281
0.45500002 24832.78363473  2547.84372167
0.45600002 24920.76262235  1879.15019460
0.45700002 25008.03267661  1718.05192631
0.45800002 25093.61509588  2073.23457748
0.45900002 25177.97298688  1911.00824028
0.46000002 25261.43382715  1921.51105513
0.46100002 25342.65145702  2283.11957797
0.46200002 25422.99933855  1942.19012652
0.46300002 25501.54681839  2484.87083975
0.46400002 25577.94355049  2497.68630608
0.46500002 25653.80394806  2689.80147144
0.46600002 25726.71510696  1982.37212652
0.46700002 25797.88878247  2173.21425404
0.46800002 25867.78563299  2365.73844719
0.46900002 25934.95725157  2376.93894476
0.47000002 26000.35001240  2204.30977853
0.47100002 26063.85328443  2029.85299000
0.47200002 26125.26475996  1853.58762257
0.47300002 26184.31994283  1861.70523618
0.47400002 26240.60860227  2430.53648699
0.47500002 26295.11096621  2065.21811317
0.47600002 26347.96741624  2262.23658958
0.47700002 26397.17178157  2460.48049838
