# SAXS profile: number of points = 501, q_min = 0, q_max = 0.5, delta_q = 0.001
#    q    intensity    error
0.00000000 1646666.22097351 345.79990640
0.00100000 1646585.72149574 543.37330100
0.00200000 1646344.15446670 963.11136086
0.00300000 1645941.74187531 1086.32158834
0.00400000 1645378.36773569 1357.43720496
0.00500000 1644654.51846410 1628.20803773
0.00600000 1643770.08820098 2243.74626174
0.00700000 1642725.67090005 3154.03341921
0.00800000 1641521.03589050 2437.65884122
0.00900000 1640157.45368993 2952.28354285
0.01000000 1638634.27193058 3244.49599852
0.01100000 1636952.77164690 3830.46965243
0.01200000 1635112.82812069 3507.31717009
0.01300000 1633115.63879138 3772.49729199
0.01400000 1630961.23050719 4403.59551759
0.01500000 1628650.96109755 4299.63872876
0.01600000 1626184.23150061 4561.44697327
0.01700000 1623563.28259457 5260.34527158
0.01800000 1620788.04827247 7390.79383269
0.01900000 1617859.19072761 5338.93557031
0.02000000 1614777.90966948 6612.51583922
0.02100000 1611546.15161047 5318.10254143
0.02200000 1608162.42535359 5548.16061954
0.02300000 1604630.08409373 7509.66913539
0.02400000 1600948.40295173 7804.62382026
0.02500000 1597120.08900147 7474.52235789
0.02600000 1593145.07697058 7742.68542821
0.02700000 1589025.48239622 8676.07953126
0.02800000 1584761.12670206 8272.45346076
0.02900000 1580354.46532993 7822.75496256
0.03000000 1575806.83399687 8060.25232639
0.03100000 1571118.74908047 12820.32958240
0.03200000 1566291.33792719 11629.71371975
0.03300000 1561328.48389998 10351.60832547
0.03400000 1556228.50422771 8987.22002659
0.03500000 1550994.38275728 10050.44406438
0.03600000 1545627.25267989 8578.23164881
0.03700000 1540129.12221680 11412.35732342
0.03800000 1534501.35362051 9874.51666754
0.03900000 1528746.02902585 9172.47659893
0.04000000 1522863.07402863 13111.85167498
0.04100000 1516856.25552802 12423.05330879
0.04200000 1510726.39556936 14616.27855522
0.04300000 1504474.47656897 14894.29800940
0.04400000 1498104.00085767 14157.08346559
0.04500000 1491616.25988390 10292.15267142
0.04600000 1485011.15830080 10469.32915271
0.04700000 1478293.03784545 14901.19451451
0.04800000 1471462.24738547 11896.77282365
0.04900000 1464522.30309809 12082.30956296
0.05000000 1457473.15600893 16724.50524400
0.05100000 1450319.03420724 12443.73789318
0.05200000 1443058.42028834 12619.54647351
0.05300000 1435697.09333296 11629.14699812
0.05400000 1428235.21514586 12961.23518188
0.05500000 1420675.08410244 14320.40551579
0.05600000 1413017.92197109 15705.69493560
0.05700000 1405268.55959544 15893.58815091
0.05800000 1397426.16100511 19787.55536376
0.05900000 1389493.12346275 13755.98256477
0.06000000 1381473.41464464 13904.53056800
0.06100000 1373367.99071393 12772.32291051
0.06200000 1365179.32210465 18061.32327569
0.06300000 1356910.34185037 15631.60786898
0.06400000 1348559.92921553 15778.15190971
0.06500000 1340134.09157331 21227.72500351
0.06600000 1331633.78248707 17397.79618221
0.06700000 1323060.27523125 21592.34470227
0.06800000 1314417.02136085 17685.48185025
0.06900000 1305706.67926199 16451.90492896
0.07000000 1296929.42310540 15193.52890317
0.07100000 1288088.70598582 18084.76627909
0.07200000 1279187.03323564 16808.51840414
0.07300000 1270226.79992618 16919.42176779
0.07400000 1261210.30538441 17026.33992061
0.07500000 1252138.93605360 22839.01526414
0.07600000 1243014.27652760 18663.86023703
0.07700000 1233841.26816505 15879.53786585
0.07800000 1224619.96660974 15962.92201336
0.07900000 1215352.86781266 16042.65860759
0.08000000 1206043.60281381 19049.45960007
0.08100000 1196693.32778920 20607.06007138
0.08200000 1187303.55640369 19216.50896213
0.08300000 1177878.17577283 22261.89856690
0.08400000 1168418.16928749 20856.26530075
0.08500000 1158926.51572447 16445.16803015
0.08600000 1149404.32390131 17999.67255741
0.08700000 1139856.19769377 15046.10251609
0.08800000 1130280.96774814 15089.25162809
0.08900000 1120684.46103396 18155.08912149
0.09000000 1111065.82580710 15166.04923470
0.09100000 1101428.41873053 16719.68418184
0.09200000 1091773.92041631 16753.27159597
0.09300000 1082107.44951650 19835.03048173
0.09400000 1072425.36298178 16810.26835478
0.09500000 1062733.63012370 22955.04748962
0.09600000 1053033.39187513 22982.45485803
0.09700000 1043328.95255875 16870.62995601
0.09800000 1033620.02119244 21488.96125095
0.09900000 1023909.52461246 15358.64359139
0.10000000 1014198.25493271 16901.61471329
0.10100000 1004488.37863219 15368.67291589
0.10200000 994783.16151127 19980.22073875
0.10300000 985083.17175965 21514.21748328
0.10400000 975391.87287181 19971.14953659
0.10500000 965712.13759129 23032.23556520
0.10600001 956040.73050218 23016.68166986
0.10700001 946385.12991564 19930.87177392
0.10800001 936744.04528734 19910.49561960
0.10900001 927121.34514644 16827.25320639
0.11000001 917516.75069012 15276.65461806
0.11100001 907933.01001147 16778.60281484
0.11200001 898371.99026706 18272.88714227
0.11300001 888835.10500433 16718.98911227
0.11400001 879324.63460439 16685.18572723
0.11500001 869842.23180418 15135.25554608
0.11600001 860388.99600220 18119.79310909
0.11700001 850967.25529066 15062.12112799
0.11800001 841576.77709970 21031.00465025
0.11900001 832220.19492660 14979.96421426
0.12000001 822898.59051374 19416.29315777
0.12100001 813616.34064788 17867.01568231
0.12200001 804371.37987012 16324.71792354
0.12300001 795167.20362679 14790.11068429
0.12400001 786003.64066377 22106.35343526
0.12500001 776882.07309181 16151.37906064
0.12600001 767806.55298542 19014.73018072
0.12700001 758775.57287630 20395.88836010
0.12800001 749791.17172030 24664.38175615
0.12900001 740855.25411413 14446.67813613
0.13000001 731968.68978473 14383.18543222
0.13100001 723131.88768750 18613.41566647
0.13200001 714346.69243935 18526.58234176
0.13300001 705614.66694345 17019.42656902
0.13400001 696935.56845522 16935.53511190
0.13500001 688312.22376661 14041.57002687
0.13600001 679744.59213082 19556.25283770
0.13700001 671234.01413522 15283.99922255
0.13800001 662779.89133449 16582.75366316
0.13900001 654385.79224438 17864.73297074
0.14000001 646050.57650220 19129.55847239
0.14100001 637776.90927045 20376.97321223
0.14200001 629564.04719658 17555.39428408
0.14300001 621414.03252424 13422.54373563
0.14400001 613324.55029574 16007.77151780
0.14500001 605300.98888933 14581.70151019
0.14600001 597341.47289562 14488.51810857
0.14700001 589448.09537556 14394.32316815
0.14800001 581617.91387825 14299.07708731
0.14900001 573855.43934886 12911.74799454
0.15000001 566159.30503515 14105.85975051
0.15100001 558530.42635844 12734.49432185
0.15200001 550970.94340341 17702.69724689
0.15300001 543479.39043609 20086.99921840
0.15400001 536055.38458511 21187.59007559
0.15500001 528702.18127588 14845.95795085
0.15600001 521416.89770830 18419.05278083
0.15700001 514204.43482990 12186.64568064
0.15800001 507059.58337923 13302.70879782
0.15900001 499987.41905557 14399.63834847
0.16000001 492983.94300331 14286.67534260
0.16100001 486054.22337399 12992.23000408
0.16200001 479195.20803977 14059.58806758
0.16300001 472407.51243059 13945.47042529
0.16400001 465692.18237045 16136.23488092
0.16500001 459048.05843317 18288.47551140
0.16600001 452476.31286081 13601.43860676
0.16700001 445976.37591138 12362.46572395
0.16800001 439548.73266296 16713.84134868
0.16900001 433194.17980107 13255.74252782
0.17000001 426910.61722525 12045.28363378
0.17100001 420699.96998356 14110.27765955
0.17200001 414561.45311528 16136.80532454
0.17300001 408494.71361089 11727.88378161
0.17400001 402501.13037553 16905.04827413
0.17500001 396578.20522237 11516.63162356
0.17600001 390725.80022990 14523.27868047
0.17700001 384947.98165658 12333.73391481
0.17800001 379239.72846094 11200.84590913
0.17900001 373602.52853386 15130.90312031
0.18000001 368037.50744825 13989.10631888
0.18100001 362543.59832754 10887.18477205
0.18200001 357118.30484412 15684.63668966
0.18300001 351763.68666491 11650.41385270
0.18400001 346479.43072321 10576.28512246
0.18500001 341264.73679262 11425.54392758
0.18600001 336119.63721146 12256.60314996
0.18700001 331042.65350924 12136.02425101
0.18800001 326032.99817827 10167.33952856
0.18900001 321094.76920281 10066.32149012
0.19000001 316220.12790526 10871.64851105
0.19100001 311415.58852033 8968.76937316
0.19200001 306676.19592132 8878.27629143
0.19300001 302004.92198062 10546.01237389
0.19400001 297398.09491284 12178.45256216
0.19500001 292857.24144876 9471.00363601
0.19600001 288380.29123098 8521.63800858
0.19700001 283969.58958889 9277.28693029
0.19800001 279621.51769760 12520.05404659
0.19900001 275337.41591953 9086.13515475
0.20000001 271114.35163191 9808.91770562
0.20100001 266955.51960195 11324.25367673
0.20200001 262856.97836315 11205.59351724
0.20300001 258820.03131881 9503.87199922
0.20400001 254844.25922653 13321.98428074
0.20500001 250927.44242048 9304.39000474
0.20600001 247069.65250140 9972.96699462
0.20700001 243271.24153623 13662.11357047
0.20800001 239530.22854665 10512.98222786
0.20900001 235849.10487948 7429.24715489
0.21000001 232221.87348614 8819.78717194
0.21100001 228652.41067186 10906.72050465
0.21200001 225137.17873099 7912.44652056
0.21300001 221677.23612402 7827.42357758
0.21400001 218271.83283269 7743.19363581
0.21500001 214921.13212735 8356.13401217
0.21600001 211621.54462117 7577.10976340
0.21700001 208375.17442039 6813.86852570
0.21800001 205180.29763526 6740.17309600
0.21900001 202035.89165927 6667.18473999
0.22000001 198941.17624602 7254.39033482
0.22100001 195897.46792530 6523.38599036
0.22200001 192902.23590210 7097.83810564
0.22300001 189954.83689469 9573.72423219
0.22400001 187054.52049227 7575.70843816
0.22500001 184203.34009100 7493.39222924
0.22600001 181396.40641120 8029.51230949
0.22700001 178635.87978558 6720.28211533
0.22800001 175919.94479137 6647.13542829
0.22900001 173247.66681689 5977.04478784
0.23000001 170619.53132113 5911.96703986
0.23100001 168035.38906961 8186.68454264
0.23200001 165491.67060077 6362.32757714
0.23300001 162990.80742549 8581.46641681
0.23400001 160530.01210685 7356.28815271
0.23500001 158109.15656903 7276.18372944
0.23600001 155728.27208474 6089.75436790
0.23700001 153386.86550203 6571.09362891
0.23800001 151083.10378732 7582.86133775
0.23900001 148817.30520821 6964.65021317
0.24000001 146588.05696113 6358.99021176
0.24100001 144396.27965956 5241.58519958
0.24200001 142240.29599388 6740.05674449
0.24300001 140118.89938112 7179.69274391
0.24400001 138032.37855030 5579.95916685
0.24500001 135979.13039883 5519.39316398
0.24600001 133959.78615592 4963.21031186
0.24700001 131973.54528359 5400.35772847
0.24800001 130019.32822135 7284.33320820
0.24900001 128095.74345752 5283.94966759
0.25000001 126204.38616096 6177.07397287
0.25100001 124342.54214585 5170.16314702
0.25200001 122512.48540222 6509.08865736
0.25300001 120710.46371672 5058.97577371
0.25400001 118938.16047405 5004.32333871
0.25500001 117192.60377258 5400.23543734
0.25600001 115476.18698988 4451.60721908
0.25700001 113786.06353086 4403.52086699
0.25800001 112123.02900312 4791.57787116
0.25900001 110486.84755790 4739.88598450
0.26000001 108875.88406353 4688.74016905
0.26100001 107289.48900115 4216.47711725
0.26200001 105729.54508922 4588.13382624
0.26300001 104192.16931336 5776.41414006
0.26400001 102679.82680767 5714.13263223
0.26500001 101190.58589138 5652.50639536
0.26600001 99724.01309778  6789.70975305
0.26700001 98280.24663023  5136.12593194
0.26800001 96858.91030058  6253.21154491
0.26900001 95458.43960038  4639.28038412
0.27000001 94079.87037296  4971.65098513
0.27100001 92721.86301228  4539.66262791
0.27200001 91385.02573751  3742.21698105
0.27300001 90068.00064448  4442.15400201
0.27400001 88769.35270980  4760.25676434
0.27500001 87492.19934467  3622.17722429
0.27600001 86231.65191047  5732.68049031
0.27700001 84991.72488443  4252.98611450
0.27800001 83768.98610449  4557.45190471
0.27900001 82564.85914693  3814.49667312
0.28000001 81377.66503264  3773.07561781
0.28100001 80208.14356508  3732.08509672
0.28200001 79055.93463636  3691.51704256
0.28300001 77920.30955925  3319.40534433
0.28400001 76800.49080893  3283.22113748
0.28500001 75697.41716022  4546.38708983
0.28600001 74609.86511171  3211.95484509
0.28700001 73538.67193349  3812.24493348
0.28800001 72481.11216051  3456.26199697
0.28900001 71440.36228514  4350.71826910
0.29000001 70413.66407572  3073.55658239
0.29100001 69402.19976051  3039.81649340
0.29200001 68404.53868719  3307.01757937
0.29300001 67421.31414446  4459.92014177
0.29400001 66451.27037031  3234.51573839
0.29500001 65496.29450839  2908.03561383
0.29600001 64553.37394789  3738.60882917
0.29700001 63624.50499797  3128.41705884
0.29800001 62708.81006550  4499.98442332
0.29900001 61806.30877757  2781.28402665
0.30000001 60915.62156152  3575.44257681
0.30100001 60038.57032183  3535.67157363
0.30200001 59172.93201220  3227.29186473
0.30300001 58320.41034049  3723.17517240
0.30400001 57479.68044129  2892.66505515
0.30500001 56651.31583192  2600.29551979
0.30600001 55833.62551687  2571.13857678
0.30700001 55028.59501209  2796.55333091
0.30800001 54234.60038558  3267.90600095
0.30900001 53452.40249491  2485.53683369
0.31000001 52681.32343367  3194.85901089
0.31100001 51921.02660696  4130.83707243
0.31200001 51172.72515176  3603.83933944
0.31300001 50434.42370286  2850.55376265
0.31400001 49708.45864510  3053.34221684
0.31500001 48991.78194165  3715.53691837
0.31600002 48286.98093610  2525.65065745
0.31700002 47591.84729237  2497.14434567
0.31800002 46907.24462249  2693.41411375
0.31900002 46233.56618386  2441.13241009
0.32000002 45570.26864174  2852.47110069
0.32100002 44916.78382498  2603.37691377
0.32200002 44274.43752189  2574.11591941
0.32300002 43640.36363210  2120.92177295
0.32400002 43017.67566177  2306.82296659
0.32500002 42404.66561146  2073.58824659
0.32600002 41801.69386812  2050.37318132
0.32700002 41208.48873704  2230.20351605
0.32800002 40625.98180872  2205.38152692
0.32900002 40051.22293098  2973.80344345
0.33000002 39487.64324565  2352.67389598
0.33100002 38932.57171477  3102.14746113
0.33200002 38388.51880200  2301.00792596
0.33300002 37853.14489786  2086.08691411
0.33400002 37327.90279840  2063.29992489
0.33500002 36811.65844662  2040.83844093
0.33600002 36304.34647044  2018.70328109
0.33700002 35806.53830456  1815.39157801
0.33800002 35318.76866134  2514.34326007
0.33900002 34839.39232699  1954.49000210
0.34000002 34369.33669243  2285.38915159
0.34100002 33908.48705664  1739.50546839
0.34200002 33457.59721788  3270.64757093
0.34300002 33015.01650247  2385.00490509
0.34400002 32582.11784532  2697.79948536
0.34500002 32157.73367910  2002.78374839
0.34600002 31742.98390166  1817.44462936
0.34700002 31335.96363301  2126.45859285
0.34800002 30938.69161920  1781.60464127
0.34900002 30549.93251904  2245.42014650
0.35000002 30170.27675313  1747.31166091
0.35100002 29799.97079662  2202.81394562
0.35200002 29436.76569064  2805.61827086
0.35300002 29083.61541600  2007.64206725
0.35400002 28738.55211458  2295.49195887
0.35500002 28402.35343793  1971.69146905
0.35600002 28074.12272782  1653.70627761
0.35700002 27754.46679141  1788.49792475
0.35800002 27443.57182768  2068.97097809
0.35900002 27141.52491532  1612.20665633
0.36000002 26847.51830963  1599.17250386
0.36100002 26561.25798133  1586.50401437
0.36200002 26284.65113178  1860.55911849
0.36300002 26014.88564039  1846.53667022
0.36400002 25753.84220503  2538.04126953
0.36500002 25500.12581791  1399.95697372
0.36600002 25255.30022052  2502.54781739
0.36700002 25017.83204049  1657.18127286
0.36800002 24789.12270670  1783.70140885
0.36900002 24568.02614281  1908.93572172
0.37000002 24354.13361356  2168.49215967
0.37100002 24147.97597747  1616.94854805
0.37200002 23950.15868837  1608.01373051
0.37300002 23759.44822302  1332.90510845
0.37400002 23576.18358982  2254.47266257
0.37500002 23400.65261569  1319.79687004
0.37600002 23232.66209060  1576.56852415
0.37700002 23071.61880941  1569.79301816
0.37800002 22917.98280933  1693.75359976
0.37900002 22772.18399022  1427.81600383
0.38000002 22632.66534007  1681.49395110
0.38100002 22499.57832482  1547.07107890
0.38200002 22374.58066869  1542.50366437
0.38300002 22255.60507226  1666.49978676
0.38400002 22143.84208653  1406.68763519
0.38500002 22038.13431377  1531.20964466
0.38600002 21940.06087530  1783.06883181
0.38700002 21847.41310966  1780.12730451
0.38800002 21761.35671161  1650.70779156
0.38900002 21681.52230154  1775.71676062
0.39000002 21608.65452158  1394.08241251
0.39100002 21540.92785077  1646.58860292
0.39200002 21479.77850438  1519.47960339
0.39300002 21424.18052989  1646.01986810
0.39400002 21375.46177284  1393.14578705
0.39500002 21331.32130914  1773.91276411
0.39600002 21293.00254960  2155.59721524
0.39700002 21259.56789671  1396.11588992
0.39800002 21232.78385021  1652.01682574
0.39900002 21210.23098984  1399.87531165
0.40000002 21193.33921250  1402.25735543
0.40100002 21181.08103807  1404.94117182
0.40200002 21174.38808004  1791.98854812
0.40300002 21172.18351410  1539.64125809
0.40400002 21174.70201988  1543.63585039
0.40500002 21181.51435591  1418.94971393
0.40600002 21193.84094218  1293.88405083
0.40700002 21209.91648856  1557.65634072
0.40800002 21230.20272820  1693.21489881
0.40900002 21254.20548235  1960.70054865
0.41000002 21283.15287318  1574.52772416
0.41100002 21315.61652307  1317.30516354
0.41200002 21351.11241662  1851.78206764
0.41300002 21391.70088561  1594.10962553
0.41400002 21435.08782963  1467.76770868
0.41500002 21481.96952111  1608.56995396
0.41600002 21531.23938853  1346.77908757
0.41700002 21585.26201772  1624.07519117
0.41800002 21642.57227556  1632.28287837
0.41900002 21701.15284063  1640.60723249
0.42000002 21763.22297957  1924.08663480
0.42100002 21828.60571798  2072.62621113
0.42200002 21896.47722408  1806.13100941
0.42300002 21966.29461396  1536.76204401
0.42400002 22038.55112872  1826.44501134
0.42500002 22113.52460797  1836.97057623
0.42600002 22189.50515276  1705.48544686
0.42700002 22268.72324663  1572.61731020
0.42800002 22349.14816033  2013.43485317
0.42900002 22432.17632572  1736.25052989
0.43000002 22516.53077646  1601.26316205
0.43100002 22601.19408619  2050.38042466
0.43200002 22688.58322739  2063.07297063
0.43300002 22776.44003728  2075.84484337
0.43400002 22866.18610484  1790.42245685
0.43500002 22956.25279551  1651.47290437
0.43600002 23048.15362453  1812.96785002
0.43700002 23140.26980656  1672.34737817
0.43800002 23232.61438805  2141.81482193
0.43900002 23326.79002867  1693.52503634
0.44000002 23420.64324240  1859.13074869
0.44100002 23515.30879134  1714.97155142
0.44200002 23610.12869851  2667.11831482
0.44300002 23705.37394618  1736.65577760
0.44400002 23800.43240721  2383.01840771
0.44500002 23895.08601673  1758.43946331
0.44600002 23989.55408703  1769.34964554
0.44700002 24084.83385751  1942.20109431
0.44800002 24178.68658241  2605.49538960
0.44900002 24272.73382056  1966.09153264
0.45000002 24366.71411510  1978.08994561
0.45100002 24459.01803378  2321.65010179
0.45200002 24551.19951253  2335.55572031
0.45300002 24642.23438887  1845.94986555
0.45400002 24732.67370578  2194.40657854
0.45500002 24822.39227042  2037.42205412
0.45600002 24910.54929771  1707.61823529
0.45700002 24998.02740282  2576.04684595
0.45800002 25083.85269344  2245.13034173
0.45900002 25168.44482499  1910.28505275
0.46000002 25252.13832411  1920.80399266
0.46100002 25333.56091662  2808.98536757
0.46200002 25414.14590936  1765.01251706
0.46300002 25492.96183822  1774.31022803
0.46400002 25569.59582878  2496.87115102
0.46500002 25645.69602492  1971.89766081
0.46600002 25718.86831725  3062.73157872
0.46700002 25790.27759410  1810.47757291
0.46800002 25860.45500110  2365.06802422
0.46900002 25927.92064389  2376.29403964
0.47000002 25993.53512934  2571.02068150
0.47100002 26057.22452555  2213.82190062
0.47200002 26118.95272852  2223.76774071
0.47300002 26178.28916842  2978.04231695
0.47400002 26234.79548075  2803.84389990
0.47500002 26289.56223907  3754.14966568
0.47600002 26342.69898082  2450.26626184
0.47700002 26392.17421111  2649.24657288
