# SAXS profile: number of points = 501, q_min = 0, q_max = 0.5, delta_q = 0.001
#    q    intensity    error
0.00000000 1628779.37420969 317.61197797
0.00100000 1628699.39625755 488.60983048
0.00200000 1628459.38137199 732.80674482
0.00300000 1628059.57237028 1074.51935604
0.00400000 1627499.84411502 1464.74991536
0.00500000 1626780.65997952 1610.51291713
0.00600000 1625901.94249155 2390.07595277
0.00700000 1624864.29217145 2144.82095481
0.00800000 1623667.43864530 2849.53647513
0.00900000 1622312.65775766 3163.50981786
0.01000000 1620799.34995736 4011.47856436
0.01100000 1619128.70913649 3205.87498367
0.01200000 1617300.71494563 4730.60479862
0.01300000 1615316.46292448 4070.59766610
0.01400000 1613175.98019242 5444.46917451
0.01500000 1610880.71873268 4639.33667653
0.01600000 1608429.95716094 4921.79588893
0.01700000 1605826.10821513 6937.16909868
0.01800000 1603068.88040079 5025.62116620
0.01900000 1600159.02430435 6240.62047638
0.02000000 1597097.84122592 6037.03011292
0.02100000 1593887.09720164 6311.79319109
0.02200000 1590525.43760499 9877.16341627
0.02300000 1587016.11926759 6284.58411836
0.02400000 1583358.52579698 7125.11369097
0.02500000 1579555.17486587 6776.29200965
0.02600000 1575606.24106189 8295.56723862
0.02700000 1571513.67687788 7260.39351971
0.02800000 1567277.30711588 8181.18791833
0.02900000 1562899.55314343 9142.96280568
0.03000000 1558381.95882520 10145.06701827
0.03100000 1553724.61671435 8949.45420407
0.03200000 1548929.00541585 7667.19892995
0.03300000 1543998.86868133 7874.39459329
0.03400000 1538932.71542215 10503.21626738
0.03500000 1533733.27519044 13251.45610957
0.03600000 1528401.74851189 11027.41912513
0.03700000 1522940.08906304 8680.75890912
0.03800000 1517349.77822288 12427.09525877
0.03900000 1511632.71601859 11790.73573097
0.04000000 1505789.02334463 11112.72350724
0.04100000 1499822.49059291 10393.77034173
0.04200000 1493733.70316896 11561.49939890
0.04300000 1487523.60534514 16690.01562669
0.04400000 1481195.91510675 10997.88018043
0.04500000 1474751.93168825 14246.10432205
0.04600000 1468191.43620690 13455.97513836
0.04700000 1461518.59459349 14732.10811866
0.04800000 1454734.14825556 10692.29648717
0.04900000 1447841.39989198 14116.45430603
0.05000000 1440840.08733764 11022.42718140
0.05100000 1433734.68418251 17893.00969213
0.05200000 1426523.79129461 17011.29700394
0.05300000 1419212.76671531 18392.99831407
0.05400000 1411802.09240240 12812.10458603
0.05500000 1404294.00231535 16514.49823762
0.05600000 1396689.44452311 13135.86483871
0.05700000 1388993.71051906 14501.09501471
0.05800000 1381205.74869918 13446.03859141
0.05900000 1373327.68138022 16067.93462261
0.06000000 1365363.83305275 13742.38762170
0.06100000 1357315.03517571 13885.33345873
0.06200000 1349183.48338333 15299.74141673
0.06300000 1340972.73740529 14160.67276909
0.06400000 1332681.18053888 12993.64211792
0.06500000 1324314.44752744 15732.85637257
0.06600000 1315874.47748030 14546.99302918
0.06700000 1307361.64539274 16002.10728849
0.06800000 1298779.85985941 14786.60939665
0.06900000 1290131.47232858 17610.29542178
0.07000000 1281417.27724828 13647.09464177
0.07100000 1272639.99405741 17867.86635346
0.07200000 1263802.48213938 17990.22917604
0.07300000 1254906.70698899 13929.46510025
0.07400000 1245955.52549039 15418.70035053
0.07500000 1236950.01423149 19741.72315248
0.07600000 1227891.99389809 18436.79915271
0.07700000 1218785.94312354 21389.69430475
0.07800000 1209632.30953003 21501.21531022
0.07900000 1200433.28295228 15845.72007819
0.08000000 1191193.02466892 23156.79348587
0.08100000 1181911.71949170 14537.51483182
0.08200000 1172591.82951714 20438.27654755
0.08300000 1163236.96771294 16122.46512916
0.08400000 1153847.57650826 23538.49166563
0.08500000 1144427.39048299 19192.04823937
0.08600000 1134976.92989750 19254.88451976
0.08700000 1125501.02640115 14856.61424613
0.08800000 1115998.66173561 16388.44111725
0.08900000 1106475.45950250 14937.41940489
0.09000000 1096930.20057315 22459.64691179
0.09100000 1087366.75161356 18006.79425270
0.09200000 1077786.74618452 16538.63839730
0.09300000 1068195.05538290 19580.01628528
0.09400000 1058588.26961779 18101.86026121
0.09500000 1048972.29143434 16615.72187730
0.09600000 1039347.88006584 22683.76854875
0.09700000 1029719.80618914 22705.32279391
0.09800000 1020087.41638918 16663.12873018
0.09900000 1010454.16966508 16672.49458346
0.10000000 1000820.09355240 19711.15266947
0.10100000 991187.88609618 21231.24551872
0.10200000 981560.81668416 22747.67299662
0.10300000 971939.04275499 16678.47475824
0.10400000 962326.26929969 18187.96734542
0.10500000 952725.07600328 22722.49413176
0.10600001 943133.02708453 16651.01437667
0.10700001 933556.44237455 33271.95317193
0.10800001 923995.07708668 21150.24830988
0.10900001 914452.09875253 19614.99844143
0.11000001 904927.28415751 15067.03999042
0.11100001 895423.68887717 19556.05428565
0.11200001 885942.89792796 24026.77252292
0.11300001 876486.40410733 17985.50185905
0.11400001 867056.76198953 14956.72984855
0.11500001 857654.84223028 16415.51445326
0.11600001 848282.59985318 17864.83239419
0.11700001 838942.00905954 16334.20168565
0.11800001 829632.81516539 20732.52502745
0.11900001 820357.71761886 14766.43961266
0.12000001 811117.16078477 20610.48802640
0.12100001 801916.34645221 22012.60474709
0.12200001 792752.99085535 21939.44005552
0.12300001 783630.37605079 18948.18338564
0.12400001 774548.60920171 17427.34452817
0.12500001 765508.72278553 18808.55020511
0.12600001 756515.10606022 17293.93613949
0.12700001 747565.80326481 20094.56973874
0.12800001 738662.87524079 15722.44004049
0.12900001 729808.64285677 18500.64996839
0.13000001 721003.96801244 17001.27436709
0.13100001 712249.01894295 15512.78436381
0.13200001 703545.31471324 16842.87562821
0.13300001 694894.76762777 15364.12403656
0.13400001 686297.46328287 18066.78157269
0.13500001 677755.64513416 19356.70213767
0.13600001 669269.31426969 17879.53057375
0.13700001 660840.30488247 15047.33445170
0.13800001 652467.37351557 20405.91806896
0.13900001 644154.37492645 16232.69101365
0.14000001 635900.00336416 14794.21427597
0.14100001 627707.25775141 17381.21478689
0.14200001 619575.15854966 17276.85411103
0.14300001 611505.90551190 17171.08663669
0.14400001 603496.72255578 14438.65976822
0.14500001 595553.65587516 14346.88824681
0.14600001 587674.52037474 14254.04616411
0.14700001 579860.87826370 19309.36815713
0.14800001 572110.23851240 12786.66443401
0.14900001 564427.49528316 15239.54309166
0.15000001 556810.69274364 17656.46789998
0.15100001 549261.10873941 13775.46925718
0.15200001 541780.01871978 16164.00762124
0.15300001 534367.41312294 13578.27660820
0.15400001 527021.55656270 15929.22729882
0.15500001 519746.58454915 17026.89891338
0.15600001 512539.31634156 14484.36176340
0.15700001 505404.60578814 14373.70766701
0.15800001 498337.27377570 15450.94790268
0.15900001 491342.12121666 16509.09605212
0.16000001 484415.31551638 17547.94563289
0.16100001 477562.23012845 12765.23901391
0.16200001 470779.53644522 17265.84031418
0.16300001 464067.72962831 13699.28002534
0.16400001 457427.71017569 11321.33636132
0.16500001 450858.71188835 13471.65894724
0.16600001 444361.99271313 12244.39528731
0.16700001 437936.55434726 13243.20202874
0.16800001 431583.34526171 14222.82981465
0.16900001 425302.68491416 13014.26277288
0.17000001 419092.61486331 12899.67129461
0.17100001 412954.98178988 10654.23903329
0.17200001 406889.43160012 12670.53749837
0.17300001 400894.77041049 16741.36640294
0.17400001 394973.35249134 12441.66119105
0.17500001 389121.81330646 10272.81635645
0.17600001 383340.65578922 12213.23387026
0.17700001 377633.64443375 13107.66441738
0.17800001 371995.72250212 11985.70274513
0.17900001 366428.79681655 19787.15596271
0.18000001 360933.24523180 10779.27187801
0.18100001 355508.33110687 11646.45347720
0.18200001 350151.87755416 12495.17034077
0.18300001 344865.50917169 9518.28850278
0.18400001 339649.09956611 12252.84184568
0.18500001 334501.87937911 10265.86316313
0.18600001 329423.51037357 12936.46186353
0.18700001 324413.37711702 9148.45766692
0.18800001 319469.66479873 9962.66196745
0.18900001 314597.13573012 10759.22255032
0.19000001 309787.40745113 13313.11446424
0.19100001 305047.55061335 12299.51782188
0.19200001 300372.82235108 13043.69042693
0.19300001 295765.13790658 8606.76591977
0.19400001 291221.33929010 9370.04703443
0.19500001 286743.05744060 10116.29554455
0.19600001 282328.77547569 10845.66042242
0.19700001 277979.88274488 11558.40407075
0.19800001 273693.02557698 9803.68463948
0.19900001 269469.72673956 8084.09218424
0.20000001 265307.19556780 10398.71602173
0.20100001 261208.12224747 11080.44906943
0.20200001 257168.86525780 9396.95078065
0.20300001 253190.81963143 7747.63944691
0.20400001 249273.68770780 9964.71613711
0.20500001 245414.59887033 7583.31146353
0.20600001 241614.31643223 8252.33736781
0.20700001 237872.66864610 10390.27865760
0.20800001 234188.02131846 7341.79481538
0.20900001 230562.91307827 7262.73210528
0.21000001 226991.15951004 9339.55169954
0.21100001 223476.46062625 9238.51731903
0.21200001 220015.60180928 9138.34845316
0.21300001 216609.47290769 8343.79729086
0.21400001 213257.54527369 7565.31177625
0.21500001 209959.55158155 7482.95877214
0.21600001 206712.22664020 9419.87661335
0.21700001 203517.63705127 8651.53516009
0.21800001 200374.08196158 9873.43335548
0.21900001 197280.41827059 7812.30493289
0.22000001 194235.98207831 7726.70773241
0.22100001 191242.27299814 7642.04159035
0.22200001 188296.31495522 6298.51203307
0.22300001 185397.67766869 9966.97962276
0.22400001 182545.83537210 8625.29112919
0.22500001 179742.23255671 6093.26197181
0.22600001 176982.49994448 6026.25440808
0.22700001 174268.74896565 10727.98469364
0.22800001 171599.18659444 8841.64850740
0.22900001 168972.60329018 6412.51059812
0.23000001 166389.65777099 8071.56268019
0.23100001 163850.41727571 5701.99479086
0.23200001 161350.76243990 6203.13035537
0.23300001 158893.80249737 7808.04182400
0.23400001 156476.50199546 6067.37665183
0.23500001 154098.29030130 6000.58770814
0.23600001 151759.71892006 5395.05826278
0.23700001 149459.97226560 8003.58189338
0.23800001 147197.67012455 6860.14774063
0.23900001 144972.84056127 7828.53376059
0.24000001 142783.90521274 5677.80225935
0.24100001 140632.12132901 6636.43011943
0.24200001 138515.63078713 6058.67397722
0.24300001 136433.15370115 7490.18049250
0.24400001 134385.04217219 5432.51558679
0.24500001 132369.92391037 5861.34050802
0.24600001 130388.34608219 4830.88845087
0.24700001 128439.17573538 5255.73131972
0.24800001 126521.52025251 5670.69480598
0.24900001 124634.18466902 7010.67321929
0.25000001 122778.69773157 6009.40364477
0.25100001 120952.11440214 5486.38816884
0.25200001 119156.93903889 4974.20665551
0.25300001 117389.53639271 6261.55816742
0.25400001 115651.43591583 4866.03439638
0.25500001 113939.41596411 4812.80115803
0.25600001 112256.03322215 5192.96434255
0.25700001 110598.71816829 5992.23883387
0.25800001 108968.02753052 5503.43049082
0.25900001 107363.80924677 4605.90763461
0.26000001 105784.35272086 6212.18640746
0.26100001 104229.13364707 4505.82566076
0.26200001 102699.85661715 5672.11334935
0.26300001 101192.63774641 4007.22864437
0.26400001 99710.47956451  5548.88845033
0.26500001 98250.75054958  4312.22564567
0.26600001 96813.33375399  4265.11162036
0.26700001 95398.23907360  4218.51033146
0.26800001 94005.21731507  5689.66604723
0.26900001 92632.84807032  4501.95662926
0.27000001 91282.07282500  4823.80136671
0.27100001 89951.29678785  4404.01569914
0.27200001 88641.45965500  4718.82832805
0.27300001 87350.86974887  4308.14509989
0.27400001 86078.70822859  4971.04563545
0.27500001 84827.32298001  5618.96214012
0.27600001 83592.45546728  4515.24669575
0.27700001 82377.77952458  4809.21499625
0.27800001 81180.04252838  4756.33891684
0.27900001 80000.26350009  5040.01683904
0.28000001 78837.47791623  4984.49977716
0.28100001 77691.94988655  3615.00659932
0.28200001 76563.38661580  3575.12750723
0.28300001 75451.05978280  4178.47988854
0.28400001 74354.27711722  3178.64549721
0.28500001 73273.87511423  5343.86396501
0.28600001 72208.83967285  4662.88604258
0.28700001 71159.90819241  4611.16226913
0.28800001 70124.31056485  3951.85570894
0.28900001 69105.04819888  4208.49763452
0.29000001 68099.85847887  3864.32665230
0.29100001 67109.37196836  3527.26875762
0.29200001 66132.60726213  3197.18104943
0.29300001 65169.83821332  3161.38900138
0.29400001 64220.18992276  3125.91789246
0.29500001 63285.23528078  4214.79686922
0.29600001 62362.19627267  4445.17756074
0.29700001 61452.91362066  4120.41805332
0.29800001 60556.68282286  3259.16082381
0.29900001 59673.14494403  3222.34997952
0.30000001 58801.74396599  5309.79773149
0.30100001 57943.24269269  3412.27772371
0.30200001 57096.14430820  2854.52186982
0.30300001 56261.75498994  2565.53614900
0.30400001 55439.23576518  3043.61418760
0.30500001 54628.75168471  3008.95178524
0.30600001 53828.82550456  2726.69928502
0.30700001 53041.33053905  2695.56054561
0.30800001 52264.69371454  2664.71553519
0.30900001 51499.50403537  2634.19975612
0.31000001 50745.43312051  4971.27659101
0.31100001 50001.93809797  2340.09081378
0.31200001 49270.17998638  2775.88207186
0.31300001 48548.44769995  3201.28479290
0.31400001 47838.81104003  2938.49910726
0.31500001 47138.45539374  3351.54433718
0.31600002 46449.61615840  2208.67935291
0.31700002 45770.46060265  2401.57618153
0.31800002 45101.58531820  3021.35534352
0.31900002 44443.48613396  2346.61617898
0.32000002 43795.54783257  2530.50687358
0.32100002 43157.56357105  3335.21667069
0.32200002 42530.39866021  2678.77728645
0.32300002 41911.36153757  2647.95994733
0.32400002 41303.63238034  2416.26260866
0.32500002 40705.68023123  2189.55864332
0.32600002 40117.46841983  2164.53811109
0.32700002 39538.86631673  2139.84354639
0.32800002 38970.97780290  2692.50498390
0.32900002 38410.69807883  2661.86150291
0.33000002 37861.49784804  2443.77049432
0.33100002 37320.68351639  2416.14116527
0.33200002 36790.84635866  2940.32458022
0.33300002 36269.70247401  2362.24583400
0.33400002 35758.58972864  2156.24306275
0.33500002 35256.19305790  2132.29465712
0.33600002 34762.83995790  2460.16630033
0.33700002 34278.90246742  2085.52852488
0.33800002 33804.82997054  2234.66839103
0.33900002 33339.17314304  2210.38728406
0.34000002 32882.80514301  2018.34667526
0.34100002 32435.51737601  1830.33633221
0.34200002 31998.20891875  1975.56951220
0.34300002 31569.22462485  1791.86927457
0.34400002 31149.68854144  1934.39575004
0.34500002 30738.77836048  2393.01400870
0.34600002 30337.23961810  1894.86407629
0.34700002 29943.56850584  2500.88696005
0.34800002 29559.65057430  2321.17167128
0.34900002 29184.06902032  1532.16369613
0.35000002 28817.55254934  1820.69305630
0.35100002 28460.51436821  2404.34436770
0.35200002 28110.38131630  1934.97818955
0.35300002 27770.41829743  2064.45299401
0.35400002 27438.53776908  1753.32264649
0.35500002 27115.46950442  1592.76275413
0.35600002 26800.06708299  1865.68675835
0.35700002 26493.50229086  1991.78159657
0.35800002 26195.60150257  1551.69652850
0.35900002 25906.62279275  1678.74923649
0.36000002 25625.68008633  1665.15677088
0.36100002 25352.28663742  1514.29215258
0.36200002 25088.63260479  1502.68372104
0.36300002 24831.81127866  1491.39865604
0.36400002 24583.83619267  2018.94764296
0.36500002 24342.92064303  1737.35432859
0.36600002 24111.09963933  1592.77931762
0.36700002 23886.50200195  1450.38847026
0.36800002 23670.70904393  1441.19118841
0.36900002 23462.56119226  1562.60664942
0.37000002 23261.59700503  1294.50793465
0.37100002 23068.28062788  1802.09416802
0.37200002 22883.41653594  1536.39265900
0.37300002 22705.60558832  1401.16298723
0.37400002 22535.23945387  1901.41091899
0.37500002 22372.65907182  1640.36344085
0.37600002 22217.62159728  1633.32852910
0.37700002 22069.48412648  1751.87573295
0.37800002 21928.72827774  1620.64274014
0.37900002 21795.94687994  1490.84283721
0.38000002 21669.28467141  1362.23964540
0.38100002 21549.05382677  1481.71301132
0.38200002 21437.09489021  1354.71727576
0.38300002 21330.96449093  1720.12905804
0.38400002 21232.25499941  1348.77906273
0.38500002 21139.46958036  1468.77041603
0.38600002 21054.32311165  1588.86456889
0.38700002 20974.66061671  1831.08795859
0.38800002 20901.61379772  1707.45291203
0.38900002 20834.76451709  1340.71716019
0.39000002 20774.78155650  1827.66149402
0.39100002 20720.11698382  1705.68011092
0.39200002 20671.80895120  1340.46351495
0.39300002 20629.30673151  1706.86891983
0.39400002 20593.43181309  1342.17698201
0.39500002 20562.31520330  1954.24252951
0.39600002 20537.00321807  1345.27645954
0.39700002 20516.54113007  1592.28883254
0.39800002 20502.70901146  1349.79591172
0.39900002 20493.11781315  1229.58712705
0.40000002 20489.23905348  1725.39890244
0.40100002 20489.89757130  1482.64905851
0.40200002 20496.15935035  1486.79146972
0.40300002 20506.91330338  1615.53470658
0.40400002 20522.34874132  1246.73274511
0.40500002 20542.21497198  1876.53142660
0.40600002 20567.45239951  1381.20733133
0.40700002 20596.42919955  1260.50152674
0.40800002 20629.61911700  1645.31535063
0.40900002 20666.48549104  1652.28559330
0.41000002 20708.29179795  2170.33262472
0.41100002 20753.60494958  1795.60198532
0.41200002 20802.03274473  1417.55458856
0.41300002 20855.35922103  1554.14144279
0.41400002 20911.53398431  1431.91735742
0.41500002 20971.18466479  1308.60198509
0.41600002 21033.30440266  1841.88655382
0.41700002 21100.12759855  1455.27586943
0.41800002 21170.06633759  1330.53873236
0.41900002 21241.29369715  1605.84187960
0.42000002 21315.93549364  2019.15208531
0.42100002 21394.01732552  1895.93790523
0.42200002 21474.55635473  1498.81673180
0.42300002 21556.88319012  1371.01783586
0.42400002 21641.81945819  1655.59926700
0.42500002 21729.17066426  1943.89169974
0.42600002 21817.65020987  2794.84112432
0.42700002 21909.19847333  1687.88473037
0.42800002 22002.00229319  1557.41180612
0.42900002 22097.49614916  1567.81742608
0.43000002 22194.10846279  1578.33409812
0.43100002 22290.98561767  2166.68390471
0.43200002 22390.49784757  1599.68919453
0.43300002 22490.63512910  1464.14041629
0.43400002 22592.34996863  1768.98108637
0.43500002 22694.50514885  1632.64277778
0.43600002 22798.36476842  1643.87616953
0.43700002 22902.32454064  1655.15107299
0.43800002 23006.58908667  1817.98075578
0.43900002 23112.50476041  2745.76569566
0.44000002 23218.20060120  1535.88404255
0.44100002 23324.50636991  1546.41484561
0.44200002 23430.97535291  1712.68722459
0.44300002 23537.79505498  1881.14066994
0.44400002 23644.30941462  1893.90927386
0.44500002 23750.40593963  2224.46312572
0.44600002 23856.23650923  2879.20932075
0.44700002 23962.70018357  2415.44029297
0.44800002 24067.72494554  1620.96135190
0.44900002 24172.81111674  2610.66372433
0.45000002 24277.86270247  2135.11673656
0.45100002 24381.13035923  2148.95293171
0.45200002 24484.14563056  1830.06755189
0.45300002 24586.06326383  1841.74208638
0.45400002 24687.11669052  2190.36453217
0.45500002 24787.33668767  2373.63547371
0.45600002 24886.07998133  2047.12903628
0.45700002 24984.00365191  2402.96158513
0.45800002 25080.05734783  2072.11443628
0.45900002 25174.95462906  2258.19353725
0.46000002 25268.74052641  1922.06683924
0.46100002 25360.22357500  2284.70265015
0.46200002 25450.77611527  2121.06778197
0.46300002 25539.37250321  2488.55657466
0.46400002 25625.74819862  1787.39602157
0.46500002 25711.46440029  2336.40088079
0.46600002 25794.14862035  2348.94425544
0.46700002 25874.99088889  1816.42444649
0.46800002 25954.44955957  2373.66429697
0.46900002 26031.15701322  2202.23598770
0.47000002 26105.82306327  2213.25178420
0.47100002 26178.57604109  2224.13192587
0.47200002 26249.07552047  2607.32079503
0.47300002 26317.11645630  1871.14706873
0.47400002 26382.32960506  3007.58571753
0.47500002 26445.57550741  3021.14268916
0.47600002 26507.10521954  2465.55850886
0.47700002 26564.86787811  2095.17122885
