# SAXS profile: number of points = 501, q_min = 0, q_max = 0.5, delta_q = 0.001
#    q    intensity    error
0.00000000 1646666.22097350 271.69992646
0.00100000 1646585.79807630 493.97575115
0.00200000 1646344.45791401 740.85502952
0.00300000 1645942.43018776 987.56549329
0.00400000 1645379.59086847 1234.03474004
0.00500000 1644656.42092305 1628.20992116
0.00600000 1643772.83524419 2761.53847564
0.00700000 1642729.41586754 1971.27538097
0.00800000 1641525.92469071 2880.87811946
0.00900000 1640163.62564199 2706.27009800
0.01000000 1638641.89906026 3514.88702526
0.01100000 1636961.97068125 4419.79751327
0.01200000 1635123.80200550 4145.03901982
0.01300000 1633128.51216460 4115.48403217
0.01400000 1630976.12285027 4770.60537082
0.01500000 1628668.03750257 4690.56415687
0.01600000 1626203.61885610 4976.18329615
0.01700000 1623585.22360935 5698.78439051
0.01800000 1620812.56622744 5543.17922593
0.01900000 1617886.45162294 8251.22127559
0.02000000 1614808.15021702 6103.97508394
0.02100000 1611579.40256397 5850.03349654
0.02200000 1608198.85714095 7767.60083289
0.02300000 1604669.82429970 9242.89860869
0.02400000 1600991.64056660 7204.46271106
0.02500000 1597166.89622688 7474.74141572
0.02600000 1593195.66129606 8388.17554038
0.02700000 1589079.94919242 8676.37691998
0.02800000 1584819.59698850 10340.94834458
0.02900000 1580417.06538922 7823.06483287
0.03000000 1575873.78751468 8060.59479365
0.03100000 1571189.98288454 8295.88349135
0.03200000 1566367.12933403 9304.22117678
0.03300000 1561408.91866408 9555.82302275
0.03400000 1556313.71225964 13890.10052281
0.03500000 1551084.47076817 10051.02783471
0.03600000 1545722.37544668 8578.75958019
0.03700000 1540229.34698789 9657.23845224
0.03800000 1534606.79906753 14363.92030403
0.03900000 1528856.83467531 11925.08386272
0.04000000 1522979.30412009 9366.32315436
0.04100000 1516978.11986356 10512.65885809
0.04200000 1510853.95755908 13643.01186970
0.04300000 1504607.79425079 11916.49428361
0.04400000 1498243.20511992 11124.45631466
0.04500000 1491761.45341555 10293.15450684
0.04600000 1485162.51647561 12564.47547347
0.04700000 1478450.45355511 11709.32813673
0.04800000 1471625.98019656 11898.09660349
0.04900000 1464692.49066952 17576.31070617
0.05000000 1457649.72192016 18956.73551631
0.05100000 1450502.17415797 12445.30923403
0.05200000 1443248.15842892 12621.20573363
0.05300000 1435893.54298359 13956.88588844
0.05400000 1428438.39340930 17676.92594278
0.05500000 1420885.15567078 15516.06662374
0.05600000 1413234.87986374 15708.10642269
0.05700000 1405492.60031266 13450.56481284
0.05800000 1397657.21734668 13606.19364618
0.05900000 1389731.30859443 13758.34059768
0.06000000 1381718.87132767 13907.00108963
0.06100000 1373620.76351804 19162.01054654
0.06200000 1365439.31340547 20645.44338373
0.06300000 1357177.75825253 20846.25134143
0.06400000 1348834.77115130 13151.13963376
0.06500000 1340416.29230480 15924.14629748
0.06600000 1331923.58777360 14724.41595177
0.06700000 1323357.70057073 16197.89901303
0.06800000 1314722.00396872 20411.06006704
0.06900000 1306019.17725202 13713.20200318
0.07000000 1297249.83758349 13815.71141723
0.07100000 1288416.75224386 23655.33267916
0.07200000 1279522.82025609 14010.77553816
0.07300000 1270570.30372682 16923.99723863
0.07400000 1261561.48148587 19869.59426457
0.07500000 1252497.96744287 15706.32524793
0.07600000 1243381.11973941 17233.26312749
0.07700000 1234215.85685104 15884.35882247
0.07800000 1225002.51260170 15967.90850060
0.07900000 1215743.20225485 20424.48675587
0.08000000 1206441.88344299 20521.57740005
0.08100000 1197099.22896374 25031.34605206
0.08200000 1187717.41624078 20701.91553652
0.08300000 1178299.90747205 22269.86929639
0.08400000 1168847.65931104 16393.08919131
0.08500000 1159363.85390676 25424.85050975
0.08600000 1149849.42666271 21007.75001147
0.08700000 1140309.10417253 16557.28897008
0.08800000 1130741.73908093 18114.48351080
0.08900000 1121152.90106194 18162.67785030
0.09000000 1111542.09273647 16689.80530645
0.09100000 1101912.29187643 16727.02937654
0.09200000 1092265.39353516 21331.94413806
0.09300000 1082606.42954331 27476.55247299
0.09400000 1072932.00632603 16818.20998957
0.09500000 1063247.78520330 16841.84570923
0.09600000 1053555.02895276 18395.07167023
0.09700000 1043858.04948622 16879.18545373
0.09800000 1034156.36194998 18428.66723642
0.09900000 1024453.48354370 15366.80297574
0.10000000 1014749.18284598 19985.48609601
0.10100000 1005046.61509500 16914.93532759
0.10200000 995348.59112755 16915.95010188
0.10300000 985655.68698506 21526.72121639
0.10400000 975971.43239942 15371.55078345
0.10500000 966298.45668680 23046.21927629
0.10600001 956634.01088614 15353.97659718
0.10700001 946984.99672094 24545.85227008
0.10800001 937350.83332072 15325.68684605
0.10900001 927734.64896432 16838.38467121
0.11000001 918136.55536096 18344.36923957
0.11100001 908559.28079738 16790.17629951
0.11200001 899004.52409436 15238.12740077
0.11300001 889473.92564875 19773.00629810
0.11400001 879969.58033713 16697.42357309
0.11500001 870493.21027232 18175.89908635
0.11600001 861045.91816451 16622.49223294
0.11700001 851630.12088162 18088.62461941
0.11800001 842245.33991117 18040.89603059
0.11900001 832894.46275424 16491.31113930
0.12000001 823578.11502632 20927.12088859
0.12100001 814301.24625741 16391.88485935
0.12200001 805061.62088702 20794.74264718
0.12300001 795862.70169195 19243.96103358
0.12400001 786704.09695751 20650.98351816
0.12500001 777587.42847994 22044.60463616
0.12600001 768516.79918507 20496.34400012
0.12700001 759490.43493064 16040.43874166
0.12800001 750510.51711249 23235.80670489
0.12900001 741578.81869920 17352.94517544
0.13000001 732696.61270219 14397.48911822
0.13100001 723863.80766017 18632.25528745
0.13200001 715082.69308495 15692.49043950
0.13300001 706354.41566205 15617.49686654
0.13400001 697679.00456717 22604.80081369
0.13500001 689059.30656279 18273.85367162
0.13600001 680494.87588862 16781.00443065
0.13700001 671987.64976488 20865.21750906
0.13800001 663536.42981880 20752.10282116
0.13900001 655145.45620652 19261.27732080
0.14000001 646812.93674217 16416.11310871
0.14100001 638541.81433124 23121.60018742
0.14200001 630331.34156931 18928.85108011
0.14300001 622183.82322825 14783.08833719
0.14400001 614096.31758532 16027.91464501
0.14500001 606074.92789631 15927.64985646
0.14600001 598117.17948171 15826.18131568
0.14700001 590225.37394193 19654.50587950
0.14800001 582396.58583769 14318.22073833
0.14900001 574635.49256193 12929.29919266
0.15000001 566940.46141541 17977.68287972
0.15100001 559312.74210474 17853.26357039
0.15200001 551753.77808617 17727.84972643
0.15300001 544263.10523796 20115.96531885
0.15400001 536839.33989046 12481.51524147
0.15500001 529486.47540399 18584.97616376
0.15600001 522201.29866508 17216.97762954
0.15700001 514988.92178949 14646.28562695
0.15800001 507843.72715025 16956.90284989
0.15900001 500771.15323381 14422.20989387
0.16000001 493767.04760038 16694.26466738
0.16100001 486836.57095498 11830.12923264
0.16200001 479976.61363799 14082.51450892
0.16300001 473187.83739071 17460.63202400
0.16400001 466471.17357216 16163.22692733
0.16500001 459825.41327729 14884.54933051
0.16600001 453252.28129100 12489.36720063
0.16700001 446750.35548758 12383.92043882
0.16800001 440320.67139645 15626.98136571
0.16900001 433964.12194790 15492.51988507
0.17000001 427678.19657449 17551.91401621
0.17100001 421464.91152526 11961.17475391
0.17200001 415323.66723292 11855.41464101
0.17300001 409253.98901513 11749.68257950
0.17400001 403257.29735573 12702.60546660
0.17500001 397331.13051627 11538.49657513
0.17600001 391475.39555646 18708.61003723
0.17700001 385693.92334478 11327.83106366
0.17800001 379981.82049583 14283.51730708
0.17900001 374340.77747680 11117.92161620
0.18000001 368771.65133575 17020.65637137
0.18100001 363273.31472274 11900.83435247
0.18200001 357843.63020073 10805.08892432
0.18300001 352484.49572220 11674.28704980
0.18400001 347195.24059018 11561.60205783
0.18500001 341975.65891283 11449.34560129
0.18600001 336825.31699075 9447.95058794
0.18700001 331743.17514565 15903.76856785
0.18800001 326727.95371468 13894.10688816
0.18900001 321784.10682451 11005.01697336
0.19000001 316903.57028424 9987.21648939
0.19100001 312092.98608719 9887.10626641
0.19200001 307347.68725440 8897.71596644
0.19300001 302670.18064548 10569.24320756
0.19400001 298056.77047539 9589.97704321
0.19500001 293509.21534778 8629.17133900
0.19600001 289025.65261134 8540.70843827
0.19700001 284608.01005621 10143.42995776
0.19800001 280252.85855000 13384.87715690
0.19900001 275961.51313288 14074.03783492
0.20000001 271731.25071658 14746.85567334
0.20100001 267564.77647875 10539.37704361
0.20200001 263458.65115250 12033.47446013
0.20300001 259413.94830592 8731.87391269
0.20400001 255430.25420179 13352.61716952
0.20500001 251505.36163014 8548.66764588
0.20600001 247639.52730036 7689.20768613
0.20700001 243832.65778470 10650.61099548
0.20800001 240083.11290305 8279.26653982
0.20900001 236393.53041923 11169.59484031
0.21000001 232757.62406729 11050.16872496
0.21100001 229179.24437807 8745.48037890
0.21200001 225655.27465028 7930.65500250
0.21300001 222186.08611667 7845.39107167
0.21400001 218771.61876821 8466.46204659
0.21500001 215411.52160646 7677.26699302
0.21600001 212102.58711671 7594.33349076
0.21700001 208846.55787482 9560.99587155
0.21800001 205642.24973169 8781.95269001
0.21900001 202487.99711193 7350.31464270
0.22000001 199383.40627208 9253.38432261
0.22100001 196329.93842730 6537.78725876
0.22200001 193324.67368113 7760.05276849
0.22300001 190367.25939404 10234.14434895
0.22400001 187456.84943052 6959.33586419
0.22500001 184595.25940849 7509.33550783
0.22600001 181777.96947927 8046.40219950
0.22700001 179007.04413923 6122.04119907
0.22800001 176280.61797149 8477.33531914
0.22900001 173597.78531579 7186.94865195
0.23000001 170958.99404962 7108.47530876
0.23100001 168364.14877715 7616.79445090
0.23200001 165809.60439235 8113.06432661
0.23300001 163297.99310171 6878.11179474
0.23400001 160826.31826510 6802.95358436
0.23500001 158394.48344401 7850.03097076
0.23600001 156002.67508770 7764.25350634
0.23700001 153650.08798120 6033.83924041
0.23800001 151335.23915640 5425.36858037
0.23900001 149058.33917506 5902.71051053
0.24000001 146817.92903633 6899.70890142
0.24100001 144615.04802929 6824.38443930
0.24200001 142447.89104286 6749.89363635
0.24300001 140315.20500072 6676.19776974
0.24400001 138217.23894320 6603.32890287
0.24500001 136152.81215763 6531.25070816
0.24600001 134122.13076725 4969.22518000
0.24700001 132124.63585083 6389.54769201
0.24800001 130159.00324083 5833.72680123
0.24900001 128224.14011146 6250.92712615
0.25000001 126321.45141363 5707.20344487
0.25100001 124448.20767360 7526.62795618
0.25200001 122606.88700978 8375.27684787
0.25300001 120793.53687105 5062.45736977
0.25400001 119009.97266489 4552.13166980
0.25500001 117253.00862650 6753.77361642
0.25600001 115525.30434407 6234.90097044
0.25700001 113823.96227995 5285.98505838
0.25800001 112149.60139060 4792.71344219
0.25900001 110502.36925342 4740.55186527
0.26000001 108880.14692743 5115.18954468
0.26100001 107282.64034260 5059.44955795
0.26200001 105711.42924242 6255.47412141
0.26300001 104163.05576588 5362.31436456
0.26400001 102639.66942616 4895.91246329
0.26500001 101139.45691543 4439.01097407
0.26600001 99662.02124423  5987.19620956
0.26700001 98207.31142028  5527.10774828
0.26800001 96775.17331488  4685.85411365
0.26900001 95363.92401765  4248.46301603
0.27000001 93974.66193154  3820.07018829
0.27100001 92605.99563616  4156.15728083
0.27200001 91258.61839568  5231.85684021
0.27300001 89931.10216370  6283.48640554
0.27400001 88622.12600649  4752.36173200
0.27500001 87334.61176356  5061.91433737
0.27600001 86063.87480502  4291.14500086
0.27700001 84813.79570759  3890.40899323
0.27800001 83581.03437655  4547.22639046
0.27900001 82366.77716163  3805.34528497
0.28000001 81169.82823511  4105.57010644
0.28100001 79990.50440438  4060.31819574
0.28200001 78828.62300840  3680.90272559
0.28300001 77683.34335810  3640.24164205
0.28400001 76554.05891459  3927.22340820
0.28500001 75441.66955499  3883.73733251
0.28600001 74344.87106381  4160.71090602
0.28700001 73264.54969260  3481.53156618
0.28800001 72198.06461142  3755.74349886
0.28900001 71148.41779394  3713.94758464
0.29000001 70112.91210359  4284.60026146
0.29100001 69092.73362425  3934.14043879
0.29200001 68086.63099940  3291.64833148
0.29300001 67094.91677413  5030.10614866
0.29400001 66116.72199126  3218.23159526
0.29500001 65153.55183193  3471.38140593
0.29600001 64202.65660282  3718.29703317
0.29700001 63265.98634072  3393.58766796
0.29800001 62342.58402619  3075.67152853
0.29900001 61432.49659422  3593.80122089
0.30000001 60534.51758923  3553.07367810
0.30100001 59650.15469462  4053.22820338
0.30200001 58777.42803059  2938.57765350
0.30300001 57917.83385099  2905.15868350
0.30400001 57070.42463666  3394.26366596
0.30500001 56235.39907819  3355.56642186
0.30600001 55411.23191864  3062.02482079
0.30700001 54599.81715136  3279.26517336
0.30800001 53799.71417651  2992.34024417
0.30900001 53011.41051242  2711.53377609
0.31000001 52234.56274452  2924.09096088
0.31100001 51468.60579582  3131.35012487
0.31200001 50714.68686069  2857.26559301
0.31300001 49971.14708629  2824.36936704
0.31400001 49239.95672974  3257.22329189
0.31500001 48518.32118852  2529.74538655
0.31600002 47808.67611371  3182.62371958
0.31700002 47108.97714898  3595.35730624
0.31800002 46419.82277424  3109.66407488
0.31900002 45741.87629545  2415.17118276
0.32000002 45074.44427562  2387.36805410
0.32100002 44417.04996333  3003.48106074
0.32200002 43770.93911115  2332.77231039
0.32300002 43133.29999208  3982.92910986
0.32400002 42507.21756712  2901.11773633
0.32500002 41891.00659213  2663.01141516
0.32600002 41284.96950693  3240.04456033
0.32700002 40688.92265914  2202.08459859
0.32800002 40103.70643102  2770.76520852
0.32900002 39526.51847110  2739.18785976
0.33000002 38960.65557731  2708.15529742
0.33100002 38403.39491023  2103.73807280
0.33200002 37857.42964767  1890.97870045
0.33300002 37320.35392910  2056.72480243
0.33400002 36793.53985997  3143.08829138
0.33500002 36275.88407318  2011.13510826
0.33600002 35767.39915808  1988.84632437
0.33700002 35268.55976494  2503.36249067
0.33800002 34779.96388606  1768.56124736
0.33900002 34299.96135991  1924.22792342
0.34000002 33829.38827913  2249.48528015
0.34100002 33368.30860853  2054.15317522
0.34200002 32917.33138051  2540.39516960
0.34300002 32474.84620639  1675.70214361
0.34400002 32042.19210860  1824.00187217
0.34500002 31618.32938531  2461.48705922
0.34600002 31204.14705924  2111.42871076
0.34700002 30797.95093529  1768.41842646
0.34800002 30401.77981429  1750.68657352
0.34900002 30014.05020289  1733.31148131
0.35000002 29635.72465000  2184.44936741
0.35100002 29267.01389119  1545.29840664
0.35200002 28905.47008610  2142.76259897
0.35300002 28554.20802523  1516.22851795
0.35400002 28211.19793529  2253.36954181
0.35500002 27877.27222523  2232.96961100
0.35600002 27551.36496274  1475.37566363
0.35700002 27234.29661285  1901.22633659
0.35800002 26926.07546076  1594.96615546
0.35900002 26626.96809329  1581.64197966
0.36000002 26336.13389834  1996.54240540
0.36100002 26053.03637283  1980.55191887
0.36200002 25779.83580629  1965.19697660
0.36300002 25513.55775032  1393.04031915
0.36400002 25256.28627594  1659.33808693
0.36500002 25006.37503749  1784.70507096
0.36600002 24765.59540443  1499.68070075
0.36700002 24532.28671802  1489.60052008
0.36800002 24307.92217202  1614.53226714
0.36900002 24091.33511660  1470.77607854
0.37000002 23882.00877377  1727.74400658
0.37100002 23680.57858458  1849.92688666
0.37200002 23487.64002743  2102.61363486
0.37300002 23302.03624294  2353.03973128
0.37400002 23123.99299375  1951.08700127
0.37500002 22953.77121127  1424.05203341
0.37600002 22791.25501072  1675.49919148
0.37700002 22635.84885528  1411.79795998
0.37800002 22487.82951216  1534.11980199
0.37900002 22347.91738153  1401.21448620
0.38000002 22214.37436594  1396.50671067
0.38100002 22087.35973708  1392.16635018
0.38200002 21968.55924612  1262.09378848
0.38300002 21855.97195004  1384.79444836
0.38400002 21750.66654574  1256.10105252
0.38500002 21651.52483202  1629.71035131
0.38600002 21560.06945686  1501.87450952
0.38700002 21474.25581652  1499.76209728
0.38800002 21395.06653731  1622.92284907
0.38900002 21322.27976187  1372.08876768
0.39000002 21256.38743276  1620.69333659
0.39100002 21195.90433239  1744.84692731
0.39200002 21142.04775624  1495.58852913
0.39300002 21093.80859117  1371.30856148
0.39400002 21052.48279539  1871.03949708
0.39500002 21015.92176725  1498.01497454
0.39600002 20985.22627937  1749.53839780
0.39700002 20959.50293125  1251.28238428
0.39800002 20940.45510407  1503.94355683
0.39900002 20925.72897955  1381.09817809
0.40000002 20916.76813104  1258.14366269
0.40100002 20912.51046182  1513.22932871
0.40200002 20913.82491249  2022.78524137
0.40300002 20919.74489326  1394.51026066
0.40400002 20930.47693281  1525.83184070
0.40500002 20945.51104106  1785.81435597
0.40600002 20966.11419096  1663.97573161
0.40700002 20990.51823797  1541.54373244
0.40800002 21019.10745086  1934.28345481
0.40900002 21051.57503682  1553.60631133
0.41000002 21088.95746946  2210.22829231
0.41100002 21129.90186626  1305.82799721
0.41200002 21173.99626737  2098.76660947
0.41300002 21223.03946138  1317.95081300
0.41400002 21275.00572140  1324.36916891
0.41500002 21330.47658539  1464.12398220
0.41600002 21388.39941678  1337.84444691
0.41700002 21451.03860975  1882.97225839
0.41800002 21516.99113244  1893.28013945
0.41900002 21584.16969764  1495.78303092
0.42000002 21654.88833041  1504.25688915
0.42100002 21729.01352705  1788.08060787
0.42200002 21805.57885912  2075.34606626
0.42300002 21884.03643516  1809.37221820
0.42400002 21965.03272413  1680.32508302
0.42500002 22048.66985540  2113.36510578
0.42600002 22133.31731110  1842.93075324
0.42700002 22221.14114154  1426.59732889
0.42800002 22310.18676200  1579.22664478
0.42900002 22401.87694501  2022.88958399
0.43000002 22494.82942705  1454.29079137
0.43100002 22588.06475616  1902.81866523
0.43200002 22683.92509036  2357.31360710
0.43300002 22780.39387746  1779.60445404
0.43400002 22878.52835920  1642.10645080
0.43500002 22977.09066614  1652.97198085
0.43600002 23077.38347702  1663.99481446
0.43700002 23177.77575657  2131.89191512
0.43800002 23278.52396279  1686.17996315
0.43900002 23380.89673813  1697.45318363
0.44000002 23483.03392430  1708.74304448
0.44100002 23585.83029304  2658.35905831
0.44200002 23688.76766892  1731.53055482
0.44300002 23792.09415511  2376.83031873
0.44400002 23895.12381386  2073.49946721
0.44500002 23997.71531571  1765.99195378
0.44600002 24100.07724810  1615.91025606
0.44700002 24203.10067806  1789.09328691
0.44800002 24304.68055694  1800.61234440
0.44900002 24406.43526336  1976.92135002
0.45000002 24507.97488077  2486.94686889
0.45100002 24607.79669298  2168.93130331
0.45200002 24707.43164425  2014.64407175
0.45300002 24805.82279374  2027.13193478
0.45400002 24903.46246205  2719.45822974
0.45500002 25000.32980519  1881.02490369
0.45600002 25095.64165787  2064.36758061
0.45700002 25190.15973895  2076.67686730
0.45800002 25282.82778240  1740.72277532
0.45900002 25374.25791080  1750.82387882
0.46000002 25464.63537410  2113.05554349
0.46100002 25552.69813061  1947.88227082
0.46200002 25639.79338140  2136.82048168
0.46300002 25725.06637945  2327.60411633
0.46400002 25808.02760560  1980.12101189
0.46500002 25890.27300129  2714.59525284
0.46600002 25969.55627997  1819.16750363
0.46700002 26046.96956834  1828.49735036
0.46800002 26122.99914360  2572.85430760
0.46900002 26196.26618437  2216.20422424
0.47000002 26267.53089964  2598.12160443
0.47100002 26336.87259204  2610.51093505
0.47200002 26403.94405643  2435.36789547
0.47300002 26468.61110865  2822.87750853
0.47400002 26530.35477006  1890.28786696
0.47500002 26590.16923797  2278.24580829
0.47600002 26648.23711617  2097.34960164
0.47700002 26702.56737139  2106.03158840
