# SAXS profile: number of points = 501, q_min = 0, q_max = 0.5, delta_q = 0.001
#    q    intensity    error
0.00000000 1646666.22097350 444.59987966
0.00100000 1646585.60815444 592.77083301
0.00200000 1646343.70258014 740.85468962
0.00300000 1645940.73612497 1185.07737223
0.00400000 1645376.58303203 1357.43573258
0.00500000 1644651.71257258 2516.31721983
0.00600000 1643766.06688032 2416.33621669
0.00700000 1642720.19755702 2759.77004659
0.00800000 1641513.91726473 2659.25265824
0.00900000 1640148.41712759 2706.24500395
0.01000000 1638623.14742121 2974.10114099
0.01100000 1636939.28659748 3241.13992858
0.01200000 1635096.80810856 4144.97059029
0.01300000 1633096.87980326 3772.45395873
0.01400000 1630939.46019237 4403.53673773
0.01500000 1628626.01122299 5081.31338128
0.01600000 1626155.82590425 5390.70680386
0.01700000 1623531.31354957 7890.36253780
0.01800000 1620752.31513689 5081.05873659
0.01900000 1617819.39905878 6309.49594103
0.02000000 1614733.81521921 5595.05292283
0.02100000 1611497.65875039 6381.53101798
0.02200000 1608109.33936093 7212.37071471
0.02300000 1604572.12043200 8664.68984474
0.02400000 1600885.43030036 6003.32063736
0.02500000 1597051.85554138 6228.50252107
0.02600000 1593071.48495732 6451.93980918
0.02700000 1588946.24144444 7340.93197170
0.02800000 1584676.11311003 13097.34867549
0.02900000 1580263.46962904 9244.54172179
0.03000000 1575709.82811179 8792.46124501
0.03100000 1571015.21447311 7540.87337645
0.03200000 1566181.43997432 9303.11818193
0.03300000 1561211.87697218 8758.39903358
0.03400000 1556105.00821107 13888.23783909
0.03500000 1550863.90550939 11724.53166707
0.03600000 1545489.61576069 9435.21454026
0.03700000 1539984.22191876 8777.91047089
0.03800000 1534348.96584805 14361.50698498
0.03900000 1528585.97264377 9171.51626060
0.04000000 1522695.26213720 10301.03392570
0.04100000 1516680.53407565 10510.59658848
0.04200000 1510542.68390922 12665.90099219
0.04300000 1504282.52329547 12906.74464898
0.04400000 1497903.64916865 11121.93511160
0.04500000 1491407.51156481 11319.78353875
0.04600000 1484793.93138773 14654.91678406
0.04700000 1478067.00099052 13834.70777269
0.04800000 1471227.38076610 11894.87392694
0.04900000 1464278.61874665 10982.09015179
0.05000000 1457220.39735045 16721.60483826
0.05100000 1450057.14005024 12441.49084121
0.05200000 1442787.21748352 12617.17480487
0.05300000 1435416.72928361 18603.00167875
0.05400000 1427945.33364446 18848.87928310
0.05500000 1420375.76753373 14317.38840464
0.05600000 1412708.89457359 12078.66161224
0.05700000 1404949.97320585 13445.37187119
0.05800000 1397097.83620816 18546.47464164
0.05900000 1389155.11058059 13752.63623708
0.06000000 1381125.28896406 15164.75638130
0.06100000 1373010.20868730 21707.29241376
0.06200000 1364811.51739834 14187.21638652
0.06300000 1356532.72019899 14324.98619507
0.06400000 1348172.21521650 14459.14768440
0.06500000 1339736.14286194 13263.38843477
0.06600000 1331225.84524816 16054.58444486
0.06700000 1322642.13649373 17538.23555068
0.06800000 1313988.87495202 16319.74259082
0.06900000 1305268.01877466 16446.37780656
0.07000000 1296480.72650061 17949.77649896
0.07100000 1287629.81150123 19468.96366178
0.07200000 1278717.97423123 14001.96247378
0.07300000 1269747.28940387 18322.45424461
0.07400000 1260720.72071770 15601.41965003
0.07500000 1251639.18603239 21403.03108437
0.07600000 1242504.36193167 15786.01865840
0.07700000 1233321.17155396 23087.77341404
0.07800000 1224089.78492689 18857.10402113
0.07900000 1214812.55445625 20408.85187212
0.08000000 1205493.27392326 29293.48793052
0.08100000 1196132.87877475 17654.92211905
0.08200000 1186733.16238023 16252.31142144
0.08300000 1177297.91035849 17800.74524005
0.08400000 1167828.00530634 16378.78854322
0.08500000 1158326.47428635 23907.85955163
0.08600000 1148794.69316348 17990.12573960
0.08700000 1139236.63850796 21053.09406823
0.08800000 1129652.02466550 15080.85523754
0.08900000 1120045.89915534 15120.62034881
0.09000000 1110417.94182834 16672.92617977
0.09100000 1100771.06580145 19747.83384825
0.09200000 1091107.28985571 15220.94740867
0.09300000 1081431.47709097 19822.63990659
0.09400000 1071740.43471039 22908.45286857
0.09500000 1062039.70939066 18352.04704087
0.09600000 1052330.63774340 18373.69379871
0.09700000 1042617.34527318 21457.06597448
0.09800000 1032899.78434188 24541.70002986
0.09900000 1023181.00329729 24556.34523384
0.10000000 1013461.00677551 16889.32847217
0.10100000 1003742.97474469 18428.72188305
0.10200000 994029.56191217 23036.63618087
0.10300000 984321.74029857 15355.41987099
0.10400000 974622.70576065 19955.40083925
0.10500000 964934.97509731 19945.20687367
0.10600001 955255.98387688 21464.60296770
0.10700001 945593.07892099 16850.46945932
0.10800001 935944.59010716 21423.77267579
0.10900001 926314.88337913 18341.03555414
0.11000001 916703.30471201 19842.04396445
0.11100001 907112.84928374 16763.44624388
0.11200001 897545.27812077 21298.75045249
0.11300001 888001.71442273 16703.31303470
0.11400001 878485.07132825 22730.80229089
0.11500001 868996.46999208 18144.64714783
0.11600001 859537.27099287 21118.83174281
0.11700001 850109.84970228 15046.94504837
0.11800001 840713.80817429 18008.09061924
0.11900001 831351.91604422 20950.06927110
0.12000001 822025.05529358 23871.60873020
0.12100001 812737.74553464 17847.72173271
0.12200001 803488.15113298 16306.79279548
0.12300001 794279.39847645 14773.59750771
0.12400001 785111.37370540 20609.17453082
0.12500001 775985.59671079 16132.74131580
0.12600001 766906.19602490 20453.38921182
0.12700001 757871.45197267 16006.24581998
0.12800001 748883.29925376 21736.33878526
0.12900001 739944.07033731 15871.80105681
0.13000001 731054.46058446 17238.26499310
0.13100001 722214.44814557 17159.81609681
0.13200001 713426.65970186 15656.14878519
0.13300001 704692.01247250 16997.17214213
0.13400001 696010.87183844 21141.33122881
0.13500001 687385.31668338 18229.45945793
0.13600001 678815.71804212 16739.59639620
0.13700001 670303.68430356 18037.87299515
0.13800001 661848.00891667 15179.48480030
0.13900001 653452.58519106 16467.00592337
0.14000001 645116.27328703 17737.47277054
0.14100001 636842.02445201 20347.10364087
0.14200001 628628.51322171 18877.71514242
0.14300001 620478.18211405 17423.02817557
0.14400001 612388.58366332 13319.45232295
0.14500001 604365.30846203 17206.28114357
0.14600001 596406.10001345 18411.05717594
0.14700001 588513.03705971 15677.98804690
0.14800001 580683.65116055 16871.76428046
0.14900001 572922.08780985 19336.12137588
0.15000001 565227.36839951 21764.08084712
0.15100001 557599.92846533 15255.93476266
0.15200001 550041.79575145 20197.53569305
0.15300001 542552.41150995 15039.55355676
0.15400001 535130.26583021 14930.13512123
0.15500001 527779.35262215 13585.04117761
0.15600001 520496.70472666 20838.08655718
0.15700001 513287.05794598 18247.35577120
0.15800001 506145.16742611 13278.71909416
0.15900001 499076.13814197 16768.95903308
0.16000001 492075.98793412 14260.36280345
0.16100001 485149.88358689 15325.88554596
0.16200001 478294.73295372 14033.16812731
0.16300001 471510.96237824 13919.00426649
0.16400001 464799.85220327 11503.79688512
0.16500001 458159.95161391 13689.82000054
0.16600001 451592.92988615 18099.84548439
0.16700001 445097.57455312 13459.75128998
0.16800001 438675.15987340 16680.62374178
0.16900001 432325.97616782 11024.31291283
0.17000001 426047.70221074 15299.37370882
0.17100001 419842.63591216 18414.29888065
0.17200001 413709.84814681 12882.92527966
0.17300001 407648.95143308 13831.52957531
0.17400001 401661.52064073 10543.61541475
0.17500001 395744.85292252 12537.19753269
0.17600001 389899.02967511 14492.54761749
0.17700001 384127.99314105 10256.21790127
0.17800001 378426.41545057 11176.82470824
0.17900001 372796.45580391 11072.05526035
0.18000001 367238.51683675 10967.57882338
0.18100001 361751.86654748 10863.40906557
0.18200001 356334.19134183 15650.19842302
0.18300001 350987.28439835 9687.24950701
0.18400001 345710.67678088 13430.86042742
0.18500001 340504.12657855 12350.08525445
0.18600001 335366.99279653 9407.04459236
0.18700001 330298.21932071 11177.29226988
0.18800001 325297.09908426 10144.39051423
0.18900001 320367.37844559 12782.65900393
0.19000001 315501.36098459 12654.76018701
0.19100001 310705.54070033 9843.15199448
0.19200001 305975.19835527 11515.37713422
0.19300001 301313.08561659 9645.03232634
0.19400001 296715.23813762 13018.38168846
0.19500001 292183.58442678 9449.21756689
0.19600001 287716.22106188 9352.21620757
0.19700001 283314.94139859 12621.68123578
0.19800001 278976.45916849 13323.91631956
0.19900001 274702.06745914 14009.80610252
0.20000001 270488.91112896 8970.76516156
0.20100001 266339.90866700 8877.10957542
0.20200001 262251.30246829 7985.55253758
0.20300001 258224.63597317 8691.84165767
0.20400001 254259.03058547 9382.15867206
0.20500001 250352.35861817 11603.83237043
0.20600001 246504.99201944 13011.76661879
0.20700001 242716.75969149 8330.03958637
0.20800001 238986.25157085 12736.77287954
0.20900001 235315.63406543 9636.17567049
0.21000001 231698.91663687 9533.25237568
0.21100001 228140.05291392 7254.85402562
0.21200001 224635.80030730 7894.82557502
0.21300001 221186.40867620 9940.11767583
0.21400001 217791.68108462 8428.53845645
0.21500001 214451.67436711 8337.88149359
0.21600001 211163.04593978 6873.35747030
0.21700001 207927.27104838 8838.98871017
0.21800001 204743.44037979 7398.40456792
0.21900001 201609.83276544 7318.43727541
0.22000001 198526.03690129 9871.70765168
0.22100001 195493.35099473 7160.92178553
0.22200001 192508.91622244 8371.25061776
0.22300001 189572.58107667 8917.49463551
0.22400001 186683.22669595 7560.67103870
0.22500001 183842.89770693 6855.50197967
0.22600001 181046.88414834 7397.57603612
0.22700001 178297.30386324 8536.87531267
0.22800001 175592.24475678 6634.75328189
0.22900001 172930.79014141 5966.11254202
0.23000001 170313.54809658 6491.50119270
0.23100001 167740.27739510 7004.83431530
0.23200001 165207.22393265 5773.99274952
0.23300001 162717.09287573 6282.50725306
0.23400001 160266.97866119 7344.23464450
0.23500001 157856.81524967 6146.94467655
0.23600001 155486.67017138 6080.30652463
0.23700001 153155.72324366 7107.95745193
0.23800001 150862.52969251 6490.10633435
0.23900001 148607.12201882 6954.81363944
0.24000001 146388.32140010 5291.93806892
0.24100001 144206.98390365 6281.65651597
0.24200001 142061.36309983 7249.39170189
0.24300001 139950.05624661 9219.91014165
0.24400001 137873.60471591 5573.54073429
0.24500001 135830.43807316 6014.57208240
0.24600001 133821.00744366 5453.87541636
0.24700001 131844.72795524 6376.01134554
0.24800001 129900.31115625 5336.95453633
0.24900001 127986.52289455 5759.39380272
0.25000001 126104.69730722 6646.97890952
0.25100001 124252.48253604 6105.76728068
0.25200001 122431.91727274 5575.54977638
0.25300001 120639.08409630 5515.61918583
0.25400001 118876.05581134 5911.11215488
0.25500001 117139.71467441 4947.98178195
0.25600001 115432.33982429 4449.91691076
0.25700001 113751.09867721 5722.81804522
0.25800001 112096.84245739 6096.94754973
0.25900001 110469.51017870 6031.63554114
0.26000001 108867.01631802 5967.00144672
0.26100001 107289.07351210 4216.46078853
0.26200001 105737.41011875 4171.34102656
0.26300001 104208.23389657 4539.31088332
0.26400001 102703.90568585 4082.48044419
0.26500001 101222.69618407 4038.78576886
0.26600001 99764.07866235  4395.10669344
0.26700001 98327.96800679  4743.34140110
0.26800001 96914.17265478  4301.53575683
0.26900001 95521.08125437  4255.46437126
0.27000001 94149.82614991  5740.78592116
0.27100001 92798.96193897  4164.81760891
0.27200001 91469.11718380  4120.22657853
0.27300001 90159.03377840  4076.09011002
0.27400001 88867.12320338  4398.92280675
0.27500001 87596.57072138  5077.09747929
0.27600001 86342.49894801  4305.03720129
0.27700001 85108.85008282  4258.84705970
0.27800001 83892.28842346  3861.98168035
0.27900001 82694.03903570  5209.72470581
0.28000001 81512.85859358  4466.49729803
0.28100001 80349.02220295  3738.64018005
0.28200001 79202.49450774  5043.21907647
0.28300001 78072.20555163  4323.63894809
0.28400001 76957.70970504  5263.90759297
0.28500001 75859.74319378  4230.69807816
0.28600001 74777.21183241  5794.48641916
0.28700001 73710.76268746  3184.30509882
0.28800001 72658.06058620  3464.69978305
0.28900001 71621.73890157  3427.10036866
0.29000001 70599.50421763  3081.66850497
0.29100001 69592.16842151  3048.13712115
0.29200001 68598.64141962  3014.91043310
0.29300001 67619.37412973  3578.41744833
0.29400001 66653.08510073  4129.15881745
0.29500001 65701.76258777  3500.59007638
0.29600001 64762.34687833  3462.19522801
0.29700001 63836.80400114  4280.25791090
0.29800001 62924.28614401  2822.15436716
0.29900001 62024.88854872  2791.12011682
0.30000001 61137.10676829  3588.44265164
0.30100001 60262.85323152  3002.89811868
0.30200001 59399.81813889  3239.66623466
0.30300001 58549.70723405  3737.81348677
0.30400001 57711.35867301  2904.32426271
0.30500001 56885.29446003  4699.86325079
0.30600001 56069.52606143  2840.20197710
0.30700001 55266.36944455  3063.96766706
0.30800001 54474.24823173  3029.85783009
0.30900001 53693.58763476  2996.10233187
0.31000001 52924.05374423  3209.57939128
0.31100001 52165.18482127  2929.59691826
0.31200001 51418.07196888  2655.48645256
0.31300001 50680.94121763  3103.19417768
0.31400001 49955.89036334  2832.49911771
0.31500001 49240.08966377  2333.98036057
0.31600002 48536.00488644  2769.46456995
0.31700002 47841.55706324  3651.26780795
0.31800002 47157.24748872  2482.12183909
0.31900002 46483.99490700  2677.47823342
0.32000002 45820.96637010  2868.16352574
0.32100002 45167.59974643  2617.91420526
0.32200002 44525.22895745  3020.14642319
0.32300002 43891.18417933  2346.42281733
0.32400002 43268.23346575  2320.25912947
0.32500002 42654.83257889  2920.14997663
0.32600002 42051.48927552  2268.88821130
0.32700002 41457.76434048  2447.66652257
0.32800002 40874.61910380  2420.59505795
0.32900002 40299.20673967  2593.25407650
0.33000002 39734.77562775  3156.53072534
0.33100002 39178.74614084  2341.32198025
0.33200002 38633.65918952  2894.62705185
0.33300002 38097.17839589  2099.53560082
0.33400002 37570.82578258  2265.52090198
0.33500002 37053.29439323  2240.98335103
0.33600002 36544.62180193  1847.33071957
0.33700002 36045.28352515  2192.99515352
0.33800002 35556.10285426  2350.43629049
0.33900002 35075.16877328  2146.60043058
0.34000002 34603.37605879  2654.94415384
0.34100002 34140.76573823  2101.70563838
0.34200002 33688.07388007  1906.57663154
0.34300002 33243.60922739  2058.44438085
0.34400002 32808.84509928  1867.64359573
0.34500002 32382.40558463  1848.71162238
0.34600002 31965.60913302  1996.57204101
0.34700002 31556.55485868  2141.42791413
0.34800002 31157.19564828  1631.07926944
0.34900002 30766.11996932  1938.26564987
0.35000002 30384.17972185  1759.69985193
0.35100002 30011.66115402  1743.07736238
0.35200002 29646.11066534  1883.71396089
0.35300002 29290.55773564  1710.86155837
0.35400002 28943.05430713  2157.70480079
0.35500002 28604.50577191  1832.97681668
0.35600002 28273.82309691  1816.87595826
0.35700002 27951.63619736  1951.30381536
0.35800002 27638.21874358  1785.98177980
0.35900002 27333.59983801  1771.21735340
0.36000002 27036.98802274  1610.45826786
0.36100002 26748.13702390  1888.15108195
0.36200002 26468.89304642  1585.35442411
0.36300002 26196.50649943  1716.39518714
0.36400002 25932.83904487  2413.69910843
0.36500002 25676.38154349  1550.59675486
0.36600002 25428.93621000  1679.83560560
0.36700002 25188.81848091  1807.54969981
0.36800002 24957.53052628  1795.81919408
0.36900002 24733.75368414  1921.81275229
0.37000002 24517.19087203  2319.44895232
0.37100002 24308.28876415  1492.04283502
0.37200002 24107.75477866  1618.59473251
0.37300002 23914.51136456  1609.92498133
0.37400002 23728.68703416  1601.68645068
0.37500002 23550.53331766  1726.72518465
0.37600002 23379.92890178  1322.13504203
0.37700002 23216.37539740  1974.55282109
0.37800002 23060.10259512  1573.16027356
0.37900002 22911.77698067  1567.16561972
0.38000002 22769.84672552  2082.07488322
0.38100002 22634.14996214  1556.32422512
0.38200002 22506.80181028  1810.22215536
0.38300002 22385.41092467  1676.21964945
0.38400002 22271.18268548  1929.24129153
0.38500002 22163.21342398  1283.25011804
0.38600002 22062.71042797  1664.96252132
0.38700002 21967.86902426  1406.38304156
0.38800002 21879.55188545  1659.67348690
0.38900002 21797.61654166  2040.25700496
0.39000002 21722.37730796  1783.62448526
0.39100002 21652.68891917  2037.08507002
0.39200002 21589.51076963  1781.78240823
0.39300002 21531.78249109  1527.03408661
0.39400002 21481.10754001  2290.96022768
0.39500002 21435.08311946  1400.56839738
0.39600002 21394.90923153  1528.88028612
0.39700002 21359.63473876  1275.17025432
0.39800002 21331.04630366  1914.99477264
0.39900002 21306.79694304  1278.40787715
0.40000002 21288.19188090  2048.77568369
0.40100002 21274.45848230  1667.70487944
0.40200002 21266.19659431  1414.09580954
0.40300002 21262.51457180  1417.35928851
0.40400002 21263.64848578  2066.82673074
0.40500002 21269.01122035  1683.86769810
0.40600002 21280.12669935  1299.15179655
0.40700002 21294.91244323  1303.24870328
0.40800002 21313.97688864  1699.89630730
0.40900002 21336.90652309  1443.44179468
0.41000002 21364.82213135  1317.14134681
0.41100002 21396.28528793  1586.74859214
0.41200002 21430.90774607  1327.64479778
0.41300002 21470.64115039  1733.32494220
0.41400002 21513.21030339  1607.03688581
0.41500002 21559.34674286  1479.83363055
0.41600002 21608.06747913  1892.21855881
0.41700002 21661.38801365  1493.98600209
0.41800002 21718.23482732  2047.48668536
0.41900002 21776.32720846  1783.48128288
0.42000002 21838.00479986  1654.88408215
0.42100002 21903.07187637  1663.75741857
0.42200002 21970.68671928  2230.46422143
0.42300002 22040.30973465  1401.76376555
0.42400002 22112.48688680  1691.60532700
0.42500002 22187.45577183  1984.88988740
0.42600002 22263.36526455  2424.14664170
0.42700002 22342.70814289  1864.72250997
0.42800002 22423.17906585  2020.10429777
0.42900002 22506.41706469  1451.66396946
0.43000002 22591.12284381  1460.51616106
0.43100002 22676.07691726  1763.29182464
0.43200002 22763.82092491  1774.21228696
0.43300002 22852.25485779  1785.21823409
0.43400002 22942.45841391  1646.69503069
0.43500002 23033.18198814  1807.64420809
0.43600002 23125.72684410  2273.83719970
0.43700002 23218.52845768  1830.54887035
0.43800002 23311.59321236  1842.08218294
0.43900002 23406.54274483  1544.83189437
0.44000002 23501.33799563  2331.92037313
0.44100002 23596.96782885  1720.92694531
0.44200002 23692.78180382  1889.26251057
0.44300002 23789.05548613  1742.78628751
0.44400002 23885.21974345  1913.20619212
0.44500002 23980.99094453  1604.32837022
0.44600002 24076.73736011  2098.64891145
0.44700002 24173.13139709  1624.43450687
0.44800002 24268.39083217  2124.81906001
0.44900002 24363.82404432  2137.92566121
0.45000002 24459.18357438  2151.06300139
0.45100002 24552.87579836  1997.62206963
0.45200002 24646.51850725  1842.20411313
0.45300002 24739.14701152  2864.05118526
0.45400002 24831.01999309  1864.18891433
0.45500002 24922.42977238  1704.69427722
0.45600002 25012.27728574  1886.05085812
0.45700002 25101.47053986  2414.25955094
0.45800002 25189.01818896  2254.54317985
0.45900002 25275.35479642  2441.59938905
0.46000002 25360.86712680  2279.81525841
0.46100002 25444.10407970  2468.58709481
0.46200002 25526.55561902  2127.38324612
0.46300002 25607.21204480  2316.94065562
0.46400002 25685.74387767  2149.89686446
0.46500002 25763.76736723  1800.88742432
0.46600002 25838.82264745  2534.01345714
0.46700002 25912.23938215  2000.94321993
0.46800002 25984.34925686  2010.79896255
0.46900002 26053.83905659  1836.79574055
0.47000002 26121.49736800  2030.03226417
0.47100002 26187.28714379  1854.06001766
0.47200002 26250.97421002  2421.25872102
0.47300002 26312.38585229  2432.05393960
0.47400002 26371.00829288  2442.61475890
0.47500002 26427.84081978  2641.72709356
0.47600002 26483.01639582  2652.80387811
0.47700002 26534.56431920  2663.53969261
