# SAXS profile: number of points = 501, q_min = 0, q_max = 0.5, delta_q = 0.001
#    q    intensity    error
0.00000000 1664650.74656090 324.60689558
0.00100000 1664569.68208670 649.18219143
0.00200000 1664326.42927585 1048.52568365
0.00300000 1663921.20973650 1098.18803755
0.00400000 1663353.89574350 1497.01856305
0.00500000 1662624.98672045 1795.63505673
0.00600000 1661734.38826190 2093.78541445
0.00700000 1660682.66078279 2192.10120334
0.00800000 1659469.64121243 2688.34093227
0.00900000 1658096.50175986 2487.14485896
0.01000000 1656562.67550979 3553.32709240
0.01100000 1654869.39824486 4170.27106515
0.01200000 1653016.57141013 3868.05894669
0.01300000 1651005.42808798 3467.11155190
0.01400000 1648835.90219205 3709.88094439
0.01500000 1646509.45008642 5137.10971302
0.01600000 1644025.36817736 5449.94433914
0.01700000 1641386.09817609 4874.91693027
0.01800000 1638591.42894851 5136.98436091
0.01900000 1635642.01177807 7851.08201080
0.02000000 1632539.02944712 6170.99781046
0.02100000 1629284.59548935 6451.96729066
0.02200000 1625877.04890469 5609.27607356
0.02300000 1622319.83753998 6424.38684909
0.02400000 1618612.22471962 6676.77573141
0.02500000 1614756.94280375 6297.55236455
0.02600000 1610753.87779200 7175.90885378
0.02700000 1606605.19301580 9446.83896761
0.02800000 1602310.71622599 8364.06232227
0.02900000 1597872.88067361 10066.59961044
0.03000000 1593293.14909898 8890.57618063
0.03100000 1588571.64524717 11437.71637207
0.03200000 1583710.21562915 8623.30252127
0.03300000 1578712.11405412 8856.57536814
0.03400000 1573575.69835291 9913.52735704
0.03500000 1568304.39139392 8468.84410460
0.03600000 1562899.09014859 9541.49938631
0.03700000 1557361.79902962 9764.65893151
0.03800000 1551693.86207928 14523.85522122
0.03900000 1545897.42155716 13913.07743833
0.04000000 1539972.29885575 13259.16210756
0.04100000 1533922.39091498 9663.71151084
0.04200000 1527748.63373884 10839.37705925
0.04300000 1521451.84659219 11045.74091898
0.04400000 1515035.52753410 14317.08640011
0.04500000 1508501.00659805 13531.25465791
0.04600000 1501848.36419333 13764.44089770
0.04700000 1495081.59975771 13993.96442456
0.04800000 1488201.39962479 10938.28079618
0.04900000 1481211.20522635 14441.80992319
0.05000000 1474110.93691269 12404.64411176
0.05100000 1466904.77424747 11441.85777214
0.05200000 1459591.21522688 12764.12577198
0.05300000 1452176.34589132 12938.89184508
0.05400000 1444659.88250612 14302.13350377
0.05500000 1437044.49447192 13278.29174834
0.05600000 1429331.13849401 17109.09452615
0.05700000 1421524.98329842 13603.99472518
0.05800000 1413624.74293793 16263.75342689
0.05900000 1405633.43806439 15180.84184013
0.06000000 1397554.27683067 16623.90889955
0.06100000 1389389.13396637 14213.45150469
0.06200000 1381139.77134152 15662.12573912
0.06300000 1372809.46842899 13178.97151311
0.06400000 1364396.85843254 17293.73098940
0.06500000 1355908.18075070 17450.53910256
0.06600000 1347344.26266501 14894.89152067
0.06700000 1338706.74325766 16385.77130431
0.06800000 1329998.67985365 16518.58437700
0.06900000 1321222.59705144 16647.40550226
0.07000000 1312379.21774948 15374.52325590
0.07100000 1303471.87219514 15485.24656697
0.07200000 1294502.75578949 17009.76700793
0.07300000 1285474.41385092 18549.39666101
0.07400000 1276389.38992028 20103.13383336
0.07500000 1267248.99625038 14446.63923440
0.07600000 1258054.50443877 15983.58322821
0.07700000 1248811.19186853 20455.52828194
0.07800000 1239519.15957024 14688.30272973
0.07900000 1230180.68220933 16238.38576680
0.08000000 1220799.46798332 14832.71423182
0.08100000 1211376.92087125 17879.92419095
0.08200000 1201914.41654269 16460.21870695
0.08300000 1192415.54059941 15024.43651668
0.08400000 1182881.89753313 25638.96633249
0.08500000 1173315.83984985 15135.77504461
0.08600000 1163719.19015988 21261.15060246
0.08700000 1154095.79425911 16757.47171953
0.08800000 1144445.20400024 25973.18512458
0.08900000 1134772.66380511 19915.26118519
0.09000000 1125077.90452454 21500.23976545
0.09100000 1115363.84743052 15392.02181768
0.09200000 1105632.30091187 15423.57132242
0.09300000 1095888.18004754 16997.22647127
0.09400000 1086128.60376828 18572.79999731
0.09500000 1076358.76104469 21699.39364259
0.09600000 1066580.29860482 18622.49288904
0.09700000 1056797.22319853 17088.41190249
0.09800000 1047009.49983897 15548.09180364
0.09900000 1037219.85077814 17114.12834259
0.10000000 1027428.90604837 17122.10352450
0.10100000 1017639.39158685 28025.79016240
0.10200000 1007854.06774420 17128.48068697
0.10300000 998074.18393618 20240.94540237
0.10400000 988302.73181866 15565.76875844
0.10500000 978542.34513560 20226.47122560
0.10600001 968789.94661945 17103.98731237
0.10700001 959053.69282304 24858.67288776
0.10800001 949331.36422419 18625.88224264
0.10900001 939627.56101113 23255.78322957
0.11000001 929941.65690691 17031.88224793
0.11100001 920276.63569882 20098.84266978
0.11200001 910634.01669698 20065.82150256
0.11300001 901015.35392586 23111.04491628
0.11400001 891423.21445076 15377.05117330
0.11500001 881859.02790139 15344.34780802
0.11600001 872323.88621417 16840.21341640
0.11700001 862820.41415900 15271.92204984
0.11800001 853347.78666611 16755.48458034
0.11900001 843909.19204305 18228.43940672
0.12000001 834505.59134143 18175.53263557
0.12100001 825141.29110766 22650.12950791
0.12200001 815814.49558483 15051.77815265
0.12300001 806528.51974893 18001.71740894
0.12400001 797282.76965160 17938.86316239
0.12500001 788079.43729753 17873.64248012
0.12600001 778921.99814325 17806.15771664
0.12700001 769809.29980937 19214.44102875
0.12800001 760743.16527262 16192.41903596
0.12900001 751725.60152395 23453.83987298
0.13000001 742757.50611879 16054.70425149
0.13100001 733839.11601939 17436.01821851
0.13200001 724972.89774310 26033.77798520
0.13300001 716159.67104755 18713.25308667
0.13400001 707399.61636543 20054.78006945
0.13500001 698695.25450472 15678.72225031
0.13600001 690046.83757904 21270.69477130
0.13700001 681455.70732920 18337.97394892
0.13800001 672920.94932267 14030.40245499
0.13900001 664446.73747466 16744.05857398
0.14000001 656031.36780001 15262.57049166
0.14100001 647677.98285977 13795.54168555
0.14200001 639385.40128160 17829.26275566
0.14300001 631156.08191392 21812.75521980
0.14400001 622987.28519456 21679.95854741
0.14500001 614885.01630253 16159.17899069
0.14600001 606846.56896000 16057.16097217
0.14700001 598874.65987457 17283.52349936
0.14800001 590966.32040856 17170.52724955
0.14900001 583125.70126902 15744.39467710
0.15000001 575352.00458146 20850.75762983
0.15100001 567645.85285781 18119.25647818
0.15200001 560009.03563943 16707.87036670
0.15300001 552440.98241800 16589.80348487
0.15400001 544940.18227019 19004.78975353
0.15500001 537510.78846672 13835.52834807
0.15600001 530149.71892395 14982.03176387
0.15700001 522861.75570824 13631.00661465
0.15800001 515641.52619763 18447.07647040
0.15900001 508494.47419127 12203.86795662
0.16000001 501416.47727827 15741.97104721
0.16100001 494412.40869364 12014.22209838
0.16200001 487479.59149013 13110.76423203
0.16300001 480618.29666182 14187.85278723
0.16400001 473830.01117328 14072.75199622
0.16500001 467112.82065589 11631.10978345
0.16600001 460468.97477706 19609.07221668
0.16700001 453896.68918432 13725.83652900
0.16800001 447397.39637727 18146.43925387
0.16900001 440971.80413224 13493.73784359
0.17000001 434617.41061605 14492.31824132
0.17100001 428336.33655864 12156.18580557
0.17200001 422127.51250179 12049.63041338
0.17300001 415991.18713495 16286.05574543
0.17400001 409928.24442289 12912.74030914
0.17500001 403936.43743339 11730.31469706
0.17600001 398015.75800604 11624.05076156
0.17700001 392170.00727067 12565.12762641
0.17800001 386394.06505857 13487.08547789
0.17900001 380689.73978778 13362.21049770
0.18000001 375058.01586885 12219.39073419
0.18100001 369497.92051883 10087.29370665
0.18200001 364006.60019429 10991.17981207
0.18300001 358586.77945736 9896.99558055
0.18400001 353237.23144499 10782.56699923
0.18500001 347958.18241673 14562.05062208
0.18600001 342748.98762317 11536.93146844
0.18700001 337608.15476620 9520.55041420
0.18800001 332535.35165674 11312.85319785
0.18900001 327534.23929058 14002.08939124
0.19000001 322597.32441948 10166.65515944
0.19100001 317730.87840204 10065.71470338
0.19200001 312930.09477313 15400.85534197
0.19300001 308198.06208187 9865.42043341
0.19400001 303530.56348906 11541.75022206
0.19500001 298929.62597144 13182.79712830
0.19600001 294393.17886371 12179.04638513
0.19700001 289923.25474262 10332.86528733
0.19800001 285516.54890676 8522.66938764
0.19900001 281174.28873793 10965.79777902
0.20000001 276893.56108299 9183.17538732
0.20100001 272677.41490192 8262.12606202
0.20200001 268521.95290141 8994.14323753
0.20300001 264428.88369483 8091.52422350
0.20400001 260397.00768796 9608.65003785
0.20500001 256424.71803152 7923.52416169
0.20600001 252512.19222919 10976.70551505
0.20700001 248658.96477456 8533.97607446
0.20800001 244863.99195486 11514.72976598
0.20900001 241129.24214283 9114.68578386
0.21000001 237448.77310594 9018.30482888
0.21100001 233826.62382734 10409.96178491
0.21200001 230259.50139121 8828.14970069
0.21300001 226747.59252196 9462.17748327
0.21400001 223290.76446210 7201.12749435
0.21500001 219889.09410470 7124.40698582
0.21600001 216539.20871600 11277.36252311
0.21700001 213242.74868913 6973.03821182
0.21800001 209998.48303203 7588.29554314
0.21900001 206804.80523735 8189.47067461
0.22000001 203661.39520216 8776.78824123
0.22100001 200569.51419744 7346.86165244
0.22200001 197526.49708794 7267.98780401
0.22300001 194531.99242742 8497.15783102
0.22400001 191584.63356708 7112.57985751
0.22500001 188686.97210082 7675.78638803
0.22600001 185834.00980455 6327.64833307
0.22700001 183027.96331351 10015.29062613
0.22800001 180266.75212979 11765.11013412
0.22900001 177549.79710256 8575.65560560
0.23000001 174877.34335133 6665.45025706
0.23100001 172249.27428186 8391.98503989
0.23200001 169662.08985773 7115.62838516
0.23300001 167118.07753303 7039.01375860
0.23400001 164614.49183240 8123.72555614
0.23500001 162151.50306963 5740.16348015
0.23600001 159728.88651175 9085.37949450
0.23700001 157345.83614951 6740.69593947
0.23800001 155001.06949056 7223.82518529
0.23900001 152694.57009679 8795.20765358
0.24000001 150425.09245753 6525.44081946
0.24100001 148193.59703151 5379.42782670
0.24200001 145998.20662195 7450.28883633
0.24300001 143837.71223187 5790.90656838
0.24400001 141712.34144585 6249.51455339
0.24500001 139620.83543636 5667.20997845
0.24600001 137563.37260938 5606.39551591
0.24700001 135539.78715193 5042.08032057
0.24800001 133548.32956130 5985.63641410
0.24900001 131587.86659496 6414.90879998
0.25000001 129659.94816268 6346.20646305
0.25100001 127762.21924830 5795.29453927
0.25200001 125896.46709440 5255.54826749
0.25300001 124058.76463525 5671.96698747
0.25400001 122251.47487604 4676.11913524
0.25500001 120471.23644905 6939.14354777
0.25600001 118720.52024179 6865.01440778
0.25700001 116996.48840400 9055.52863092
0.25800001 115299.63113254 5823.20814587
0.25900001 113630.38312328 4874.74366664
0.26000001 111986.20407113 5261.11211619
0.26100001 110367.24772866 5204.91964916
0.26200001 108774.75769052 5149.39727272
0.26300001 107205.50505402 4245.33820102
0.26400001 105661.24498171 6300.05203014
0.26500001 104140.72338377 4570.73656560
0.26600001 102643.21533538 6166.29145306
0.26700001 101168.60349694 7727.25830075
0.26800001 99716.76849757  6437.71487884
0.26900001 98286.06476701  4776.70297372
0.27000001 96877.70016227  5119.50230734
0.27100001 95490.10764379  4675.19589148
0.27200001 94123.97558004  4239.81468065
0.27300001 92778.04210582  5338.44879541
0.27400001 91450.64671841  5658.50903349
0.27500001 90145.04327531  4478.40596186
0.27600001 88856.41555338  5537.97636145
0.27700001 87588.61983646  5843.91299206
0.27800001 86338.33267273  3613.25939336
0.27900001 85106.67780983  3931.92870090
0.28000001 83892.52750787  3536.07020181
0.28100001 82696.21176874  5247.07488507
0.28200001 81517.53274328  4152.50331448
0.28300001 80355.58817083  3423.14821810
0.28400001 79209.73117656  5417.94586891
0.28500001 78080.91741042  4689.54012163
0.28600001 76967.92215381  3644.81612611
0.28700001 75871.37183647  4588.70078586
0.28800001 74788.92045048  3566.30984049
0.28900001 73723.48921889  3527.66912610
0.29000001 72672.17629386  3489.35470992
0.29100001 71636.25116829  3765.20153963
0.29200001 70614.60058155  4034.56539520
0.29300001 69607.61290699  3990.60463686
0.29400001 68613.88652474  3339.78108468
0.29500001 67635.54881817  3903.92406258
0.29600001 66669.49372158  3564.15130307
0.29700001 65717.53510285  4406.36093723
0.29800001 64779.14429633  2905.34475923
0.29900001 63854.23735994  3735.47306239
0.30000001 62941.12613979  3410.15037569
0.30100001 62042.05114649  3091.55555498
0.30200001 61154.58520814  3335.37123515
0.30300001 60280.22349088  3848.28964984
0.30400001 59418.10728568  2718.37853701
0.30500001 58568.56840907  4032.44612587
0.30600001 57729.65801810  3455.98614087
0.30700001 56903.70420667  3680.53176234
0.30800001 56089.17002505  3639.62641524
0.30900001 55286.44962498  2827.90203220
0.31000001 54495.12075533  2542.19750360
0.31100001 53714.71403848  3519.38823043
0.31200001 52946.35098304  2734.41442598
0.31300001 52188.39380358  2949.68815743
0.31400001 51442.81532035  2673.74045287
0.31500001 50706.66259190  3124.54469685
0.31600002 49982.68674507  3327.34761416
0.31700002 49268.64999829  2350.11471619
0.31800002 48565.01017400  4182.90452434
0.31900002 47872.69051533  2527.67817889
0.32000002 47190.95952652  2953.91825143
0.32100002 46519.07528699  2920.93287558
0.32200002 45858.55077195  2444.03157912
0.32300002 45206.62030642  2416.74603602
0.32400002 44566.19267702  2824.38259464
0.32500002 43935.34294275  2792.96988312
0.32600002 43314.80429462  2549.50950151
0.32700002 42704.29896105  2521.26193005
0.32800002 42104.61426831  2701.22165629
0.32900002 41512.92629348  2260.37894372
0.33000002 40932.39741357  2845.21107895
0.33100002 40360.57144589  2009.95655319
0.33200002 39799.91190728  2186.80626330
0.33300002 39248.15158816  2556.23223399
0.33400002 38706.59400596  2528.50837318
0.33500002 38174.40219468  2308.78795407
0.33600002 37651.05361210  1903.26085022
0.33700002 37137.38725535  2824.29843452
0.33800002 36633.99072059  2794.25777454
0.33900002 36139.09337833  2396.02200445
0.34000002 35653.66972596  2553.15940999
0.34100002 35177.59019207  1985.07150855
0.34200002 34711.57342078  1964.50159079
0.34300002 34253.95526025  2828.00668022
0.34400002 33806.30000272  2099.37132959
0.34500002 33367.14110098  1731.75470516
0.34600002 32937.98181188  1885.86423795
0.34700002 32516.63925789  2206.57924455
0.34800002 32105.15969616  1680.70518969
0.34900002 31702.18605164  1664.36484654
0.35000002 31308.50448011  1978.07140674
0.35100002 30924.46562966  2122.65542135
0.35200002 30547.50036351  1779.23924294
0.35300002 30180.77534049  1762.85917113
0.35400002 29822.13569307  2382.04320131
0.35500002 29472.71206910  1731.22718894
0.35600002 29131.40571691  2339.98027504
0.35700002 28798.63981956  2319.73054734
0.35800002 28474.87154469  1993.38347690
0.35900002 28160.01693541  3193.34607173
0.36000002 27853.32090052  1659.08313802
0.36100002 27554.51438964  2244.31530334
0.36200002 27265.55839878  1781.53167016
0.36300002 26983.42084182  1473.29484775
0.36400002 26710.15043808  1462.38080575
0.36500002 26444.39996693  2177.69644043
0.36600002 26187.70048052  1585.79627771
0.36700002 25938.48966943  1718.16563709
0.36800002 25698.20692846  2560.31247756
0.36900002 25465.51384616  1837.33691103
0.37000002 25240.14458672  1825.99834662
0.37100002 25022.64356316  1954.76900775
0.37200002 24813.57646437  2637.80737100
0.37300002 24611.92124693  1518.80173209
0.37400002 24417.78277040  1648.20041508
0.37500002 24231.41403045  1366.65181606
0.37600002 24052.68691080  1768.23336201
0.37700002 23881.18053850  1489.46930075
0.37800002 23716.96618800  1483.14055083
0.37900002 23560.76466555  2014.44547433
0.38000002 23411.16252187  1873.12720211
0.38100002 23267.85051089  1466.57268718
0.38200002 23132.91030845  1727.68148823
0.38300002 23004.10997640  1722.54783664
0.38400002 22882.49007558  1850.04941026
0.38500002 22767.18318101  1450.04196549
0.38600002 22659.47561971  1578.45914645
0.38700002 22557.49199002  1312.84609602
0.38800002 22462.03681945  1572.79189261
0.38900002 22373.13405857  1570.59408532
0.39000002 22290.93845923  1307.36360257
0.39100002 22214.30608506  1436.82138565
0.39200002 22144.49022259  1435.95953651
0.39300002 22079.88200967  1957.38163289
0.39400002 22022.57181476  1696.28867440
0.39500002 21969.85725871  1827.01341619
0.39600002 21923.09081290  1566.62414371
0.39700002 21881.33625510  2090.10533811
0.39800002 21846.31146803  2092.00288529
0.39900002 21815.60641508  1963.40467038
0.40000002 21790.56969641  1572.84339521
0.40100002 21770.47987802  1575.31199861
0.40200002 21755.90390863  1315.14445359
0.40300002 21745.99801676  1449.58829648
0.40400002 21741.00128821  1849.07224717
0.40500002 21740.17923211  2118.36316475
0.40600002 21745.10091322  1725.80001575
0.40700002 21753.78244818  1996.99732336
0.40800002 21766.76495323  2003.08663973
0.40900002 21783.71189830  1339.69834522
0.41000002 21805.62190099  1478.74831928
0.41100002 21831.18661770  1753.91761597
0.41200002 21859.76996647  2031.31922038
0.41300002 21893.66483267  1359.59665053
0.41400002 21930.32886524  2047.74455482
0.41500002 21970.62700174  1782.25734683
0.41600002 22013.47370363  1514.63712995
0.41700002 22060.93296608  1383.22056252
0.41800002 22112.03126111  2362.56009204
0.41900002 22164.33415576  1815.25905337
0.42000002 22220.28685868  1683.85341794
0.42100002 22279.69435462  1410.30471947
0.42200002 22341.48430195  1559.32397074
0.42300002 22405.43310583  2137.47841958
0.42400002 22471.86142712  1719.09748064
0.42500002 22541.27528991  1728.46507114
0.42600002 22611.51609046  1882.74797649
0.42700002 22685.16857457  1747.66546980
0.42800002 22760.02961347  1757.52957004
0.42900002 22837.58035262  1767.62880306
0.43000002 22916.68860127  2074.18958359
0.43100002 22996.03369478  1788.17166484
0.43200002 23078.18966596  1498.92848984
0.43300002 23161.02340660  1809.33923426
0.43400002 23245.73869256  1668.46297372
0.43500002 23330.86611396  1678.42258778
0.43600002 23417.89177201  2149.06002976
0.43700002 23505.10175290  2470.85641336
0.43800002 23592.61810986  1864.28877139
0.43900002 23682.08715331  1875.62139143
0.44000002 23771.30660332  2201.46080886
0.44100002 23861.43467619  1898.41583280
0.44200002 23951.71928146  2546.54691469
0.44300002 24042.44910647  3842.94524730
0.44400002 24133.14143283  2577.41962717
0.44500002 24223.40398968  1782.60038408
0.44600002 24313.62176582  1793.25125832
0.44700002 24404.60549157  1803.98852343
0.44800002 24494.31942361  1979.63098963
0.44900002 24584.29777648  1825.38419641
0.45000002 24674.18935644  2003.05078688
0.45100002 24762.44821990  1846.78347576
0.45200002 24850.59763977  1857.45800861
0.45300002 24937.66717574  2547.38282273
0.45400002 25024.17081693  2220.26966096
0.45500002 25110.17404337  1717.53598597
0.45600002 25194.55491349  2417.92154964
0.45700002 25278.29684711  1910.28098327
0.45800002 25360.45921617  1920.67446976
0.45900002 25441.31149925  2808.72092263
0.46000002 25521.38178600  2470.72508780
0.46100002 25599.20238866  2306.23225250
0.46200002 25676.24869423  2139.85866760
0.46300002 25751.55089922  2330.00043579
0.46400002 25824.71924713  1981.40167815
0.46500002 25897.33244148  2534.31307284
0.46600002 25967.05068674  1818.99198682
0.46700002 26035.07332558  2375.96090430
0.46800002 26101.86737174  2203.51974796
0.46900002 26165.99398563  2398.11346244
0.47000002 26228.33371514  2594.24461072
0.47100002 26288.75174591  2605.74119656
0.47200002 26347.17726460  2243.19877863
0.47300002 26403.31814071  2440.45881142
0.47400002 26456.60402122  3204.55631396
0.47500002 26508.18595824  2649.75839398
0.47600002 26558.09051415  2090.25461299
0.47700002 26604.36739953  2098.28655626
