# SAXS profile: number of points = 501, q_min = 0, q_max = 0.5, delta_q = 0.001
#    q    intensity    error
0.00000000 1664650.74656090 274.66737318
0.00100000 1664569.68126601 649.18219111
0.00200000 1664326.42101035 898.73629580
0.00300000 1663921.19771159 1297.85858045
0.00400000 1663353.86513476 1372.26699088
0.00500000 1662624.94140155 1795.63500779
0.00600000 1661734.31001198 2617.23164482
0.00700000 1660682.56969184 2590.66491639
0.00800000 1659469.50737349 2464.31232249
0.00900000 1658096.35005445 3482.00248396
0.01000000 1656562.48431753 3553.32668229
0.01100000 1654869.15860608 2978.76461518
0.01200000 1653016.32566798 3223.38197638
0.01300000 1651005.10630291 3813.82196377
0.01400000 1648835.55482128 5193.83222793
0.01500000 1646509.03012654 4346.78403309
0.01600000 1644024.92984221 5030.71651021
0.01700000 1641385.62148016 4431.74137680
0.01800000 1638590.79414350 7004.97596017
0.01900000 1635641.32713796 7360.38630424
0.02000000 1632538.35901496 8227.99370163
0.02100000 1629283.80754521 5914.30048953
0.02200000 1625876.18302444 5609.27308628
0.02300000 1622318.91667713 8176.48771223
0.02400000 1618611.21008574 7890.73000897
0.02500000 1614755.87760163 8816.56749436
0.02600000 1610752.73843988 7175.90377796
0.02700000 1606603.99105356 6747.73707148
0.02800000 1602309.39938490 8364.05544836
0.02900000 1597871.49942367 7190.42207755
0.03000000 1593291.68618969 10372.32935386
0.03100000 1588570.07742638 9150.16406700
0.03200000 1583708.53891298 7839.35762869
0.03300000 1578710.40966446 10466.85049860
0.03400000 1573573.99250566 10739.64299438
0.03500000 1568302.52848363 11009.48425835
0.03600000 1562897.17221884 9541.48767734
0.03700000 1557359.72072395 8876.95081866
0.03800000 1551691.67311182 9985.13637858
0.03900000 1545895.15212291 11130.44561074
0.04000000 1539970.00891240 11364.97919242
0.04100000 1533920.11803024 10630.06691083
0.04200000 1527746.23973178 11824.75644411
0.04300000 1521449.34800203 12049.87939551
0.04400000 1515032.94790298 13294.41473527
0.04500000 1508498.36587590 11449.50312900
0.04600000 1501845.66005258 10588.01239557
0.04700000 1495078.88017278 12917.48212546
0.04800000 1488198.66501185 12032.08676645
0.04900000 1481208.47392891 12219.97047872
0.05000000 1474108.00763025 12404.61946184
0.05100000 1466901.96573572 17162.75379862
0.05200000 1459588.34153762 12764.10064157
0.05300000 1452173.38682431 12938.86547979
0.05400000 1444656.84074128 14302.10339030
0.05500000 1437041.44634748 13278.26358367
0.05600000 1429328.13826616 17109.05861343
0.05700000 1421521.95815112 14840.68993584
0.05800000 1413621.74714467 13761.60835102
0.05900000 1405630.32810848 16445.87560699
0.06000000 1397551.37772291 14066.35527394
0.06100000 1389386.21265978 15505.55085788
0.06200000 1381136.75234753 15662.09150372
0.06300000 1372806.47924227 19768.41422537
0.06400000 1364393.89418515 21284.54574470
0.06500000 1355905.32532207 17450.50235319
0.06600000 1347341.45534904 14894.86048579
0.06700000 1338704.00337977 13654.78147350
0.06800000 1329995.99470645 13765.45918956
0.06900000 1321220.12073549 16647.37430068
0.07000000 1312377.04249522 16772.17938850
0.07100000 1303469.62161660 16892.96708738
0.07200000 1294500.58885746 14174.78211203
0.07300000 1285472.50819536 19976.24371335
0.07400000 1276387.45249841 17231.23141626
0.07500000 1267247.34221591 17335.94445409
0.07600000 1258052.92691258 15983.56318574
0.07700000 1248809.72925715 16072.18196914
0.07800000 1239518.00692548 17625.94688507
0.07900000 1230179.62523656 22143.23429286
0.08000000 1220798.88809382 17799.24862339
0.08100000 1211376.29470849 16389.92203639
0.08200000 1201914.11875365 16460.21462873
0.08300000 1192415.41472194 16526.87842369
0.08400000 1182882.00556054 19606.27016246
0.08500000 1173316.24849190 18162.93637932
0.08600000 1163719.83092047 16705.19895720
0.08700000 1154096.78757729 24374.52529820
0.08800000 1144446.54352049 16806.19828088
0.08900000 1134774.33081236 22979.18127828
0.09000000 1125079.97094611 19964.54502228
0.09100000 1115366.25468452 16931.26054156
0.09200000 1105634.89786234 18508.32905986
0.09300000 1095891.34277129 16997.27552512
0.09400000 1086132.01027425 23216.07281071
0.09500000 1076362.68000184 20149.51031672
0.09600000 1066584.54583070 17070.68645848
0.09700000 1056801.94503557 26409.48184802
0.09800000 1047014.53431238 21767.43319181
0.09900000 1037225.59513576 20225.90005622
0.10000000 1027434.99972056 15565.64097777
0.10100000 1017646.07034987 18683.98273036
0.10200000 1007861.36067660 21800.04225683
0.10300000 998081.78288467 20241.09950906
0.10400000 988310.95768858 17122.48814748
0.10500000 978550.89646187 18670.75198294
0.10600001 968799.36526539 18659.07665299
0.10700001 959063.44976682 20197.87720255
0.10800001 949342.09208466 20178.26711688
0.10900001 939638.58649005 26356.86359155
0.11000001 929953.28278071 15483.72288711
0.11100001 920288.93325853 18553.02576785
0.11200001 910646.95552717 20066.10660970
0.11300001 901029.13596634 16948.35884547
0.11400001 891437.44728084 23065.94503444
0.11500001 881874.13558821 24551.37709085
0.11600001 872339.65293287 19902.43011890
0.11700001 862836.90206655 15272.21388582
0.11800001 853365.10941627 19802.33829666
0.11900001 843927.23817303 18228.82920315
0.12000001 834524.27438253 18175.93955223
0.12100001 825160.86745452 19630.57796150
0.12200001 815834.74904404 19567.79737769
0.12300001 806549.68790425 21002.55486255
0.12400001 797304.75574368 19434.30433695
0.12500001 788102.09614405 23832.20851038
0.12600001 778945.65391271 20774.48156882
0.12700001 769833.86513349 23649.29745141
0.12800001 760768.58623127 20609.22197230
0.12900001 751751.64151841 17590.98924063
0.13000001 742784.68100507 17514.86360366
0.13100001 733867.09066570 15983.62598813
0.13200001 725001.72762776 18802.92069240
0.13300001 716189.52408387 18714.03314655
0.13400001 707430.28169051 18623.10304350
0.13500001 698726.96971152 21381.04628125
0.13600001 690079.28593764 14181.12999467
0.13700001 681489.17467640 18338.87455528
0.13800001 672955.28421541 16837.34200505
0.13900001 664482.33695785 18140.36865442
0.14000001 656067.85905728 24976.50457222
0.14100001 647715.27463190 15175.96960037
0.14200001 639423.62290889 15087.20109413
0.14300001 631195.56131270 16360.58972092
0.14400001 623027.69617043 13550.85303090
0.14500001 614926.45123931 13466.88991740
0.14600001 606888.96506442 16058.28277314
0.14700001 598918.09054922 21273.57157992
0.14800001 591010.72440649 25097.27159598
0.14900001 583171.25413123 15745.62460443
0.15000001 575398.34192810 19549.15958939
0.15100001 567693.54316378 12943.41339487
0.15200001 560057.74666856 23135.98660660
0.15300001 552490.71165795 15315.04324986
0.15400001 544990.94500574 13938.14407628
0.15500001 537562.60215064 15094.75858076
0.15600001 530202.39193308 14983.52030317
0.15700001 522915.66516069 14871.72221907
0.15800001 515696.32482571 13529.29372037
0.15900001 508550.29654088 13425.72846238
0.16000001 501473.35357606 13321.64026656
0.16100001 494470.39117443 14418.75728727
0.16200001 487538.54217630 15496.41329460
0.16300001 480678.39849801 11824.68916127
0.16400001 473890.90109331 15247.44046250
0.16500001 467174.77522764 16285.71343331
0.16600001 460532.23096992 14997.23280960
0.16700001 453960.84241874 12583.79514599
0.16800001 447462.47223590 14746.12646879
0.16900001 441037.94694370 19118.99590277
0.17000001 434684.57863960 14494.55795917
0.17100001 428404.34258134 12158.11581658
0.17200001 422196.49358915 12051.59947861
0.17300001 416061.22338942 17374.71750925
0.17400001 409999.26547817 11838.72934978
0.17500001 404008.42373073 12798.98746825
0.17600001 398088.73735051 12683.10777100
0.17700001 392243.77706531 11520.20027651
0.17800001 386468.79410002 11414.35637287
0.17900001 380765.29772547 14392.92893385
0.18000001 375134.57257828 11203.39453924
0.18100001 369575.20066502 10089.40345474
0.18200001 364084.85657732 10993.54276366
0.18300001 358665.98748454 13858.85441109
0.18400001 353317.22205176 11765.46405013
0.18500001 348038.98624867 9710.28817507
0.18600001 342830.52205609 12501.31557738
0.18700001 337690.68326501 16188.89212057
0.18800001 332618.50112485 9429.73495241
0.18900001 327618.16783519 11204.54186935
0.19000001 322681.97397531 9244.83899120
0.19100001 317816.26875969 13729.66345915
0.19200001 313016.20593225 9968.00154891
0.19300001 308284.96384375 8971.09287176
0.19400001 303618.08344164 11545.07816842
0.19500001 299017.86753898 9670.23829318
0.19600001 294482.03595655 8701.94457374
0.19700001 290012.74612920 11197.39265721
0.19800001 285606.57351800 12788.03493362
0.19900001 281264.79099020 10125.53295418
0.20000001 276984.72569899 10856.41683686
0.20100001 272768.91551957 9091.38838395
0.20200001 268614.17607356 10633.09266243
0.20300001 264521.43614152 10522.66322706
0.20400001 260489.94436915 12015.09925193
0.20500001 256518.12345163 7926.41038931
0.20600001 252606.00778263 9412.10029487
0.20700001 248753.27898034 8537.21293815
0.20800001 244958.49033297 9215.33884194
0.20900001 241224.06259319 8358.41416397
0.21000001 237544.00076267 12029.22876727
0.21100001 233922.00257944 8926.46404042
0.21200001 230355.06973212 8095.82930846
0.21300001 226843.28820705 8738.00387483
0.21400001 223386.68947100 9365.48739884
0.21500001 219985.19956740 8553.02496355
0.21600001 216635.49784023 10577.22868213
0.21700001 213339.06774526 6976.18784510
0.21800001 210094.95756890 6901.61968245
0.21900001 206901.23582305 10241.61165748
0.22000001 203757.78401797 10807.31337531
0.22100001 200665.95208961 9355.04712876
0.22200001 197622.86393714 10576.77617803
0.22300001 194628.17986629 10463.21144437
0.22400001 191680.79641387 8409.99534034
0.22500001 188782.85842497 7039.71312356
0.22600001 185929.77590218 8230.18191950
0.22700001 183123.47258039 9394.23458762
0.22800001 180362.00615537 7434.52224530
0.22900001 177644.66699964 7354.48956159
0.23000001 174971.96116884 7275.33448946
0.23100001 172343.56055067 7796.82304805
0.23200001 169755.93849372 9492.75252951
0.23300001 167211.67574974 8216.78213495
0.23400001 164707.61880126 6967.13260481
0.23500001 162244.15407490 7466.47632366
0.23600001 159820.95232788 7954.28917357
0.23700001 157437.30344021 6744.61439838
0.23800001 155092.02044023 6672.05903492
0.23900001 152784.98006999 7150.33740548
0.24000001 150514.78225266 5441.10963580
0.24100001 148282.64592593 5382.66030172
0.24200001 146086.52774878 6922.31044481
0.24300001 143925.31898232 7901.50038589
0.24400001 141799.05298598 5732.22698811
0.24500001 139706.81044118 5670.69970406
0.24600001 137648.60279969 11219.73814495
0.24700001 135624.04273910 6558.77901713
0.24800001 133631.63731827 5989.37026794
0.24900001 131670.21740397 4937.63338624
0.25000001 129741.40481140 7327.14618336
0.25100001 127842.59831838 5315.69548956
0.25200001 125975.85204646 4780.78381134
0.25300001 124137.14583233 6148.51312396
0.25400001 122328.72978474 5146.98154920
0.25500001 120547.30144692 5554.81991348
0.25600001 118795.56703669 5495.48319112
0.25700001 117070.28462425 6795.93034398
0.25800001 115372.21444670 6275.09504066
0.25900001 113701.75265964 5764.67913260
0.26000001 112056.27970312 6580.50533693
0.26100001 110436.07959192 6510.20719998
0.26200001 108842.15969035 4293.82340295
0.26300001 107271.63877784 6796.73135457
0.26400001 105726.01935093 4202.60946806
0.26500001 104204.02146922 5820.83691471
0.26600001 102705.04237777 6170.00571281
0.26700001 101229.06325192 4883.29024235
0.26800001 99775.75194136  4831.14213761
0.26900001 98343.48809439  4381.20260193
0.27000001 96933.57453954  4334.38499065
0.27100001 95544.38570280  4677.85334538
0.27200001 94176.72281433  5399.15177445
0.27300001 92829.10371026  4196.80397735
0.27400001 91500.18640892  4529.25944159
0.27500001 90192.82334203  4480.77967569
0.27600001 88902.51392873  3693.89962856
0.27700001 87633.14499568  5481.45347890
0.27800001 86381.07252105  3976.55286171
0.27900001 85147.71083231  6437.16724358
0.28000001 83931.80671230  3537.72582036
0.28100001 82733.74812514  5249.45656699
0.28200001 81553.22856297  6231.48248943
0.28300001 80389.56633175  3767.05525660
0.28400001 79241.85870116  4065.10754377
0.28500001 78111.16274370  3350.96904031
0.28600001 76996.28657897  4309.09738235
0.28700001 75897.88823600  4262.42560508
0.28800001 74813.50726881  4540.43197106
0.28900001 73746.26136434  4170.35127755
0.29000001 72692.95114124  4442.26645451
0.29100001 71655.25090568  3452.35015205
0.29200001 70631.58770905  4035.53595478
0.29300001 69622.58129231  3377.39157836
0.29400001 68626.98992212  3644.09333736
0.29500001 67646.62231876  3303.86119044
0.29600001 66678.63228163  3267.58652964
0.29700001 65724.69874321  3231.68359019
0.29800001 64784.30670294  4358.36443976
0.29900001 63857.40520033  3160.94170705
0.30000001 62942.37539825  2841.84838376
0.30100001 62041.25811667  3372.56295088
0.30200001 61151.76372085  3335.21735123
0.30300001 60275.47434809  3298.27411247
0.30400001 59411.35270379  2989.87646636
0.30500001 58559.77581280  3225.47260447
0.30600001 57718.93143129  3721.13968554
0.30700001 56890.91325129  3416.86841164
0.30800001 56074.40171191  3118.85837087
0.30900001 55269.62495787  2827.04145044
0.31000001 54476.39059717  2541.32374168
0.31100001 53693.87432489  2764.16078112
0.31200001 52923.58878299  2733.23887210
0.31300001 52163.66895286  3439.67249361
0.31400001 51416.10872568  2915.29350278
0.31500001 50678.00038075  2402.13733178
0.31600002 49952.08877084  3325.31070692
0.31700002 49236.07350102  3053.12906236
0.31800002 48530.53340665  2786.62336015
0.31900002 47836.25582298  4133.05269880
0.32000002 47152.59669982  2724.47716632
0.32100002 46478.78258199  2469.41783551
0.32200002 45816.45767581  3551.69196720
0.32300002 45162.60579364  2633.88329460
0.32400002 44520.29382453  3038.51019740
0.32500002 43887.60832457  2360.71456356
0.32600002 43265.28072050  2758.81075578
0.32700002 42653.01989565  2937.94014953
0.32800002 42051.51441915  2282.76656834
0.32900002 41458.05131583  2257.39100104
0.33000002 40875.81261320  3044.22628852
0.33100002 40302.19330417  3612.68877886
0.33200002 39739.86156263  2183.50679696
0.33300002 39186.43350119  3533.83274048
0.33400002 38643.23396100  2718.55163790
0.33500002 38109.31001757  2304.85117901
0.33600002 37584.40920703  2089.88117293
0.33700002 37069.10312830  1879.40361761
0.33800002 36564.15465663  2417.07355804
0.33900002 36067.70270040  1839.45292483
0.34000002 35580.72174524  1819.95400346
0.34100002 35103.27627243  2160.95778967
0.34200002 34635.77042622  3207.61885108
0.34300002 34176.68108703  1763.51682761
0.34400002 33727.62509204  1919.94514929
0.34500002 33287.25917132  2245.89148265
0.34600002 32856.68361025  2052.22855549
0.34700002 32433.96465950  2200.96894603
0.34800002 32021.30421245  2179.20996139
0.34900002 31617.02126096  2157.86180326
0.35000002 31222.13140128  2301.38341459
0.35100002 30836.90799333  1953.82658300
0.35200002 30458.88285159  2257.91709273
0.35300002 30091.04831658  1757.61821542
0.35400002 29731.32389973  1741.51237991
0.35500002 29380.87494740  2196.51431510
0.35600002 29038.51976225  2332.51921038
0.35700002 28704.89901534  2003.88909517
0.35800002 28380.10095247  1986.74906128
0.35900002 28064.38050488  2121.66726666
0.36000002 27756.95431773  2104.25480650
0.36100002 27457.34373638  1490.93383551
0.36200002 27167.62370533  1627.20489891
0.36300002 26884.78068358  1614.70000434
0.36400002 26610.94107039  2039.72872966
0.36500002 26344.42843566  1590.94010859
0.36600002 26087.16633383  1436.09857470
0.36700002 25837.36104680  1711.46687681
0.36800002 25596.55310427  2408.50777843
0.36900002 25363.48094840  1829.97523711
0.37000002 25137.61441505  1398.90830846
0.37100002 24919.75453213  1390.52236876
0.37200002 24710.30697636  1797.30426306
0.37300002 24508.40899771  1649.90617188
0.37400002 24314.02331296  1641.19665137
0.37500002 24127.38817223  1632.94170885
0.37600002 23948.49992141  1625.14528165
0.37700002 23776.84313659  1482.96177668
0.37800002 23612.53738841  1745.08465836
0.37900002 23456.33232103  1470.71210620
0.38000002 23306.69843804  1465.17566672
0.38100002 23163.49657489  1327.26841662
0.38200002 23028.60595781  1719.89151744
0.38300002 22899.94124568  1450.94034606
0.38400002 22778.53774163  1973.19092535
0.38500002 22663.40652205  1443.43242977
0.38600002 22555.95897048  1833.12287237
0.38700002 22454.28078445  1829.57488499
0.38800002 22359.22948300  1435.12721236
0.38900002 22270.68330809  1433.11853877
0.39000002 22188.96643134  1561.65953142
0.39100002 22112.75810255  1560.27628564
0.39200002 22043.45940700  1689.30059169
0.39300002 21979.51344191  1558.78716715
0.39400002 21922.78601953  2078.28021311
0.39500002 21870.75503995  1299.12291092
0.39600002 21824.64412443  1299.65761918
0.39700002 21783.64379143  2080.77375354
0.39800002 21749.35551757  1301.69898940
0.39900002 21719.44380315  1694.11669691
0.40000002 21695.36137205  1826.96646770
0.40100002 21676.16499022  1960.60921626
0.40200002 21662.50873500  2095.19794412
0.40300002 21653.58604984  1574.64885215
0.40400002 21649.61583182  1709.77849133
0.40500002 21649.85860052  1582.17174149
0.40600002 21655.88345258  1454.30092216
0.40700002 21665.72593303  1723.72523690
0.40800002 21679.94987192  1463.07148643
0.40900002 21698.14881672  1467.87983700
0.41000002 21721.23671931  1740.84859935
0.41100002 21748.10892130  1478.43651452
0.41200002 21778.09103690  1618.98336439
0.41300002 21813.29628950  1490.06634014
0.41400002 21851.39079641  2176.39862645
0.41500002 21893.05383529  2049.18993608
0.41600002 21937.39339784  1509.40242426
0.41700002 21986.38357868  1516.40094727
0.41800002 22039.01739161  1800.69800131
0.41900002 22092.85867022  1391.85016218
0.42000002 22150.37794237  1958.31500668
0.42100002 22211.45194038  1546.58347189
0.42200002 22274.90254176  2402.68247652
0.42300002 22340.57459195  1705.03273365
0.42400002 22408.70938165  1571.41081985
0.42500002 22479.80378520  1436.45952994
0.42600002 22551.90241858  1733.33930203
0.42700002 22627.35078656  1597.94358827
0.42800002 22704.04699784  1753.20659225
0.42900002 22783.47287433  1910.39429104
0.43000002 22864.48474260  2217.28351298
0.43100002 22945.72892857  1635.57163553
0.43200002 23029.81031234  2094.10075094
0.43300002 23114.57296999  1655.23464882
0.43400002 23201.19861720  1665.26610966
0.43500002 23288.35749933  1675.36451789
0.43600002 23377.42985862  1992.10777981
0.43700002 23466.57530946  1695.92947798
0.43800002 23556.27248658  2171.65286345
0.43900002 23647.72801308  2028.97515967
0.44000002 23739.00257376  2198.46913254
0.44100002 23831.23240392  1580.01078326
0.44200002 23923.66905357  1907.67346074
0.44300002 24016.54240881  1919.40216027
0.44400002 24109.38666782  2092.09212725
0.44500002 24201.73193729  1781.00553767
0.44600002 24294.14796266  1628.92269809
0.44700002 24387.32649600  2294.35978548
0.44800002 24479.19312051  1978.40848176
0.44900002 24571.39254634  1990.28289058
0.45000002 24663.43032442  1835.32925457
0.45100002 24753.88332536  1678.31336900
0.45200002 24844.36577673  2025.80968144
0.45300002 24933.60517830  2037.57431174
0.45400002 25022.35011888  2390.88566717
0.45500002 25110.53181653  2404.58464071
0.45600002 25197.16096114  1899.99201232
0.45700002 25283.13180293  2258.03660834
0.45800002 25367.44390420  2095.85831470
0.45900002 25450.57196999  2634.13432374
0.46000002 25532.87759283  2471.83799691
0.46100002 25612.89378205  1774.97362322
0.46200002 25692.12227958  1962.74977457
0.46300002 25769.72330062  1972.93010940
0.46400002 25845.03635207  2523.76791939
0.46500002 25919.84445129  1811.79721302
0.46600002 25991.81459772  2184.87203864
0.46700002 26061.99030892  2012.50698704
0.46800002 26130.97829603  2022.14585128
0.46900002 26197.24830980  2400.97792139
0.47000002 26261.73016667  2412.00872148
0.47100002 26324.38339539  2050.14307600
0.47200002 26384.90342891  2246.41078441
0.47300002 26443.12008907  2256.12711293
0.47400002 26498.56290384  1888.02269639
0.47500002 26552.19362110  2843.74007161
0.47600002 26604.19779832  1903.53044269
0.47700002 26652.54449559  2675.38254328
