# SAXS profile: number of points = 501, q_min = 0, q_max = 0.5, delta_q = 0.001
#    q    intensity    error
0.00000000 1664650.74656090 349.57665678
0.00100000 1664569.67446158 649.18218846
0.00200000 1664326.39507044 1123.42035225
0.00300000 1663921.13546122 1098.18798853
0.00400000 1663353.76150320 1497.01844224
0.00500000 1662624.77893575 1645.99859630
0.00600000 1661734.07901910 2268.26711021
0.00700000 1660682.24914682 2192.10065998
0.00800000 1659469.09582034 3360.42506091
0.00900000 1658095.82262857 3482.00137637
0.01000000 1656561.83143987 3826.65799586
0.01100000 1654868.38136868 4468.14482424
0.01200000 1653015.38198694 3223.38013620
0.01300000 1651004.00187685 3467.10855686
0.01400000 1648834.26635118 3709.87726375
0.01500000 1646507.56978910 7508.07485256
0.01600000 1644023.24382205 5869.16324282
0.01700000 1641383.73063829 5761.25715298
0.01800000 1638588.70539486 6070.97142667
0.01900000 1635638.98212570 6869.68403491
0.02000000 1632535.76045376 5656.73666586
0.02100000 1629280.94598929 6989.61557519
0.02200000 1625873.01605342 6731.11459227
0.02300000 1622315.48925390 5840.33602716
0.02400000 1618607.49077458 8497.68971404
0.02500000 1614751.81990564 9446.29857787
0.02600000 1610748.34964252 10437.64978308
0.02700000 1606599.29357616 10796.34774732
0.02800000 1602304.36787840 9758.03404788
0.02900000 1597866.05823614 7909.43735142
0.03000000 1593285.89001948 8890.53567496
0.03100000 1588563.92070370 9150.12860428
0.03200000 1583701.97197226 9407.19014679
0.03300000 1578703.43942668 8856.52670347
0.03400000 1573566.51812633 9087.34706147
0.03500000 1568294.69600648 11856.30844931
0.03600000 1562888.91022640 9541.43723788
0.03700000 1557350.96210737 11539.97116291
0.03800000 1551682.49002268 11800.54588275
0.03900000 1545885.48434465 10202.84466917
0.04000000 1539959.84284808 10417.82881962
0.04100000 1533909.38713990 9663.62958705
0.04200000 1527735.04840724 14780.83727907
0.04300000 1521437.66672238 12049.78687977
0.04400000 1515020.74822876 11249.02957803
0.04500000 1508485.59820502 14571.97155575
0.04600000 1501832.32935544 11646.71025557
0.04700000 1495064.96015481 12917.36185650
0.04800000 1488184.18951453 15313.41602261
0.04900000 1481193.37825089 12219.84593937
0.05000000 1474092.38801734 15787.53021083
0.05100000 1466885.63395013 17162.56271672
0.05200000 1459571.49728733 13924.31273301
0.05300000 1452155.85260979 15291.20184082
0.05400000 1444638.74429384 15493.75125508
0.05500000 1437022.65044458 15692.28807489
0.05600000 1429308.68152950 12220.58979734
0.05700000 1421501.90994993 13603.77391322
0.05800000 1413601.02779739 15012.44361618
0.05900000 1405608.96400611 13915.52939360
0.06000000 1397529.31609183 15344.87260758
0.06100000 1389363.37537570 18089.51199274
0.06200000 1381113.27247065 16966.97734540
0.06300000 1372782.34154620 14496.58220452
0.06400000 1364369.07404795 14632.85900350
0.06500000 1355879.76038038 20134.81538351
0.06600000 1347315.08502964 17602.67240952
0.06700000 1338676.98297183 16385.40703840
0.06800000 1329968.09699081 16518.20453783
0.06900000 1321191.54122538 13872.51183236
0.07000000 1312347.53288956 18169.45244370
0.07100000 1303439.50856907 16892.57682227
0.07200000 1294469.75401298 14174.44447047
0.07300000 1285440.78273798 27109.94737820
0.07400000 1276354.98850533 14358.99429361
0.07500000 1267214.06498918 15890.86511981
0.07600000 1258018.93075931 20342.16706403
0.07700000 1248774.87772482 16071.73342990
0.07800000 1239482.32715079 20563.01277176
0.07900000 1230143.13156220 16237.89009824
0.08000000 1220761.45977525 23731.60389131
0.08100000 1211338.23769140 20859.24543172
0.08200000 1201875.16804837 25437.68912541
0.08300000 1192375.68371831 22535.90147993
0.08400000 1182841.39488020 18097.47419114
0.08500000 1173274.87345122 16648.77123585
0.08600000 1163677.58424396 18223.19182487
0.08700000 1154053.74444814 16756.86115625
0.08800000 1144402.60973913 18333.33066902
0.08900000 1134729.58647155 21446.39019164
0.09000000 1125034.31686099 18428.06297585
0.09100000 1115319.72331090 18469.69548576
0.09200000 1105587.61273098 16965.24271450
0.09300000 1095843.11145179 20086.80517683
0.09400000 1086082.96616017 15476.68299515
0.09500000 1076312.78197751 20148.57622566
0.09600000 1066533.79316253 15518.06741998
0.09700000 1056750.26541311 18641.07555826
0.09800000 1046962.08999987 23321.08165125
0.09900000 1037172.18167434 18669.10014801
0.10000000 1027380.85047954 17121.30267841
0.10100000 1017590.88624011 15569.14129172
0.10200000 1007805.31982617 23355.88938555
0.10300000 998025.00486339 15569.19080826
0.10400000 988253.25161155 23347.48416771
0.10500000 978492.48837507 23337.04694574
0.10600001 968739.99389721 15548.27763365
0.10700001 959003.27147498 21750.19522057
0.10800001 949281.01025580 17072.81977293
0.10900001 939576.71534149 21704.22314591
0.11000001 929890.56437526 21675.75007585
0.11100001 920225.39546230 20097.72358296
0.11200001 910582.54943503 20064.68742139
0.11300001 900963.81136251 18487.77827958
0.11400001 891371.36891217 16913.77252148
0.11500001 881807.14343332 18412.13402188
0.11600001 872271.91937677 18370.04748715
0.11700001 862768.39510285 16798.10144376
0.11800001 853295.68379116 19800.72727495
0.11900001 843857.08759638 33416.74224280
0.12000001 834453.25334720 18174.39271401
0.12100001 825089.02332344 16609.04282192
0.12200001 815762.10656177 22576.21736269
0.12300001 806476.23113138 19500.59618752
0.12400001 797230.55176141 17937.68825981
0.12500001 788027.22470681 19361.82982339
0.12600001 778869.91330760 22256.20882155
0.12700001 769757.36592558 19213.14475895
0.12800001 760691.26405544 19135.18964914
0.12900001 751673.73444019 23452.22161989
0.13000001 742705.83430397 21891.25549795
0.13100001 733787.69703922 23246.39533798
0.13200001 724921.60263256 14462.18665427
0.13300001 716108.64016140 23030.05495330
0.13400001 707348.72576191 14323.81237198
0.13500001 698644.68800014 15677.58753789
0.13600001 689996.47151188 14179.42815814
0.13700001 681405.59917801 16926.11588170
0.13800001 672871.06903533 18238.17118624
0.13900001 664397.42500588 16742.81589971
0.14000001 655982.26719944 20811.03840836
0.14100001 647629.13533026 16553.40147975
0.14200001 639336.92929030 17827.91111412
0.14300001 631108.18346390 17721.51862755
0.14400001 622939.65189422 13548.93806780
0.14500001 614837.91993482 16157.94129809
0.14600001 606799.88303389 20069.90707813
0.14700001 598828.48154426 17282.19079268
0.14800001 590920.61722223 19810.61462701
0.14900001 583080.45942588 14431.24205167
0.15000001 575307.13702452 18242.99017580
0.15100001 567601.73093931 18117.84810647
0.15200001 559965.44131206 12851.20748452
0.15300001 552397.94838050 14036.43253071
0.15400001 544897.70578448 16469.53393455
0.15500001 537468.94864534 16349.80618939
0.15600001 530108.41325269 16229.26983767
0.15700001 522821.11425893 17347.20538984
0.15800001 515601.51898311 14756.51616979
0.15900001 508455.12002572 14643.50814792
0.16000001 501377.81021816 12108.27468831
0.16100001 494374.43337146 13214.62922781
0.16200001 487442.28306511 14301.55726025
0.16300001 480581.80174997 15369.00674550
0.16400001 473794.11763614 12899.04546160
0.16500001 467077.62640079 11630.23344646
0.16600001 460434.77523837 11533.89166427
0.16700001 453863.20538904 12581.08864740
0.16800001 447364.63225816 17011.04094482
0.16900001 440939.81191482 24736.72461644
0.17000001 434586.18890916 12261.84989907
0.17100001 428305.95318636 15470.41175962
0.17200001 422097.90187014 13144.12928494
0.17300001 415962.48089531 11942.28339047
0.17400001 409900.41261530 16139.82950895
0.17500001 403909.41846849 14928.49281163
0.17600001 397989.58885211 11623.28649138
0.17700001 392144.67637251 11517.28968903
0.17800001 386369.66445248 10374.02598054
0.17900001 380666.18938161 11305.78635865
0.18000001 375035.36617653 18327.97921077
0.18100001 369476.14113322 13112.70886822
0.18200001 363985.75015320 11989.69117641
0.18300001 358566.86624095 9896.44597575
0.18400001 353218.27390451 12742.34983306
0.18500001 347940.10379488 11649.03522538
0.18600001 342731.86046281 14420.44371024
0.18700001 337592.03526302 11424.11501303
0.18800001 332520.02475720 13197.72040615
0.18900001 327519.85199672 11201.17946752
0.19000001 322583.90285264 12014.63802942
0.19100001 317718.42246090 11895.37829899
0.19200001 312918.65629965 14494.39284468
0.19300001 308187.58750128 13452.38883009
0.19400001 303520.97430420 10653.58670150
0.19500001 298921.04405976 11424.76284384
0.19600001 294385.59156669 12178.73249864
0.19700001 289916.65479112 12054.73507589
0.19800001 285510.86034744 12783.74937620
0.19900001 281169.45293846 10965.60918283
0.20000001 276889.78006879 9183.04998998
0.20100001 272674.52233332 9914.44610062
0.20200001 268520.10357494 12264.65631046
0.20300001 264427.89268975 9709.79267850
0.20400001 260396.94297342 10409.36828737
0.20500001 256425.62866253 10300.61799025
0.20600001 252514.05073150 10192.73013957
0.20700001 248661.77634601 10861.54690421
0.20800001 244867.72905340 8444.26403557
0.20900001 241133.86584307 9114.86055974
0.21000001 237454.39304907 9018.51827433
0.21100001 233833.13956284 8923.07302754
0.21200001 230266.83406584 11035.53854430
0.21300001 226755.78351780 8006.74709454
0.21400001 223299.89986907 10081.99095573
0.21500001 219899.12061947 9974.62458287
0.21600001 216550.12066856 7753.57743712
0.21700001 213254.52270379 6973.42322211
0.21800001 210011.10887871 8278.63830342
0.21900001 206818.24410620 8190.00285384
0.22000001 203675.65134261 9452.58742575
0.22100001 200584.68449124 9351.25843314
0.22200001 197542.46058183 7929.35474269
0.22300001 194548.69087512 10458.93811600
0.22400001 191602.23067858 9053.20582766
0.22500001 188705.30042881 7036.82098574
0.22600001 185853.09716700 7593.95790935
0.22700001 183047.78586682 6886.25802995
0.22800001 180287.34244863 6812.15755657
0.22900001 177571.04200335 9189.30185824
0.23000001 174899.34806966 7878.34150638
0.23100001 172271.98152734 7194.07828881
0.23200001 169685.50044452 9488.81363362
0.23300001 167142.23478656 6453.36199032
0.23400001 164639.28668273 9285.65620807
0.23500001 162176.96167667 6889.27765786
0.23600001 159754.96890205 6815.14729570
0.23700001 157372.43056269 5618.19603682
0.23800001 155028.30951589 8892.42425443
0.23900001 152722.48619548 5498.00976309
0.24000001 150453.49972321 5438.89427226
0.24100001 148222.59541139 6994.62460832
0.24200001 146027.72183455 6919.52392644
0.24300001 143867.78603445 5265.56121794
0.24400001 141742.81044798 5209.04853037
0.24500001 139651.87051896 6183.78511910
0.24600001 137594.95442306 6117.47196304
0.24700001 135571.76264128 7060.57773237
0.24800001 133580.74379738 5488.16511854
0.24900001 131620.55797461 7403.65673632
0.25000001 129693.14713951 5371.24194289
0.25100001 127795.77553309 6279.88470679
0.25200001 125930.35002745 5734.86841156
0.25300001 124093.03603768 7564.71183475
0.25400001 122286.12456080 6080.67783147
0.25500001 120506.10713871 6015.66515298
0.25600001 118755.73979131 7324.85437689
0.25700001 117031.97537628 8605.36155657
0.25800001 115335.35473203 5376.93449201
0.25900001 113666.36712693 7092.78164431
0.26000001 112022.31000741 4824.24100873
0.26100001 110403.70165422 5640.52538440
0.26200001 108811.29231756 4721.86625354
0.26300001 107242.21018644 4671.47089676
0.26400001 105698.10200745 4621.64972896
0.26500001 104177.67561575 4572.35839913
0.26600001 102680.21772087 6579.74866290
0.26700001 101205.75466156 4475.31868291
0.26800001 99753.95169924  5635.10099815
0.26900001 98323.29778431  4778.51249844
0.27000001 96914.99807813  4333.55434414
0.27100001 95527.38881056  3897.51764791
0.27200001 94161.30909441  5398.26810585
0.27300001 92815.21020519  4196.17585196
0.27400001 91487.89027130  4528.65078275
0.27500001 90182.07006018  4106.89166490
0.27600001 88893.41659594  3693.52163436
0.27700001 87625.55891737  3653.98597978
0.27800001 86375.18302837  4337.76189698
0.27900001 85143.31353347  5006.42707271
0.28000001 83929.03364980  4952.65251008
0.28100001 82732.56598633  3849.54647754
0.28200001 81553.63978950  5539.12347667
0.28300001 80391.53360426  3767.14744300
0.28400001 79245.42662954  4065.29057851
0.28500001 78116.34625521  4021.42969556
0.28600001 77003.11799068  3646.48282504
0.28700001 75906.32914397  6558.30714846
0.28800001 74823.53069276  4216.68027178
0.28900001 73757.82800314  4171.00537101
0.29000001 72706.11735608  3173.62217281
0.29100001 71669.91883583  3139.14259360
0.29200001 70647.87867328  4346.96418053
0.29300001 69640.51098715  3685.37601589
0.29400001 68646.47174565  4860.17042966
0.29500001 67667.68409492  3905.77891085
0.29600001 66701.24222729  4457.31072284
0.29700001 65748.78599743  3232.86796053
0.29800001 64809.98546879  4069.41918023
0.29900001 63884.58357528  3162.28703668
0.30000001 62971.08022716  3127.45884753
0.30100001 62071.48408411  3936.57370697
0.30200001 61183.53324131  3058.87088921
0.30300001 60308.63575825  2750.07392077
0.30400001 59445.99390736  2719.65435001
0.30500001 58595.95378408  3227.46528722
0.30600001 57756.53351941  3191.62619338
0.30700001 56930.04812870  3156.20201768
0.30800001 56114.94039700  2600.92761054
0.30900001 55311.61938754  4115.18467726
0.31000001 54519.73283119  3560.68391978
0.31100001 53738.70779321  3772.45746569
0.31200001 52969.71392107  2984.31382361
0.31300001 52211.15508953  2705.06007326
0.31400001 51464.98717480  3890.75321463
0.31500001 50728.22611089  2644.96983465
0.31600002 50003.62515099  3090.97423506
0.31700002 49288.95123135  3291.51631908
0.31800002 48584.68657199  3254.68830756
0.31900002 47891.65366622  2528.67943331
0.32000002 47209.24260940  2273.12513927
0.32100002 46536.71179874  2697.26794357
0.32200002 45875.55046258  2444.93757767
0.32300002 45222.92209538  2857.18435328
0.32400002 44581.80639846  3477.38106374
0.32500002 43950.28637485  2579.00292660
0.32600002 43329.05851747  2550.34850510
0.32700002 42717.90891668  2522.06546187
0.32800002 42117.54974069  2702.05153156
0.32900002 41525.13700737  2877.69213088
0.33000002 40943.90895474  2236.15169345
0.33100002 40371.35413674  2010.49353122
0.33200002 39810.01864775  2783.91473587
0.33300002 39257.56022373  2360.16463242
0.33400002 38715.33333167  2334.53471045
0.33500002 38182.42344534  2501.71250261
0.33600002 37658.36741535  2284.35667559
0.33700002 37144.01348906  2259.84188769
0.33800002 36639.85475416  2049.45037273
0.33900002 36144.25992787  2027.69307798
0.34000002 35658.14859641  1823.91438708
0.34100002 35181.40804855  2707.20947755
0.34200002 34714.66173133  1964.67637373
0.34300002 34256.36846287  2474.68017496
0.34400002 33807.99558126  2099.47662503
0.34500002 33368.25083515  2251.35599047
0.34600002 32938.34783243  2228.77341164
0.34700002 32516.31902728  2206.55751370
0.34800002 32104.19546465  2016.78565461
0.34900002 31700.51808857  2496.41591771
0.35000002 31306.17511274  1813.09721753
0.35100002 30921.46360782  2285.71469815
0.35200002 30543.89398530  2264.21896837
0.35300002 30176.52052635  2884.27196852
0.35400002 29817.27283583  2222.87779519
0.35500002 29467.20868704  1730.90392026
0.35600002 29125.20253191  2027.55107029
0.35700002 28791.90398143  1700.73784874
0.35800002 28467.48488599  1686.27154709
0.35900002 28152.04569674  2128.29475548
0.36000002 27844.79333881  1658.57519379
0.36100002 27545.41434052  2393.14571126
0.36200002 27255.89489689  1929.30861166
0.36300002 26973.16171380  1620.00816927
0.36400002 26699.41991689  1607.97264066
0.36500002 26433.06184793  1596.29268061
0.36600002 26175.84384873  1873.27435377
0.36700002 25926.10279255  2146.68141291
0.36800002 25685.29702503  1706.01750921
0.36900002 25452.14322008  1553.85341719
0.37000002 25226.26414346  1824.99416591
0.37100002 25008.28430754  1953.64726265
0.37200002 24798.77521158  2081.23730822
0.37300002 24596.71360410  1655.85083827
0.37400002 24402.06127976  2058.92401801
0.37500002 24215.30645694  1502.31768375
0.37600002 24036.12900154  1359.24315943
0.37700002 23864.23928780  2164.96389075
0.37800002 23699.61135636  1616.78756332
0.37900002 23543.08643913  1476.15158966
0.38000002 23393.08055842  1470.60607897
0.38100002 23249.44468572  1465.41256796
0.38200002 23114.16938794  1593.49091309
0.38300002 22985.00759568  1456.33015025
0.38400002 22863.14107353  1980.51968932
0.38500002 22747.46599523  1975.61751528
0.38600002 22639.49560666  2102.75645156
0.38700002 22537.22845778  2623.33351677
0.38800002 22441.55397141  2226.09005166
0.38900002 22352.40155882  1438.37710845
0.39000002 22269.96517536  1567.36022330
0.39100002 22193.07681574  1435.44827645
0.39200002 22123.08711112  1564.98725638
0.39300002 22058.36701091  1434.01450732
0.39400002 22000.85056877  1694.61559535
0.39500002 21948.00654872  2085.93864122
0.39600002 21901.03733805  1434.62751880
0.39700002 21859.18885264  1957.49045450
0.39800002 21824.03969556  1306.16883766
0.39900002 21793.23429526  1699.87235557
0.40000002 21768.16325831  1440.29059023
0.40100002 21747.93059078  1704.82035978
0.40200002 21733.32138346  1445.15727386
0.40300002 21723.38611432  1711.36843917
0.40400002 21718.33667336  1979.08352313
0.40500002 21717.56344616  1851.63954715
0.40600002 21722.47855993  1856.62033048
0.40700002 21731.11938138  1728.92793990
0.40800002 21744.20691281  1334.00715731
0.40900002 21761.19067362  1472.14461882
0.41000002 21783.11766857  1745.80804827
0.41100002 21808.79676139  1617.34044446
0.41200002 21837.45869292  1488.11369314
0.41300002 21871.46379069  1629.86155891
0.41400002 21908.22461877  1772.92316128
0.41500002 21948.64402553  1506.55499730
0.41600002 21991.61428442  2063.36330800
0.41700002 22039.25624417  2349.16443438
0.41800002 22090.49376178  1388.38759872
0.41900002 22142.98706628  1953.01155179
0.42000002 22199.09442760  1401.87287953
0.42100002 22258.76859473  1690.77614257
0.42200002 22320.72679960  1699.50021905
0.42300002 22384.92048479  1708.41721235
0.42400002 22451.63315817  1860.67918615
0.42500002 22521.22201527  2302.56984795
0.42600002 22591.78067763  1736.40434516
0.42700002 22665.69159909  1746.16496354
0.42800002 22740.82433724  1756.04653854
0.42900002 22818.69293396  2207.70864598
0.43000002 22898.11044871  1480.36291066
0.43100002 22977.78025776  1488.96023126
0.43200002 23060.24809547  2096.86845869
0.43300002 23143.41132991  1657.29976387
0.43400002 23228.43990674  1667.22135331
0.43500002 23313.93897519  1524.73168123
0.43600002 23401.38629922  2147.54532245
0.43700002 23488.88128100  2160.50740261
0.43800002 23576.84901200  2018.29625532
0.43900002 23666.66647953  2030.60008017
0.44000002 23756.28512932  1885.77400293
0.44100002 23846.80872854  2371.56524044
0.44200002 23937.53883832  2067.84439054
0.44300002 24028.70120527  2080.40504894
0.44400002 24119.82753735  1609.99856442
0.44500002 24210.49294244  2591.49128737
0.44600002 24301.15399189  1792.33169761
0.44700002 24392.63323178  2130.94054012
0.44800002 24482.77086210  1978.69763485
0.44900002 24573.19460680  1658.69071457
0.45000002 24663.52673868  2002.18519553
0.45100002 24752.26767746  2013.84459368
0.45200002 24840.93870259  2531.91279726
0.45300002 24928.48025898  1867.39254470
0.45400002 25015.46566791  2731.68898040
0.45500002 25101.95804577  1888.67141287
0.45600002 25186.82342113  2071.86819282
0.45700002 25271.05197466  1736.12135294
0.45800002 25353.65421364  2618.39876301
0.45900002 25435.04047849  2281.52323905
0.46000002 25515.62488135  2117.28665300
0.46100002 25593.94042448  1773.66015548
0.46200002 25671.48318973  1782.88459203
0.46300002 25747.31288081  2150.41567372
0.46400002 25820.95875359  2521.41674179
0.46500002 25894.06951120  1990.99509908
0.46600002 25964.33239473  2182.56188455
0.46700002 26032.86509146  1827.50721604
0.46800002 26100.17438904  2203.37682635
0.46900002 26164.81820122  1844.61977061
0.47000002 26227.62333495  2408.87617937
0.47100002 26288.59928041  1861.23291727
0.47200002 26347.52086377  2430.16370205
0.47300002 26404.12623904  2252.80015749
0.47400002 26457.93468104  2073.64072891
0.47500002 26509.97757551  2082.09373747
0.47600002 26560.41372309  2660.55676875
0.47700002 26607.18090388  2098.50845735
