# SAXS profile: number of points = 501, q_min = 0, q_max = 0.5, delta_q = 0.001
#    q    intensity    error
0.00000000 1646666.22097351 271.69992646
0.00100000 1646585.57776344 642.16839058
0.00200000 1646343.58132985 889.02556207
0.00300000 1645940.45328323 1086.32073787
0.00400000 1645376.07401294 1727.64494336
0.00500000 1644650.93946331 1924.24167534
0.00600000 1643764.94038174 1898.54858343
0.00700000 1642718.65381981 2365.51495981
0.00800000 1641511.89278362 2880.85349346
0.00900000 1640145.88051364 2952.26271113
0.01000000 1638620.00078808 4325.95698887
0.01100000 1636935.52147428 3535.78088033
0.01200000 1635092.32437631 4463.80224126
0.01300000 1633091.58008123 3772.44171637
0.01400000 1630933.32876345 4036.56016763
0.01500000 1628618.98108589 4690.42287439
0.01600000 1626147.91267650 4146.67736270
0.01700000 1623522.32354806 5260.21256426
0.01800000 1620742.20252240 6004.85013055
0.01900000 1617808.20540283 5338.76731873
0.02000000 1614721.46581985 6612.28470164
0.02100000 1611484.02217676 6381.47701715
0.02200000 1608094.33205717 9986.26625577
0.02300000 1604555.82166054 8086.96170927
0.02400000 1600867.64234920 6603.57932580
0.02500000 1597032.67706734 9965.48436003
0.02600000 1593050.69858470 7097.04118680
0.02700000 1588923.90806605 7340.82879148
0.02800000 1584652.16248576 10339.85583440
0.02900000 1580237.79516943 7111.07040476
0.03000000 1575682.27160662 9524.99976968
0.03100000 1570986.03292957 9802.95329655
0.03200000 1566150.29197125 7752.44430232
0.03300000 1561178.83391847 8758.21366204
0.03400000 1556070.09733418 8169.36838794
0.03500000 1550826.94312852 9211.91246757
0.03600000 1545450.66059757 11150.42703151
0.03700000 1539943.03349900 13166.51354533
0.03800000 1534305.72002735 10770.82665306
0.03900000 1528540.49803277 10088.36775421
0.04000000 1522647.55195210 11237.13945412
0.04100000 1516630.49387122 9554.77255441
0.04200000 1510490.28861564 16562.52678305
0.04300000 1504227.74035237 16877.43603017
0.04400000 1497846.57394654 11121.51132806
0.04500000 1491347.93875752 14406.42175779
0.04600000 1484731.77216320 12560.83137641
0.04700000 1478002.48672656 17026.58943896
0.04800000 1471160.22316179 16219.54221502
0.04900000 1464208.75410843 15374.19263377
0.05000000 1457147.95529636 13376.61885252
0.05100000 1449982.07169647 14702.81889192
0.05200000 1442709.47506332 14910.40311962
0.05300000 1435336.08827631 13951.46742843
0.05400000 1427862.01450034 14135.83460276
0.05500000 1420289.61792813 16702.60668600
0.05600000 1412620.02512065 14493.48213406
0.05700000 1404858.09367791 19555.62557682
0.05800000 1397003.11207195 14836.17374294
0.05900000 1389057.42833116 18752.27615831
0.06000000 1381024.83504067 13900.01561408
0.06100000 1372906.69572318 14044.83615358
0.06200000 1364704.99153508 16765.40160468
0.06300000 1356423.02503028 22136.82480351
0.06400000 1348059.47141558 15772.29655318
0.06500000 1339620.47581665 15914.69199716
0.06600000 1331107.06856589 16053.15199801
0.06700000 1322520.23201100 17536.61909716
0.06800000 1313863.80085852 20397.73646313
0.06900000 1305140.05349604 15074.36832364
0.07000000 1296349.48167738 16567.34715166
0.07100000 1287495.50176517 18076.43769144
0.07200000 1278580.31905895 15400.50066453
0.07300000 1269606.75342879 25366.74412208
0.07400000 1260576.87162290 15599.63951740
0.07500000 1251492.22592720 14267.01204430
0.07600000 1242354.19280579 17219.02991953
0.07700000 1233167.84799708 14428.06449808
0.07800000 1223933.18503664 15953.96981513
0.07900000 1214652.75295912 16033.41709109
0.08000000 1205330.15242502 16109.23824286
0.08100000 1195966.68170785 20594.54722527
0.08200000 1186563.77167380 20681.80751077
0.08300000 1177125.13188887 17798.13282946
0.08400000 1167652.29103019 17865.08089132
0.08500000 1158147.46547819 25398.17511026
0.08600000 1148612.49359149 20985.15124320
0.08700000 1139051.35298216 16539.02642194
0.08800000 1129463.34361956 16586.16998000
0.08900000 1119854.06747806 19653.43980736
0.09000000 1110222.90686842 18185.45206878
0.09100000 1100573.18531510 27338.23920761
0.09200000 1090906.03877126 22827.20993386
0.09300000 1081227.30500906 18294.36686045
0.09400000 1071533.20136207 15269.34883703
0.09500000 1061829.36765752 22935.51541943
0.09600000 1052117.23288142 18369.96774964
0.09700000 1042400.87403510 18387.95228245
0.09800000 1032680.43598268 19935.89675399
0.09900000 1022958.34192468 18413.25102048
0.10000000 1013235.64928411 16885.57288940
0.10100000 1003514.69917575 21495.28586731
0.10200000 993798.35016372 15354.18523223
0.10300000 984087.50939428 16886.94245558
0.10400000 974385.57732988 15346.57356493
0.10500000 964695.22098712 16872.52020891
0.10600001 955013.34252458 18393.55784251
0.10700001 945347.58264398 21440.48418330
0.10800001 935696.45455887 22947.95662803
0.10900001 926064.12316885 15280.05875145
0.11000001 916449.72190170 15258.88858789
0.11100001 906856.54041128 19805.74777491
0.11200001 897286.41369411 15209.00542811
0.11300001 887740.43849822 21252.50709823
0.11400001 878221.31402676 24238.90940841
0.11500001 868730.21506756 21162.26903553
0.11600001 859268.55055948 21112.22928145
0.11700001 849838.82634741 16546.36272823
0.11800001 840440.36816087 21002.60578953
0.11900001 831076.19694716 17951.24669959
0.12000001 821747.14357800 19389.12476605
0.12100001 812457.63559774 22301.96314776
0.12200001 803205.77831300 17782.97676963
0.12300001 793994.96418766 17721.96843563
0.12400001 784824.85986051 22073.20022361
0.12500001 775697.02788425 20524.94432496
0.12600001 766615.51587348 20445.63677181
0.12700001 757578.87205208 14545.51502888
0.12800001 748589.19142302 14485.20153671
0.12900001 739647.95815579 18750.07662298
0.13000001 730756.52697608 15795.30307510
0.13100001 721915.14770219 14293.92059828
0.13200001 713125.53578709 22762.96817538
0.13300001 704389.36791253 14158.22696250
0.13400001 695706.40567952 15496.86091712
0.13500001 687079.48275281 19622.99095261
0.13600001 678508.57036695 18126.35731202
0.13700001 669994.96690661 19416.45505650
0.13800001 661538.10137483 15172.37707050
0.13900001 653141.45387687 15087.56829606
0.14000001 644804.17796840 19092.65261006
0.14100001 636528.53254190 18981.28173561
0.14200001 628314.23549182 16172.80918435
0.14300001 620162.75365792 17414.17094410
0.14400001 612072.29547166 14643.83035991
0.14500001 604047.96488360 18520.11147696
0.14600001 596087.99793779 14458.11507203
0.14700001 588194.38084487 13057.91587078
0.14800001 580364.22443319 18159.59743926
0.14900001 572602.08383875 18036.96649192
0.15000001 564906.68566024 15354.16444070
0.15100001 557278.78006375 19058.93517748
0.15200001 549720.44738592 16400.91032167
0.15300001 542230.58829650 12525.52718072
0.15400001 534808.29377888 16164.58144229
0.15500001 527457.18650906 16045.24837083
0.15600001 520174.28457553 13475.11547789
0.15700001 512964.51778013 13372.98560969
0.15800001 505822.51057268 13270.25419121
0.15900001 498753.61859703 17955.13111699
0.16000001 491753.66314421 13063.43667805
0.16100001 484827.62200173 12959.44294785
0.16200001 477972.75617272 17529.65166014
0.16300001 471189.35588372 12750.38457213
0.16400001 464478.67636775 11495.84778282
0.16500001 457839.24149849 20520.35577276
0.16600001 451272.73364715 11304.38251158
0.16700001 444778.13851141 14570.93250560
0.16800001 438356.10949960 14446.02627065
0.16900001 432007.59191815 15422.67175971
0.17000001 425730.22350421 13103.97689823
0.17100001 419525.90787408 15153.27650797
0.17200001 413394.15841223 12873.09470086
0.17300001 407334.26987833 11694.56744048
0.17400001 401347.91840424 10535.38335566
0.17500001 395432.37170027 13571.23963769
0.17600001 389587.78357160 14480.97859928
0.17700001 383817.82685404 14347.11104543
0.17800001 378117.70868760 14213.44534090
0.17900001 372488.93589567 14080.08244191
0.18000001 366932.45338640 14943.32487001
0.18100001 361447.50506530 11841.02082527
0.18200001 356031.15231110 10750.36115186
0.18300001 350685.95037304 13550.50576253
0.18400001 345411.17090844 16294.77275738
0.18500001 340206.14918783 9491.75201075
0.18600001 335070.95866284 11278.48900143
0.18700001 330004.16542466 13959.17685696
0.18800001 325004.80807640 11978.05276757
0.18900001 320077.04562858 10034.41585456
0.19000001 315213.11031327 9030.85603717
0.19100001 310419.54660344 11622.10837398
0.19200001 305691.34865048 10619.71795391
0.19300001 301031.32148420 10512.01424295
0.19400001 296435.87316621 12139.04957977
0.19500001 291906.56170287 9440.25865157
0.19600001 287441.38226321 10192.67189672
0.19700001 283042.56819577 10928.27407448
0.19800001 278706.65450839 10815.21223931
0.19900001 274434.81437638 10702.95826650
0.20000001 270224.20085009 8961.98604475
0.20100001 266077.82468681 8062.15846905
0.20200001 261991.97991823 9573.18739867
0.20300001 257967.93154880 8683.20098634
0.20400001 254004.99262609 8591.71928167
0.20500001 250101.19820595 7728.12738985
0.20600001 246256.70071445 9940.15219419
0.20700001 242471.46582779 10591.15412799
0.20800001 238743.94186984 9730.00981084
0.20900001 235076.33043375 8885.88571044
0.21000001 231462.63177594 8058.37190622
0.21100001 227906.85445833 7247.43831439
0.21200001 224405.53305311 7169.75711999
0.21300001 220959.45533078 8511.35862172
0.21400001 217567.89126546 8419.87779004
0.21500001 214231.21076613 8329.30986838
0.21600001 210945.76069868 6866.28483537
0.21700001 207713.47119107 7471.45391199
0.21800001 204532.83516125 6718.90395272
0.21900001 201402.63850393 7310.91612336
0.22000001 198322.22101136 8546.69651859
0.22100001 195292.88878384 7803.90420480
0.22200001 192311.96466015 7076.11907426
0.22300001 189379.11725180 10817.33568893
0.22400001 186493.18100960 7552.97418804
0.22500001 183656.37267923 8716.33185953
0.22600001 180863.94511416 8621.78467130
0.22700001 178117.90579438 6091.63266624
0.22800001 175416.48937564 6628.11236450
0.22900001 172758.64603768 7748.22564121
0.23000001 170144.95269741 7664.17975671
0.23100001 167575.27424866 5831.61981965
0.23200001 165046.02107349 5768.35870932
0.23300001 162559.49783995 5705.83864404
0.23400001 160113.22886429 7337.18905972
0.23500001 157706.75159551 5582.81927053
0.23600001 155340.21754406 6074.57949437
0.23700001 153013.09196653 7647.59469820
0.23800001 150723.50015017 7024.46905675
0.23900001 148471.89174313 5879.48719112
0.24000001 146256.83881884 6344.62196806
0.24100001 144079.19676534 7322.10512596
0.24200001 141937.37517739 5690.97932693
0.24300001 139829.79143003 7164.87885179
0.24400001 137757.19301903 6581.35020781
0.24500001 135717.78642942 5508.78521176
0.24600001 133712.15947678 5449.43931726
0.24700001 131739.58703403 7841.14059120
0.24800001 129798.94114671 5332.78974929
0.24900001 127888.81969734 6234.58025519
0.25000001 126010.86687497 6642.03310720
0.25100001 124162.30161022 6101.33578977
0.25200001 122345.44604353 5107.31088671
0.25300001 120556.40931172 5971.15923571
0.25400001 118797.03097809 5907.18264486
0.25500001 117064.37143009 4944.79928315
0.25600001 115360.62981064 7115.44398337
0.25700001 113683.10856822 5279.44381170
0.25800001 112032.43978482 6963.93678652
0.25900001 110408.80741172 5167.13243135
0.26000001 108809.95844478 5111.89208961
0.26100001 107235.54963144 4635.79302992
0.26200001 105687.52820868 5003.24782214
0.26300001 104161.94237267 4124.81311313
0.26400001 102661.10264795 5305.01273036
0.26500001 101183.48255148 4440.94325932
0.26600001 99728.24681445  5991.17471088
0.26700001 98295.62786354  3951.48442710
0.26800001 96885.28692258  5082.11796601
0.26900001 95495.60551965  4641.08664788
0.27000001 94127.83321773  6122.07456219
0.27100001 92780.24928561  4163.97778499
0.27200001 91453.77289103  4868.54183025
0.27300001 90146.92453281  5187.05428309
0.27400001 88858.36413309  4031.94846335
0.27500001 87590.99563878  5076.77434748
0.27600001 86340.03168898  4663.65703239
0.27700001 85109.58926582  3549.07004035
0.27800001 83896.26193938  8426.54094800
0.27900001 82701.08290878  5210.16846984
0.28000001 81522.89785795  4467.04739954
0.28100001 80362.14280992  5778.84196297
0.28200001 79218.55036407  3362.82762212
0.28300001 78091.27067406  3992.02594580
0.28400001 76979.61080742  4278.14207311
0.28500001 75884.46944533  3906.53267195
0.28600001 74804.75177975  3864.41365985
0.28700001 73741.16852030  3504.18049395
0.28800001 72691.17283609  3781.39498992
0.28900001 71657.60438684  3428.81653221
0.29000001 70637.96744953  4008.35165266
0.29100001 69633.22275793  3354.92883128
0.29200001 68642.28583920  3016.82860544
0.29300001 67665.49380091  5371.28715217
0.29400001 66701.68954940  4427.32485342
0.29500001 65752.72482889  2919.42112060
0.29600001 64815.72711533  4042.55709155
0.29700001 63892.44366342  2855.99236695
0.29800001 62982.31288051  3389.70823969
0.29900001 62085.13041098  3073.21410083
0.30000001 61199.49702963  4697.36761688
0.30100001 60327.31152709  3279.39280986
0.30200001 59466.39157136  2973.02238735
0.30300001 58618.30394840  3474.89322257
0.30400001 57781.93907424  3965.28575669
0.30500001 56957.71280920  3660.10279840
0.30600001 56143.91523755  3619.59838673
0.30700001 55342.58703342  3323.87593459
0.30800001 54552.17174469  3287.04126410
0.30900001 53773.29777309  3000.55015780
0.31000001 53005.39976447  3709.05302412
0.31100001 52248.13175897  2934.25521851
0.31200001 51502.57583499  3143.45986492
0.31300001 50766.96635265  2869.34907410
0.31400001 50043.42411263  3546.82785191
0.31500001 49328.99171836  2805.83318179
0.31600002 48626.24080969  2543.39564597
0.31700002 47933.13026461  2743.69250625
0.31800002 47250.16438740  2260.92047299
0.31900002 46578.10368061  2235.74908253
0.32000002 45916.13362038  2431.94813235
0.32100002 45263.86433003  2404.86922572
0.32200002 44622.57829430  2378.16042280
0.32300002 43989.41506053  2565.46280781
0.32400002 43367.49445525  3171.24818220
0.32500002 42755.00366417  2090.71977818
0.32600002 42152.45168978  2894.60899460
0.32700002 41559.48444233  2862.61742394
0.32800002 40977.13174577  2426.66585689
0.32900002 40402.36943001  1999.91738149
0.33000002 39838.60607626  2571.38295096
0.33100002 39283.13970750  2347.56054009
0.33200002 38738.59496623  2515.49078325
0.33300002 38202.58930975  1913.94981505
0.33400002 37676.67380529  1893.25294837
0.33500002 37159.53668847  2809.26110668
0.33600002 36651.15006192  2408.53044038
0.33700002 36152.23192381  2016.21006987
0.33800002 35663.19949711  2176.16853637
0.33900002 35182.41156063  2153.16368948
0.34000002 34710.88237786  1953.00788948
0.34100002 34248.33087191  2108.32734832
0.34200002 33795.72839396  1738.79030822
0.34300002 33351.25498533  2409.29477424
0.34400002 32916.47429622  2725.48420081
0.34500002 32489.92542596  2192.09537231
0.34600002 32073.03678274  1836.34180797
0.34700002 31663.85206697  2644.56504988
0.34800002 31264.24460651  2291.35659573
0.34900002 30872.99801529  2269.16546160
0.35000002 30490.71725787  1765.86997362
0.35100002 30117.91604170  1590.22604232
0.35200002 29751.97488480  1890.44057372
0.35300002 29396.04108679  1560.92985564
0.35400002 29048.08481652  1701.49164872
0.35500002 28709.03807211  1839.67524680
0.35600002 28377.82142810  1975.52213229
0.35700002 28055.11214814  1807.87151246
0.35800002 27741.10145482  1942.01589933
0.35900002 27435.91138004  1481.53928470
0.36000002 27138.64412728  1616.51341401
0.36100002 26849.04226980  1603.69337074
0.36200002 26569.20007613  1880.70091647
0.36300002 26295.99090557  1579.33728860
0.36400002 26031.58028140  1852.79781429
0.36500002 25774.27520595  1556.50855342
0.36600002 25526.04589781  1545.72978256
0.36700002 25285.03978179  1535.30768828
0.36800002 25052.83410323  1525.34187663
0.36900002 24828.17755458  2480.33505519
0.37000002 24610.65041367  2328.29069267
0.37100002 24400.81928314  1361.56578050
0.37200002 24199.37471984  1624.74609565
0.37300002 24005.08433288  1481.35382435
0.37400002 23818.17075410  1607.72660206
0.37500002 23638.98672350  1466.56280580
0.37600002 23467.27169695  1459.78170506
0.37700002 23302.63231624  1585.51117791
0.37800002 23145.26221499  1578.96986311
0.37900002 22995.76312753  1441.83441640
0.38000002 22852.71967437  1306.03299126
0.38100002 22715.90639324  1952.43224699
0.38200002 22587.32040689  1816.69826639
0.38300002 22464.70603775  1811.55398070
0.38400002 22349.35578649  2065.08057250
0.38500002 22240.08759873  1674.01147286
0.38600002 22138.47087609  1285.13829524
0.38700002 22042.32940953  1924.29544862
0.38800002 21952.80951556  1793.32509429
0.38900002 21869.53114901  1535.24115939
0.39000002 21793.11751078  1917.24960384
0.39100002 21722.10288713  1404.98568130
0.39200002 21657.63574308  1915.07653131
0.39300002 21598.61173169  1531.77361658
0.39400002 21546.66374344  1404.30387601
0.39500002 21499.37769280  1660.18202409
0.39600002 21457.88008125  1277.81681938
0.39700002 21421.35209046  1534.62573647
0.39800002 21391.48474090  1920.42063360
0.39900002 21365.93314786  1666.54286449
0.40000002 21346.00600587  1540.75478650
0.40100002 21330.98667380  1414.88441311
0.40200002 21321.39850403  2577.75720127
0.40300002 21316.40559473  1550.12908829
0.40400002 21316.28177226  1424.46059692
0.40500002 21320.36915288  1687.93370581
0.40600002 21330.18061239  1692.86986451
0.40700002 21343.70455824  1306.23478085
0.40800002 21361.53909651  1441.58353423
0.40900002 21383.16742183  1709.58431638
0.41000002 21409.80562439  1847.88041100
0.41100002 21440.03133537  2119.99039889
0.41200002 21473.40887847  1330.27774305
0.41300002 21511.87445109  1603.06496005
0.41400002 21553.26794976  1341.69099345
0.41500002 21598.21036044  1617.27406842
0.41600002 21645.71350579  1353.93944394
0.41700002 21697.93584894  1360.46064219
0.41800002 21753.53098554  2187.53517956
0.41900002 21810.49110360  1648.87320556
0.42000002 21871.00685024  1519.26956284
0.42100002 21934.95906811  1805.02786725
0.42200002 22001.49178776  2373.19102414
0.42300002 22069.98651700  1544.01632989
0.42400002 22141.05313480  1976.08908592
0.42500002 22215.01319574  1987.35517466
0.42600002 22289.88401922  1998.73399472
0.42700002 22368.17028334  1723.24392029
0.42800002 22447.68859811  1733.41059569
0.42900002 22529.90594612  2034.45060334
0.43000002 22613.60673827  1461.96974491
0.43100002 22697.62118513  1617.88651474
0.43200002 22784.44423000  2071.78961201
0.43300002 22871.89546292  2233.44069779
0.43400002 22961.29678737  2097.51456092
0.43500002 23051.07255527  1809.04825987
0.43600002 23142.80225667  1972.11398776
0.43700002 23234.72436913  1679.17360973
0.43800002 23327.00527680  2150.51671838
0.43900002 23421.19964312  1854.95909964
0.44000002 23515.20563867  2177.74329740
0.44100002 23610.08582108  1565.34876412
0.44200002 23705.19853238  1732.73156884
0.44300002 23800.81286091  2060.67447515
0.44400002 23896.23550638  2233.10331390
0.44500002 23991.39369962  2407.53647185
0.44600002 24086.44304293  2099.49490733
0.44700002 24182.29484585  2112.56537785
0.44800002 24276.94555062  1962.06283239
0.44900002 24371.82874103  2303.13792518
0.45000002 24466.62669510  2317.23432411
0.45100002 24559.83815015  1831.67281605
0.45200002 24653.01479535  1842.68967821
0.45300002 24745.14121578  2190.68745566
0.45400002 24836.61470883  2034.11884106
0.45500002 24927.56262382  2557.56804642
0.45600002 25017.04096661  2400.88553535
0.45700002 25105.83869264  1897.24831992
0.45800002 25193.00059846  1907.99199075
0.45900002 25279.05701036  1918.68051802
0.46000002 25364.23978934  1753.93726456
0.46100002 25447.18752557  1763.49017910
0.46200002 25529.39022253  1950.31785849
0.46300002 25609.84182138  2851.91212040
0.46400002 25688.20528183  2150.10288399
0.46500002 25765.99670916  1801.04325533
0.46600002 25840.91071151  2172.18705736
0.46700002 25914.19122499  2183.01157226
0.46800002 25986.18241917  3107.81763372
0.46900002 26055.61477888  1836.92092897
0.47000002 26123.18984950  3137.52586558
0.47100002 26188.87622721  2410.42428220
0.47200002 26252.59332911  2235.14590198
0.47300002 26313.96611056  3367.66154245
0.47400002 26372.55571688  2818.56702583
0.47500002 26429.45550498  2075.76953375
0.47600002 26484.69538008  2273.97605311
0.47700002 26536.27612618  2283.18130611
