# SAXS profile: number of points = 501, q_min = 0, q_max = 0.5, delta_q = 0.001
#    q    intensity    error
0.00000000 1664650.74656090 349.57665678
0.00100000 1664569.65373588 649.18218037
0.00200000 1664326.31523919 823.84155213
0.00300000 1663920.94605932 1397.69364448
0.00400000 1663353.42807866 1497.01814215
0.00500000 1662624.25993564 1496.36189317
0.00600000 1661733.34054084 1919.30208646
0.00700000 1660681.23496549 2590.66283421
0.00800000 1659467.75743772 3360.42235069
0.00900000 1658094.13696315 3730.71196765
0.01000000 1656559.75529969 2733.32371427
0.01100000 1654865.88874955 3872.38634828
0.01200000 1653012.41306354 4190.38665084
0.01300000 1651000.51282507 3467.10122985
0.01400000 1648830.20897278 5564.80220198
0.01500000 1646502.91640685 4346.76789287
0.01600000 1644017.98023637 4192.24603701
0.01700000 1641377.74603887 4874.89212442
0.01800000 1638582.05531591 5136.95497457
0.01900000 1635631.60692374 4906.89504218
0.02000000 1632527.51360632 8742.18523082
0.02100000 1629271.88205942 5914.25720002
0.02200000 1625863.13298117 7852.91928908
0.02300000 1622304.61814053 8760.44533672
0.02400000 1618595.69217551 6676.70753467
0.02500000 1614739.04952261 6927.23083882
0.02600000 1610734.55550690 8480.51782263
0.02700000 1606584.37809700 6747.65469706
0.02800000 1602288.38953038 8363.94577692
0.02900000 1597848.93459259 10066.44875013
0.03000000 1593267.53201948 8149.56380088
0.03100000 1588544.49539572 9150.01671450
0.03200000 1583681.20906644 8623.14458053
0.03300000 1578681.32053107 8051.27510588
0.03400000 1573543.14670547 9087.21209151
0.03500000 1568269.91235827 9315.52370958
0.03600000 1562862.77107722 11276.05541443
0.03700000 1557323.40590641 11539.76697145
0.03800000 1551653.51148032 9984.89080847
0.03900000 1545854.93920241 13912.69509712
0.04000000 1539927.77017636 13258.77871562
0.04100000 1533875.73307280 13528.78459299
0.04200000 1527699.78769358 10839.03049654
0.04300000 1521400.70573991 12049.49414877
0.04400000 1514982.19927357 10226.13032002
0.04500000 1508445.35315802 11449.10076245
0.04600000 1501790.34522056 12705.14691119
0.04700000 1495021.30558775 11840.56929094
0.04800000 1488138.52963599 14219.16431226
0.04900000 1481145.93366285 13330.31402346
0.05000000 1474043.26245876 12404.07463120
0.05100000 1466834.57086609 12585.44120431
0.05200000 1459518.50994289 11603.17269477
0.05300000 1452100.88920678 18819.22840143
0.05400000 1444581.89475039 14301.36142496
0.05500000 1436963.80341444 18105.74476764
0.05600000 1429247.81754121 17108.09717430
0.05700000 1421438.94303676 14839.82325800
0.05800000 1413535.92890369 18764.69033237
0.05900000 1405541.93742270 20239.80484420
0.06000000 1397460.01467753 17901.46362435
0.06100000 1389291.97266206 15504.49913945
0.06200000 1381039.81454050 15660.99222894
0.06300000 1372706.49900377 19766.97450987
0.06400000 1364290.98739508 15962.20529902
0.06500000 1355799.47300144 17449.14003376
0.06600000 1347232.72873109 16247.62746870
0.06700000 1338592.19572680 15019.00513893
0.06800000 1329881.15027668 17893.55171455
0.06900000 1321102.06836332 19420.20131417
0.07000000 1312255.74914488 16770.62925941
0.07100000 1303345.38464626 19706.58313886
0.07200000 1294373.19483381 18425.40329163
0.07300000 1285342.00087677 18547.48594171
0.07400000 1276253.76781952 20100.99778517
0.07500000 1267110.32864464 20223.08179307
0.07600000 1257912.85214450 15981.78353573
0.07700000 1248666.47705937 21914.09769991
0.07800000 1239371.29358987 17623.86062134
0.07900000 1230029.75771039 19188.46512029
0.08000000 1220645.40801811 23729.34784504
0.08100000 1211219.82004765 19367.40583125
0.08200000 1201754.18989939 16458.02440297
0.08300000 1192252.28146826 15022.37945153
0.08400000 1182715.53436386 15079.62377096
0.08500000 1173146.30211991 18160.30560935
0.08600000 1163546.62204408 15184.28413060
0.08700000 1153920.19977082 16754.92208745
0.08800000 1144266.37751041 21386.33960005
0.08900000 1134590.80898941 16848.67430487
0.09000000 1124892.84086650 23032.18199869
0.09100000 1115175.82622863 20006.25526246
0.09200000 1105441.26773348 16962.99705041
0.09300000 1095694.19987463 20084.07562750
0.09400000 1085931.42542641 21664.33295543
0.09500000 1076158.61469299 21695.35869195
0.09600000 1066377.15012041 17067.36708998
0.09700000 1056590.94511790 21744.64267280
0.09800000 1046800.35518028 18653.98320638
0.09900000 1037007.61644985 18666.13797383
0.10000000 1027213.85558951 17118.51970843
0.10100000 1017421.44577799 20236.51350828
0.10200000 1007633.23955788 17124.72771177
0.10300000 997850.44075216 15566.46760799
0.10400000 988075.96379629 18674.63659430
0.10500000 978312.77069071 21777.24330018
0.10600001 968557.61817853 15545.35050323
0.10700001 958818.60492272 17086.14834376
0.10800001 949093.54142266 17069.44814580
0.10900001 939387.03207728 17049.87543467
0.11000001 929698.33826504 21671.26928501
0.11100001 920030.62877855 21639.12140750
0.11200001 910385.35455375 18517.23898336
0.11300001 900764.11227169 21564.29386305
0.11400001 891169.42682739 16909.94067024
0.11500001 881602.65752564 23009.83044491
0.11600001 872064.93506974 18365.68839744
0.11700001 862559.03770104 16794.02525495
0.11800001 853084.01605215 21318.57056521
0.11900001 843643.04902931 22778.36339669
0.12000001 834236.99822302 16655.54245408
0.12100001 824870.51703583 18114.15740743
0.12200001 815541.22916052 18056.08366426
0.12300001 806253.09052466 23994.09310448
0.12400001 797005.13787627 16438.23174323
0.12500001 787799.65095816 17867.29692565
0.12600001 778640.03511016 17799.71204140
0.12700001 769525.34021619 16252.37595128
0.12800001 760457.25782169 16186.33349558
0.12900001 751437.62530204 14653.03438402
0.13000001 742467.59006817 20425.28436552
0.13100001 733547.38474929 14524.23890267
0.13200001 724679.25126581 20240.29244199
0.13300001 715864.20082983 15827.75822652
0.13400001 707102.17602279 22910.11158325
0.13500001 698396.22102214 19946.19701282
0.13600001 689746.34589615 18426.57449944
0.13700001 681153.57842090 15509.86771198
0.13800001 672617.33397418 14024.07207468
0.13900001 664141.60090197 13946.97427666
0.14000001 655724.84063362 13868.58103345
0.14100001 647369.97344595 16546.77730167
0.14200001 639076.10929404 16449.81982909
0.14300001 630845.57252003 14988.89151007
0.14400001 622675.51109470 14897.51230565
0.14500001 614572.00248645 25572.34222976
0.14600001 606532.56751366 16048.85249351
0.14700001 598559.59099000 15945.62825623
0.14800001 590650.32213293 15841.24238697
0.14900001 582808.80497331 14424.51860365
0.15000001 575034.12469900 20839.23766235
0.15100001 567327.24920666 12935.06189225
0.15200001 559689.65592622 21836.29295635
0.15300001 552120.92694652 16580.19221861
0.15400001 544619.59570869 20259.84991645
0.15500001 537189.69338667 13827.26336032
0.15600001 529827.94332768 13725.19351966
0.15700001 522539.52770191 13622.60613013
0.15800001 515319.01480477 15977.46680814
0.15900001 508171.53146667 13415.72906395
0.16000001 501093.31037766 14521.68482020
0.16100001 494089.06584644 18009.54730023
0.16200001 487156.10393968 14293.16076431
0.16300001 480294.70241581 20085.92540324
0.16400001 473506.42248793 12891.21296082
0.16500001 466789.27655343 11623.05353492
0.16600001 460145.54471099 13831.97572706
0.16700001 453573.49196477 14859.06829833
0.16800001 447074.34539634 13600.00222910
0.16900001 440649.05652129 12360.20661905
0.17000001 434295.05210266 12253.63547369
0.17100001 428014.36347154 12147.04820892
0.17200001 421806.14181918 14229.63086623
0.17300001 415670.32341301 18443.29312081
0.17400001 409607.93385811 15053.09228018
0.17500001 403616.87094436 11721.03448578
0.17600001 397696.89522391 11614.73837357
0.17700001 391851.94361416 10462.44738865
0.17800001 386076.85033848 14512.62948969
0.17900001 380373.34976196 11297.08902153
0.18000001 374742.67754469 12209.11701110
0.18100001 369183.59140240 16125.94003419
0.18200001 363693.28973518 10981.71940231
0.18300001 358274.71033134 11866.05896672
0.18400001 352926.38478950 10773.07840463
0.18500001 347648.51899411 11639.27296579
0.18600001 342440.64365308 10566.00655909
0.18700001 337301.29696863 11414.27642868
0.18800001 332229.86344582 13186.20390316
0.18900001 327230.30001242 9326.06399099
0.19000001 322294.94106976 9233.75049793
0.19100001 317430.22787712 10056.19009430
0.19200001 312631.10624377 12670.93933478
0.19300001 307900.69098827 10751.89263737
0.19400001 303235.02861422 8869.62500609
0.19500001 298635.93030201 12291.85547208
0.19600001 294101.29506203 9559.76304775
0.19700001 289633.38863377 9462.32325383
0.19800001 285228.73699781 11068.30166227
0.19900001 280888.48150551 10111.98581209
0.20000001 276609.89368323 11675.70416418
0.20100001 272395.82946320 9078.95342510
0.20200001 268242.63501422 10618.38520890
0.20300001 264151.76691295 10507.95778445
0.20400001 260122.03985643 11198.25434511
0.20500001 256152.19519502 9498.12384678
0.20600001 252242.01961726 7832.11507932
0.20700001 248391.26665572 9299.76946318
0.20800001 244598.87076307 9201.80995308
0.20900001 240866.60794051 9104.75821054
0.21000001 237188.72434995 7507.02348055
0.21100001 233569.23365943 8170.25217964
0.21200001 230004.56825159 8083.51093335
0.21300001 226495.45528610 7997.55490424
0.21400001 223041.35863556 9351.00940288
0.21500001 219642.49064650 9251.34214341
0.21600001 216295.40652480 7040.41581524
0.21700001 213001.89563063 8358.19477972
0.21800001 209760.40259843 8268.75546138
0.21900001 206569.62100452 7498.47759700
0.22000001 203429.20033124 6743.67830984
0.22100001 200340.34425379 10007.00066864
0.22200001 197300.34139553 8579.60575127
0.22300001 194308.83721008 7181.65496287
0.22400001 191364.55327842 9041.97556997
0.22500001 188470.00532504 7666.96017917
0.22600001 185620.20230455 7584.44182482
0.22700001 182817.38257706 7502.82573576
0.22800001 180059.26945999 9277.55429766
0.22900001 177345.57710035 6118.42269931
0.23000001 174676.37018528 6052.53651316
0.23100001 172051.51726736 8382.35031769
0.23200001 169467.66578942 8292.05327924
0.23300001 166926.95249385 7030.96357157
0.23400001 164426.82632961 5796.04590224
0.23500001 161967.12241131 7453.72732590
0.23600001 159547.84534789 7940.69663854
0.23700001 157168.18855121 7855.26643533
0.23800001 154826.82826921 7770.75887838
0.23900001 152523.78719452 8785.37055795
0.24000001 150257.72529826 6518.18043175
0.24100001 148029.59207455 5910.82189113
0.24200001 145837.72223727 6378.94227239
0.24300001 143680.60167932 8413.93643234
0.24400001 141558.75010224 6762.96960605
0.24500001 139470.73817933 5661.11753049
0.24600001 137416.77505476 5091.29175662
0.24700001 135396.59998910 5540.42913365
0.24800001 133408.70361971 7474.22297388
0.24900001 131451.68316753 5422.38218718
0.25000001 129527.26490293 5364.37192973
0.25100001 127632.99571109 6754.33845257
0.25200001 125770.77610024 5250.30129669
0.25300001 123936.66211963 4721.98705016
0.25400001 122132.77228680 5605.89451319
0.25500001 120356.03491548 5083.83915536
0.25600001 118608.82407264 6401.31853806
0.25700001 116888.20242516 5880.64574224
0.25800001 115194.83438709 5370.38343322
0.25900001 113529.06940718 5313.16069965
0.26000001 111888.36937422 4380.42986826
0.26100001 110272.87492029 4767.09660836
0.26200001 108683.88578887 5573.85334642
0.26300001 107117.96942217 5938.62050577
0.26400001 105577.15502142 4616.36132175
0.26500001 104060.05840016 4567.19617930
0.26600001 102565.82223818 4929.31365002
0.26700001 101094.68626250 6502.41052810
0.26800001 99646.19957987  6433.15894930
0.26900001 98218.81959507  3977.86238184
0.27000001 96813.76363758  5116.12358153
0.27100001 95429.46166896  4672.22666442
0.27200001 94066.62061946  6163.24527465
0.27300001 92723.89370790  4954.23787527
0.27400001 91399.75316653  4901.31199551
0.27500001 90097.30722904  4476.03443497
0.27600001 88811.80742030  4428.15692754
0.27700001 87547.27579296  4745.93804535
0.27800001 86300.11699241  4695.15808718
0.27900001 85071.61827803  3930.30895046
0.28000001 83860.46712877  4595.13451380
0.28100001 82667.24524430  4196.18956720
0.28200001 81491.50852147  4151.17764056
0.28300001 80332.66123810  5817.69160222
0.28400001 79189.72780359  3723.89712622
0.28500001 78063.79186848  5023.40524450
0.28600001 76953.63303536  4306.71027667
0.28700001 75859.99547527  4915.72793947
0.28800001 74780.36154478  3890.07459169
0.28900001 73717.66932505  3527.39064417
0.29000001 72669.11940926  4758.01081854
0.29100001 71635.99026808  3451.42217449
0.29200001 70616.99016701  3413.97855123
0.29300001 69612.61083268  3376.90791134
0.29400001 68621.49419427  4251.10176657
0.29500001 67645.65681373  4204.85422659
0.29600001 66682.20049652  4753.10747639
0.29700001 65732.63685346  3232.07390708
0.29800001 64796.81353383  3777.97839193
0.29900001 63874.28023136  5461.25121831
0.30000001 62963.52949478  3411.36418952
0.30100001 62066.72684004  4217.43428843
0.30200001 61181.54076008  3336.84139102
0.30300001 60309.48049621  2750.11244082
0.30400001 59449.52257131  2719.81578640
0.30500001 58602.08214810  3496.78640732
0.30600001 57765.36491674  3192.11421642
0.30700001 56941.43023727  2893.76362166
0.30800001 56128.87613882  3642.20294508
0.30900001 55328.08959127  2830.03191658
0.31000001 54538.77513209  3816.35097055
0.31100001 53760.15337463  3019.17035646
0.31200001 52993.73627881  2985.66724331
0.31300001 52237.52349483  2706.42622041
0.31400001 51493.67885278  3406.30701739
0.31500001 50759.22342528  3127.78349556
0.31600002 50036.83770407  3568.87761822
0.31700002 49324.44758189  2352.77626106
0.31800002 48622.43303845  3257.21694347
0.31900002 47931.59924864  2760.86024745
0.32000002 47251.23123021  3185.20564805
0.32100002 46580.81286328  2474.83870461
0.32200002 45921.67586691  2669.88636132
0.32300002 45271.00771765  2860.22240304
0.32400002 44631.86068804  2610.96397388
0.32500002 44002.24053195  2366.88063029
0.32600002 43382.89134734  2127.93092135
0.32700002 42773.56043593  2314.90520041
0.32800002 42174.99926050  2289.46994327
0.32900002 41584.29238591  3293.47611292
0.33000002 41004.77173788  3664.59662375
0.33100002 40433.88229303  2617.68966361
0.33200002 39874.13248542  2589.22691555
0.33300002 39323.18783059  2955.13770541
0.33400002 38782.53490977  2143.70471865
0.33500002 38251.00579869  2120.63586190
0.33600002 37728.40063692  2288.60489102
0.33700002 37215.45430412  2452.87070934
0.33800002 36712.63952160  1866.83780808
0.33900002 36218.30281309  2401.27359023
0.34000002 35733.42464449  2193.31770855
0.34100002 35257.87192691  1989.60180706
0.34200002 34792.29204626  2148.07621267
0.34300002 34335.07188270  2126.02775166
0.34400002 33887.80553104  1929.06342121
0.34500002 33448.97611291  1909.60213673
0.34600002 33020.08007764  1890.56477438
0.34700002 32598.96721627  2382.33263699
0.34800002 32187.68248848  2022.03030969
0.34900002 31784.89126527  2503.06030569
0.35000002 31391.29896591  2644.40315013
0.35100002 31007.35039502  2455.78226760
0.35200002 30630.45226092  2108.44728124
0.35300002 30263.72468284  2089.10501380
0.35400002 29905.03228625  1910.93165360
0.35500002 29555.50170451  1736.09025235
0.35600002 29214.04487704  1877.29461272
0.35700002 28881.18175019  2171.28734682
0.35800002 28557.19949321  1691.58579210
0.35900002 28242.13053530  1982.59765748
0.36000002 27935.19772832  1815.22923437
0.36100002 27636.04607630  1500.63737302
0.36200002 27346.81983356  1637.93785151
0.36300002 27064.32645375  1921.02598268
0.36400002 26790.75787677  1613.47346955
0.36500002 26524.48552547  1601.81375676
0.36600002 26267.41960199  2892.04303517
0.36700002 26017.66124802  1723.40996270
0.36800002 25776.87824495  2568.15050119
0.36900002 25543.68405712  2126.51179849
0.37000002 25317.72959887  1972.50440648
0.37100002 25099.63373532  1820.72751741
0.37200002 24889.98846349  1531.85441255
0.37300002 24687.66351757  1800.47138563
0.37400002 24492.82835692  2066.58249051
0.37500002 24305.74549563  2056.26616634
0.37600002 24126.27892767  1637.20936559
0.37700002 23954.07781226  1765.65515918
0.37800002 23789.11664399  1487.65247981
0.37900002 23632.12928922  1481.73457663
0.38000002 23481.68411769  1476.17614199
0.38100002 23337.58718958  1337.24380931
0.38200002 23201.79161763  1466.23729074
0.38300002 23072.08915827  1328.95239847
0.38400002 22949.65382642  1590.41108552
0.38500002 22833.38630619  1454.25844274
0.38600002 22724.83148082  1451.09418295
0.38700002 22621.90047945  1316.59467028
0.38800002 22525.53990135  1577.23837861
0.38900002 22435.60347361  1706.22772500
0.39000002 22352.48327870  1573.16784769
0.39100002 22274.87058164  1309.76245225
0.39200002 22204.02237933  1701.60533566
0.39300002 22138.46531255  1700.89837055
0.39400002 22080.14683499  1569.89851435
0.39500002 22026.41763222  1439.20619627
0.39600002 21978.60829091  1701.47404145
0.39700002 21935.81860250  1440.52527588
0.39800002 21899.75877175  1572.84074951
0.39900002 21868.01451160  1574.49711943
0.40000002 21841.93151262  2102.06758837
0.40100002 21820.76818803  1973.68857612
0.40200002 21805.13095344  1581.74427430
0.40300002 21794.15381803  1584.87094074
0.40400002 21788.06475251  1588.34999571
0.40500002 21786.19215149  2255.52458031
0.40600002 21790.02426361  1330.28104432
0.40700002 21797.63943744  1334.01559678
0.40800002 21809.59708838  1471.82072925
0.40900002 21825.49554960  1879.17525586
0.41000002 21846.27884256  2020.23473169
0.41100002 21870.76886890  1892.25901220
0.41200002 21898.31911097  1627.92111984
0.41300002 21931.11522760  1361.92232017
0.41400002 21966.77186693  2051.14742026
0.41500002 22005.95956445  2059.75791283
0.41600002 22047.78803440  1516.99812759
0.41700002 22094.29121159  1385.31212461
0.41800002 22144.32419508  1809.30209409
0.41900002 22195.59178865  1817.81905363
0.42000002 22250.50249851  1545.63122930
0.42100002 22308.88547077  1694.58302066
0.42200002 22369.70107749  1561.29336069
0.42300002 22432.67301702  1569.38987864
0.42400002 22498.12626133  1577.68117883
0.42500002 22566.57075931  1730.40472782
0.42600002 22635.88548791  1884.77709446
0.42700002 22708.55606014  2186.83405222
0.42800002 22782.50201713  2199.08111141
0.42900002 22859.13299156  1769.29697739
0.43000002 22937.36671917  2076.06116013
0.43100002 23015.81156494  1640.56712609
0.43200002 23097.10129140  1950.20383996
0.43300002 23179.04465566  1659.85146645
0.43400002 23262.92195139  1973.27744804
0.43500002 23347.21722551  1679.59888680
0.43600002 23433.44676715  1536.06250838
0.43700002 23519.82824263  1854.30334652
0.43800002 23606.58795853  2176.29144703
0.43900002 23695.25568381  1720.27564417
0.44000002 23783.71330401  1887.95125154
0.44100002 23873.11730045  2532.46040325
0.44200002 23962.69795030  1751.55348968
0.44300002 24052.74420365  1762.10412387
0.44400002 24142.72133685  1772.67939817
0.44500002 24232.32174612  1783.25664181
0.44600002 24321.86657595  1630.78123120
0.44700002 24412.25250582  2952.90620305
0.44800002 24501.37687763  2640.26849746
0.44900002 24590.75846606  1825.86390264
0.45000002 24680.04850344  1669.60536038
0.45100002 24767.78165397  2350.95794601
0.45200002 24855.42234394  1688.92602831
0.45300002 24942.01186974  2208.11641548
0.45400002 25028.04864919  1878.98084139
0.45500002 25113.52493414  1717.76518691
0.45600002 25197.47987736  2072.74479295
0.45700002 25280.77242753  1736.78914808
0.45800002 25362.46786894  2270.06779420
0.45900002 25443.00152098  2282.23734460
0.46000002 25522.72404755  1941.38609669
0.46100002 25600.17861570  1951.50170837
0.46200002 25676.87734568  2139.91105941
0.46300002 25751.86042549  2867.72731290
0.46400002 25824.75449776  2161.53205391
0.46500002 25897.11650895  2172.25023573
0.46600002 25966.55196721  2546.53987212
0.46700002 26034.38502412  2375.89808991
0.46800002 26100.98626203  2019.82491762
0.46900002 26164.89198874  1844.62497263
0.47000002 26227.07256623  2408.82559402
0.47100002 26287.32805675  1861.14291463
0.47200002 26345.65121478  2243.06885074
0.47300002 26401.67115563  1877.15890814
0.47400002 26454.86413121  2450.38190630
0.47500002 26506.37862555  2838.83328535
0.47600002 26556.25367984  2280.12004902
0.47700002 26602.49702808  2098.13904005
