# SAXS profile: number of points = 501, q_min = 0, q_max = 0.5, delta_q = 0.001
#    q    intensity    error
0.00000000 1682732.95097188 328.13292544
0.00100000 1682651.34727622 555.27495779
0.00200000 1682406.47867141 984.20782119
0.00300000 1681998.56432753 1110.11909200
0.00400000 1681427.47243645 1639.39184792
0.00500000 1680693.71695751 2722.72392924
0.00600000 1679797.19202339 2645.68068515
0.00700000 1678738.46178974 2215.93486166
0.00800000 1677517.34790436 2717.57821834
0.00900000 1676135.07434028 3519.88380658
0.01000000 1674591.02607803 3315.69037480
0.01100000 1672886.47786481 3613.43494951
0.01200000 1671021.33682226 4236.03927457
0.01300000 1668996.74142622 3504.89331158
0.01400000 1666812.73077328 4125.36169155
0.01500000 1664470.71643477 3994.72989732
0.01600000 1661970.08514121 4661.82629722
0.01700000 1659313.15902174 4928.16030337
0.01800000 1656499.77957270 7081.53687633
0.01900000 1653530.64423650 7936.94745047
0.02000000 1650406.87863316 7798.17285430
0.02100000 1647130.58957187 6522.63743043
0.02200000 1643700.22131633 7939.07242965
0.02300000 1640119.06204108 7085.31467053
0.02400000 1636386.54895271 9204.67475757
0.02500000 1632505.33653962 6366.77110328
0.02600000 1628475.29750810 6595.32525657
0.02700000 1624298.68238335 9550.87668985
0.02800000 1619975.23061333 9160.96034924
0.02900000 1615507.40270110 10177.69710432
0.03000000 1610896.65961649 8239.73679268
0.03100000 1606143.30515772 9251.38586339
0.03200000 1601248.83159777 8718.80028962
0.03300000 1596216.88975210 8140.70651303
0.03400000 1591045.50319676 12529.48391579
0.03500000 1585738.28826842 11131.88329769
0.03600000 1580296.26642812 12278.90255760
0.03700000 1574721.08178897 10771.09269757
0.03800000 1569014.44935404 9178.73495351
0.03900000 1563178.28405924 11254.88416644
0.04000000 1557212.60430513 16280.65853244
0.04100000 1551121.24411600 9772.06429103
0.04200000 1544905.03796223 10961.10175286
0.04300000 1538564.84657124 11169.98130459
0.04400000 1532104.39784806 11375.87568234
0.04500000 1525524.55448700 11578.73190656
0.04600000 1518825.89831886 12849.26769710
0.04700000 1512012.35106405 14152.43626416
0.04800000 1505084.22850552 14381.08047249
0.04900000 1498045.52120875 13482.41031845
0.05000000 1490895.78636891 12545.88862651
0.05100000 1483639.25907003 19673.05749172
0.05200000 1476274.63976630 14083.66071969
0.05300000 1468807.53494014 16656.27822270
0.05400000 1461238.31599460 19288.34667062
0.05500000 1453569.25195225 12209.98228599
0.05600000 1445801.55010661 16070.08497933
0.05700000 1437940.26604878 21267.13752758
0.05800000 1429983.95414847 13920.89444364
0.05900000 1421935.98372042 15356.90934144
0.06000000 1413799.35216312 16817.14407966
0.06100000 1405575.75685607 16993.41169452
0.06200000 1397267.53721968 14524.59672833
0.06300000 1388877.29231113 14666.54489254
0.06400000 1380404.24583004 17496.62463416
0.06500000 1371854.53311567 14939.49656447
0.06600000 1363228.71956043 20550.67390891
0.06700000 1354528.78702049 15197.81370161
0.06800000 1345757.37356449 18107.16630889
0.06900000 1336917.42078886 15441.39693306
0.07000000 1328009.59432523 15557.63312606
0.07100000 1319037.05488404 17094.72103198
0.07200000 1310002.05791832 21516.78480930
0.07300000 1300907.47564803 20216.10311881
0.07400000 1291755.27092447 15985.47222684
0.07500000 1282547.21226420 19007.35057668
0.07600000 1273284.47799869 17647.72369240
0.07700000 1263972.45315240 17746.17407435
0.07800000 1254610.97257996 16353.85479451
0.07900000 1245202.51607718 14942.43089378
0.08000000 1235750.90039897 19518.68638744
0.08100000 1226257.40050023 19607.85675396
0.08200000 1216723.42226600 22722.31097707
0.08300000 1207152.47239681 16731.13405265
0.08400000 1197546.38416684 22903.07567223
0.08500000 1187907.20516861 16856.40403267
0.08600000 1178237.16716818 18451.19490416
0.08700000 1168539.99582774 18509.67440308
0.08800000 1158814.86270824 24752.28662991
0.08900000 1149067.60625747 17063.65475440
0.09000000 1139297.49627292 18661.69386559
0.09100000 1129507.83407604 20263.37149532
0.09200000 1119700.37148378 17181.80300774
0.09300000 1109879.85395344 23473.96001421
0.09400000 1100043.22873590 17243.17842082
0.09500000 1090196.42548443 17268.71219135
0.09600000 1080340.36478447 23578.42956979
0.09700000 1070479.43154159 15736.04838346
0.09800000 1060613.56650210 15750.11220309
0.09900000 1050745.45826609 25217.89218419
0.10000000 1040875.82637277 18923.12341336
0.10100000 1031007.17357960 15774.41049767
0.10200000 1021142.60310639 22087.31554410
0.10300000 1011282.99160900 20508.82003458
0.10400000 1001431.64462864 17349.80405941
0.10500000 991591.06641588 22072.81817693
0.10600001 981758.36428888 20484.38923475
0.10700001 971941.64849029 26767.27425903
0.10800001 962138.73909008 17304.06603689
0.10900001 952353.77626192 21999.37326707
0.11000001 942586.75659418 17263.47725961
0.11100001 932840.44467182 21940.40829149
0.11200001 923116.37896375 18776.18803205
0.11300001 913416.20788585 18743.30146827
0.11400001 903742.25670316 26502.24292566
0.11500001 894096.29530541 18668.73152505
0.11600001 884479.01340543 17074.86815787
0.11700001 874893.64480553 18582.74189082
0.11800001 865338.85796239 23169.44901318
0.11900001 855817.97422977 23107.08639259
0.12000001 846331.96123672 15360.92582002
0.12100001 836885.53882889 16846.50669023
0.12200001 827476.12921046 24427.09648508
0.12300001 818108.00677678 19781.85253587
0.12400001 808779.67851872 21230.46756144
0.12500001 799493.96065106 19643.56753881
0.12600001 790254.08273876 27097.81377405
0.12700001 781059.03736351 16495.96764651
0.12800001 771910.40780705 17923.76051401
0.12900001 762810.44381123 17849.76522648
0.13000001 753760.04323329 19254.80121197
0.13100001 744759.21194311 14746.23309158
0.13200001 735810.98265764 23487.08767362
0.13300001 726915.44386361 18994.30144360
0.13400001 718073.21206312 17449.17987579
0.13500001 709287.01800848 18810.29260446
0.13600001 700556.96174411 15836.09086691
0.13700001 691884.06080651 17186.40088083
0.13800001 683267.56510143 17095.35528498
0.13900001 674712.15605465 21253.43391799
0.14000001 666215.39990958 18317.59328438
0.14100001 657780.71492997 15411.80287768
0.14200001 649407.17530111 27859.56913442
0.14300001 641097.42196505 16617.24596113
0.14400001 632847.67534373 16517.32510559
0.14500001 624665.06086434 17784.21512173
0.14600001 616546.45386961 14954.33494407
0.14700001 608494.60104695 18912.01309274
0.14800001 600506.66982794 14763.45717424
0.14900001 592586.42272820 15999.83416855
0.15000001 584733.14679292 17217.46831969
0.15100001 576948.23614435 18416.18856669
0.15200001 569232.56094746 14370.27667921
0.15300001 561586.11540622 14269.90386585
0.15400001 554007.04307566 12880.66435936
0.15500001 546499.67260030 15345.71153083
0.15600001 539060.77399250 16503.34637465
0.15700001 531695.49320009 21422.01243208
0.15800001 524398.20966847 17509.65704726
0.15900001 517174.30007541 13653.40216644
0.16000001 510019.89932076 22170.56606998
0.16100001 502939.56472816 12221.43199980
0.16200001 495930.88027642 15763.16377370
0.16300001 488994.09130079 14435.10625665
0.16400001 482130.68294632 15512.55545614
0.16500001 475338.88100392 15386.72030452
0.16600001 468620.86609076 15260.63922475
0.16700001 461974.46584310 16298.45992447
0.16800001 455401.23787441 13853.30631024
0.16900001 448902.55121089 13736.41871566
0.17000001 442475.21660808 12484.43882611
0.17100001 436121.75248030 14627.52426892
0.17200001 429840.72130624 18962.42431589
0.17300001 423632.88444071 23219.31949272
0.17400001 417498.43499672 10959.33443623
0.17500001 411435.82884380 16292.85959169
0.17600001 405444.61101416 16146.83239624
0.17700001 399528.79369246 16001.12894313
0.17800001 393683.26224798 20083.75257218
0.17900001 387909.45270953 12568.26686143
0.18000001 382209.33484168 14527.77750355
0.18100001 376580.86647119 14392.92139640
0.18200001 371021.52422801 18332.17437808
0.18300001 365534.34641922 12106.49812531
0.18400001 360117.81112252 10992.59670381
0.18500001 354772.08030608 15837.02641304
0.18600001 349496.85688133 14705.08094800
0.18700001 344290.49158894 10679.89155366
0.18800001 339152.31889422 11537.96243391
0.18900001 334086.57052246 10473.61448073
0.19000001 329085.57817300 12256.79293817
0.19100001 324155.42720645 13069.94744252
0.19200001 319291.31953095 9243.48413719
0.19300001 314496.43685597 10982.21609395
0.19400001 309766.65452276 10872.81008753
0.19500001 305103.96424825 12558.07976189
0.19600001 300506.09798741 9767.95117668
0.19700001 295975.42835631 10548.56476512
0.19800001 291508.51855502 9571.68265910
0.19900001 287106.17204307 11197.14123886
0.20000001 282766.14790252 8525.39976218
0.20100001 278491.15017393 10125.93869890
0.20200001 274277.38278193 14197.96939075
0.20300001 270126.37694645 9919.04103029
0.20400001 266036.89846025 8998.69851575
0.20500001 262007.77124162 10524.85266825
0.20600001 258038.82983121 8813.31664947
0.20700001 254129.66973311 9514.61528455
0.20800001 250279.47859133 9415.51442968
0.20900001 246489.75031869 11646.64125311
0.21000001 242754.98742586 9988.15442980
0.21100001 239079.06468719 9123.25753975
0.21200001 235458.14603576 11284.33218222
0.21300001 231893.48124196 8932.53731973
0.21400001 228384.32381658 11048.09218694
0.21500001 224930.81159035 10202.86209610
0.21600001 221529.51096503 7931.86451511
0.21700001 218182.28553163 7134.56107420
0.21800001 214887.51259631 7059.05512254
0.21900001 211643.78449184 6984.24521846
0.22000001 208450.95573167 8983.19436200
0.22100001 205310.29681998 8204.19984885
0.22200001 202218.99543557 8117.07086060
0.22300001 199176.33603581 6692.32520725
0.22400001 196181.55132126 6621.12767018
0.22500001 193237.01892178 9171.02935170
0.22600001 190337.52395440 8425.29089626
0.22700001 187485.61270190 7694.40990915
0.22800001 184678.73455692 6978.08631523
0.22900001 181916.85238135 7531.35804475
0.23000001 179199.91104379 7451.13265358
0.23100001 176527.81951094 6143.16840951
0.23200001 173897.19096328 7901.01924508
0.23300001 171310.12533249 8418.17995697
0.23400001 168763.83128707 7138.71040107
0.23500001 166258.71556136 8239.78233293
0.23600001 163794.56860618 6405.18690829
0.23700001 161370.04092014 5760.91073333
0.23800001 158984.52850001 8549.39342446
0.23900001 156637.85428433 5638.96302096
0.24000001 154328.53783972 7810.56766951
0.24100001 152057.51438875 6071.65683674
0.24200001 149823.26001861 6007.16389460
0.24300001 147624.21151150 6483.65567628
0.24400001 145460.71520705 5880.24969040
0.24500001 143331.57249422 6346.72233027
0.24600001 141236.97158870 7325.96206286
0.24700001 139176.62351939 5177.37063984
0.24800001 137148.94434834 7683.76997061
0.24900001 135152.30722218 6081.85411272
0.25000001 133189.04578599 5014.56781107
0.25100001 131256.09657723 6449.92489094
0.25200001 129355.79167804 5890.86303171
0.25300001 127483.95686261 5342.85288488
0.25400001 125642.79262426 6247.58815882
0.25500001 123828.97951905 4755.03303850
0.25600001 122045.32687287 6116.30184561
0.25700001 120288.57695077 5120.68496307
0.25800001 118559.44428849 8290.86233137
0.25900001 116858.39820616 5013.22552024
0.26000001 115182.65281992 5411.28128552
0.26100001 113532.80601617 6246.57528257
0.26200001 111909.42385242 7063.72316780
0.26300001 110309.75835204 6552.39995615
0.26400001 108735.56088407 7780.02974939
0.26500001 107185.42812228 5987.37829823
0.26600001 105658.41521176 4231.61972947
0.26700001 104155.03108516 5024.43893731
0.26800001 102674.64896425 5385.79896628
0.26900001 101215.71316320 5738.93120793
0.27000001 99779.32637710  5678.44173284
0.27100001 98364.21889291  4414.58635282
0.27200001 96970.87568565  6353.53207560
0.27300001 95597.93888321  4321.98302144
0.27400001 94243.94592130  5053.83183920
0.27500001 92911.99226938  4231.21232819
0.27600001 91597.62262909  5328.23396050
0.27700001 90304.17386163  4142.25265107
0.27800001 89028.56872036  5961.35324365
0.27900001 87771.84271432  4423.70108217
0.28000001 86532.86603521  5835.77676161
0.28100001 85312.03601238  5413.04894118
0.28200001 84109.15042021  3927.47696476
0.28300001 82923.42553828  4239.04571415
0.28400001 81753.85083421  4892.96820402
0.28500001 80601.70290013  5878.28247073
0.28600001 79465.57231933  4105.19166032
0.28700001 78346.27752735  3723.01528432
0.28800001 77241.17226111  4687.76696641
0.28900001 76153.44293676  3643.94241701
0.29000001 75080.00084226  3604.96641108
0.29100001 74022.34932780  3566.39695943
0.29200001 72979.06541925  3528.17308470
0.29300001 71950.74903581  5076.84509228
0.29400001 70935.95753358  3138.91626945
0.29500001 69936.57360773  5589.33122731
0.29600001 68949.93249222  3993.23552932
0.29700001 67977.49992613  4254.03214675
0.29800001 67018.97278533  3306.38117888
0.29900001 66074.03088857  2973.33153074
0.30000001 65141.15742847  3529.34807655
0.30100001 64222.39202845  3491.12939594
0.30200001 63315.43908145  3453.22421098
0.30300001 62421.90372998  4269.65841726
0.30400001 61540.80172158  3941.68853687
0.30500001 60672.33627039  3898.80451331
0.30600001 59814.86664072  3305.36968705
0.30700001 58970.39531533  4903.97830659
0.30800001 58137.49715767  2964.14043292
0.30900001 57316.57227086  3464.78695781
0.31000001 56507.47295925  3163.28848602
0.31100001 55709.13904351  2867.90661374
0.31200001 54923.17258008  3094.37168967
0.31300001 54147.57722704  3060.42120977
0.31400001 53384.70556525  3531.39844034
0.31500001 52631.21033241  2744.19143666
0.31600002 51890.21576258  3701.06981450
0.31700002 51159.31697787  3660.44930308
0.31800002 50438.94929318  3137.55498934
0.31900002 49729.96280385  3580.55749141
0.32000002 49031.64546225  2596.96122487
0.32100002 48343.42303406  3035.48367604
0.32200002 47666.67046416  2540.39532268
0.32300002 46998.60612464  2740.95883898
0.32400002 46342.21782226  2711.01987097
0.32500002 45695.40847436  2234.50558020
0.32600002 45059.03212560  2431.16019346
0.32700002 44432.89231403  3497.75744859
0.32800002 43817.68516675  2378.64315191
0.32900002 43210.45073077  2780.59263620
0.33000002 42614.48507061  2327.39021234
0.33100002 42027.29634192  3767.32702249
0.33200002 41451.58839723  2691.65902004
0.33300002 40884.65514100  2867.64984739
0.33400002 40328.16862101  2431.78868301
0.33500002 39780.84207328  2205.44998898
0.33600002 39242.80720584  2777.21359748
0.33700002 38714.43215820  3140.51488540
0.33800002 38196.15248547  2136.50189045
0.33900002 37686.76715608  2690.83530238
0.34000002 37186.71819291  2472.73094334
0.34100002 36696.39888069  2070.77788691
0.34200002 36215.88648880  2235.96893771
0.34300002 35743.95831036  2213.26600340
0.34400002 35281.94957946  1825.84097721
0.34500002 34828.76131380  2169.13535735
0.34600002 34385.49240987  2326.69445411
0.34700002 33949.91318610  1772.18555225
0.34800002 33524.49812094  1930.50831573
0.34900002 33107.56861892  2781.03589570
0.35000002 32700.07349775  2238.15663656
0.35100002 32302.14619134  2046.66407962
0.35200002 31911.40573163  2027.65081622
0.35300002 31531.00232239  2009.15556314
0.35400002 31158.59856116  2488.79317795
0.35500002 30795.40210767  2302.26437061
0.35600002 30440.47606039  1630.08757024
0.35700002 30094.16794404  2262.47965320
0.35800002 29757.00621090  2243.38080450
0.35900002 29428.68840111  2383.72387340
0.36000002 29108.62372047  1891.47845895
0.36100002 28796.31995906  2032.73232219
0.36200002 28494.19112855  2016.96141457
0.36300002 28198.69049751  1693.61343150
0.36400002 27912.30100413  1681.01840760
0.36500002 27633.32435857  2427.31132663
0.36600002 27363.45864011  2108.90185729
0.36700002 27101.07378951  1944.77314726
0.36800002 26847.62238968  2229.02395449
0.36900002 26601.89907844  2362.24875006
0.37000002 26363.42162993  1907.26182816
0.37100002 26132.93705983  1604.03975272
0.37200002 25911.02456640  1884.63846111
0.37300002 25696.39087776  1874.03787549
0.37400002 25489.21288739  2150.65243925
0.37500002 25289.95517377  1426.35353937
0.37600002 25098.48201217  1703.18307003
0.37700002 24914.27130788  2118.95887511
0.37800002 24737.14869942  1546.93766720
0.37900002 24568.34075877  1400.39548959
0.38000002 24405.86044388  1534.27448949
0.38100002 24249.91208408  1528.47203107
0.38200002 24102.28225177  1938.54665335
0.38300002 23960.92666695  1656.17932968
0.38400002 23826.85896894  2339.20199009
0.38500002 23698.87023940  1509.38111705
0.38600002 23578.74807398  1505.62102959
0.38700002 23464.27215036  1638.74484462
0.38800002 23356.36504785  1635.41275813
0.38900002 23254.89520982  1768.53486449
0.39000002 23160.43902839  1358.35981337
0.39100002 23071.33078104  1899.23203987
0.39200002 22989.27005292  1355.21753383
0.39300002 22912.46560719  1895.77749416
0.39400002 22842.89242048  1624.12972804
0.39500002 22777.91990207  1488.30935691
0.39600002 22718.92741394  1488.20341076
0.39700002 22665.06977531  2300.27804048
0.39800002 22617.99915635  1895.16223910
0.39900002 22575.21150046  1760.86658046
0.40000002 22538.23088069  1626.80958204
0.40100002 22505.99075244  1764.24469867
0.40200002 22479.47785676  1766.54985107
0.40300002 22457.65760123  1360.93411512
0.40400002 22440.80940837  1499.60715977
0.40500002 22428.29053447  1502.47125409
0.40600002 22421.34147960  2190.11673950
0.40700002 22418.31524105  1783.60124509
0.40800002 22419.60526981  1512.98713332
0.40900002 22424.99786825  2068.70615136
0.41000002 22435.20787022  1659.75675688
0.41100002 22449.28509242  1387.36588445
0.41200002 22466.33145229  1670.14715930
0.41300002 22488.73897406  1396.55075646
0.41400002 22513.99522156  1821.94514963
0.41500002 22542.91289458  1828.68118066
0.41600002 22574.30795794  1976.83224155
0.41700002 22610.70935830  1984.76816152
0.41800002 22650.51151112  1708.30165911
0.41900002 22691.63908633  1858.44532923
0.42000002 22736.39913410  1866.54477536
0.42100002 22784.93885859  1874.97270752
0.42200002 22835.60632293  1593.81121883
0.42300002 22888.67663500  1455.71990297
0.42400002 22944.26964785  1901.50643717
0.42500002 23002.81833938  1616.86817769
0.42600002 23062.40335690  1624.86170551
0.42700002 23125.20751461  1633.10223207
0.42800002 23189.40222902  1939.90953539
0.42900002 23256.53470518  1650.05121552
0.43000002 23325.14485404  1507.97068627
0.43100002 23394.08174120  1970.71753927
0.43200002 23465.76650157  1981.33208845
0.43300002 23538.34262554  1838.81541305
0.43400002 23612.76665994  1540.73309757
0.43500002 23687.78625661  2323.77194189
0.43600002 23764.69943019  1713.55373362
0.43700002 23841.81568062  1723.04810089
0.43800002 23919.51286749  1575.09999697
0.43900002 23998.96672369  1742.32506671
0.44000002 24078.43473621  2389.18279992
0.44100002 24158.76173733  2082.24377282
0.44200002 24239.38714640  1610.70735221
0.44300002 24320.52090428  1943.69612278
0.44400002 24401.64078960  2606.09535983
0.44500002 24482.58523340  2620.61604758
0.44600002 24563.33119420  2470.45715193
0.44700002 24645.14713213  2153.00015550
0.44800002 24725.55885238  1831.79311439
0.44900002 24806.41329500  2846.53606050
0.45000002 24887.24930711  1851.98474496
0.45100002 24966.69671468  1862.01632923
0.45200002 25046.03485197  1701.87814885
0.45300002 25124.37045036  2224.26062138
0.45400002 25202.16149072  1720.04760326
0.45500002 25279.49765467  2247.85303799
0.45600002 25355.38222357  1738.11153380
0.45700002 25430.70924333  1921.79878860
0.45800002 25504.42922645  2458.37204965
0.45900002 25577.12266893  2117.78585736
0.46000002 25648.97797185  1950.98960189
0.46100002 25718.70613737  2138.76770375
0.46200002 25787.70841012  2328.24336415
0.46300002 25855.17963330  2339.37676410
0.46400002 25920.56119557  1988.75515199
0.46500002 25985.43574057  2361.29665766
0.46600002 26047.55078870  2189.55722307
0.46700002 26108.04517312  1832.78485802
0.46800002 26167.49274497  2393.14816242
0.46900002 26224.24403456  2958.09486730
0.47000002 26279.26570441  2227.95625202
0.47100002 26332.59298498  2423.65197321
0.47200002 26383.97080167  2433.52566223
0.47300002 26433.22157984  2631.16300077
0.47400002 26479.62498645  2264.00804365
0.47500002 26524.38063749  3030.14538765
0.47600002 26567.65651128  2281.09909618
0.47700002 26607.45780256  2098.53029635
