# SAXS profile: number of points = 501, q_min = 0, q_max = 0.5, delta_q = 0.001
#    q    intensity    error
0.00000000 1664650.74656090 274.66737318
0.00100000 1664569.57871934 599.24506257
0.00200000 1664326.01046980 1198.31476548
0.00300000 1663920.25872607 1297.85784804
0.00400000 1663352.21156695 1372.26562669
0.00500000 1662622.35023826 1645.99619189
0.00600000 1661730.59838365 1919.29891927
0.00700000 1660677.50543800 2391.37570722
0.00800000 1659462.88084584 2912.35747884
0.00900000 1658087.97432906 3481.98489494
0.01000000 1656552.16520198 2733.31119061
0.01100000 1654856.67808596 3276.61636527
0.01200000 1653001.50472633 3545.68838309
0.01300000 1650987.70200302 5200.61149068
0.01400000 1648815.38893218 4451.80174747
0.01500000 1646485.88608420 4741.87956307
0.01600000 1643998.61896576 4611.41633235
0.01700000 1641355.93706429 5317.99347465
0.01800000 1638557.62978209 5136.87840051
0.01900000 1635604.41141681 5397.49480122
0.02000000 1632497.38534339 7199.31379503
0.02100000 1629238.70312970 8602.38074254
0.02200000 1625826.83557316 7852.74397259
0.02300000 1622264.98839802 7008.18506888
0.02400000 1618552.63709813 7283.48719905
0.02500000 1614692.38659599 7556.76071439
0.02600000 1610684.19773799 8480.25268896
0.02700000 1606530.13011730 10795.88296885
0.02800000 1602230.12153629 9060.61175280
0.02900000 1597786.52791043 7909.04367629
0.03000000 1593200.96792703 8890.06180967
0.03100000 1588473.61149640 9149.60842322
0.03200000 1583605.77616679 8622.73384838
0.03300000 1578601.28014061 10466.12696983
0.03400000 1573458.40720802 8260.65701899
0.03500000 1568180.28591974 11008.62611551
0.03600000 1562768.21972199 9540.70042231
0.03700000 1557223.76541380 9763.79346070
0.03800000 1551548.64599688 9076.55999914
0.03900000 1545744.71328254 11129.36245104
0.04000000 1539812.28539218 13257.78439158
0.04100000 1533754.76003535 10628.92097987
0.04200000 1527573.19493338 15764.55610308
0.04300000 1521268.38213552 16064.59486104
0.04400000 1514844.00158608 12270.23698270
0.04500000 1508301.24570533 11448.00698683
0.04600000 1501640.18624876 12703.87656623
0.04700000 1494865.09968864 11839.33214016
0.04800000 1487976.11116490 10936.62492592
0.04900000 1480977.45743166 12218.06459253
0.05000000 1473868.29943682 11275.09301573
0.05100000 1466653.23182737 12583.88531529
0.05200000 1459330.65680741 17402.51889341
0.05300000 1451906.38751812 11760.44228714
0.05400000 1444380.75493489 11916.14178391
0.05500000 1436755.91645368 15689.37533957
0.05600000 1429033.10529225 13440.05698244
0.05700000 1421217.38105043 14837.51015076
0.05800000 1413307.58972175 16260.10457897
0.05900000 1405306.53567103 13912.53535294
0.06000000 1397217.65076208 17898.35894245
0.06100000 1389042.43598632 14209.90478419
0.06200000 1380783.11957073 13048.40108987
0.06300000 1372442.60262228 17128.08448155
0.06400000 1364019.85720532 18618.87192160
0.06500000 1355521.12904076 16103.59176629
0.06600000 1346947.03783384 17597.86387268
0.06700000 1338299.18293240 17745.84799617
0.06800000 1329580.83861354 15137.27855618
0.06900000 1320794.31000720 13868.34090438
0.07000000 1311940.64654762 13972.16854003
0.07100000 1303022.70434198 15479.91045263
0.07200000 1294043.14674450 14169.77312066
0.07300000 1285004.42142822 18542.61467003
0.07400000 1275908.69844956 14353.97353024
0.07500000 1266757.72432811 18773.35035450
0.07600000 1257552.73839072 17429.68177121
0.07700000 1248298.90125562 16065.60761245
0.07800000 1238996.15537951 16150.31564276
0.07900000 1229647.11478018 14755.76606946
0.08000000 1220255.35846189 17791.32396098
0.08100000 1210822.22921385 14893.11411809
0.08200000 1201349.07925966 16452.47641250
0.08300000 1191839.74358395 18020.61776873
0.08400000 1182295.41186370 16581.69392971
0.08500000 1172718.89906998 18153.68940983
0.08600000 1163111.69727941 18214.33003459
0.08700000 1153477.91213657 18271.09098621
0.08800000 1143816.82710114 16796.95089483
0.08900000 1134133.96293359 24497.29475000
0.09000000 1124428.74623274 19952.98903920
0.09100000 1114704.37918246 16921.21327097
0.09200000 1104962.75611722 23121.34675815
0.09300000 1095208.47106005 23163.66025143
0.09400000 1085438.59174410 20107.75085707
0.09500000 1075658.68375382 21685.28008374
0.09600000 1065870.22678051 18610.09503441
0.09700000 1056077.14753902 17076.76827853
0.09800000 1046279.54504764 17090.97717193
0.09900000 1036480.16508453 18656.64384880
0.10000000 1026679.64597546 17109.61710480
0.10100000 1016880.47264604 21781.58074850
0.10200000 1007085.99282103 20227.32311723
0.10300000 997296.60654803 26448.30724980
0.10400000 987515.54899382 24885.39300538
0.10500000 977745.95722967 23319.24217708
0.10600001 967984.71373401 21750.61754105
0.10700001 958239.47741255 18628.17631750
0.10800001 948508.53092080 24812.98433663
0.10900001 938795.90160916 21686.18634785
0.11000001 929101.33436135 18563.44553431
0.11100001 919427.90694047 21624.94538920
0.11200001 909776.91049118 16962.79129467
0.11300001 900150.04526595 16931.82314862
0.11400001 890549.82148591 15361.98514394
0.11500001 880977.71760514 18394.81560977
0.11600001 871434.75101765 18352.41672067
0.11700001 861923.50392171 28986.48880200
0.11800001 852443.80921682 22824.18406676
0.11900001 842997.96921340 25795.73907295
0.12000001 833587.09259802 21181.44902067
0.12100001 824215.96206857 16591.46809803
0.12200001 814882.00574221 16538.03108567
0.12300001 805589.40912023 16482.36008716
0.12400001 796337.37235352 25383.25493976
0.12500001 787127.72495336 20827.40058366
0.12600001 777964.14574550 25194.37004721
0.12700001 768845.63725587 17714.20431718
0.12800001 759773.65525490 17641.94510647
0.12900001 750750.70203444 17567.56725560
0.13000001 741777.12984660 16033.51341737
0.13100001 732853.46670486 18863.64912217
0.13200001 723982.22412593 14443.44605218
0.13300001 715164.11700118 17249.75931527
0.13400001 706399.23732506 14304.58523023
0.13500001 697690.61493475 18502.75598044
0.13600001 689038.30855593 14159.73790847
0.13700001 680443.14953837 15493.69124557
0.13800001 671904.63123551 16811.05466625
0.13900001 663426.79069551 13931.96326161
0.14000001 655008.14414507 18009.44977260
0.14100001 646651.53844627 22037.88546962
0.14200001 638356.00357677 17800.55799931
0.14300001 630123.98818228 14971.74666539
0.14400001 621952.55315536 16232.96240306
0.14500001 613848.11141809 17476.25655647
0.14600001 605807.64829544 17365.47705759
0.14700001 597833.88189917 15926.29536514
0.14800001 589924.15299479 15821.76652977
0.14900001 582082.11072763 15716.21773115
0.15000001 574307.20883748 14308.86478332
0.15100001 566600.08392092 16794.02727984
0.15200001 558962.62985285 16676.65084858
0.15300001 551394.16973241 14010.92651406
0.15400001 543893.15672493 13910.06813967
0.15500001 536463.90590584 17574.55838687
0.15600001 529102.86598482 14952.44769841
0.15700001 521815.39714963 17313.83569458
0.15800001 514595.97080513 13500.42593128
0.15900001 507449.73699742 12178.79426278
0.16000001 500372.85271960 19334.40794172
0.16100001 493370.31521338 13187.78914817
0.16200001 486439.00863984 11893.43432269
0.16300001 479579.66004462 12977.42621344
0.16400001 472793.43223053 16382.29320019
0.16500001 466078.67342793 17408.03927439
0.16600001 459437.31594056 12659.79583845
0.16700001 452867.94755538 13694.72738067
0.16800001 446371.68028982 12447.07489259
0.16900001 439949.33911548 14584.32128032
0.17000001 433598.28359493 14458.33544919
0.17100001 427321.02736627 13229.85963199
0.17200001 421116.31721315 18577.54721114
0.17300001 414984.18324850 14080.41400256
0.17400001 408925.61575036 17174.87667262
0.17500001 402938.46681985 11701.33362907
0.17600001 397022.65248909 17919.61826642
0.17700001 391182.00057936 13577.92788140
0.17800001 385411.39119786 10348.29634243
0.17900001 379712.53691383 13327.91067520
0.18000001 374086.65084891 12187.74366035
0.18100001 368532.42005986 12073.12265145
0.18200001 363047.42306328 11958.78268061
0.18300001 357633.98602974 10857.76832878
0.18400001 352291.18917224 15641.72953817
0.18500001 347018.90616814 12586.37632133
0.18600001 341816.70929187 11505.55097833
0.18700001 336683.22248477 11393.36078716
0.18800001 331617.82073254 12221.77536053
0.18900001 326624.62286034 13963.20328701
0.19000001 321695.66348519 9216.58119432
0.19100001 316837.32957990 10949.89862766
0.19200001 312044.86324800 9937.06913967
0.19300001 307321.23003155 11625.96268145
0.19400001 302662.50506958 13279.31803743
0.19500001 298070.40230270 9639.59726599
0.19600001 293542.90713271 9541.61264725
0.19700001 289082.31320371 11161.46864026
0.19800001 284685.22860759 11896.99626575
0.19900001 280352.37211426 10092.68587309
0.20000001 276081.63116628 10821.02004498
0.20100001 271875.33820685 14004.29933291
0.20200001 267730.27919104 11413.34234135
0.20300001 263647.40206673 8874.37197301
0.20400001 259625.90040777 13571.94458530
0.20500001 255664.42190624 8690.03411134
0.20600001 251762.60337596 12507.56672693
0.20700001 247920.39561865 8508.62837983
0.20800001 244136.64620128 9949.78948626
0.20900001 240413.12426783 8330.31514966
0.21000001 236744.09348701 10490.13127830
0.21100001 233133.63784397 7413.65003391
0.21200001 229578.00870056 9535.52304216
0.21300001 226078.00734246 10885.65656816
0.21400001 222633.17707269 9333.89639005
0.21500001 219243.71750176 7813.84646118
0.21600001 215906.00117835 7730.51473768
0.21700001 212621.90768866 9038.55772318
0.21800001 209390.05215708 8254.15624629
0.21900001 206208.90875965 8846.36260406
0.22000001 203078.22923074 7405.24797904
0.22100001 199999.28751304 7991.97190691
0.22200001 196969.10931501 7906.34042175
0.22300001 193987.48902032 7169.77793322
0.22400001 191053.35601987 6448.05107058
0.22500001 188168.98019043 7016.82160311
0.22600001 185329.20068068 8834.64341422
0.22700001 182536.50055407 6242.74861416
0.22800001 179788.68549153 7410.88996642
0.22900001 177085.23269304 7331.32898020
0.23000001 174426.50616470 7857.04234176
0.23100001 171812.02574790 5979.05877879
0.23200001 169238.48830017 5914.88544583
0.23300001 166708.39024492 6436.61125177
0.23400001 164218.62433220 9261.93085038
0.23500001 161769.39621374 8017.29165554
0.23600001 159360.86883461 7364.86290153
0.23700001 156991.67453858 6165.06335072
0.23800001 154660.88769724 6099.05239482
0.23900001 152368.43890693 6582.31687212
0.24000001 150112.96013954 7054.55889544
0.24100001 147895.55992804 6442.33089520
0.24200001 145714.31793926 5311.28714012
0.24300001 143567.79692645 6830.95610088
0.24400001 141456.53258387 6238.23338204
0.24500001 139379.25287604 5657.40414186
0.24600001 137335.86396644 5597.12340073
0.24700001 135326.28571932 5537.55187359
0.24800001 133349.09862280 6474.76578993
0.24900001 131402.61014629 5913.11773632
0.25000001 129488.89607438 5362.78288462
0.25100001 127605.09078348 6752.86172373
0.25200001 125753.37087577 6204.04284567
0.25300001 123929.84706881 5193.90013638
0.25400001 122136.44605370 6540.40699561
0.25500001 120370.12638071 4622.21307171
0.25600001 118633.34748608 7317.30521914
0.25700001 116923.05605481 5882.39922843
0.25800001 115239.99575644 5372.48885636
0.25900001 113584.56038701 5315.75767763
0.26000001 111954.01733948 4382.99998622
0.26100001 110348.80475406 5637.72070164
0.26200001 108769.93741897 5149.16908106
0.26300001 107213.99940817 4670.24203520
0.26400001 105683.23589896 4200.90882576
0.26500001 104176.04818291 4572.28697110
0.26600001 102691.63893411 4524.08036732
0.26700001 101230.34116377 5697.24387029
0.26800001 99791.67585497  6039.89146693
0.26900001 98373.90868240  3984.14349017
0.27000001 96978.33632187  3942.16955804
0.27100001 95603.58381386  4680.75168503
0.27200001 94250.11202720  3859.54227016
0.27300001 92916.69693401  4964.53935213
0.27400001 91601.80750293  7935.00695046
0.27500001 90308.46581207  4860.40186003
0.27600001 89032.11423813  5548.92678250
0.27700001 87776.46551429  4392.33454221
0.27800001 86538.15991713  5432.43324590
0.27900001 85318.39643369  3941.71010179
0.28000001 84115.93417945  4254.58415216
0.28100001 82931.20610409  4209.58822108
0.28200001 81763.96031769  3817.96830774
0.28300001 80613.33334441  4120.95379561
0.28400001 79478.68477950  4417.02811568
0.28500001 78360.85591355  5042.52131671
0.28600001 77258.62104816  3325.98379355
0.28700001 76172.88196469  3290.66865663
0.28800001 75100.88757029  3581.18599330
0.28900001 74045.76831950  3543.09018180
0.29000001 73004.72480838  3505.32202760
0.29100001 71978.93787915  3783.21315401
0.29200001 70967.15537789  3430.90728915
0.29300001 69969.84588574  3394.23738459
0.29400001 68985.76150842  4273.66812775
0.29500001 68016.64724356  3321.93320863
0.29600001 67059.90878784  4182.52670909
0.29700001 66116.94207221  3250.97019559
0.29800001 65187.50413644  4093.12357849
0.29900001 64271.17509773  4338.30452447
0.30000001 63366.58005342  3433.20146982
0.30100001 62475.80546048  3113.16953347
0.30200001 61596.33275864  4759.24087590
0.30300001 60729.99772119  3877.00323806
0.30400001 59875.57830394  3561.10018822
0.30500001 59033.50228686  2980.60167157
0.30600001 58202.04272000  3484.26545239
0.30700001 57383.19059978  2916.21388434
0.30800001 56575.49937617  2622.27452023
0.30900001 55779.47659364  3112.49494128
0.31000001 54994.77798375  2822.05716585
0.31100001 54220.69300851  2537.52855294
0.31200001 53458.55486125  3262.84305044
0.31300001 52706.43274663  2730.72040989
0.31400001 51966.53080629  2455.41869685
0.31500001 51235.93914601  2428.58363051
0.31600002 50517.21061903  3122.72152227
0.31700002 49808.31926744  3326.19971817
0.31800002 49109.64965895  2819.87621693
0.31900002 48422.03944312  3486.38700498
0.32000002 47744.65285111  2758.68617236
0.32100002 47077.06744305  2501.20471168
0.32200002 46420.63447244  2249.07984668
0.32300002 45772.54691510  2447.00047395
0.32400002 45135.76018160  2640.44209565
0.32500002 44508.31795583  2829.39390643
0.32600002 43891.01113381  2152.85419806
0.32700002 43283.61497793  2981.37554086
0.32800002 42686.71045686  3370.54281728
0.32900002 42097.59985326  2083.83129141
0.33000002 41519.51502714  2267.58842059
0.33100002 40949.81100702  3058.95102708
0.33200002 40391.15950049  2017.53851259
0.33300002 39841.11781970  2195.64410702
0.33400002 39301.25659770  2567.35470882
0.33500002 38770.23786451  2931.03012136
0.33600002 38248.13747540  2126.78778504
0.33700002 37735.38289437  2487.13920435
0.33800002 37232.75888510  2271.94305476
0.33900002 36738.40878788  2248.39072430
0.34000002 36253.26934473  2039.79029628
0.34100002 35777.45050136  2018.92162740
0.34200002 35311.31112148  1998.44374756
0.34300002 34853.47781176  1978.28349429
0.34400002 34405.34184222  2492.66713452
0.34500002 33965.66370849  1939.09983295
0.34600002 33535.57967377  1745.52700469
0.34700002 33113.17307168  2074.20925945
0.34800002 32700.49667812  1883.05819039
0.34900002 32296.08407709  2373.76229209
0.35000002 31900.84580946  2351.41145598
0.35100002 31514.97009934  1830.38955006
0.35200002 31136.15040698  2472.98886320
0.35300002 30767.25874496  1797.11566841
0.35400002 30406.32816321  1942.96446166
0.35500002 30054.31071846  1604.90026838
0.35600002 29710.28840990  1590.98601971
0.35700002 29374.76720672  1892.91008846
0.35800002 29047.91797631  2502.76873138
0.35900002 28729.90197839  2016.83921441
0.36000002 28419.89085266  2000.61831133
0.36100002 28117.56145889  2290.17548930
0.36200002 27824.93487829  2121.09488624
0.36300002 27539.06097900  1503.63280068
0.36400002 27261.90216509  1641.84813566
0.36500002 26991.91463771  1481.85618380
0.36600002 26730.97454842  1765.84826231
0.36700002 26477.26902752  1607.69985151
0.36800002 26232.37406338  2177.94295978
0.36900002 25995.04317042  2164.08744645
0.37000002 25764.82562954  1720.57513704
0.37100002 25542.25821910  1425.25807614
0.37200002 25328.16994291  1558.82229298
0.37300002 25121.19767765  1550.22918212
0.37400002 24921.63057546  1542.02596490
0.37500002 24729.72502434  1813.18352468
0.37600002 24545.34181830  1526.84306014
0.37700002 24368.14996885  1934.34383616
0.37800002 24198.02203749  1925.92066520
0.37900002 24035.92073666  1644.05705627
0.38000002 23880.13763584  1774.17490970
0.38100002 23730.63687612  1631.71866890
0.38200002 23589.39525530  1897.29515027
0.38300002 23454.20264761  1621.15456380
0.38400002 23326.16249686  1616.50313761
0.38500002 23204.17465408  1477.87395373
0.38600002 23089.81631719  2412.65502128
0.38700002 22981.02229685  1471.24511714
0.38800002 22878.79120665  1334.97753015
0.38900002 22782.87685069  1865.91770247
0.39000002 22693.68798121  1464.08334947
0.39100002 22610.01171149  1595.36250195
0.39200002 22532.92459645  1593.97916147
0.39300002 22461.23421818  1460.20490570
0.39400002 22396.59970178  1459.69845472
0.39500002 22336.52321485  1592.14745019
0.39600002 22282.30912063  1459.60272810
0.39700002 22233.09562389  2123.70539461
0.39800002 22190.60647634  1859.35100475
0.39900002 22152.29822240  1594.96554758
0.40000002 22119.73018238  1862.70256691
0.40100002 22091.92476619  1865.00037712
0.40200002 22069.69412655  1467.52438048
0.40300002 22052.11548686  1737.26574037
0.40400002 22039.26410041  1338.88535754
0.40500002 22030.75393354  1878.34216937
0.40600002 22027.84542083  2151.68004265
0.40700002 22028.71526313  1348.15743798
0.40800002 22033.89560473  1486.95751534
0.40900002 22043.00106626  1626.77355577
0.41000002 22057.05766795  2311.69003842
0.41100002 22074.68476001  1909.90181593
0.41200002 22095.48909639  1779.46029869
0.41300002 22121.41179667  1785.86165896
0.41400002 22150.30012338  1378.85624801
0.41500002 22182.64801649  1661.03676218
0.41600002 22217.58142117  2084.56467562
0.41700002 22257.30961954  1953.74673098
0.41800002 22300.52902618  2242.54130513
0.41900002 22345.03042259  1689.28437999
0.42000002 22393.13365459  1696.95174875
0.42100002 22444.75297216  1846.97880960
0.42200002 22498.83331639  2284.08166651
0.42300002 22555.07105639  2151.75388074
0.42400002 22613.88310501  1585.79862788
0.42500002 22675.51841306  1738.75883431
0.42600002 22738.21327116  1747.65915484
0.42700002 22804.24139019  1464.03236663
0.42800002 22871.59098646  2060.50172961
0.42900002 22941.71132948  1627.71449596
0.43000002 23013.41625257  1785.38091748
0.43100002 23085.35208884  1944.71015212
0.43200002 23160.21640578  1654.68173952
0.43300002 23235.74452592  2268.97056048
0.43400002 23313.14940749  2433.89291348
0.43500002 23391.19315631  1835.74092590
0.43600002 23471.12986595  2000.09242631
0.43700002 23551.32005876  2011.51834154
0.43800002 23631.90248430  1711.77693757
0.43900002 23714.39682124  2347.72539656
0.44000002 23796.85324124  2203.82668311
0.44100002 23880.21202058  1899.90975839
0.44200002 23963.85168852  1751.63782218
0.44300002 24048.03109021  1761.75884116
0.44400002 24132.14506658  2255.14906335
0.44500002 24216.04717622  1620.05363287
0.44600002 24299.87448991  1792.23732794
0.44700002 24384.65848816  1802.51404087
0.44800002 24468.15541877  1977.51641466
0.44900002 24552.10939949  1822.99420931
0.45000002 24635.96252263  1999.94753237
0.45100002 24718.39579645  1843.49804587
0.45200002 24800.81603122  1853.73708211
0.45300002 24882.24651053  2202.82538798
0.45400002 24963.14554580  1703.73476425
0.45500002 25043.54975805  2398.17043849
0.45600002 25122.58885911  2238.79961228
0.45700002 25201.04408723  2250.70535410
0.45800002 25277.97503469  2262.50526271
0.45900002 25353.76393863  2099.29175361
0.46000002 25428.91111273  2110.09114414
0.46100002 25501.84979054  2297.46175652
0.46200002 25574.12646189  2486.57243374
0.46300002 25644.79455962  2141.85334313
0.46400002 25713.41927720  1972.86218755
0.46500002 25781.62999586  1802.13602212
0.46600002 25847.02697233  2896.93492036
0.46700002 25910.84116914  2182.72936354
0.46800002 25973.54557526  2375.41072317
0.46900002 26033.65797034  2385.98486607
0.47000002 26092.16754295  2212.09406914
0.47100002 26148.90896759  2036.47712692
0.47200002 26203.68481312  2045.06667817
0.47300002 26256.29459530  2426.86942447
0.47400002 26306.22190088  3373.77311870
0.47500002 26354.47756957  2069.88076642
0.47600002 26401.27929975  2077.91278578
0.47700002 26444.55090547  2654.50414571
