# SAXS profile: number of points = 501, q_min = 0, q_max = 0.5, delta_q = 0.001
#    q    intensity    error
0.00000000 1664650.74656090 299.63713438
0.00100000 1664569.57542113 798.99341518
0.00200000 1664326.00107171 823.84139662
0.00300000 1663920.23302851 1397.69304553
0.00400000 1663352.15909982 1372.26558340
0.00500000 1662622.28328081 1945.26814843
0.00600000 1661730.49121967 2093.78050418
0.00700000 1660677.35181379 2192.09419550
0.00800000 1659462.69034445 2912.35714451
0.00900000 1658087.73958706 2487.13171570
0.01000000 1656551.85972086 3553.30389253
0.01100000 1654856.33442256 3276.61568482
0.01200000 1653001.05917249 4190.35786872
0.01300000 1650987.18403681 4160.48788727
0.01400000 1648814.79651259 4080.81680228
0.01500000 1646485.21548720 4741.87763175
0.01600000 1643997.89637626 5869.07275243
0.01700000 1641355.07444321 7090.65423967
0.01800000 1638556.63759858 7471.81860366
0.01900000 1635603.34246262 5397.49127368
0.02000000 1632496.23609880 6685.07238923
0.02100000 1629237.43892287 6451.78055065
0.02200000 1625825.37543772 7291.82714012
0.02300000 1622263.50324345 7008.17865301
0.02400000 1618550.95303572 7890.43625583
0.02500000 1614690.61396717 9445.94052311
0.02600000 1610682.22180059 7175.58962632
0.02700000 1606528.05506283 8096.90176836
0.02800000 1602227.89047998 7666.66080754
0.02900000 1597784.16362050 8628.03487970
0.03000000 1593198.33324412 11853.39614418
0.03100000 1588470.85141881 9149.59252517
0.03200000 1583602.83667234 7838.83440257
0.03300000 1578598.21422959 9661.02151646
0.03400000 1573455.17699121 11564.89608449
0.03500000 1568176.89389619 9314.97117989
0.03600000 1562764.59244038 11275.34705553
0.03700000 1557219.92117947 10651.38475347
0.03800000 1551544.64392291 9984.19024571
0.03900000 1545740.55210431 12056.77686476
0.04000000 1539807.87749584 12310.76455105
0.04100000 1533750.10092238 11595.15130060
0.04200000 1527568.32455965 12808.66099566
0.04300000 1521263.31355889 12048.40600265
0.04400000 1514838.78262325 11247.67848334
0.04500000 1508295.80977114 13529.41404229
0.04600000 1501634.44510806 14821.13266220
0.04700000 1494859.24629669 10762.98707390
0.04800000 1487970.05707898 13123.89651407
0.04900000 1480971.05276330 15550.19677784
0.05000000 1473861.66878400 14657.55497860
0.05100000 1466646.42423110 11439.84264192
0.05200000 1459323.58099662 11601.62300957
0.05300000 1451899.11935099 14112.46009798
0.05400000 1444373.22199264 20257.33538312
0.05500000 1436748.17914354 15689.29084814
0.05600000 1429025.22065490 13439.98282742
0.05700000 1421209.13715407 13600.97207744
0.05800000 1413299.15382336 16260.00752396
0.05900000 1405297.74949836 18971.52050431
0.06000000 1397208.75503328 14062.90677641
0.06100000 1389033.28149995 14209.81113379
0.06200000 1380773.71085366 13048.31217749
0.06300000 1372432.92217552 15810.42800268
0.06400000 1364009.88310360 15958.91637866
0.06500000 1355510.99656321 26839.11898743
0.06600000 1346936.58545511 16244.05598062
0.06700000 1338288.52243086 24570.97842173
0.06800000 1329569.86435783 16513.25848829
0.06900000 1320783.35667704 22189.16143105
0.07000000 1311929.26467216 16766.45678766
0.07100000 1303011.17611316 15479.77349726
0.07200000 1294031.22766580 14169.64260674
0.07300000 1284992.40253634 19968.78287106
0.07400000 1275896.42440217 21530.75317081
0.07500000 1266745.25577327 15884.98625197
0.07600000 1257539.95723503 18881.96334308
0.07700000 1248285.92349847 17525.93518768
0.07800000 1238982.97919628 19086.53368960
0.07900000 1229633.73520775 16231.16606604
0.08000000 1220241.66022290 22238.90530081
0.08100000 1210808.41161103 17871.53299388
0.08200000 1201335.01437473 16452.28379389
0.08300000 1191825.29657146 15016.99944158
0.08400000 1182280.92207444 18088.89895681
0.08500000 1172704.17820431 21179.03845262
0.08600000 1163096.76889653 22767.62032012
0.08700000 1153462.80677438 25883.70659946
0.08800000 1143801.41565747 22904.62442423
0.08900000 1134118.32127985 18372.71766769
0.09000000 1124412.99782823 21487.53339789
0.09100000 1114688.57228951 21535.78422841
0.09200000 1104946.55522208 18496.80620352
0.09300000 1095192.19768074 16986.43178426
0.09400000 1085422.22603410 17013.99419270
0.09500000 1075642.09213014 17038.17154018
0.09600000 1065853.49407731 20160.61978818
0.09700000 1056060.22674640 21733.72048820
0.09800000 1046262.49974951 20198.09850733
0.09900000 1036462.86608111 20211.02683895
0.10000000 1026662.27257451 18664.72099315
0.10100000 1016863.02652545 20225.40654883
0.10200000 1007068.29179508 17115.12642409
0.10300000 997278.67338565 15557.54803665
0.10400000 987497.61101185 17108.39691565
0.10500000 977728.08605990 18655.05275973
0.10600001 967966.56975015 21750.20984571
0.10700001 958221.14096361 23284.77482114
0.10800001 948490.13123985 17058.59581316
0.10900001 938777.42806732 21685.75960901
0.11000001 929082.72475407 15469.22809528
0.11100001 919409.15196451 23169.11172015
0.11200001 909758.14988193 20046.52177638
0.11300001 900131.31660558 16931.47086250
0.11400001 890530.99871083 23042.49067659
0.11500001 880958.89978923 15328.68557813
0.11600001 871415.83906817 21410.68817417
0.11700001 861904.60946476 16781.28353659
0.11800001 852424.71608522 19780.51646839
0.11900001 842978.85069145 16690.98202986
0.12000001 833568.02459558 19668.03846679
0.12100001 824196.84450186 18099.36355789
0.12200001 814862.94601312 22551.33309334
0.12300001 805570.30693640 17980.33009795
0.12400001 796318.24495685 22396.45169468
0.12500001 787108.55060356 16363.98753813
0.12600001 777944.90384744 16301.83622832
0.12700001 768826.35690461 16237.61342305
0.12800001 759754.71200267 22051.88155517
0.12900001 750731.61887715 16103.19398389
0.13000001 741758.04672114 21863.31945763
0.13100001 732834.64883495 23216.20276945
0.13200001 723963.30020669 18775.98907597
0.13300001 715145.38086286 14374.42283300
0.13400001 706380.49978282 15734.62637448
0.13500001 697671.98268678 19925.51276499
0.13600001 689019.66564216 16991.22575588
0.13700001 680424.48256670 15493.26619860
0.13800001 671886.08995443 18211.47332699
0.13900001 663408.40846724 25076.83902264
0.14000001 654989.97340658 19394.25402721
0.14100001 646633.43289525 16527.95132431
0.14200001 638338.10663259 19169.29424630
0.14300001 630106.14362979 14971.32267881
0.14400001 621934.96756310 14879.79480083
0.14500001 613830.49802643 14787.17739500
0.14600001 605790.19701053 14693.44192164
0.14700001 597816.72105874 14598.68501697
0.14800001 589907.00183570 27687.28643741
0.14900001 582065.15604964 19644.69994353
0.15000001 574290.40525666 16909.98178064
0.15100001 566583.41779526 14209.91278880
0.15200001 558946.41189258 16676.16698571
0.15300001 551377.94670749 15284.19740398
0.15400001 543877.28004232 16438.69156504
0.15500001 536448.12766264 13808.17545769
0.15600001 529087.33930453 16198.00965727
0.15700001 521800.04927428 14839.99410176
0.15800001 514580.67971753 12272.74979052
0.15900001 507434.92267202 17049.81420654
0.16000001 500358.23561342 12083.65196044
0.16100001 493355.83599626 16783.96633287
0.16200001 486424.79213772 11893.08672919
0.16300001 479565.73238114 11797.31757350
0.16400001 472779.78870993 15211.69041988
0.16500001 466065.41144469 12765.53222215
0.16600001 459424.22414222 17262.86603718
0.16700001 452855.25562895 12553.14827873
0.16800001 446359.07880322 14709.76413650
0.16900001 439936.94999486 15705.74985641
0.17000001 433586.29405181 16682.23345137
0.17100001 427309.23968290 12127.03679486
0.17200001 421104.83772884 13113.20526612
0.17300001 414973.08305674 14080.03737304
0.17400001 408914.83796806 11807.41650395
0.17500001 402928.02272110 14892.22042310
0.17600001 397012.54676107 14756.95706007
0.17700001 391172.06226161 16710.87128908
0.17800001 385401.86850537 10348.04065813
0.17900001 379703.29613993 13327.58632402
0.18000001 374077.69980617 11171.83103241
0.18100001 368523.94856343 11066.77469812
0.18200001 363039.16032676 16941.22321692
0.18300001 357626.04840570 11844.57528273
0.18400001 352283.65795017 14663.80795490
0.18500001 347011.68197969 11617.95166154
0.18600001 341809.91634863 10546.54546719
0.18700001 336676.78933309 10443.71449852
0.18800001 331611.67595344 10341.31060320
0.18900001 326618.77724543 11170.36270956
0.19000001 321690.22114763 11059.71032561
0.19100001 316832.24467558 12774.67670892
0.19200001 312040.04616024 13550.33964478
0.19300001 307316.78609378 9837.21078770
0.19400001 302658.49014856 8852.76125517
0.19500001 298066.82825413 10515.79819773
0.19600001 293539.57716308 8674.09491508
0.19700001 289079.39310844 9444.22421916
0.19800001 284682.63310917 8497.77699990
0.19900001 280350.15106841 10933.65640839
0.20000001 276079.72315050 8323.80404638
0.20100001 271873.88511709 9061.55701922
0.20200001 267729.13722981 12228.52892093
0.20300001 263646.57949233 8067.58571378
0.20400001 259625.42583357 8781.83044390
0.20500001 255664.30212796 11060.03823283
0.20600001 251762.78493543 11725.85226263
0.20700001 247921.10240763 8508.65263683
0.20800001 244137.59855723 8419.08548422
0.20900001 240414.47951994 9844.97340173
0.21000001 236745.77998707 7493.00429080
0.21100001 233135.65236254 8155.08550516
0.21200001 229580.28391314 10269.12658490
0.21300001 226080.77711431 7982.91261730
0.21400001 222636.20845967 10052.02528718
0.21500001 219247.16501388 12786.49526812
0.21600001 215909.74516610 8433.43504491
0.21700001 212626.05545950 6952.87234225
0.21800001 209394.48208016 10317.91359234
0.21900001 206213.75629065 8166.06513521
0.22000001 203083.43258593 8078.65933025
0.22100001 200004.69897700 7326.17246993
0.22200001 196974.86930981 9224.33356595
0.22300001 193993.58506541 6518.18476641
0.22400001 191059.69475192 7093.09150307
0.22500001 188175.66136521 8930.81731071
0.22600001 185336.21695916 8834.97788023
0.22700001 182543.77841821 6867.29726884
0.22800001 179796.32980289 7411.20506495
0.22900001 177093.13766829 6720.68489234
0.23000001 174434.63593539 7857.40854730
0.23100001 171820.47607563 7773.15870528
0.23200001 169247.31328172 7098.23265474
0.23300001 166717.39961133 7022.13720374
0.23400001 164227.89401043 7525.74359896
0.23500001 161779.02076249 6299.67536644
0.23600001 159370.62840922 6798.75132950
0.23700001 157001.83815964 7846.95224236
0.23800001 154671.18940279 6653.95488283
0.23900001 152378.99957099 7679.90194163
0.24000001 150123.79038783 7055.06786298
0.24100001 147906.53267458 6442.80886806
0.24200001 145725.49961890 7436.37259731
0.24300001 143579.22470268 5780.49985996
0.24400001 141468.25506862 7278.54206758
0.24500001 139391.15207504 9258.36075879
0.24600001 137348.04082229 7633.11772978
0.24700001 135338.59826439 5538.05570296
0.24800001 133361.58574472 7969.68874112
0.24900001 131415.25646190 8377.72299577
0.25000001 129501.76337398 4875.74162169
0.25100001 127618.07598519 6271.15255059
0.25200001 125766.44552761 5250.12051693
0.25300001 123943.13484360 6138.90375924
0.25400001 122149.89118416 6541.12698238
0.25500001 120383.72211067 6009.55569209
0.25600001 118647.02556003 5488.61166209
0.25700001 116936.92501970 6788.18881857
0.25800001 115253.96303715 5820.90167860
0.25900001 113598.56201828 6645.51619250
0.26000001 111968.20461770 4821.91096001
0.26100001 110363.00546984 6505.89948028
0.26200001 108784.24610503 4720.69258310
0.26300001 107228.45842665 4670.87187008
0.26400001 105697.71182517 5882.07794140
0.26500001 104190.60167764 5404.36676475
0.26600001 102706.22424887 4524.72292339
0.26700001 101244.97896319 4477.05318161
0.26800001 99806.35293223  4429.90518452
0.26900001 98388.64458275  4781.68835300
0.27000001 96993.13989160  5519.87985244
0.27100001 95618.37553921  5071.59887860
0.27200001 94264.91989095  4632.17838265
0.27300001 92931.52732808  4201.43454933
0.27400001 91616.58360746  5290.85795372
0.27500001 90323.34939263  4861.20289437
0.27600001 89046.88985638  4069.88829350
0.27700001 87791.20194961  4026.98262401
0.27800001 86552.88350335  5071.13368446
0.27900001 85333.11500155  3583.99099969
0.28000001 84130.56428112  3546.10345228
0.28100001 82945.79356856  3859.46795741
0.28200001 81778.45985726  4512.94452082
0.28300001 80627.78382330  4465.16687947
0.28400001 79493.01969216  3738.15942795
0.28500001 78375.13379923  5043.44009869
0.28600001 77272.82184426  3326.59513785
0.28700001 76186.99611542  3949.53406556
0.28800001 75114.88262585  3256.23031596
0.28900001 74059.69070021  3865.91603754
0.29000001 73018.45497690  4462.15799485
0.29100001 71992.58217065  3468.60277317
0.29200001 70980.61721818  3431.55810185
0.29300001 69983.19357589  4629.38847418
0.29400001 68998.98709385  3663.84638812
0.29500001 68029.70264053  3926.67462229
0.29600001 67072.74546555  4183.32733271
0.29700001 66129.70946424  3842.79759888
0.29800001 65200.02793187  3216.64353029
0.29900001 64283.52993170  4049.86257741
0.30000001 63378.68944345  3433.85755660
0.30100001 62487.75214232  3113.76483666
0.30200001 61608.06778253  3640.11285726
0.30300001 60741.58982357  3046.79828979
0.30400001 59886.91552770  3835.75712114
0.30500001 59044.59416682  3523.19110073
0.30600001 58212.91665920  3216.84592688
0.30700001 57393.87184136  2916.75670507
0.30800001 56585.89547966  2622.75637965
0.30900001 55789.72028582  2853.64432772
0.31000001 55004.70659511  2822.56665256
0.31100001 54230.40125018  4060.77263787
0.31200001 53468.00090604  2510.32276139
0.31300001 52715.58981921  2979.48527765
0.31400001 51975.51526219  2455.84321241
0.31500001 51244.57858700  2428.99314003
0.31600002 50525.60814667  2642.74205924
0.31700002 49816.39676810  3564.36335752
0.31800002 49117.49588261  2585.29951819
0.31900002 48429.61195744  2557.08363243
0.32000002 47751.97601543  2529.18352941
0.32100002 47084.03317166  3183.82247382
0.32200002 46427.33416540  3374.10667024
0.32300002 45778.91645157  2669.82653387
0.32400002 45141.79652229  2420.72895313
0.32500002 44514.12526256  2829.76307694
0.32600002 43896.50194664  2153.12352244
0.32700002 43288.73993081  2768.74793708
0.32800002 42691.54787152  2738.87638339
0.32900002 42102.08428271  2500.86392482
0.33000002 41523.69954217  2473.98213588
0.33100002 40953.68396536  2651.34162547
0.33200002 40394.76326890  2623.03407708
0.33300002 39844.39460151  2994.30639610
0.33400002 39304.14019315  2172.53645206
0.33500002 38772.77941242  3322.05189738
0.33600002 38250.35026775  2320.26635712
0.33700002 37737.31099229  2487.26628529
0.33800002 37234.34604960  2082.70324492
0.33900002 36739.61751245  2248.46469824
0.34000002 36254.23280923  2039.84450561
0.34100002 35778.00321620  1835.41165191
0.34200002 35311.54709795  1816.77918423
0.34300002 34853.38123353  2337.96492387
0.34400002 34404.91530203  1780.45445120
0.34500002 33964.90154397  2467.88986306
0.34600002 33534.48274975  2618.20486469
0.34700002 33111.77386568  2246.96508094
0.34800002 32698.67569245  2225.30847964
0.34900002 32294.03428969  2543.15532076
0.35000002 31898.45380155  1847.39903941
0.35100002 31512.21787406  2162.99873732
0.35200002 31133.05752383  2307.89366355
0.35300002 30763.80728984  2123.62571780
0.35400002 30402.58035631  1618.93748065
0.35500002 30050.19666966  1604.68057816
0.35600002 29705.89799315  2386.12636932
0.35700002 29370.00794977  1734.88645177
0.35800002 29042.89516095  1720.35597634
0.35900002 28724.56530589  1706.23925999
0.36000002 28414.20259723  2000.21788657
0.36100002 28111.57575090  1526.45863558
0.36200002 27818.64794975  2272.08817892
0.36300002 27532.45413663  1653.59927377
0.36400002 27254.94409499  1492.20825988
0.36500002 26984.73357186  1481.46194327
0.36600002 26723.43553340  2353.80031328
0.36700002 26469.47600961  1899.44968842
0.36800002 26224.25709658  1596.66396896
0.36900002 25986.60665737  1586.48241158
0.37000002 25756.13457681  1576.66185280
0.37100002 25533.33112711  1424.75994438
0.37200002 25319.01512631  1558.25885976
0.37300002 25111.74118082  1831.39937107
0.37400002 24911.86231979  2101.93848280
0.37500002 24719.72636822  1533.61189653
0.37600002 24535.10017715  1803.69797497
0.37700002 24357.58414034  1657.29010342
0.37800002 24187.23402540  1787.55761533
0.37900002 24024.88235360  1917.18570264
0.38000002 23868.88457304  1364.10681797
0.38100002 23719.20305514  1630.93247933
0.38200002 23577.66745503  1760.89817730
0.38300002 23442.24787028  1620.32824955
0.38400002 23314.00971546  2154.21459976
0.38500002 23191.78447189  1477.08482299
0.38600002 23077.29202898  1741.52792547
0.38700002 22968.24138095  2138.80273872
0.38800002 22865.77506464  1867.90525352
0.38900002 22769.65604675  1731.63242439
0.39000002 22680.39306261  1729.26665098
0.39100002 22596.44142436  1594.40498244
0.39200002 22519.20749521  1725.75954816
0.39300002 22447.33161702  2255.28351441
0.39400002 22382.57723300  1856.63486944
0.39500002 22322.29991822  1325.94467796
0.39600002 22267.96694378  1856.48049206
0.39700002 22218.62755149  1459.09734044
0.39800002 22175.97756098  1592.67878389
0.39900002 22137.57227560  1593.90527936
0.40000002 22104.87219192  1329.60812534
0.40100002 22076.98067258  1597.49039716
0.40200002 22054.60856146  1599.84138085
0.40300002 22036.91309418  2537.33029388
0.40400002 22023.96504179  1739.34272159
0.40500002 22015.37781999  2011.10485914
0.40600002 22012.39174082  1612.62789534
0.40700002 22013.18504505  1347.20698859
0.40800002 22018.31349392  1620.98831623
0.40900002 22027.30494645  2302.95484127
0.41000002 22041.31505681  1630.61656516
0.41100002 22058.91240427  1635.88902141
0.41200002 22079.67823427  1641.40335771
0.41300002 22105.57453683  2059.13436567
0.41400002 22134.39808589  1791.22624997
0.41500002 22166.77315462  1936.48939454
0.41600002 22201.62900934  2083.06794050
0.41700002 22241.39479563  1673.44262372
0.41800002 22284.54635574  1820.75894627
0.41900002 22329.11093797  1828.75427247
0.42000002 22377.23916316  1978.37180816
0.42100002 22428.87148004  1561.72239516
0.42200002 22482.97569341  1854.50833795
0.42300002 22539.24891053  2006.89481809
0.42400002 22598.03657208  1728.74987968
0.42500002 22659.72998669  2027.13954067
0.42600002 22722.49337002  1891.98850011
0.42700002 22788.57663521  1609.32935824
0.42800002 22856.03542319  1617.86454410
0.42900002 22926.21190744  1478.74073810
0.43000002 22997.94504919  2527.58927041
0.43100002 23069.98225909  1943.41539760
0.43200002 23144.94544777  2254.89641710
0.43300002 23220.52006433  2267.48389173
0.43400002 23298.06965291  1976.25885196
0.43500002 23376.17850720  1528.80214682
0.43600002 23456.23155296  1537.55605116
0.43700002 23536.56160915  1700.98738810
0.43800002 23617.26901829  1866.23668626
0.43900002 23699.94480602  2033.45536072
0.44000002 23782.49438533  1887.85449377
0.44100002 23865.99109418  2215.24139834
0.44200002 23949.74836337  2068.89911042
0.44300002 24034.09396768  1920.80488092
0.44400002 24118.37367727  1609.90151925
0.44500002 24202.44024243  1619.14332895
0.44600002 24286.39952656  2116.92411506
0.44700002 24371.40847694  2129.08634545
0.44800002 24455.07026938  1811.75396677
0.44900002 24539.18456317  1822.03454017
0.45000002 24623.21927134  2665.21738024
0.45100002 24705.84879669  2345.07927892
0.45200002 24788.47639208  2021.25246080
0.45300002 24870.06984146  2032.38220376
0.45400002 24951.22319162  2554.38159530
0.45500002 25031.82936032  1883.39493033
0.45600002 25111.06356802  1893.49983809
0.45700002 25189.71217787  2249.69330123
0.45800002 25266.87117908  2609.43624469
0.45900002 25342.88197971  2098.39072737
0.46000002 25418.24120901  2109.20575549
0.46100002 25491.39442073  2296.51983221
0.46200002 25563.91204756  1952.95515343
0.46300002 25634.82191969  2141.02042821
0.46400002 25703.71044868  2151.40066652
0.46500002 25772.13932825  2161.76714931
0.46600002 25837.82001322  3076.89694211
0.46700002 25901.83812317  2181.97094691
0.46800002 25964.83008579  3653.25176622
0.46900002 26025.22635858  2018.25639977
0.47000002 26083.95263544  2211.39760925
0.47100002 26140.90252047  2035.85358479
0.47200002 26195.96609242  2416.18504705
0.47300002 26248.83986773  1866.29260305
0.47400002 26299.00654964  2061.18473602
0.47500002 26347.53085202  3386.18482560
0.47600002 26394.59737735  2832.80029779
0.47700002 26438.14982584  3412.10777825
