# SAXS profile: number of points = 501, q_min = 0, q_max = 0.5, delta_q = 0.001
#    q    intensity    error
0.00000000 1664650.74656090 299.63713438
0.00100000 1664569.64545566 499.37090550
0.00200000 1664326.28030821 823.84153484
0.00300000 1663920.86781939 1397.69357876
0.00400000 1663353.28858613 1247.51501384
0.00500000 1662624.04351304 1795.63403807
0.00600000 1661733.02617442 1919.30172337
0.00700000 1660680.80604569 2192.09875508
0.00800000 1659467.19567823 2912.36505138
0.00900000 1658093.43328659 3730.71038437
0.01000000 1656558.88545683 3006.65450693
0.01100000 1654864.83577322 4766.01093454
0.01200000 1653011.16582015 4512.72068054
0.01300000 1650999.03139295 3813.80793072
0.01400000 1648828.50545120 4451.83716207
0.01500000 1646500.96153740 5927.40372548
0.01600000 1644015.76064255 4611.46441475
0.01700000 1641375.27828019 6204.39883022
0.01800000 1638579.24053531 7004.92656849
0.01900000 1635628.46815879 5397.57418848
0.02000000 1632524.10810639 6170.94140779
0.02100000 1629268.08464811 5914.24341542
0.02200000 1625858.94445716 6170.13497454
0.02300000 1622300.10127248 8760.42094563
0.02400000 1618590.78864360 9104.57360127
0.02500000 1614733.71126139 7556.95411383
0.02600000 1610728.79120428 9785.17785412
0.02700000 1606578.24335122 9446.68050357
0.02800000 1602281.79966853 6969.92614820
0.02900000 1597841.84873635 8628.34637934
0.03000000 1593259.99162945 10372.12302227
0.03100000 1588536.45354602 8387.47286066
0.03200000 1583672.63362807 10190.93386677
0.03300000 1578672.30720093 10466.59787926
0.03400000 1573533.56777859 10739.36709561
0.03500000 1568259.84396602 12702.90532272
0.03600000 1562852.15292476 9541.21283454
0.03700000 1557312.14483161 11539.68352688
0.03800000 1551641.71487078 10892.52534249
0.03900000 1545842.51761707 12057.57219580
0.04000000 1539914.78843856 13258.66694285
0.04100000 1533862.18771890 11595.99867682
0.04200000 1527685.65929340 10838.93025554
0.04300000 1521385.94383602 10041.14769541
0.04400000 1514966.81083529 13293.83438247
0.04500000 1508429.30544220 13530.61149851
0.04600000 1501773.64675212 11646.25517196
0.04700000 1495003.95821030 13993.23769964
0.04800000 1488120.58568230 13125.22417641
0.04900000 1481127.36452620 17773.52920163
0.05000000 1474023.95396287 15786.79728207
0.05100000 1466814.58807469 12585.26975195
0.05200000 1459497.94843180 16244.21292305
0.05300000 1452079.52088945 18818.95146803
0.05400000 1444559.84508155 11917.61927769
0.05500000 1436941.04012745 14484.36636017
0.05600000 1429224.36237974 13441.85575543
0.05700000 1421414.86282846 12366.30988385
0.05800000 1413511.18135249 15011.48944689
0.05900000 1405516.36803081 12649.64790309
0.06000000 1397433.95229501 14065.17338696
0.06100000 1389265.04104601 12920.16548550
0.06200000 1381012.13774258 13050.56531170
0.06300000 1372678.17637402 13177.71110932
0.06400000 1364261.96139316 15961.86569478
0.06500000 1355769.77989147 18790.97002830
0.06600000 1347202.21641222 23016.95094433
0.06700000 1338561.10047059 15018.65625014
0.06800000 1329849.16760166 17893.12138764
0.06900000 1321069.56030622 13871.23103265
0.07000000 1312222.53584543 16770.20479343
0.07100000 1303311.53588714 18298.49482092
0.07200000 1294338.64740489 18424.91150896
0.07300000 1285306.74764475 15693.59612408
0.07400000 1276217.72409649 15793.19507583
0.07500000 1267073.67357905 21666.96083379
0.07600000 1257875.52736662 17434.15562662
0.07700000 1248628.39780331 16069.84823322
0.07800000 1239332.62428272 19091.91997241
0.07900000 1229990.35410691 14759.88494158
0.08000000 1220605.46452722 17796.42850766
0.08100000 1211179.20100956 17877.00584566
0.08200000 1201712.96600360 17953.59255457
0.08300000 1192210.36185560 21030.59177014
0.08400000 1182672.96681418 19602.80534507
0.08500000 1173103.25690915 25726.15563174
0.08600000 1163502.88581380 15183.71337277
0.08700000 1153875.93510005 21323.62828196
0.08800000 1144221.53061208 16802.89396617
0.08900000 1134545.44594616 24506.18278349
0.09000000 1124846.88021292 19960.40882703
0.09100000 1115129.26017635 16927.66296476
0.09200000 1105394.16418674 15420.24931495
0.09300000 1095646.62755294 23172.92726169
0.09400000 1085883.25465264 18568.60452724
0.09500000 1076110.03419221 20144.78078694
0.09600000 1066328.02687963 18618.08822451
0.09700000 1056541.30736540 23296.73692265
0.09800000 1046750.21397878 20207.51383097
0.09900000 1036957.19851824 20220.66632193
0.10000000 1027162.98663302 21786.12797103
0.10100000 1017370.05212395 26461.79630029
0.10200000 1007581.52688329 17123.84885482
0.10300000 997798.34735682 23348.48242648
0.10400000 988023.51424465 20229.78240587
0.10500000 978259.90659879 21776.06654544
0.10600001 968504.56606160 21762.29862340
0.10700001 958765.04860819 18638.39342202
0.10800001 949039.95238401 17068.48434690
0.10900001 939332.96100227 21698.59242041
0.11000001 929644.00460873 20122.14542690
0.11100001 919976.06134544 21637.83798141
0.11200001 910330.49792918 18516.12319957
0.11300001 900709.10286505 24643.40221462
0.11400001 891114.14152951 15371.71966515
0.11500001 881547.23688846 15338.92264414
0.11600001 872009.36549650 22955.64762771
0.11700001 862503.37406543 18319.57252791
0.11800001 853028.22863679 24362.48735730
0.11900001 843587.23815044 18221.48520231
0.12000001 834180.85126540 18168.45979638
0.12100001 824814.42375846 25659.97793192
0.12200001 815484.95968677 16550.26803655
0.12300001 806196.85989337 17994.31476061
0.12400001 796948.93595519 17931.35190387
0.12500001 787743.44240354 20843.69246816
0.12600001 778583.88849748 14832.02377481
0.12700001 769469.26320492 16251.19160475
0.12800001 760401.16348329 14713.76320685
0.12900001 751381.57971282 20512.71809297
0.13000001 742411.60499796 20423.74421616
0.13100001 733491.66671504 14523.13568554
0.13200001 724623.56447343 15901.86487199
0.13300001 715808.73123095 23020.40988164
0.13400001 707046.83696808 15749.46903598
0.13500001 698341.14618974 17095.39206474
0.13600001 689691.48570193 18425.10890928
0.13700001 681098.87774768 18328.37166443
0.13800001 672562.82780744 15425.22918315
0.13900001 664087.55273249 15340.42319155
0.14000001 655670.98552052 16640.93039731
0.14100001 647316.39595551 15166.62387254
0.14200001 639022.82684098 17819.15236691
0.14300001 630792.80844320 14987.63783554
0.14400001 622622.98691839 13542.05060425
0.14500001 614519.96609795 16149.58547086
0.14600001 606480.96564907 17384.77770045
0.14700001 598508.43926857 17272.95437217
0.14800001 590599.55174029 14519.89066456
0.14900001 582758.45533803 22290.51196836
0.15000001 574984.14616547 13023.39152513
0.15100001 567277.87210944 15520.72331326
0.15200001 559640.76668025 14128.13182151
0.15300001 552072.59909443 15303.45316905
0.15400001 544571.78910680 15193.55363308
0.15500001 537142.39665489 15082.95920988
0.15600001 529781.24038720 21209.79295990
0.15700001 522493.46746849 16098.02449248
0.15800001 515273.51537306 17204.98349036
0.15900001 508126.73041152 17073.05894769
0.16000001 501049.07325681 14520.40282838
0.16100001 494045.48677257 14406.36707433
0.16200001 487113.16574463 11909.91746468
0.16300001 480252.54428921 12995.63446196
0.16400001 473464.83440997 14061.90624583
0.16500001 466748.38545659 15108.64595053
0.16600001 460105.55645539 16135.90262672
0.16700001 453534.19894224 12571.96858826
0.16800001 447035.73872644 15865.29911650
0.16900001 440611.20214436 17976.93789633
0.17000001 434257.89981192 13366.45878737
0.17100001 427978.07629789 15458.56884585
0.17200001 421770.58916540 10944.94730569
0.17300001 415635.63940196 14102.51791089
0.17400001 409574.07301102 12901.58390914
0.17500001 403583.82975487 15981.92041308
0.17600001 397664.59874040 14781.19383328
0.17700001 391820.47917849 10461.60728817
0.17800001 386046.28303919 12438.41182701
0.17900001 380343.64626266 12323.13472098
0.18000001 374713.86291583 11190.83004458
0.18100001 369155.62060357 13101.33359408
0.18200001 363666.22761452 10980.90226154
0.18300001 358248.49549124 12853.95662544
0.18400001 352901.17544210 9793.00808115
0.18500001 347624.13410631 10668.58517973
0.18600001 342417.22057579 9604.80349092
0.18700001 337278.80341522 11413.51524680
0.18800001 332208.15143252 13185.34215331
0.18900001 327209.53971442 13988.20848370
0.19000001 322275.15109083 15696.41197551
0.19100001 317411.32008375 9141.44645035
0.19200001 312613.22136722 10860.18382346
0.19300001 307883.72086066 13439.12505060
0.19400001 303218.92560701 9756.06939242
0.19500001 298620.77668928 11413.28662440
0.19600001 294087.13160168 8690.27514950
0.19700001 289620.22677274 12042.40959831
0.19800001 285216.48022950 9365.08357092
0.19900001 280877.03425377 11796.83599618
0.20000001 276599.50688960 10007.37063223
0.20100001 272386.38290505 8253.30779209
0.20200001 268234.14196107 9801.27601050
0.20300001 264144.18068020 11315.93723518
0.20400001 260115.34315352 9598.25661603
0.20500001 256146.43412563 8706.41770746
0.20600001 252237.22867382 10181.55621668
0.20700001 248387.36378577 10849.56056301
0.20800001 244595.91986926 10735.31543052
0.20900001 240864.54307453 8345.95681206
0.21000001 237187.62939476 9008.38659026
0.21100001 233569.12571196 9655.74811339
0.21200001 230005.20898284 8818.40012929
0.21300001 226496.97875802 11632.88537896
0.21400001 223043.79356841 8631.79521918
0.21500001 219645.83012406 9251.48280221
0.21600001 216299.57711949 7040.55156811
0.21700001 213006.97490359 7661.86124953
0.21800001 209766.28371322 6890.82274578
0.21900001 206576.30215253 7498.72012269
0.22000001 203436.71716761 8767.10574087
0.22100001 200348.77623635 8673.09893337
0.22200001 197309.59207152 9240.00863362
0.22300001 194318.80847252 9140.75718277
0.22400001 191375.44948982 7750.70607084
0.22500001 188481.65907584 7667.43425378
0.22600001 185632.55151336 6952.86754572
0.22700001 182830.50663512 6878.08398487
0.22800001 180073.19098309 6185.51440278
0.22900001 177360.16106900 6730.81843088
0.23000001 174691.71302146 6658.37495670
0.23100001 172067.60280144 7185.54343281
0.23200001 169484.46774191 6515.83067049
0.23300001 166944.48603317 6445.72691059
0.23400001 164444.97618530 8695.02852703
0.23500001 161985.96676238 8028.02489244
0.23600001 159567.39641469 5672.62121084
0.23700001 157188.24478811 6733.94472522
0.23800001 154847.50764490 9437.18179979
0.23900001 152545.19290891 6040.78992492
0.24000001 150279.62157471 5432.60857689
0.24100001 148052.03576882 6986.57589840
0.24200001 145860.75682875 6911.61228926
0.24300001 143704.20207416 6837.44625812
0.24400001 141582.76682665 6764.11700511
0.24500001 139495.37545771 7206.33143704
0.24600001 137441.98869551 7638.33888309
0.24700001 135422.20605498 5541.47693391
0.24800001 133434.81861331 4983.79071097
0.24900001 131478.03401185 5423.46915956
0.25000001 129554.17210819 5365.48629169
0.25100001 127660.26445342 6755.78151448
0.25200001 125798.33944963 5251.45192877
0.25300001 123964.72507771 6139.97312358
0.25400001 122161.27658940 5607.20286074
0.25500001 120384.79807098 6009.60940403
0.25600001 118637.89712171 4573.49115043
0.25700001 116917.60617570 6334.59620231
0.25800001 115224.49625688 5819.41345879
0.25900001 113558.99548647 4871.68113687
0.26000001 111918.44380522 4381.60728229
0.26100001 110303.35869650 4334.92220188
0.26200001 108714.48794532 5575.42277809
0.26300001 107148.76055729 5091.70934261
0.26400001 105608.11245758 6296.88400324
0.26500001 104091.16955620 4153.23786182
0.26600001 102597.00565385 6163.51540631
0.26700001 101126.03433842 4471.79345005
0.26800001 99677.63115499  5228.59038966
0.26900001 98250.36697431  5968.71007614
0.27000001 96845.36665693  5117.79364317
0.27100001 95461.13603200  5063.25889474
0.27200001 94098.39328834  5394.66114251
0.27300001 92755.47415026  5718.37525198
0.27400001 91431.46765956  4148.70304139
0.27500001 90128.87732372  3731.33569779
0.27600001 88843.40637780  4060.58808067
0.27700001 87578.79629167  4017.23957602
0.27800001 86331.65658771  5058.17199886
0.27900001 85102.94777365  4289.18877079
0.28000001 83891.72377731  4596.84722194
0.28100001 82698.39981680  4197.77097338
0.28200001 81522.43441753  4498.81575626
0.28300001 80363.45679683  5135.22513237
0.28400001 79220.33473539  4064.00336428
0.28500001 78094.19547029  4355.31348752
0.28600001 76983.86718114  4639.81789462
0.28700001 75890.04231899  5245.51997337
0.28800001 74810.09800643  4215.92327270
0.28900001 73747.15797798  4812.00228583
0.29000001 72698.29348679  4759.92099135
0.29100001 71664.87781676  4708.38269543
0.29200001 70645.53970798  4967.79458742
0.29300001 69640.86726231  3378.27863081
0.29400001 68649.50070058  3645.28865976
0.29500001 67673.23154141  3605.62994721
0.29600001 66709.42422922  3863.47648712
0.29700001 65759.45983998  4115.22719159
0.29800001 64823.23075048  2907.32203679
0.29900001 63900.25464144  2875.51159499
0.30000001 62989.18680291  3697.15049442
0.30100001 62091.92353451  3094.04069620
0.30200001 61206.27680808  3060.00795388
0.30300001 60333.70488714  3026.33878041
0.30400001 59473.29102574  4353.44510918
0.30500001 58625.40796368  2959.99698822
0.30600001 57788.20554288  3193.37638948
0.30700001 56963.86814252  2894.90391606
0.30800001 56150.74619282  3123.10465110
0.30900001 55349.40407752  3345.87163489
0.31000001 54559.51992144  2545.20172484
0.31100001 53780.45738536  3020.31062976
0.31200001 53013.38838926  2737.87657299
0.31300001 52256.62827452  4184.18842405
0.31400001 51512.28027553  2920.74642991
0.31500001 50777.18242111  2647.52241679
0.31600002 50054.26623456  2618.08851936
0.31700002 49341.29474637  3059.65383209
0.31800002 48638.72906522  2792.83595516
0.31900002 47947.27324257  2991.90999200
0.32000002 47266.25246012  2503.45718009
0.32100002 46595.22404634  2475.60437080
0.32200002 45935.51335085  3115.80601812
0.32300002 45284.20171279  2640.97476894
0.32400002 44644.35542466  2176.41243001
0.32500002 44014.21801823  2367.52489931
0.32600002 43394.21233295  2979.88070201
0.32700002 42784.25988423  2315.48425458
0.32800002 42185.08824921  3539.11814626
0.32900002 41593.72029200  2676.55602753
0.33000002 41013.52585517  2239.95382065
0.33100002 40441.95358246  2215.41032216
0.33200002 39881.62097696  2589.71318077
0.33300002 39330.02939267  2955.65184882
0.33400002 38788.74860747  2144.04818081
0.33500002 38256.51529529  1928.12846219
0.33600002 37733.28650871  2098.15949568
0.33700002 37219.72751657  2075.74430190
0.33800002 36716.19558892  2053.72049752
0.33900002 36221.21281126  1847.28194086
0.34000002 35735.71576353  2559.03472702
0.34100002 35259.50572777  2532.33782130
0.34200002 34793.25028304  2327.14665539
0.34300002 34335.43645364  1948.87946541
0.34400002 33887.49338122  2981.25237140
0.34500002 33448.12822187  2256.74531801
0.34600002 33018.51021321  2406.05895319
0.34700002 32596.83643565  1871.71043678
0.34800002 32184.85738411  2358.82830940
0.34900002 31781.46487910  1668.52698518
0.35000002 31387.28311148  2478.81080113
0.35100002 31002.69424927  2291.71926745
0.35200002 30625.23301791  1621.60616510
0.35300002 30257.93039369  1767.36579800
0.35400002 29898.66882108  2388.15628520
0.35500002 29548.53195266  1893.47001721
0.35600002 29206.42300803  1720.40442877
0.35700002 28873.00683628  2635.81691893
0.35800002 28548.53928015  1537.33891305
0.35900002 28232.92966851  2439.32523890
0.36000002 27925.43235861  2117.02712738
0.36100002 27625.75333967  2550.13341158
0.36200002 27336.01553666  1637.29072812
0.36300002 27052.94609911  1624.80001967
0.36400002 26778.97336818  1612.76374749
0.36500002 26512.17261771  1455.51834566
0.36600002 26254.59096075  1878.90989111
0.36700002 26004.35559045  1435.44049659
0.36800002 25763.10004265  2281.58024785
0.36900002 25529.42794513  2125.32497711
0.37000002 25303.07100544  1689.73916179
0.37100002 25084.50457920  1399.71542182
0.37200002 24874.51730807  2365.93982583
0.37300002 24671.80027751  2352.94970393
0.37400002 24476.44767897  1514.48027188
0.37500002 24289.03424160  1643.88191534
0.37600002 24109.18146819  2045.06141492
0.37700002 23936.65867247  1900.09205543
0.37800002 23771.24662243  1756.81406485
0.37900002 23614.06959841  1480.60223396
0.38000002 23463.23550788  1743.20116464
0.38100002 23318.80175303  1469.78414412
0.38200002 23182.69611594  1598.21514595
0.38300002 23052.72275507  1858.97165104
0.38400002 22930.07042611  1589.05395581
0.38500002 22813.44834915  1717.16833859
0.38600002 22704.73018877  1713.41254487
0.38700002 22601.49282516  1578.48833369
0.38800002 22504.92077438  2101.05950303
0.38900002 22414.79520735  1835.77181445
0.39000002 22331.45094116  1309.73965975
0.39100002 22253.61349100  1439.36378879
0.39200002 22182.65375056  1830.73450077
0.39300002 22117.00814978  1829.96134101
0.39400002 22058.52527932  1568.36122166
0.39500002 22004.67115380  1437.78528131
0.39600002 21956.67320667  1438.27194654
0.39700002 21913.84357012  1308.25652312
0.39800002 21877.69827663  2356.88454701
0.39900002 21845.88155250  1441.82825078
0.40000002 21819.79970199  1837.44541996
0.40100002 21798.51534991  1445.89559167
0.40200002 21782.86052538  1975.16097172
0.40300002 21771.89744154  2111.00327595
0.40400002 21765.78190516  1586.72557607
0.40500002 21764.00352376  2120.68460383
0.40600002 21767.87782915  1860.50060621
0.40700002 21775.42073753  1599.18697474
0.40800002 21787.51278480  1470.33036995
0.40900002 21803.48069344  1877.27977665
0.41000002 21824.30618388  1883.65595598
0.41100002 21848.93289464  1485.29052855
0.41200002 21876.58794486  1490.78015614
0.41300002 21909.53885095  1496.64066982
0.41400002 21945.27971795  1366.09372717
0.41500002 21984.66710117  1783.39627975
0.41600002 22026.55587807  1515.53724900
0.41700002 22073.31594275  1522.39667271
0.41800002 22123.44356738  1668.55019291
0.41900002 22174.98630241  1397.02420325
0.42000002 22230.07230753  2246.12661238
0.42100002 22288.71322014  1834.13829780
0.42200002 22349.75540777  1701.71045738
0.42300002 22412.95230493  1853.10298438
0.42400002 22478.71974833  1862.92398742
0.42500002 22547.37232637  2305.24345588
0.42600002 22617.01562468  2172.92987911
0.42700002 22689.94989945  2185.04227886
0.42800002 22764.17046323  2343.79910196
0.42900002 22841.13695501  2062.55476478
0.43000002 22919.71178487  2074.46321195
0.43100002 22998.51050280  1490.30355120
0.43200002 23080.08998502  1499.05191556
0.43300002 23162.41380117  1809.44785189
0.43400002 23246.61697339  1820.21019527
0.43500002 23331.25863619  1525.86438712
0.43600002 23417.92773561  2302.56785372
0.43700002 23504.65078600  2007.53231877
0.43800002 23591.84546724  1708.87540740
0.43900002 23680.87703561  2188.11314178
0.44000002 23769.79674265  1729.60934194
0.44100002 23859.57328206  2056.45671864
0.44200002 23949.57969643  1750.59461087
0.44300002 24040.07721250  2561.71074916
0.44400002 24130.51078584  2093.92517267
0.44500002 24220.55592913  2106.46184898
0.44600002 24310.54548399  1793.02436715
0.44700002 24401.42463976  2131.70855755
0.44800002 24490.98088330  1814.41440473
0.44900002 24580.77557223  2322.88340166
0.45000002 24670.51165087  1835.85621150
0.45100002 24758.79557592  1678.64641960
0.45200002 24846.93228390  2363.68878019
0.45300002 24934.05083044  1867.80983623
0.45400002 25020.56246698  2732.24555088
0.45500002 25106.53322044  1889.01564903
0.45600002 25190.97159973  2244.89354050
0.45700002 25274.78811019  1736.37802546
0.45800002 25356.92014444  2269.57124509
0.45900002 25438.00191448  2106.26665834
0.46000002 25518.24064574  1941.04506671
0.46100002 25596.17960362  1951.19686366
0.46200002 25673.42139151  1961.32112016
0.46300002 25748.88556021  2150.54702391
0.46400002 25822.32487594  2521.55014365
0.46500002 25895.17597084  2172.08746338
0.46600002 25965.18052482  2546.40537476
0.46700002 26033.49975398  3106.83800789
0.46800002 26100.65345691  1836.18105772
0.46900002 26165.09881443  2213.56746462
0.47000002 26227.72334580  2408.88536487
0.47100002 26288.51915062  2977.96359053
0.47200002 26347.35558699  2056.27946425
0.47300002 26403.89857314  2440.51246079
0.47400002 26457.56722005  2827.65263067
0.47500002 26509.54497087  2460.61608082
0.47600002 26560.01602659  2850.55385516
0.47700002 26606.73994221  2480.01434756
