# SAXS profile: number of points = 501, q_min = 0, q_max = 0.5, delta_q = 0.001
#    q    intensity    error
0.00000000 1664650.74656090 249.69761198
0.00100000 1664569.65216398 549.30799826
0.00200000 1664326.30553775 1123.42029181
0.00300000 1663920.92659475 1896.86992389
0.00400000 1663353.38472051 1372.26659454
0.00500000 1662624.19695411 1496.36183649
0.00600000 1661733.24665328 2093.78397603
0.00700000 1660681.10343244 2192.09914764
0.00800000 1659467.58340416 3360.42199827
0.00900000 1658093.93745809 3233.28331626
0.01000000 1656559.50441511 2733.32330031
0.01100000 1654865.56656330 3276.63396446
0.01200000 1653012.05134269 3223.37364144
0.01300000 1651000.07239223 4160.52036593
0.01400000 1648829.73151110 4080.85376640
0.01500000 1646502.34765972 5137.08755345
0.01600000 1644017.34215061 7965.26437879
0.01700000 1641377.05212729 4874.89006350
0.01800000 1638581.20050727 4669.95663158
0.01900000 1635630.66730114 6378.95989031
0.02000000 1632526.54878211 6170.95063354
0.02100000 1629270.76875005 7527.23129290
0.02200000 1625861.91222592 6170.14623722
0.02300000 1622303.33536748 7008.35072780
0.02400000 1618594.29680508 7283.67466774
0.02500000 1614737.52338139 9446.21494320
0.02600000 1610732.92455903 7175.81550712
0.02700000 1606582.65756293 6747.64747081
0.02800000 1602286.52766425 10454.92007247
0.02900000 1597846.95568302 8628.37395685
0.03000000 1593265.42898862 9631.28996094
0.03100000 1588542.23286657 8387.50337547
0.03200000 1583678.83559634 8623.13165699
0.03300000 1578678.85342836 10466.64128075
0.03400000 1573540.59382115 9087.19734860
0.03500000 1568267.20482308 10162.37195653
0.03600000 1562859.92285142 10408.64756721
0.03700000 1557320.38630426 10652.07193495
0.03800000 1551650.34821331 10892.58594856
0.03900000 1545851.61428054 9275.11011521
0.04000000 1539924.36919616 13258.74943318
0.04100000 1533872.25920861 11596.07481729
0.04200000 1527696.17674589 13795.09711601
0.04300000 1521396.97611146 10041.22050843
0.04400000 1514978.27825955 17384.37655039
0.04500000 1508441.32243965 11449.07016930
0.04600000 1501786.17639126 11646.35233932
0.04700000 1495017.01835474 11840.53533605
0.04800000 1488134.18974483 13125.34416425
0.04900000 1481141.52544776 13330.27434952
0.05000000 1474038.63028184 12404.03565143
0.05100000 1466829.93586341 13729.52883926
0.05200000 1459513.75727202 11603.13491103
0.05300000 1452096.00701125 12938.17602562
0.05400000 1444576.86371471 11917.75968142
0.05500000 1436958.70444240 14484.54441647
0.05600000 1429242.65034105 19552.04036905
0.05700000 1421433.68071156 13603.12095938
0.05800000 1413530.64254010 17513.64547883
0.05900000 1405536.41570597 16444.77683183
0.06000000 1397454.67843896 17901.39526713
0.06100000 1389286.52127089 12920.36525161
0.06200000 1381034.17304551 18271.08296345
0.06300000 1372700.85657561 17131.30749104
0.06400000 1364285.27045069 17292.31661167
0.06500000 1355793.80045060 25502.48257943
0.06600000 1347226.95002378 14893.59462936
0.06700000 1338586.46826675 24576.44870753
0.06800000 1329875.36820690 16517.05284628
0.06900000 1321096.41860035 18032.96695818
0.07000000 1312250.24338671 16770.55889582
0.07100000 1303339.78959499 16891.28446430
0.07200000 1294367.57592775 22677.32099261
0.07300000 1285336.46941984 19974.12967068
0.07400000 1276248.21893548 18665.13107666
0.07500000 1267104.89241013 18778.49538571
0.07600000 1257907.41908310 17434.59764584
0.07700000 1248661.08923382 16070.26897195
0.07800000 1239366.08994996 17623.78662558
0.07900000 1230024.58756821 19188.38446607
0.08000000 1220640.53994094 17796.93990721
0.08100000 1211214.87843826 16387.73807415
0.08200000 1201749.44941564 14961.78134731
0.08300000 1192247.57632371 15022.32016671
0.08400000 1182711.00906861 19603.43589547
0.08500000 1173142.08043838 15133.53354810
0.08600000 1163542.38966174 28850.03490622
0.08700000 1153916.25673314 24370.71248660
0.08800000 1144262.74324240 19858.68084161
0.08900000 1134587.32874078 19912.00855466
0.09000000 1124889.67975703 16890.21933498
0.09100000 1115172.86160526 16928.32483448
0.09200000 1105438.43615508 20047.12698162
0.09300000 1095691.71466260 20084.03007356
0.09400000 1085929.19836084 15474.49180390
0.09500000 1076156.73184887 15496.65766701
0.09600000 1066375.53678341 24825.22366330
0.09700000 1056589.76564959 21744.61839934
0.09800000 1046799.32540861 15544.97071321
0.09900000 1037007.19953482 18666.13046935
0.10000000 1027213.67344832 20230.97424997
0.10100000 1017421.66609913 18679.86266813
0.10200000 1007633.96133811 15567.94543493
0.10300000 997851.42883952 15566.48302216
0.10400000 988077.46104864 15562.22074364
0.10500000 978314.55377521 20221.76277795
0.10600001 968560.07299218 23318.08485449
0.10700001 958821.26196986 17086.19569234
0.10800001 949097.02045951 17069.51071628
0.10900001 939390.78515590 17049.94355305
0.11000001 929702.56100160 27863.18706473
0.11100001 920035.47369901 21639.23536003
0.11200001 910390.60579133 15431.12149462
0.11300001 900770.07131423 21564.43652253
0.11400001 891175.76196491 16910.06087948
0.11500001 881609.73742843 16874.01116894
0.11600001 872072.59649377 18365.84974703
0.11700001 862567.29341012 16794.18599362
0.11800001 853093.01983249 16750.48223333
0.11900001 843652.66093080 21260.04805684
0.12000001 834247.12731715 15141.58607405
0.12100001 824881.41821638 18114.39679737
0.12200001 815552.66043577 21065.72621149
0.12300001 806265.28265701 17995.84195677
0.12400001 797018.05903635 20921.72503548
0.12500001 787813.20877224 17867.60441688
0.12600001 778654.42651998 22250.05128631
0.12700001 769540.41738319 17730.21205207
0.12800001 760473.11898055 16186.67110037
0.12900001 751454.14044075 19049.36335801
0.13000001 742484.89684471 17507.79469283
0.13100001 733565.52334231 20334.43726557
0.13200001 724698.11312247 20240.81925367
0.13300001 715883.99085619 15828.19578402
0.13400001 707122.64666881 20046.92797819
0.13500001 698417.66944677 15672.49324132
0.13600001 689768.37109360 15592.21476376
0.13700001 681176.45657542 16920.42397919
0.13800001 672641.00610533 19634.39189409
0.13900001 664166.32723403 26500.23770634
0.14000001 655750.43423726 20803.68350729
0.14100001 647396.31779070 22063.26755088
0.14200001 639103.34141681 17821.39751596
0.14300001 630873.75607778 13626.87377403
0.14400001 622704.57456183 13543.82513558
0.14500001 614602.03665837 16151.74228529
0.14600001 606563.43697502 16049.66929949
0.14700001 598591.44437381 18604.22296882
0.14800001 590682.96567553 18482.47086797
0.14900001 582842.48085565 19670.93465697
0.15000001 575068.54524121 15630.36379714
0.15100001 567362.77465857 19403.80780889
0.15200001 559726.12233615 12845.71511377
0.15300001 552158.38177211 12754.85922083
0.15400001 544657.87673471 16462.28510118
0.15500001 537228.84156387 13828.27103445
0.15600001 529868.05138693 12478.39319908
0.15700001 522580.67433889 14862.19507965
0.15800001 515360.92618883 17207.90213764
0.15900001 508214.49191114 15856.29289605
0.16000001 501137.17369021 13312.70964747
0.16100001 494133.88158352 16810.43544500
0.16200001 487201.81116934 20250.54423720
0.16300001 480341.49792464 12998.04154745
0.16400001 473553.95319089 14064.55307375
0.16500001 466837.72665512 15111.53792526
0.16600001 460195.12167743 13833.46601074
0.16700001 453623.86100640 13717.58620451
0.16800001 447125.63443767 15868.48951545
0.16900001 440701.28721214 15733.03669636
0.17000001 434348.19261387 14483.34116661
0.17100001 428068.30598030 15461.82794214
0.17200001 421860.88841729 12042.01962853
0.17300001 415726.08736894 15190.63194983
0.17400001 409664.59032627 12904.43520470
0.17500001 403674.38003727 10657.00413629
0.17600001 397755.22902969 12672.48219540
0.17700001 391911.04167044 13603.23289887
0.17800001 386136.89373861 14514.88652120
0.17900001 380434.14510415 13353.23912388
0.18000001 374804.31835089 10175.93772389
0.18100001 369245.91885440 10080.41406089
0.18200001 363756.50210914 12980.65139094
0.18300001 358338.70037878 10879.16345742
0.18400001 352991.14327503 10775.05515749
0.18500001 347714.05041758 12611.58920444
0.18600001 342506.87550383 10568.05014294
0.18700001 337368.34541063 11416.54534807
0.18800001 332297.48548957 14130.95123808
0.18900001 327298.68891021 11193.61568960
0.19000001 322363.97042929 11082.87382701
0.19100001 317499.85290060 13715.99429339
0.19200001 312701.40547323 11768.51795106
0.19300001 307971.69490833 11650.56976890
0.19400001 303306.61456685 12420.40645342
0.19500001 298708.13825191 11416.62558348
0.19600001 294174.00556313 13908.54764029
0.19700001 289706.71148360 10325.14768522
0.19800001 285302.54147647 11071.16564520
0.19900001 280962.72953879 9271.77051296
0.20000001 276684.67131671 10844.65620479
0.20100001 272471.02066594 9907.04677964
0.20200001 268318.32202963 8987.32262115
0.20300001 264227.82683387 9702.44625992
0.20400001 260198.45081668 12001.65411119
0.20500001 256228.99649733 9500.97163920
0.20600001 252319.26073243 10968.31878249
0.20700001 248468.84239823 10077.89672405
0.20800001 244676.56498847 14574.16028246
0.20900001 240944.63022850 8348.73183207
0.21000001 237267.01616370 12015.20226652
0.21100001 233647.72273856 7429.99793433
0.21200001 230083.28967140 11026.74217879
0.21300001 226574.27360428 8000.33797919
0.21400001 223120.31923018 9354.31982597
0.21500001 219721.57204063 9254.67305189
0.21600001 216374.59299805 9860.19066910
0.21700001 213081.05791727 9058.07620033
0.21800001 209839.70671656 8271.88162987
0.21900001 206648.82240050 9547.17604631
0.22000001 203508.37758196 6746.30303582
0.22100001 200419.51770431 10678.35240820
0.22200001 197379.41253023 9243.27832585
0.22300001 194387.76506747 7837.71505813
0.22400001 191443.45265735 7753.46019926
0.22500001 188548.61862456 7030.97832099
0.22600001 185698.63152177 6955.34257255
0.22700001 182895.49727703 8131.53419347
0.22800001 180137.20912053 8044.02745368
0.22900001 177423.13052257 9181.64743875
0.23000001 174753.58513445 9082.81801691
0.23100001 172128.42140266 7188.08321772
0.23200001 169544.19044073 6518.12670976
0.23300001 167003.13538916 7620.35342821
0.23400001 164502.46497085 6378.58338092
0.23500001 162042.32400119 8030.81795733
0.23600001 159622.56120354 7376.95701493
0.23700001 157242.31460909 8420.32634558
0.23800001 154900.32534022 6108.49461872
0.23900001 152596.74432595 6592.17966669
0.24000001 150329.93917490 9781.96960480
0.24100001 148101.20968604 6451.28899908
0.24200001 145908.56629636 6382.04099169
0.24300001 143750.84772838 7891.92191360
0.24400001 141628.10523152 5725.31642481
0.24500001 139539.38069957 7208.60474794
0.24600001 137484.65008161 6112.56783178
0.24700001 135463.57726876 5543.16984406
0.24800001 133474.78619802 5982.34020040
0.24900001 131516.78658257 8877.38351429
0.25000001 129591.48107892 6830.76729082
0.25100001 127696.18437371 5309.60759745
0.25200001 125832.94045090 5252.89634764
0.25300001 123997.90610781 5669.18453546
0.25400001 122192.98244786 7010.82269964
0.25500001 120415.05826157 6011.11999282
0.25600001 118666.74647930 7319.36526914
0.25700001 116945.07515170 4978.35208475
0.25800001 115250.48624674 6716.22240380
0.25900001 113583.48308870 5315.70726006
0.26000001 111941.53929589 5697.26491203
0.26100001 110324.90057936 4769.34567771
0.26200001 108734.51136625 6005.40734691
0.26300001 107167.40936979 7638.89330133
0.26400001 105625.21253341 4618.46263656
0.26500001 104106.71629870 6646.17308300
0.26600001 102611.11341714 5342.44787287
0.26700001 101138.52695457 7724.96105434
0.26800001 99688.67755012  6033.65749424
0.26900001 98259.81767445  5173.37964537
0.27000001 96853.26661377  3937.08547416
0.27100001 95467.47328024  4284.58040358
0.27200001 94103.14119627  4624.22857722
0.27300001 92758.78557056  5337.34077431
0.27400001 91433.19865323  6034.59139670
0.27500001 90129.14188583  3731.34665066
0.27600001 88842.00989262  4429.66282288
0.27700001 87575.84347054  4017.10413011
0.27800001 86327.07241252  5780.46104232
0.27900001 85096.89496298  3931.47673336
0.28000001 83884.09048061  4596.42895543
0.28100001 82689.18939099  4896.85402750
0.28200001 81511.67837859  3806.18800203
0.28300001 80351.10616900  4107.54874177
0.28400001 79206.43613668  3386.07530511
0.28500001 78078.81737535  3349.58142394
0.28600001 76966.89159016  4307.45229172
0.28700001 75871.46801256  4260.94184527
0.28800001 74789.98521089  3242.14601235
0.28900001 73725.55398902  4489.88645045
0.29000001 72675.19044471  3172.27221307
0.29100001 71640.19779949  5020.54529944
0.29200001 70619.33843060  5276.32412060
0.29300001 69613.06642857  3376.93001230
0.29400001 68620.23902781  3036.44572072
0.29500001 67642.46905211  3904.32349851
0.29600001 66677.11765093  3564.55887836
0.29700001 65725.74960728  2937.94114652
0.29800001 64787.95151899  3777.46169213
0.29900001 63863.53707637  3161.24523493
0.30000001 62951.04258603  3979.13559023
0.30100001 62052.33076998  3654.26193204
0.30200001 61165.17850529  3613.94474307
0.30300001 60291.25952855  4398.85050345
0.30400001 59429.41688036  2718.89595099
0.30500001 58580.09374131  3226.59171603
0.30600001 57741.51564823  2924.89661363
0.30700001 56915.71615218  3155.40745286
0.30800001 56101.25374236  2860.32255747
0.30900001 55298.55199646  3857.07418436
0.31000001 54507.32310114  3305.59676597
0.31100001 53726.96214703  3268.74853179
0.31200001 52958.56403905  2735.04516929
0.31300001 52200.54658020  3687.96879050
0.31400001 51454.88320269  2917.49201573
0.31500001 50718.51472956  2644.46348321
0.31600002 49994.40340483  3328.12759224
0.31700002 49280.14760128  3055.86209744
0.31800002 48576.37313552  3021.69343397
0.31900002 47883.74381268  3217.78773657
0.32000002 47201.65046186  2954.58745056
0.32100002 46529.39321952  2696.84375870
0.32200002 45868.55082118  2889.03081027
0.32300002 45216.14576202  3516.00766094
0.32400002 44575.16411859  2390.34328905
0.32500002 43943.97765737  2578.63273104
0.32600002 43322.90831444  2762.48537948
0.32700002 42711.95456947  3152.14239649
0.32800002 42111.64896516  2286.03097232
0.32900002 41519.39681555  2671.77331160
0.33000002 40938.26564546  2235.84348410
0.33100002 40365.76674815  2211.23680718
0.33200002 39804.48870268  2187.05773534
0.33300002 39252.04426072  1966.52751059
0.33400002 38709.79554444  2139.68405005
0.33500002 38176.79290509  2116.52149889
0.33600002 37652.77505188  2093.68265591
0.33700002 37138.33026857  2259.49612054
0.33800002 36634.16296951  2421.70145778
0.33900002 36138.40276231  1843.05862816
0.34000002 35652.17562423  2917.77419127
0.34100002 35175.28065505  2887.18717290
0.34200002 34708.40776220  2857.19626230
0.34300002 34249.91763876  2474.21416740
0.34400002 33801.43883404  2623.83681376
0.34500002 33361.49704422  2250.90031218
0.34600002 32931.33276027  1714.07595135
0.34700002 32509.08474156  2375.76402543
0.34800002 32096.69855011  2184.34092328
0.34900002 31692.78168989  2662.19378804
0.35000002 31298.18854311  2471.77455726
0.35100002 30913.17994308  2121.88077179
0.35200002 30535.36836903  2263.58696441
0.35300002 30167.73156984  2082.47860890
0.35400002 29808.10607816  2222.19441338
0.35500002 29457.73765750  2516.86922467
0.35600002 29115.41216931  1870.95647462
0.35700002 28781.75857554  2318.37076307
0.35800002 28457.04705861  1838.89446803
0.35900002 28141.27105364  1671.59157976
0.36000002 27833.69687530  2260.79213578
0.36100002 27533.94485112  2093.13058673
0.36200002 27244.14342812  1928.47678390
0.36300002 26961.05221068  1766.48822452
0.36400002 26687.08665464  1899.45348262
0.36500002 26420.29310207  1595.52157601
0.36600002 26162.75405091  2016.36355022
0.36700002 25912.58111909  1859.48690919
0.36800002 25671.48206858  1563.00825978
0.36900002 25438.00009785  1552.98997954
0.37000002 25211.82042441  1823.94923500
0.37100002 24993.45819162  1534.09853647
0.37200002 24783.67647235  1386.64676431
0.37300002 24581.24205979  1379.00774488
0.37400002 24386.34928262  1508.90543334
0.37500002 24199.21075363  1910.76977162
0.37600002 24019.70186378  1494.14562522
0.37700002 23847.55501449  2028.23465006
0.37800002 23682.57728539  1750.26095719
0.37900002 23525.85339973  2011.46056096
0.38000002 23375.56373128  1469.50488358
0.38100002 23231.70086206  1464.29417470
0.38200002 23096.10904259  1724.93298556
0.38300002 22966.79089441  1852.04210546
0.38400002 22844.69447337  2242.77798617
0.38500002 22728.81040360  1842.39745860
0.38600002 22620.74148439  1707.07433699
0.38700002 22518.19162571  1703.72645912
0.38800002 22422.39682210  1439.18160821
0.38900002 22333.03136371  1306.48239667
0.39000002 22250.55454735  1435.49459463
0.39100002 22173.53542401  1825.32552258
0.39200002 22103.42002478  1433.29633941
0.39300002 22038.66236124  1302.48500726
0.39400002 21981.11921089  2083.81019992
0.39500002 21928.22034791  1432.78998541
0.39600002 21881.21385146  1824.23688522
0.39700002 21839.36670640  1303.81025414
0.39800002 21804.23551529  1435.48191316
0.39900002 21773.49121372  1306.40953472
0.40000002 21748.49086231  1700.62332355
0.40100002 21728.41128428  1441.24558877
0.40200002 21713.87184905  1575.12433856
0.40300002 21704.06564187  1841.37301630
0.40400002 21699.15198384  1450.04590002
0.40500002 21698.55265464  1850.01868699
0.40600002 21703.69595726  1457.51177107
0.40700002 21712.57594233  1594.57165276
0.40800002 21725.91957553  1732.75079785
0.40900002 21743.21570186  2005.81174354
0.41000002 21765.41753359  1476.02185998
0.41100002 21791.37181374  1885.38957866
0.41200002 21820.48460533  1757.31281096
0.41300002 21854.77352364  1900.05410018
0.41400002 21891.98329705  1907.88643474
0.41500002 21932.77472825  1916.04729105
0.41600002 21976.18712704  1649.53268392
0.41700002 22024.40778970  1795.20956400
0.41800002 22076.10243790  2081.22465595
0.41900002 22129.14046913  1394.13591562
0.42000002 22185.81738866  1821.34476483
0.42100002 22245.98106083  1689.80480145
0.42200002 22308.68374788  1557.03465596
0.42300002 22373.48116447  1707.54416338
0.42400002 22440.83526507  1716.72397913
0.42500002 22511.10978379  1438.45998335
0.42600002 22582.42565712  1591.04487507
0.42700002 22657.09428911  2036.41973120
0.42800002 22733.02791713  2486.87970684
0.42900002 22811.67581921  1618.48847607
0.43000002 22891.98806336  1627.96380827
0.43100002 22972.51026538  1637.48060931
0.43200002 23055.83021524  2096.46674082
0.43300002 23139.91357203  2259.61266739
0.43400002 23225.87882424  1970.13526463
0.43500002 23312.30237059  1982.01204147
0.43600002 23400.73835267  2147.48586039
0.43700002 23489.26523493  2006.21823879
0.43800002 23578.31344635  1707.89521542
0.43900002 23669.12455898  1718.37852442
0.44000002 23759.88200234  1886.05952273
0.44100002 23851.49691897  1739.48975273
0.44200002 23943.35256486  1750.13943867
0.44300002 24035.68738091  2881.39833977
0.44400002 24127.98398229  1610.54300714
0.44500002 24219.86036178  1782.33960849
0.44600002 24311.73897962  2445.15326375
0.44700002 24404.47224992  2131.97479679
0.44800002 24495.89793098  2144.73844499
0.44900002 24587.63162450  1659.66521331
0.45000002 24679.20698598  2337.36780442
0.45100002 24769.33930607  2183.16966990
0.45200002 24859.40312449  2195.95547907
0.45300002 24948.32857015  3058.16626106
0.45400002 25036.73623895  2392.26026101
0.45500002 25124.58350873  2234.07807148
0.45600002 25210.88322033  3110.77102799
0.45700002 25296.58127660  1911.66273767
0.45800002 25380.59359004  1922.19934664
0.45900002 25463.52793054  1756.98351048
0.46000002 25545.60692446  2119.77456306
0.46100002 25625.39699489  2486.17613428
0.46200002 25704.46907918  1963.69300837
0.46300002 25781.82037899  1973.85626177
0.46400002 25857.07751151  2705.29686286
0.46500002 25931.74388095  2175.15477983
0.46600002 26003.60015436  2003.70750486
0.46700002 26073.69167291  2013.41056641
0.46800002 26142.59914831  2023.04513098
0.46900002 26208.82841679  2586.81148734
0.47000002 26273.26811846  2041.82712860
0.47100002 26335.86979770  2796.86950508
0.47200002 26396.43196835  2060.10963061
0.47300002 26454.72420544  2069.02407817
0.47400002 26510.14220555  2266.61726601
0.47500002 26563.86348561  2655.32391988
0.47600002 26615.96950980  2094.80997956
0.47700002 26664.37784736  3058.93757164
