# SAXS profile: number of points = 501, q_min = 0, q_max = 0.5, delta_q = 0.001
#    q    intensity    error
0.00000000 1646666.22097351 321.09991309
0.00100000 1646585.57266075 740.96352529
0.00200000 1646343.55615089 889.02554847
0.00300000 1645940.40133644 1382.58998637
0.00400000 1645375.98661462 1480.83844422
0.00500000 1644650.79066802 2220.27865528
0.00600000 1643764.73376515 2243.73895294
0.00700000 1642718.37942837 2562.64077841
0.00800000 1641511.52105380 2659.24877638
0.00900000 1640145.41394852 2706.24004870
0.01000000 1638619.43782517 3244.46662699
0.01100000 1636934.81582020 3535.77935612
0.01200000 1635091.51911271 4463.80004289
0.01300000 1633090.61533759 4115.38853216
0.01400000 1630932.21559343 5137.43670687
0.01500000 1628617.70090156 5081.28745308
0.01600000 1626146.41333697 4561.34089332
0.01700000 1623520.71985536 4821.85675427
0.01800000 1620740.37946245 7852.48749184
0.01900000 1617806.13212172 5338.76047690
0.02000000 1614719.20286483 7629.54857866
0.02100000 1611481.49188398 5317.88916432
0.02200000 1608091.59482607 9431.45763215
0.02300000 1604552.78990659 6931.66836791
0.02400000 1600864.41983923 6603.56603294
0.02500000 1597029.11052476 8719.77934170
0.02600000 1593046.90729221 7097.02429659
0.02700000 1588919.85301500 8008.15642598
0.02800000 1584647.79422804 7582.54004311
0.02900000 1580233.08439016 8533.25904750
0.03000000 1575677.35635631 10257.66006138
0.03100000 1570980.74219219 11311.06186424
0.03200000 1566144.64679861 9302.89963046
0.03300000 1561172.87807079 9554.37845425
0.03400000 1556063.74195986 9803.20202667
0.03500000 1550820.27576184 8374.42987583
0.03600000 1545443.66371864 10292.65527603
0.03700000 1539935.61013230 12288.68673718
0.03800000 1534297.92584352 8975.64328157
0.03900000 1528532.22959707 11005.43256276
0.04000000 1522638.96594176 13109.92210426
0.04100000 1516621.59649422 11465.65980112
0.04200000 1510481.02228430 10716.86335029
0.04300000 1504218.02877170 13898.97523101
0.04400000 1497836.38685192 14154.55451312
0.04500000 1491337.32969192 12348.27366361
0.04600000 1484720.80797433 13607.46683765
0.04700000 1477990.97719755 15962.30329611
0.04800000 1471148.32315847 15138.11694965
0.04900000 1464196.58876872 15374.06489770
0.05000000 1457135.26909662 14491.21092597
0.05100000 1449968.88081683 13571.70935667
0.05200000 1442695.95146053 11469.43334860
0.05300000 1435321.97886120 11626.10857076
0.05400000 1427847.48971255 14135.69080736
0.05500000 1420274.58539026 15509.39919596
0.05600000 1412604.44421449 14493.32227396
0.05700000 1404842.23234495 18333.19198787
0.05800000 1396986.77092366 17308.66689993
0.05900000 1389040.60911408 17501.91249228
0.06000000 1381007.63322213 13899.84247776
0.06100000 1372888.87908961 14044.65388941
0.06200000 1364686.70858730 15475.54799876
0.06300000 1356404.35882829 18230.07543500
0.06400000 1348040.38642129 14457.73382051
0.06500000 1339600.87044942 14588.25416160
0.06600000 1331086.95404071 16052.90941682
0.06700000 1322499.77004660 14838.44811435
0.06800000 1313842.75571550 21757.23705308
0.06900000 1305118.44429782 17814.86759874
0.07000000 1296327.60125549 17947.65647984
0.07100000 1287473.14670805 15295.18169928
0.07200000 1278557.62587181 18200.26865691
0.07300000 1269583.47889667 15501.61500367
0.07400000 1260553.05817577 26944.32288123
0.07500000 1251467.97944995 25680.12414200
0.07600000 1242329.57567499 17218.68872608
0.07700000 1233142.67112947 17313.32391445
0.07800000 1223907.62021905 18854.29777367
0.07900000 1214626.66287560 26235.93714868
0.08000000 1205303.86191676 19037.77539206
0.08100000 1195939.82885043 17652.07270204
0.08200000 1186536.54281546 17726.85678150
0.08300000 1177097.61314744 14831.43062173
0.08400000 1167624.10526206 25308.25366949
0.08500000 1158119.05042413 14939.73645182
0.08600000 1148583.62463061 14989.01700519
0.08700000 1139022.13505271 16538.60217758
0.08800000 1129433.81463974 15077.94213356
0.08900000 1119824.28931292 18141.15433895
0.09000000 1110192.59199515 18184.95551113
0.09100000 1100542.32616741 18224.98177756
0.09200000 1090875.04546679 16739.47835922
0.09300000 1081195.91744136 18293.83578277
0.09400000 1071501.27865908 18322.67272619
0.09500000 1061797.27584617 18347.85778902
0.09600000 1052084.72385181 18369.40014196
0.09700000 1042368.03454177 16855.09191095
0.09800000 1032647.20217923 21468.73634272
0.09900000 1022925.08838826 24550.20327573
0.10000000 1013201.99144674 16885.01198151
0.10100000 1003480.63852993 18423.90538992
0.10200000 993764.19006437 23030.48618801
0.10300000 984053.21382030 15351.23085773
0.10400000 974350.91661933 23019.04148806
0.10500000 964660.09319006 19939.52506438
0.10600001 954978.28213625 19925.62279434
0.10700001 945312.23403745 24502.49425928
0.10800001 935661.07925107 18357.67123885
0.10900001 926028.33111595 15279.46818255
0.11000001 916413.82024535 16784.11990781
0.11100001 906820.56323114 19804.96203325
0.11200001 897250.14355277 15208.39064919
0.11300001 887703.97793145 19733.66035849
0.11400001 878184.66680494 22723.02932348
0.11500001 868693.38631521 16626.79219700
0.11600001 859231.67931540 22619.27502315
0.11700001 849801.83014324 21058.09034268
0.11800001 840403.44993534 18001.44274545
0.11900001 831039.27116431 23933.93213686
0.12000001 821709.82538019 22371.05104976
0.12100001 812420.44200489 22300.94218359
0.12200001 803168.34049825 20745.83921243
0.12300001 793957.58024920 22151.41753260
0.12400001 784787.54293986 20600.67397282
0.12500001 775659.75129557 14659.96999027
0.12600001 766578.35650752 20444.64573148
0.12700001 757541.77798476 18908.24366958
0.12800001 748551.77198834 14484.47747062
0.12900001 739610.70338649 17306.89127495
0.13000001 730719.33363466 15794.49914098
0.13100001 721877.99736114 15722.50352365
0.13200001 713088.43985846 17071.33805496
0.13300001 704352.33430944 14157.48258705
0.13400001 695669.47824926 18313.49987831
0.13500001 687042.73394632 21023.50864998
0.13600001 678471.99408342 16731.12016298
0.13700001 669958.60254336 18028.58684455
0.13800001 661501.79328307 15171.54434437
0.13900001 653105.41856739 20572.82165505
0.14000001 644768.09067510 17727.89948917
0.14100001 636492.69281079 14913.02449590
0.14200001 628278.43484578 14824.23036938
0.14300001 620127.48548301 13394.75431823
0.14400001 612036.94953749 15974.16513643
0.14500001 604013.10250784 14550.67632580
0.14600001 596053.42882032 15771.57447060
0.14700001 588159.97890063 13057.15214759
0.14800001 580330.14104758 15564.45511721
0.14900001 572568.28164111 16747.62302817
0.15000001 564873.06424589 15353.25061061
0.15100001 557245.61110971 17787.28074591
0.15200001 549687.32590927 12615.32472490
0.15300001 542197.96593869 12524.77360422
0.15400001 534775.85695821 13676.89318713
0.15500001 527425.13673630 16044.27341670
0.15600001 520142.54849846 14699.22911430
0.15700001 512933.27074886 18234.77863575
0.15800001 505791.70795671 16888.38592578
0.15900001 498723.06423953 11969.35410671
0.16000001 491723.42278880 16625.16970924
0.16100001 484797.93297934 11780.59032749
0.16200001 477943.43348744 16360.00450057
0.16300001 471160.48852489 17385.82284732
0.16400001 464450.09055301 19541.73848258
0.16500001 457811.02386171 11399.49503234
0.16600001 451245.13232875 11303.69109852
0.16700001 444750.89013982 13449.26755283
0.16800001 438329.45128431 15556.31296059
0.16900001 431981.40425599 11015.52632866
0.17000001 425704.37406885 12011.24948152
0.17100001 419500.68547165 11905.43001588
0.17200001 413369.34664345 10726.93505195
0.17300001 407309.94044029 15946.18492129
0.17400001 401324.08390671 14748.66078009
0.17500001 395408.96573535 10438.79718841
0.17600001 389564.81255429 13445.83014035
0.17700001 383795.49280988 11272.07415621
0.17800001 378095.82654644 12182.24810672
0.17900001 372467.63805481 13073.61471324
0.18000001 366911.72367334 13946.31527558
0.18100001 361427.16538748 10853.65828927
0.18200001 356011.47008153 12704.26990998
0.18300001 350666.77682443 13549.76489658
0.18400001 345392.53232364 10543.10754724
0.18500001 340188.06973333 15185.99615031
0.18600001 335053.35177822 10338.07165752
0.18700001 329987.16422719 11166.76616502
0.18800001 324988.27739282 10134.75990932
0.18900001 320061.15668943 13682.61509494
0.19000001 315197.77756435 11739.54178006
0.19100001 310404.70166059 10727.58699627
0.19200001 305677.21935578 14158.96946959
0.19300001 301017.73974578 15767.30995293
0.19400001 296422.70834331 9537.40109162
0.19500001 291893.88780836 9439.84877780
0.19600001 287429.44472061 11890.95669001
0.19700001 283031.23307105 11768.43922724
0.19800001 278695.84953982 8319.07150191
0.19900001 274424.40919539 10702.55246442
0.20000001 270214.52319376 13035.14921492
0.20100001 266068.64928396 10480.44459063
0.20200001 261983.39116281 11966.09195692
0.20300001 257959.89165899 8682.93036364
0.20400001 253997.46608178 14058.76041212
0.20500001 250094.28540523 10046.28791958
0.20600001 246250.37511697 12998.32666495
0.20700001 242465.59558706 9834.40502187
0.20800001 238738.68421208 10478.24134538
0.20900001 235071.55525852 8885.70520881
0.21000001 231458.49873724 10988.49274700
0.21100001 227903.35842686 8696.79256870
0.21200001 224402.39852181 7886.62266888
0.21300001 220956.80086552 7801.98500740
0.21400001 217565.81043354 9121.44703366
0.21500001 214229.65045837 6941.04100301
0.21600001 210944.67611344 7552.87448533
0.21700001 207712.88566189 6792.21168228
0.21800001 204532.72762039 9406.46058800
0.21900001 201402.93060007 7310.92672645
0.22000001 198322.94694099 9204.16840273
0.22100001 195294.29333060 8454.29035803
0.22200001 192313.84591512 7719.47814004
0.22300001 189381.34399965 6999.53480520
0.22400001 186495.99664422 8811.93625812
0.22500001 183659.63767829 9961.69921873
0.22600001 180867.54335547 8621.95619947
0.22700001 178122.01240494 7919.30504602
0.22800001 175420.99531922 7833.42491642
0.22900001 172763.51630344 6556.37575377
0.23000001 170150.33738833 8253.99325705
0.23100001 167581.08015613 6415.00405176
0.23200001 165052.13444117 7499.14408300
0.23300001 162566.13220612 8559.10726545
0.23400001 160120.20071976 6208.66107655
0.23500001 157714.05604530 6699.69341767
0.23600001 155348.02231229 8283.93368161
0.23700001 153020.99292417 7647.98958808
0.23800001 150731.93402158 5944.11409929
0.23900001 148480.74991561 5345.30724979
0.24000001 146265.85504874 6345.01309214
0.24100001 144088.61420726 6799.54202607
0.24200001 141947.06794552 6208.76504562
0.24300001 139839.82104390 7677.20653846
0.24400001 137767.36272959 5569.24590179
0.24500001 135728.35894523 7011.72735480
0.24600001 133723.04278860 4954.43896969
0.24700001 131750.68453302 5881.35083578
0.24800001 129810.31743582 7757.46493694
0.24900001 127900.22778726 6235.13639960
0.25000001 126022.55817510 6168.17440169
0.25100001 124174.25180437 5163.16563429
0.25200001 122357.54279532 5572.16276252
0.25300001 120568.78548013 6431.13932177
0.25400001 118809.66843027 6816.70504869
0.25500001 117077.11013478 4945.33736607
0.25600001 115373.54292504 4447.65029019
0.25700001 113696.17403246 4840.04635756
0.25800001 112045.67395369 6094.16449468
0.25900001 110422.09560163 4306.46193222
0.26000001 108823.24574962 5112.51632722
0.26100001 107249.22584897 5479.36320789
0.26200001 105701.20424227 5003.89524560
0.26300001 104175.56923285 4537.88801050
0.26400001 102674.95489545 4897.59558026
0.26500001 101197.33489524 4845.32862406
0.26600001 99742.08574096  6391.47315672
0.26700001 98309.53196902  3952.04337217
0.26800001 96899.17684455  5473.83475898
0.26900001 95509.56809803  4641.76522922
0.27000001 94141.78794257  5740.29579144
0.27100001 92794.25280896  5300.40797128
0.27200001 91467.80095179  5243.84927672
0.27300001 90160.78031203  5928.97319390
0.27400001 88872.30087505  4399.17910150
0.27500001 87604.72625210  3989.51942233
0.27600001 86353.83295234  4305.60231477
0.27700001 85123.37017228  4614.53811543
0.27800001 83909.98010137  4213.95940013
0.27900001 82714.64021828  4516.21956966
0.28000001 81536.36294321  5155.13679107
0.28100001 80375.53134731  5099.82770536
0.28200001 79231.74934783  4372.40429470
0.28300001 78104.40105030  3992.69717067
0.28400001 76992.61377215  3620.57783400
0.28500001 75897.31427038  4558.39291083
0.28600001 74817.47010561  3220.89224050
0.28700001 73753.76254263  4460.62776971
0.28800001 72703.49340746  4097.20556491
0.28900001 71669.77250653  3741.16230192
0.29000001 70649.97034199  3392.25848654
0.29100001 69645.04549297  3965.58907808
0.29200001 68653.85174023  3319.07061949
0.29300001 67676.87401869  5969.10057100
0.29400001 66712.89258178  4132.86389108
0.29500001 65763.65275635  3795.87821678
0.29600001 64826.47192221  4332.02919127
0.29700001 63902.88255632  3713.39668113
0.29800001 62992.50709303  3107.73548455
0.29900001 62094.99718888  3911.98500809
0.30000001 61209.29964423  2763.60000976
0.30100001 60336.77333495  3553.23274991
0.30200001 59475.60028271  2703.16616082
0.30300001 58627.16959625  2940.73896617
0.30400001 57790.51461746  3172.69940270
0.30500001 56966.01410996  3922.11025715
0.30600001 56151.97575125  2844.37846634
0.30700001 55350.39348655  2812.90713016
0.30800001 54559.69132690  2781.72599400
0.30900001 53780.41629415  3751.18421411
0.31000001 53012.23633136  4204.13560130
0.31100001 52254.63593566  3912.82732412
0.31200001 51508.71486282  2660.16770504
0.31300001 50772.75819508  2391.39702421
0.31400001 50048.91001037  2837.77333195
0.31500001 49334.14728025  2806.12643016
0.31600002 48631.06906108  3237.37042068
0.31700002 47937.60904028  3201.27368328
0.31800002 47254.37938371  2713.34659269
0.31900002 46581.92530900  2683.11902484
0.32000002 45919.54001284  2653.23114757
0.32100002 45266.97172406  2623.67380536
0.32200002 44625.36954481  3675.56873660
0.32300002 43991.81326357  2993.20311618
0.32400002 43369.48251450  3171.39355904
0.32500002 42756.74188002  3136.20716540
0.32600002 42153.80915207  2067.64443682
0.32700002 41560.54572231  3067.16841955
0.32800002 40977.83041312  2628.93283464
0.32900002 40402.69827428  2599.91375707
0.33000002 39838.50637388  3164.77109621
0.33100002 39282.69579079  2738.78968023
0.33200002 38737.82351558  2321.94525148
0.33300002 38201.50118158  2679.45341976
0.33400002 37675.25787761  2461.13633740
0.33500002 37157.68031657  2247.29661197
0.33600002 36649.04935149  2408.39239219
0.33700002 36149.74515446  2016.07138274
0.33800002 35660.31972533  2719.99101586
0.33900002 35179.18102388  1794.13831718
0.34000002 34707.32658279  1952.80782266
0.34100002 34244.49578061  2283.76553176
0.34200002 33791.50734025  2260.14507549
0.34300002 33346.74530818  1720.69213939
0.34400002 32911.57608622  1873.49155744
0.34500002 32484.82157960  1854.55855181
0.34600002 32067.50911785  2002.93671436
0.34700002 31658.00784899  1817.80289678
0.34800002 31258.07129153  2127.26814250
0.34900002 30866.49407279  1782.54011713
0.35000002 30483.95367418  1925.97628435
0.35100002 30110.79351108  1748.83496995
0.35200002 29744.61846134  1732.47538434
0.35300002 29388.42550278  1560.52546811
0.35400002 29040.20238526  1855.66902031
0.35500002 28700.82194620  1685.88636097
0.35600002 28369.22323987  1974.92356938
0.35700002 28046.28357828  1957.91114934
0.35800002 27732.02926197  1642.70683114
0.35900002 27426.59634956  1777.24352763
0.36000002 27129.11243077  2056.65811079
0.36100002 26839.24933655  1748.84556961
0.36200002 26559.12575820  1590.75891264
0.36300002 26285.71817367  1578.72030829
0.36400002 26021.15233874  1424.65815803
0.36500002 25763.57990580  1555.86266421
0.36600002 25515.15123789  1545.07005640
0.36700002 25273.89915025  1534.63122910
0.36800002 25041.49237425  1663.25600228
0.36900002 24816.63756723  1652.78814027
0.37000002 24598.94726522  1642.71777619
0.37100002 24388.89361373  1905.26045936
0.37200002 24187.34461311  1759.26659377
0.37300002 23992.85771151  1480.59931951
0.37400002 23805.73390000  1472.97985484
0.37500002 23626.40792492  1732.28831112
0.37600002 23454.56749545  1591.62702564
0.37700002 23289.84183341  1716.69432286
0.37800002 23132.29142786  1841.09916196
0.37900002 22982.81468524  1703.02664885
0.38000002 22839.52671441  1957.91852034
0.38100002 22702.58781157  1561.03001187
0.38200002 22573.96481961  1426.56177436
0.38300002 22451.25087725  1681.14974533
0.38400002 22335.88205796  1547.87669995
0.38500002 22226.47835465  1801.67842078
0.38600002 22124.80904510  1669.64879369
0.38700002 22028.57553496  1538.47578825
0.38800002 21939.03614146  1536.17138340
0.38900002 21855.75524917  1662.13026544
0.39000002 21779.25947897  1788.29508054
0.39100002 21708.20138670  1276.44230201
0.39200002 21643.74396603  1275.89876725
0.39300002 21584.82350563  1403.22944258
0.39400002 21532.84646499  1658.56757754
0.39500002 21485.50089458  1276.23881360
0.39600002 21443.98422992  1660.08611781
0.39700002 21407.50767444  1533.63392246
0.39800002 21377.69883878  1791.23747057
0.39900002 21352.17996037  1793.58320165
0.40000002 21332.36185541  1283.14162640
0.40100002 21317.25624474  1542.51673495
0.40200002 21307.77262293  1545.66589930
0.40300002 21302.91148390  2065.53039534
0.40400002 21302.78705521  1552.97324990
0.40500002 21307.09082581  1686.88246060
0.40600002 21316.95159335  1431.53995208
0.40700002 21330.49200164  1697.05402406
0.40800002 21348.50595388  1571.67708279
0.40900002 21370.27810540  1708.55381548
0.41000002 21396.98222557  1451.03641838
0.41100002 21427.38154631  1456.63346654
0.41200002 21460.89913905  1462.45304113
0.41300002 21499.52687121  1468.63275016
0.41400002 21541.03807632  2279.58046244
0.41500002 21586.12384071  1616.36902978
0.41600002 21633.73896048  1488.50947971
0.41700002 21686.18449373  1903.61336506
0.41800002 21741.91482808  1639.77529403
0.41900002 21799.09472874  1373.34303299
0.42000002 21859.74288504  1794.57567718
0.42100002 21923.91995739  1665.34103888
0.42200002 21990.64226427  2372.02074023
0.42300002 22059.35434539  1823.86750370
0.42400002 22130.69170217  2116.24749430
0.42500002 22204.75003115  1560.77195365
0.42600002 22279.91679355  1712.43448590
0.42700002 22358.35550860  1435.40649167
0.42800002 22438.10046472  1732.67019999
0.42900002 22520.58421547  2324.12440117
0.43000002 22604.55127007  1753.66117063
0.43100002 22688.77517518  1617.25597112
0.43200002 22775.81952461  1627.21850305
0.43300002 22863.57250891  1637.26050495
0.43400002 22953.14312913  1647.46192616
0.43500002 23043.18995397  1808.42963329
0.43600002 23135.22067818  2426.42205971
0.43700002 23227.35574570  1831.24481377
0.43800002 23319.92414802  2149.86390909
0.43900002 23414.32224246  1699.87987536
0.44000002 23508.66039740  2332.64693848
0.44100002 23603.78307128  2190.90324850
0.44200002 23699.14927102  1732.28939806
0.44300002 23795.02348627  1743.22350322
0.44400002 23890.77979257  1594.70962673
0.44500002 23986.20705511  1765.14506084
0.44600002 24081.55004907  2422.00201097
0.44700002 24177.72281172  1624.74304995
0.44800002 24272.58546277  1961.71045007
0.44900002 24367.65980702  1644.81711492
0.45000002 24462.75261203  2482.35793895
0.45100002 24556.33063449  1831.41122552
0.45200002 24649.76853650  1674.95185144
0.45300002 24742.25409897  2021.93710079
0.45400002 24834.01340050  2033.90579389
0.45500002 24925.19588585  1875.37182733
0.45600002 25014.94727562  1714.77471701
0.45700002 25104.04038511  1724.64765619
0.45800002 25191.45116555  2428.20409293
0.45900002 25277.80258430  1918.58530708
0.46000002 25363.27551834  2806.19293635
0.46100002 25446.47989568  1939.78525438
0.46200002 25528.98872066  1772.98835068
0.46300002 25609.66848214  2317.16291409
0.46400002 25688.29420235  1791.75860553
0.46500002 25766.40375675  2161.28604955
0.46600002 25841.61649916  2534.28745019
0.46700002 25915.13386127  2910.78797326
0.46800002 25987.42736478  2193.85872212
0.46900002 26057.10737159  2939.24185082
0.47000002 26124.88323391  2214.86770555
0.47100002 26190.87685239  2039.74558594
0.47200002 26254.82866051  2235.33621810
0.47300002 26316.46303849  1871.10061072
0.47400002 26375.30345721  2443.01259852
0.47500002 26432.40897138  2076.00149901
0.47600002 26487.96339105  2084.73525750
0.47700002 26539.78560004  2473.77353303
