# SAXS profile: number of points = 501, q_min = 0, q_max = 0.5, delta_q = 0.001
#    q    intensity    error
0.00000000 1628779.37420969 342.04366858
0.00100000 1628699.38420573 537.47080955
0.00200000 1628459.35103992 952.64875052
0.00300000 1628059.49357307 1074.51930404
0.00400000 1627499.69721528 1586.81226508
0.00500000 1626780.44247525 1610.51270180
0.00600000 1625901.63602889 1877.91646607
0.00700000 1624863.83760133 2729.77136062
0.00800000 1623666.88114608 2411.14542030
0.00900000 1622311.94854172 3893.54884294
0.01000000 1620798.47006389 3476.61286841
0.01100000 1619127.66472930 3205.87291575
0.01200000 1617299.42016729 4415.22761064
0.01300000 1615314.96666820 4749.02621146
0.01400000 1613174.23199585 5081.49905605
0.01500000 1610878.72856279 4252.72003277
0.01600000 1608427.73541826 4511.63999953
0.01700000 1605823.52753506 4769.29609072
0.01800000 1603066.06804070 5482.48619940
0.01900000 1600155.87846212 6720.65499279
0.02000000 1597094.33273856 6037.01685084
0.02100000 1593883.31901746 6311.77822948
0.02200000 1590521.24896955 8230.94783737
0.02300000 1587011.62501649 5713.24211012
0.02400000 1583353.54847411 6531.33368527
0.02500000 1579549.91645828 8624.34293774
0.02600000 1575600.49011012 7019.30050449
0.02700000 1571507.44675927 8580.43105230
0.02800000 1567270.69392684 8181.15339748
0.02900000 1562892.45168793 7736.31799106
0.03000000 1558374.32009999 8695.72910586
0.03100000 1553716.47262693 11186.75911765
0.03200000 1548920.41377237 8433.87204144
0.03300000 1543989.81843502 8661.78328073
0.03400000 1538923.11848002 10503.15076825
0.03500000 1533723.15658378 9938.52651360
0.03600000 1528391.02327610 8482.57057119
0.03700000 1522928.82750942 11284.90313374
0.03800000 1517338.05675739 8876.42804283
0.03900000 1511620.39509011 12697.61190678
0.04000000 1505776.11814169 12964.73297797
0.04100000 1499808.85131631 14173.19430210
0.04200000 1493719.41558345 10597.93974523
0.04300000 1487508.76484212 11781.06996440
0.04400000 1481180.52288429 12997.35969193
0.04500000 1474735.88374341 14245.94929890
0.04600000 1468174.66148296 16561.01095140
0.04700000 1461501.37826994 11575.09145423
0.04800000 1454716.16518959 10692.16431163
0.04900000 1447822.63093274 16288.00535616
0.05000000 1440820.69718193 12124.50673138
0.05100000 1433714.73270845 15656.16561050
0.05200000 1426502.99792464 15876.97910679
0.05300000 1419191.43998765 19542.26703965
0.05400000 1411780.10788669 16306.06100651
0.05500000 1404271.29752778 11795.87944950
0.05600000 1396666.14694006 16718.09455901
0.05700000 1388969.62562182 19334.45809116
0.05800000 1381181.00530222 13445.79771443
0.05900000 1373302.19627551 16067.63644688
0.06000000 1365337.53694743 13742.12295139
0.06100000 1357288.20193848 17671.89321507
0.06200000 1349155.93578767 16574.38144590
0.06300000 1340944.52437527 16734.98844665
0.06400000 1332652.18826355 15592.03133187
0.06500000 1324284.92491772 19665.63205494
0.06600000 1315844.10612714 15869.08066238
0.06700000 1307330.47546791 17335.20291597
0.06800000 1298748.06488052 13442.04310072
0.06900000 1290099.19284282 14900.64637497
0.07000000 1281383.96539354 15011.41385755
0.07100000 1272606.15269377 17867.39122069
0.07200000 1263767.82960542 17989.73589719
0.07300000 1254871.41648030 18107.79538826
0.07400000 1245919.63512299 21024.89482801
0.07500000 1236913.58031884 19741.14166720
0.07600000 1227854.83716308 17018.06884090
0.07700000 1218748.23694437 17111.22604902
0.07800000 1209593.96199623 17200.42694622
0.07900000 1200394.18638936 23047.56945969
0.08000000 1191153.18388572 17367.01423576
0.08100000 1181871.50137995 17444.42417883
0.08200000 1172550.89717508 16058.08529034
0.08300000 1163195.26414444 20518.76542249
0.08400000 1153805.49089911 20595.42897927
0.08500000 1144384.52751536 20667.58553717
0.08600000 1134933.71423072 14810.88566610
0.08700000 1125457.02949714 14856.03348697
0.08800000 1115954.07558898 20857.18265229
0.08900000 1106430.12808940 23898.89188925
0.09000000 1096884.64669637 16469.72374382
0.09100000 1087320.83954317 18006.03394878
0.09200000 1077739.96646535 15034.47323861
0.09300000 1068147.88705383 15060.88591520
0.09400000 1058540.70518733 19609.46748519
0.09500000 1048924.21333366 21146.31313474
0.09600000 1039299.40339898 21170.52984242
0.09700000 1029670.56173972 16649.77376608
0.09800000 1020038.05597010 18177.07901203
0.09900000 1010404.24903771 21218.49022754
0.10000000 1000769.68636959 16677.82760766
0.10100000 991137.40874197 19713.72398705
0.10200000 981509.62956752 16680.75693910
0.10300000 971887.47359806 25774.45701227
0.10400000 962274.46737733 15155.82357420
0.10500000 952673.15857708 16662.25432746
0.10600001 943080.45128233 16650.08615084
0.10700001 933503.72725636 18147.31331183
0.10800001 923941.88359916 16617.09555856
0.10900001 914398.77195954 16596.33849218
0.11000001 904873.63382722 18079.37605486
0.11100001 895369.79942435 18050.65600610
0.11200001 885888.93363244 15015.81813197
0.11300001 876432.28900577 23979.18855616
0.11400001 867002.38775949 20938.10865025
0.11500001 857600.40878275 14922.24781548
0.11600001 848227.87268726 20840.95981336
0.11700001 838887.18180128 20787.62534403
0.11800001 829577.70469849 28135.12917997
0.11900001 820302.51320753 22148.16889982
0.12000001 811062.04044425 19137.00974573
0.12100001 801861.00984948 16141.46288866
0.12200001 792697.82736000 19012.85828495
0.12300001 783575.15446728 14574.49855976
0.12400001 774493.26419209 15973.92432661
0.12500001 765453.18216073 14467.06582453
0.12600001 756459.49478679 14410.55405476
0.12700001 747510.24700088 15787.41716066
0.12800001 738607.71938854 18579.67805687
0.12900001 729753.46638562 21345.28989783
0.13000001 720948.86668150 14166.64589803
0.13100001 712194.00917277 16921.73045560
0.13200001 703490.47662134 14034.63567019
0.13300001 694840.11541139 16759.54437382
0.13400001 686243.00454352 16675.70579659
0.13500001 677701.24994121 23502.68045607
0.13600001 669215.14406932 15127.60904497
0.13700001 660786.13627370 17781.75576559
0.13800001 652413.51939205 23124.79828532
0.13900001 644100.71587193 13526.11567118
0.14000001 635846.68100356 21517.05269992
0.14100001 627654.24548412 14705.93966527
0.14200001 619522.62427531 15946.51310097
0.14300001 611453.38342020 15848.87244580
0.14400001 603444.81703640 17062.40300654
0.14500001 595501.81469399 20866.38457119
0.14600001 587623.02578883 23322.75899379
0.14700001 579809.75037488 16733.31018524
0.14800001 572059.55689057 15342.63803965
0.14900001 564376.91334728 13968.32926438
0.15000001 556760.78715112 17654.88539357
0.15100001 549211.43370456 20035.23404690
0.15200001 541731.11911959 13676.00274750
0.15300001 534318.80507542 16045.59447359
0.15400001 526973.53205079 17152.98927772
0.15500001 519698.92442614 14593.14648658
0.15600001 512492.16838777 14483.02936216
0.15700001 505357.89259326 16767.77566763
0.15800001 498291.03289950 13072.66586513
0.15900001 491296.49895809 15328.45149100
0.16000001 484370.27762706 14037.05130822
0.16100001 477517.69652771 17405.52086005
0.16200001 470735.57053369 12660.43376715
0.16300001 464024.29420580 11414.99817634
0.16400001 457384.96860439 14716.36205960
0.16500001 450816.62792089 15715.46839127
0.16600001 444320.32426601 18921.38190220
0.16700001 437895.66561921 13241.96555354
0.16800001 431542.97481383 13127.53791367
0.16900001 425262.89363820 18435.14730969
0.17000001 419053.43298828 10748.72106370
0.17100001 412916.47846192 10653.24564738
0.17200001 406851.54796781 15836.69725250
0.17300001 400857.58744710 12554.86023174
0.17400001 394936.87585637 14513.93087316
0.17500001 389086.07219688 11299.06007022
0.17600001 383305.61066409 14247.47022128
0.17700001 377599.20484455 13106.46901918
0.17800001 371962.02063499 10985.89879834
0.17900001 366395.69688425 10881.95271146
0.18000001 360900.72269127 10778.30059229
0.18100001 355476.80250257 11645.42060007
0.18200001 350120.91024561 13455.14721633
0.18300001 344835.21678873 9517.45243297
0.18400001 339619.63697933 12251.77898281
0.18500001 334473.04545850 13997.69761372
0.18600001 329395.55348164 11087.45485400
0.18700001 324385.98484827 10977.22224588
0.18800001 319443.07347819 13584.31734147
0.18900001 314571.16183110 9861.80638935
0.19000001 309762.21580549 12424.56306300
0.19100001 305023.13531580 13177.00006826
0.19200001 300348.93230915 13912.16320193
0.19300001 295742.06743191 13769.75131029
0.19400001 291199.03748246 13628.11559816
0.19500001 286721.65785671 10115.54056720
0.19600001 282307.89447251 10844.85827865
0.19700001 277959.67172844 12383.10396070
0.19800001 273673.58901369 10619.90412356
0.19900001 269450.98283912 8891.88285392
0.20000001 265289.08001921 9598.15936872
0.20100001 261190.77446837 8705.48892447
0.20200001 257152.23174151 9396.34299194
0.20300001 253174.94914655 7747.15381005
0.20400001 249258.40704681 8431.16601686
0.20500001 245400.04057156 9099.43393450
0.20600001 241600.24868403 9002.02569147
0.20700001 237859.42003891 7421.21425601
0.20800001 234175.43716500 9543.82039280
0.20900001 230550.97851385 7988.59178314
0.21000001 226979.83599493 7902.30336372
0.21100001 223465.78211447 8527.45464861
0.21200001 220005.61427091 9840.85159156
0.21300001 216600.14703422 8343.43805820
0.21400001 213248.76348019 6877.27294737
0.21500001 209951.37725450 6802.42494465
0.21600001 206704.78285910 6728.24100017
0.21700001 203510.72695753 7320.28119476
0.21800001 200367.75312891 6582.08100149
0.21900001 197274.79975743 11067.11678966
0.22000001 194230.95625717 6438.75650437
0.22100001 191237.70956985 7641.85923575
0.22200001 188292.20517236 7558.04947300
0.22300001 185394.11880389 8720.93976091
0.22400001 182542.73184565 6776.89924022
0.22500001 179739.67063386 6702.49263488
0.22600001 176980.57832150 9039.28346522
0.22700001 174267.23612068 8343.91566003
0.22800001 171598.21065674 6483.83869629
0.22900001 168971.99447828 8744.30112778
0.23000001 166389.50885874 8071.55545646
0.23100001 163850.78433233 5702.00756443
0.23200001 161351.65210702 5639.24050784
0.23300001 158894.94518652 8923.54054371
0.23400001 156478.02937385 8273.77619445
0.23500001 154100.25884474 8728.23907378
0.23600001 151762.07155608 5934.65608889
0.23700001 149462.86779878 6936.57202263
0.23800001 147200.82629868 7388.00982137
0.23900001 144976.15495175 6262.97019015
0.24000001 142787.69115146 6710.30786306
0.24100001 140636.13150222 6126.11017801
0.24200001 138519.94850235 5049.05236174
0.24300001 136437.74682953 5992.34612421
0.24400001 134390.09726210 6914.37083121
0.24500001 132375.09748462 6838.49785955
0.24600001 130393.75023864 5314.19754236
0.24700001 128444.81816016 4778.14746159
0.24800001 126527.40153584 5670.95840511
0.24900001 124640.37397487 6076.21851873
0.25000001 122785.04033512 5085.14268605
0.25100001 120958.63866570 5029.46043366
0.25200001 119163.67855490 5426.71417813
0.25300001 117396.25198873 4472.79741238
0.25400001 115658.24999956 7520.67806203
0.25500001 113946.53633223 5250.65664261
0.25600001 112263.25898123 5626.07349003
0.25700001 110606.02130957 5564.58919536
0.25800001 108975.43031737 6773.91306903
0.25900001 107371.30589182 4606.22924070
0.26000001 105791.90811705 4555.92873863
0.26100001 104236.59031565 5325.44765121
0.26200001 102707.46160505 5267.35241765
0.26300001 101200.27878836 5209.79059854
0.26400001 99718.04383848  3963.79243014
0.26500001 98258.33387382  4704.60924850
0.26600001 96820.97917271  5040.98451916
0.26700001 95405.82225881  3835.31423629
0.26800001 94012.82648232  6069.46836491
0.26900001 92640.35053506  4877.51468648
0.27000001 91289.55775895  4453.10483821
0.27100001 89958.65327329  4771.40719541
0.27200001 88648.70411883  4719.21398710
0.27300001 87358.16682868  5026.58915720
0.27400001 86085.77976429  5681.66173333
0.27500001 84834.38508536  4214.57245050
0.27600001 83599.29289347  4168.26094094
0.27700001 82384.40259036  3435.42975061
0.27800001 81186.53800272  5436.25084194
0.27900001 80006.66556391  3696.30812399
0.28000001 78843.69131451  4320.24027005
0.28100001 77697.98342283  4601.27479607
0.28200001 76569.31105972  3575.40414916
0.28300001 75456.77699396  3535.90473729
0.28400001 74359.77520230  4450.43275650
0.28500001 73279.14796507  3458.04315615
0.28600001 72213.93974880  3108.81025333
0.28700001 71164.67884612  3996.60855317
0.28800001 70128.91395615  3648.10627668
0.28900001 69109.40474383  4208.76294812
0.29000001 68103.94409462  3567.28476053
0.29100001 67113.22161390  3527.47109500
0.29200001 66136.17644422  3488.02211077
0.29300001 65173.21464582  3161.55279212
0.29400001 64223.22314757  2841.87775880
0.29500001 63288.06543847  3652.98731003
0.29600001 62364.66190533  3056.18040134
0.29700001 61455.20176570  3571.16194366
0.29800001 60558.61559658  4074.08105712
0.29900001 59674.87386835  2953.90639632
0.30000001 58802.96470889  3716.93557521
0.30100001 57944.25997896  3149.85012157
0.30200001 57096.79807801  2854.55455505
0.30300001 56262.25219119  3591.78234992
0.30400001 55439.31729075  2536.34888613
0.30500001 54628.59363470  3259.68833650
0.30600001 53828.28338543  3718.18885088
0.30700001 53040.38557360  3920.74548722
0.30800001 52263.44216479  3149.13385673
0.30900001 51498.05375071  3591.98941917
0.31000001 50743.53635596  2840.62329970
0.31100001 49999.77822250  2573.98870476
0.31200001 49267.78114534  2544.43467772
0.31300001 48545.67971155  3429.75243401
0.31400001 47835.71969299  2712.28543501
0.31500001 47135.06524977  3127.88307807
0.31600002 46445.87304823  2429.35150481
0.31700002 45766.39219218  2619.66841312
0.31800002 45097.10138530  2805.26532450
0.31900002 44438.75296508  2133.06024332
0.32000002 43790.60472133  2530.22126060
0.32100002 43152.23445547  3126.37953433
0.32200002 42524.75706074  2266.35703487
0.32300002 41905.47867483  2647.58826804
0.32400002 41297.38401846  3825.17037584
0.32500002 40699.04796126  2985.27530932
0.32600002 40110.62109425  2164.16866362
0.32700002 39531.73042965  2722.94572093
0.32800002 38963.54943024  2115.13638098
0.32900002 38402.95478357  2091.04098698
0.33000002 37853.50539791  2067.36929520
0.33100002 37312.39668447  2229.78893145
0.33200002 36782.37252349  2204.73551346
0.33300002 36260.85846697  2180.00291427
0.33400002 35749.55045338  1976.05649489
0.33500002 35246.83675915  2131.72878814
0.33600002 34753.25901846  3162.19918784
0.33700002 34269.07453482  2084.93059343
0.33800002 33794.78191067  1718.46474154
0.33900002 33328.96436408  2379.68816829
0.34000002 32872.36843703  2353.99041526
0.34100002 32424.79598945  1663.39211303
0.34200002 31987.28471783  2139.46963967
0.34300002 31558.10176756  1954.07775399
0.34400002 31138.47169424  1933.69918379
0.34500002 30727.27241863  1594.74551405
0.34600002 30325.60812207  1736.29277526
0.34700002 29931.78065878  1562.43902439
0.34800002 29547.69356842  2165.55056419
0.34900002 29172.01017590  1990.98978880
0.35000002 28805.31708975  1819.92001993
0.35100002 28448.20478318  1502.06528369
0.35200002 28097.93037195  1636.56403203
0.35300002 27757.77715345  1768.72564399
0.35400002 27425.76657364  1898.54878098
0.35500002 27102.66652290  1447.28246087
0.35600002 26787.29210745  1864.79742839
0.35700002 26480.60132495  1848.61086605
0.35800002 26182.62469351  1550.92784718
0.35900002 25893.57858422  1398.25330978
0.36000002 25612.52395427  2080.37735672
0.36100002 25339.08708420  1788.68624200
0.36200002 25075.43504643  1501.89325325
0.36300002 24818.65247472  1355.09848931
0.36400002 24570.56204252  1479.76216910
0.36500002 24329.69667160  1869.98057476
0.36600002 24097.83374626  1591.90297268
0.36700002 23873.30375967  1449.58707295
0.36800002 23657.50681440  1440.38737062
0.36900002 23449.41778863  1431.58702381
0.37000002 23248.51030439  1552.53559167
0.37100002 23055.27175073  1672.42949202
0.37200002 22870.45906708  1919.40336813
0.37300002 22692.74276814  1400.36922256
0.37400002 22522.47097566  1773.64467335
0.37500002 22360.00211095  1513.32501456
0.37600002 22204.99758993  1883.53900979
0.37700002 22056.98583576  1625.82050297
0.37800002 21916.36220525  1245.94525039
0.37900002 21783.65848141  1365.83545149
0.38000002 21657.20887406  1609.02240952
0.38100002 21537.19237414  1851.12177225
0.38200002 21425.37320384  1723.24284842
0.38300002 21319.33450878  2087.58933400
0.38400002 21220.76130969  1348.04892606
0.38500002 21128.25137103  1467.99097480
0.38600002 21043.28262327  1465.87513698
0.38700002 20963.83148459  1708.13307029
0.38800002 20890.97463286  1584.68495585
0.38900002 20824.32896489  1583.69029281
0.39000002 20764.64321497  1461.41565871
0.39100002 20710.16083604  1339.53326634
0.39200002 20662.11629964  1705.24453900
0.39300002 20619.73388434  1340.48896333
0.39400002 20584.18425942  1585.49686770
0.39500002 20553.32082866  1465.04077808
0.39600002 20528.32888133  1466.95445136
0.39700002 20508.11034595  1469.20109479
0.39800002 20494.51568082  1471.91618593
0.39900002 20485.29223313  1474.94111067
0.40000002 20481.61090030  1355.16584943
0.40100002 20482.68689351  1605.63790166
0.40200002 20489.22507074  1238.57371421
0.40300002 20500.20444318  1615.00618255
0.40400002 20516.03383887  1869.52367215
0.40500002 20536.11673713  1625.84443911
0.40600002 20561.70147534  1506.35032146
0.40700002 20591.06168289  1512.20764164
0.40800002 20624.57830525  1897.97690847
0.40900002 20661.72872129  2160.18384016
0.41000002 20703.89064007  1914.59237766
0.41100002 20749.53116298  1538.78530396
0.41200002 20798.31105792  1546.14651731
0.41300002 20852.01921117  1294.91045437
0.41400002 20908.51499946  1431.71063243
0.41500002 20968.53059435  1700.96728241
0.41600002 21031.01200664  1447.03884968
0.41700002 21098.19524677  1455.14259512
0.41800002 21168.45722702  1463.48135974
0.41900002 21240.08588816  1605.75056923
0.42000002 21315.10545277  2153.67835700
0.42100002 21393.52415100  1895.89420010
0.42200002 21474.42271372  1907.57306005
0.42300002 21557.14528805  1508.13795582
0.42400002 21642.37680574  1517.67174542
0.42500002 21730.13864621  1943.97829541
0.42600002 21818.93406612  1816.75363110
0.42700002 21910.90686769  1688.01634508
0.42800002 22004.04775362  1840.74870206
0.42900002 22099.90204303  1567.98812426
0.43000002 22196.85667987  1722.03222283
0.43100002 22294.10154730  1589.12363360
0.43200002 22393.99990025  2036.28650743
0.43300002 22494.45052325  1464.38879846
0.43400002 22596.55554948  2653.96557505
0.43500002 22699.09457659  1929.87711236
0.43600002 22803.26369322  1793.70480711
0.43700002 22907.62343316  2558.55258250
0.43800002 23012.19966608  1818.42410379
0.43900002 23118.46654867  1983.56452388
0.44000002 23224.46366820  2304.44751668
0.44100002 23331.13442363  2165.59599983
0.44200002 23437.93900419  2024.68645683
0.44300002 23545.06229107  2195.34171206
0.44400002 23651.87836722  1736.63925141
0.44500002 23758.30335177  1589.43056956
0.44600002 23864.38327681  1920.12836945
0.44700002 23971.18617691  2094.12292366
0.44800002 24076.55411932  1621.55599678
0.44900002 24181.99829460  2448.42744336
0.45000002 24287.25031274  2628.85209844
0.45100002 24390.80376169  1819.06623076
0.45200002 24494.10776893  2163.68711231
0.45300002 24596.28342322  2345.00977271
0.45400002 24697.53669175  2191.28904683
0.45500002 24798.10710013  2713.90496966
0.45600002 24897.09514400  2048.03514361
0.45700002 24995.23733802  2232.32475246
0.45800002 25091.58208342  2245.82216081
0.45900002 25186.70942157  2259.24794219
0.46000002 25280.73603666  1922.97927777
0.46100002 25372.41907828  2285.80134310
0.46200002 25463.17584041  2475.78470430
0.46300002 25551.99024669  2489.78604764
0.46400002 25638.56276441  2861.26374012
0.46500002 25724.44796869  1977.95289806
0.46600002 25807.29331257  2169.36117867
0.46700002 25888.30854080  2907.77495312
0.46800002 25967.92869892  2009.52825761
0.46900002 26044.82003437  2019.77588940
0.47000002 26119.65224444  1845.35351853
0.47100002 26192.50656451  2596.20137373
0.47200002 26263.14916015  3354.06693822
0.47300002 26331.30450743  2059.37142313
0.47400002 26396.64524668  2444.98938186
0.47500002 26460.02468411  2267.09502239
0.47600002 26521.57647696  2656.66644162
0.47700002 26579.46883678  2858.62200889
