# SAXS profile: number of points = 501, q_min = 0, q_max = 0.5, delta_q = 0.001
#    q    intensity    error
0.00000000 1646666.22097351 469.29987298
0.00100000 1646585.72241452 642.16844699
0.00200000 1646344.16674655 1185.36783759
0.00300000 1645941.77296450 1481.34764844
0.00400000 1645378.41577480 1480.84063047
0.00500000 1644654.59632806 1776.22703434
0.00600000 1643770.20524707 2071.15054293
0.00700000 1642725.80311116 2759.77946392
0.00800000 1641521.24962049 2659.26453666
0.00900000 1640157.70279403 3198.30765717
0.01000000 1638634.59744172 3244.49664303
0.01100000 1636953.15645528 3830.47055288
0.01200000 1635113.28127288 3188.47103828
0.01300000 1633116.16818754 4115.45292534
0.01400000 1630961.80970247 4403.59708141
0.01500000 1628651.64195489 3908.76411474
0.01600000 1626185.02425504 4976.12639667
0.01700000 1623564.18707845 4821.98585193
0.01800000 1620789.09772136 5081.17405000
0.01900000 1617860.31686380 4853.58116960
0.02000000 1614779.16492391 5595.21005956
0.02100000 1611547.58176521 5318.10726094
0.02200000 1608163.97205083 6102.98255121
0.02300000 1604631.84557988 6354.34239774
0.02400000 1600950.25039512 6003.56371273
0.02500000 1597122.17253322 6851.65443309
0.02600000 1593147.30520180 8387.92094554
0.02700000 1589027.90966272 8676.09278413
0.02800000 1584763.80987615 8272.46746693
0.02900000 1580357.29195095 9956.25139642
0.03000000 1575809.94712149 12456.77820457
0.03100000 1571121.95804383 9049.66289474
0.03200000 1566294.82367951 8528.47570774
0.03300000 1561332.31294085 8759.07467940
0.03400000 1556232.51612012 13072.35373857
0.03500000 1550998.68952699 10888.01130327
0.03600000 1545631.84117010 12867.38567239
0.03700000 1540133.97187203 10534.51685480
0.03800000 1534506.56957882 9874.55023223
0.03900000 1528751.52638759 11007.01149973
0.04000000 1522868.94494362 12175.33777902
0.04100000 1516862.43023079 9556.23375354
0.04200000 1510732.90037877 15590.76425521
0.04300000 1504481.37884574 11915.49307355
0.04400000 1498111.35943658 10112.25214583
0.04500000 1491623.89960709 10292.20538552
0.04600000 1485019.23211736 10469.38607312
0.04700000 1478301.59984709 17030.03522227
0.04800000 1471471.25433932 11896.84564487
0.04900000 1464531.75581670 15377.58415186
0.05000000 1457482.97119634 15609.64334839
0.05100000 1450329.41722020 14706.34097569
0.05200000 1443069.29343566 17208.60212616
0.05300000 1435708.45525877 13955.08683567
0.05400000 1428247.11548566 16496.25495314
0.05500000 1420687.53979070 15513.90865823
0.05600000 1413030.90046483 14497.69771529
0.05700000 1405282.21930297 14671.14705435
0.05800000 1397440.46498767 16077.55330038
0.05900000 1389507.97452476 16257.24406125
0.06000000 1381488.75603217 15168.74724990
0.06100000 1373384.16579760 20435.95734207
0.06200000 1365196.06242375 18061.54475013
0.06300000 1356927.94199248 15631.81062262
0.06400000 1348578.23883352 15778.36613225
0.06500000 1340153.10460396 17247.77126307
0.06600000 1331653.44533769 17398.05307737
0.06700000 1323080.67569125 14844.96587598
0.06800000 1314438.21845265 16325.32343736
0.06900000 1305728.74344571 15081.16769288
0.07000000 1296952.24337519 19337.55885427
0.07100000 1288112.50610713 13911.61571755
0.07200000 1279211.67779461 14007.36852805
0.07300000 1270252.16091523 15509.77961149
0.07400000 1261236.60854200 17026.69501326
0.07500000 1252166.31404625 19984.57530890
0.07600000 1243042.58825741 24407.14236466
0.07700000 1233870.49259061 14436.28544021
0.07800000 1224650.29254191 15963.31731190
0.07900000 1215383.89843181 16043.06821178
0.08000000 1206075.86160831 14653.82240597
0.08100000 1196726.57489432 20607.63258655
0.08200000 1187337.92974168 20695.30108653
0.08300000 1177913.51759866 23746.73762927
0.08400000 1168454.69685904 17877.35770108
0.08500000 1158964.07045923 16445.70093186
0.08600000 1149443.27211398 16500.25894591
0.08700000 1139896.14811492 18055.95583401
0.08800000 1130322.12413780 15089.80106591
0.08900000 1120726.81054337 19668.75644887
0.09000000 1111109.61677053 19716.64107579
0.09100000 1101473.46017308 18240.40135742
0.09200000 1091819.95685942 22846.33367076
0.09300000 1082154.88829840 16784.22310624
0.09400000 1072474.11858310 22924.13536209
0.09500000 1062783.85507504 18364.90587890
0.09600000 1053084.86172852 16854.62400426
0.09700000 1043381.59211324 18405.25215016
0.09800000 1033674.20012009 15350.06259351
0.09900000 1023965.32012590 18431.37662896
0.10000000 1014255.18603867 18439.16014932
0.10100000 1004546.99563450 18443.48370728
0.10200000 994843.18309119 18444.39348207
0.10300000 985144.62502431 15368.25687331
0.10400000 975455.03732734 15363.41756068
0.10500000 965776.70189503 16891.43531088
0.10600001 956106.76807890 18414.61721967
0.10700001 946452.69216049 21465.54806832
0.10800001 936813.33437176 15316.89873782
0.10900001 927192.12625260 16828.53788353
0.11000001 917589.01516770 15277.85782166
0.11100001 908007.04025517 16779.97089381
0.11200001 898447.71785763 19797.29639499
0.11300001 888912.48462067 16720.44462293
0.11400001 879403.56276490 16686.68338915
0.11500001 869922.96287621 28759.65450692
0.11600001 860471.26473268 18121.52568864
0.11700001 851051.34135526 22595.41417711
0.11800001 841662.48209331 16526.04361425
0.11900001 832307.63408781 16479.69193116
0.12000001 822987.74119309 19418.39666815
0.12100001 813707.05009988 23825.34354929
0.12200001 804464.15701463 17810.83727540
0.12300001 795261.76498988 19229.43038344
0.12400001 786099.85315582 20635.12211761
0.12500001 776979.90658888 16153.41301914
0.12600001 767906.25931031 16091.47642213
0.12700001 758877.15923207 21855.66321586
0.12800001 749894.48436106 20314.64253875
0.12900001 740960.25710045 15893.59826390
0.13000001 732075.63068542 21577.93023153
0.13100001 723240.60743594 20048.23058315
0.13200001 714457.30502279 14253.42390712
0.13300001 705727.04075242 18440.64844421
0.13400001 697049.90529874 18349.83962210
0.13500001 688428.24928455 22470.29911608
0.13600001 679862.29920130 15368.28799807
0.13700001 671353.58435342 16676.42382169
0.13800001 662901.16569449 15203.63895214
0.13900001 654509.07003030 13744.69111881
0.14000001 646175.48029140 15033.27325796
0.14100001 637903.54036921 19022.28447096
0.14200001 629692.55481833 17558.97771928
0.14300001 621544.43687588 14767.89651674
0.14400001 613456.64503105 20014.02398820
0.14500001 605434.92441089 18562.63565808
0.14600001 597477.13525250 17126.68288995
0.14700001 589585.40009271 15706.55579945
0.14800001 581756.96351179 14302.49562271
0.14900001 573995.99263378 14206.40148796
0.15000001 566301.60610503 19240.09797522
0.15100001 558674.61112864 15285.33808172
0.15200001 551116.72942477 18972.19430569
0.15300001 543626.99071417 16325.11930151
0.15400001 536204.42659846 19946.80561077
0.15500001 528852.88838463 14850.18980667
0.15600001 521569.14263777 22109.31699986
0.15700001 514358.38533803 17066.41203100
0.15800001 507215.03913899 13306.78717987
0.15900001 500144.39448464 14404.15924104
0.16000001 493142.48649209 17864.08741640
0.16100001 486214.21465362 16541.00836332
0.16200001 479356.77253163 14064.32837000
0.16300001 472570.48720198 13950.28144076
0.16400001 465856.50095010 11529.94894284
0.16500001 459213.65160651 16008.18865077
0.16600001 452643.52264920 14740.33701101
0.16700001 446144.82098712 14615.70502561
0.16800001 439718.50053499 11146.86451488
0.16900001 433365.24238556 12155.89562289
0.17000001 427082.88509089 15336.54712780
0.17100001 420873.47580179 11944.38980728
0.17200001 414736.00175651 13991.11967996
0.17300001 408670.37257279 12799.55667343
0.17400001 402678.01759253 12684.35815320
0.17500001 396756.08981717 10474.36126585
0.17600001 390904.79465157 12454.22734580
0.17700001 385127.92836007 12339.49940746
0.17800001 379420.61402948 10187.44396787
0.17900001 373784.33212562 15138.26616612
0.18000001 368220.11665456 11996.61196727
0.18100001 362727.18245133 11882.94305841
0.18200001 357302.60127735 10788.75255521
0.18300001 351948.80697689 11656.54503772
0.18400001 346665.18797186 9619.95942067
0.18500001 341451.13997235 12384.43343186
0.18600001 336306.72840051 12263.42543049
0.18700001 331230.32627965 12142.90433510
0.18800001 326221.08101667 13872.55212566
0.18900001 321283.25832784 11903.54528346
0.19000001 316409.06892536 9065.12025303
0.19100001 311604.84848576 11666.48607855
0.19200001 306865.88874221 9772.14468874
0.19300001 302195.05041372 9673.26402083
0.19400001 297588.24389379 11315.79350878
0.19500001 293047.61012518 11200.28018825
0.19600001 288570.88850253 12790.90523733
0.19700001 284160.08244928 10971.42130185
0.19800001 279812.11008442 11693.34863304
0.19900001 275527.88318517 11572.17164068
0.20000001 271304.81444648 9815.80865058
0.20100001 267145.74127879 8094.51634331
0.20200001 263047.11706285 8810.76360245
0.20300001 259009.98609925 7925.70594924
0.20400001 255033.80251405 7842.28979798
0.20500001 251116.62560990 11639.25614717
0.20600001 247258.43473916 12283.79961847
0.20700001 243459.49821779 9874.71771448
0.20800001 239717.97412733 11272.73826620
0.20900001 236036.26270933 8922.17115218
0.21000001 232408.44100368 8826.87300659
0.21100001 228838.18589624 8004.76012106
0.21200001 225322.37837237 7918.95536226
0.21300001 221861.44931454 11394.80457549
0.21400001 218455.14927829 7749.69678703
0.21500001 215103.47937732 9757.09428585
0.21600001 211803.10676550 8273.02974140
0.21700001 208555.48411262 8183.71758350
0.21800001 205359.54238045 8769.87967200
0.21900001 202214.00179459 8674.98108715
0.22000001 199117.96537021 8580.98912336
0.22100001 196073.15488847 7835.08363981
0.22200001 193076.46139245 7750.08952675
0.22300001 190127.63002522 8304.77527220
0.22400001 187225.92835656 10110.20060933
0.22500001 184373.13916998 8125.32462745
0.22600001 181564.72084696 8036.96274834
0.22700001 178802.52244134 7949.56052367
0.22800001 176084.88624812 6048.51612866
0.22900001 173410.74803695 8974.00663530
0.23000001 170780.90711286 7101.07045358
0.23100001 168194.95902831 6438.50333610
0.23200001 165649.31803537 6947.33272697
0.23300001 163146.45475197 8589.66124893
0.23400001 160683.60840685 5664.09746423
0.23500001 158260.68210607 6162.67125268
0.23600001 155877.74211338 6649.74479307
0.23700001 153533.99651101 6029.28032816
0.23800001 151228.12436466 6505.83421789
0.23900001 148959.91316229 6971.32426574
0.24000001 146728.33818564 6365.07561156
0.24100001 144534.19174038 5771.25054918
0.24200001 142375.83969197 8303.35936360
0.24300001 140251.92475705 6159.86482671
0.24400001 138162.77829296 7616.22351367
0.24500001 136106.95676819 5524.58163656
0.24600001 134084.97433477 5464.63338752
0.24700001 132096.07226547 5896.76894488
0.24800001 130139.08470459 6804.97306112
0.24900001 128212.69681792 5769.57162975
0.25000001 126318.52936209 5231.48214102
0.25100001 124453.90617109 5174.79366341
0.25200001 122620.97061627 5584.15926605
0.25300001 120815.83593063 5523.70028008
0.25400001 119040.55639405 5463.96179699
0.25500001 117292.04851633 7206.42380179
0.25600001 115572.59688976 5346.38858507
0.25700001 113879.38623352 4847.84570133
0.25800001 112213.18999776 5231.37916521
0.25900001 110573.99249895 6899.81745840
0.26000001 108959.62633014 4265.76957266
0.26100001 107370.05232845 5485.53623301
0.26200001 105806.74581412 4591.48395186
0.26300001 104266.09629692 5367.61889135
0.26400001 102750.41137518 6126.49356814
0.26500001 101257.78279651 4848.22286971
0.26600001 99787.90276263  4795.80683371
0.26700001 98340.69922193  6325.27407327
0.26800001 96915.91692135  4301.61317611
0.26900001 95511.90985341  4641.87903854
0.27000001 94129.96462220  3826.38324297
0.27100001 92768.32998079  5298.92725926
0.27200001 91428.02207570  4118.37544930
0.27300001 90107.41262898  5555.12225147
0.27400001 88805.34868022  4029.54288706
0.27500001 87524.44280566  4348.21452437
0.27600001 86260.37030914  3942.53041156
0.27700001 85016.81877872  3899.72166194
0.27800001 83790.53690724  3506.63413553
0.27900001 82582.62121627  4162.16430629
0.28000001 81391.86061656  3430.66708736
0.28100001 80218.74381123  3393.25302381
0.28200001 79062.93969494  3691.84414379
0.28300001 77923.64793274  3651.50231495
0.28400001 76800.13783181  3939.84725725
0.28500001 75693.37033332  3571.97031510
0.28600001 74602.24106128  3532.78929267
0.28700001 73527.27554265  3494.01629917
0.28800001 72466.16096064  3769.68987160
0.28900001 71421.79702189  3106.84831751
0.29000001 70391.41422765  3379.84391412
0.29100001 69376.29313576  3950.28631814
0.29200001 68374.99650400  3906.60561018
0.29300001 67388.19072401  3863.36515708
0.29400001 66414.52547794  3820.49575897
0.29500001 65455.98888954  3196.87064870
0.29600001 64509.49597739  4023.45745457
0.29700001 63576.99697766  3410.27027932
0.29800001 62657.76826864  3653.26135184
0.29900001 61751.80472206  4168.24701606
0.30000001 60857.62200928  3022.49394017
0.30100001 59977.06909402  2988.65749444
0.30200001 59107.98616862  4566.97876752
0.30300001 58252.00381901  3453.17894987
0.30400001 57407.86700621  2889.05104386
0.30500001 56576.23642286  2856.53431222
0.30600001 55755.21655177  2824.28062814
0.30700001 54946.70298433  4315.51425670
0.30800001 54149.50478879  4517.69339841
0.30900001 53364.01682278  3225.85496966
0.31000001 52589.72833229  3189.30422571
0.31100001 51826.21069695  3880.74684072
0.31200001 51074.77032437  2397.96058026
0.31300001 50333.37795700  2607.77243542
0.31400001 49604.30151825  2343.80335771
0.31500001 48884.68401543  2317.13413204
0.31600002 48176.85930818  2748.97172228
0.31700002 47478.84877614  2491.21531324
0.31800002 46791.19111535  3582.33376141
0.31900002 46114.63676533  2656.20320345
0.32000002 45448.58296017  2407.18431046
0.32100002 44792.35585648  2596.16506837
0.32200002 44147.31434344  3208.40622183
0.32300002 43510.64625403  2537.54100969
0.32400002 42885.29912545  2717.85596077
0.32500002 42269.61470827  2687.07953424
0.32600002 41664.22724915  2452.35653201
0.32700002 41068.63244865  2626.74985580
0.32800002 40483.69273986  1997.87033132
0.32900002 39906.59687060  2370.45196636
0.33000002 39340.76351468  2343.92280120
0.33100002 38783.38684499  2897.11913451
0.33200002 38237.21962406  2482.93397387
0.33300002 37699.67822285  3022.00634945
0.33400002 37172.54456759  2241.50454357
0.33500002 36654.24143616  2032.11124145
0.33600002 36145.04712282  2009.84544044
0.33700002 35645.31325990  3072.26969536
0.33800002 35155.73857520  2323.97020857
0.33900002 34674.66965863  2122.08988361
0.34000002 34202.93425058  2624.22025465
0.34100002 33740.51462416  1730.88848219
0.34200002 33288.05266713  2397.73854717
0.34300002 32843.99834982  3220.02575071
0.34400002 32409.75515742  1844.92539971
0.34500002 31984.01984903  2323.95899229
0.34600002 31568.03971337  1971.73985388
0.34700002 31159.79428934  1626.54133894
0.34800002 30761.52425783  2093.47563252
0.34900002 30371.59947213  1594.50904781
0.35000002 29990.90002980  2052.72724976
0.35100002 29619.78736794  2189.49478594
0.35200002 29255.75729337  1858.91090646
0.35300002 28901.81607073  1841.62380725
0.35400002 28555.99665112  1672.66758306
0.35500002 28219.26671127  1506.90891376
0.35600002 27890.46658404  1792.24146758
0.35700002 27570.38363716  1628.58263858
0.35800002 27258.98759842  1761.47586204
0.35900002 26956.61389959  1892.35438538
0.36000002 26662.39803095  1732.52270611
0.36100002 26375.88002855  2005.09449474
0.36200002 26099.20587115  1421.10182700
0.36300002 25829.37745420  1551.31248338
0.36400002 25568.36651996  1539.85494660
0.36500002 25314.65044061  1806.70668753
0.36600002 25070.01079372  1518.11457552
0.36700002 24832.78707370  1507.84690254
0.36800002 24604.40508689  2451.33699492
0.36900002 24383.73315596  1353.29725426
0.37000002 24170.26476739  1614.09035762
0.37100002 23964.56135412  2005.83388036
0.37200002 23767.28725648  1462.75776349
0.37300002 23577.33117345  1851.76367808
0.37400002 23394.79085005  1579.14845718
0.37500002 23220.06992561  1309.61200584
0.37600002 23052.87507257  1434.00416182
0.37700002 22892.81945580  1687.42980202
0.37800002 22740.09710216  1292.77458150
0.37900002 22595.35226205  1287.93513995
0.38000002 22456.99245573  1411.75889761
0.38100002 22325.10547255  1790.92004585
0.38200002 22201.42662074  1403.01922176
0.38300002 22083.64760348  1780.82542711
0.38400002 21973.26619903  1395.85180142
0.38500002 21869.04717293  1646.08325869
0.38600002 21772.39484386  1516.66509667
0.38700002 21681.37706171  1514.22744573
0.38800002 21596.95959868  1890.27397843
0.38900002 21518.83465607  1510.62226442
0.39000002 21447.63448572  1257.90382218
0.39100002 21381.69588224  1382.96815518
0.39200002 21322.44982660  1382.65432451
0.39300002 21268.66202564  1634.07138085
0.39400002 21221.90919438  1634.61763314
0.39500002 21179.79952535  1635.50419683
0.39600002 21143.54674686  1888.64740264
0.39700002 21112.20496382  1764.55817448
0.39800002 21087.53714501  1893.13373689
0.39900002 21067.23602693  1390.43764365
0.40000002 21052.54231470  1899.46572034
0.40100002 21042.62501714  1268.87034865
0.40200002 21038.25141785  1526.11483016
0.40300002 21038.38935862  1274.92645554
0.40400002 21043.41439799  1917.58122787
0.40500002 21052.65982079  1666.73915698
0.40600002 21067.48975973  1800.63843508
0.40700002 21086.09081041  1548.56258249
0.40800002 21108.97344219  1683.54625665
0.40900002 21135.61892397  1429.82468795
0.41000002 21167.19280209  1957.43624712
0.41100002 21202.33922554  1441.33508885
0.41200002 21240.58815874  1842.19629830
0.41300002 21283.91548306  1453.90433554
0.41400002 21330.06617974  1460.57635086
0.41500002 21379.70284255  1734.32157677
0.41600002 21431.88930992  2010.84710978
0.41700002 21488.71516816  2021.01375733
0.41800002 21548.89717142  1896.08755196
0.41900002 21610.34391682  1633.74207753
0.42000002 21675.33258392  1916.31624455
0.42100002 21743.73141303  1514.01609003
0.42200002 21814.47558855  1660.95425002
0.42300002 21887.32090570  1670.44041068
0.42400002 21962.58827257  1960.16109621
0.42500002 22040.54761587  1830.90837721
0.42600002 22119.53893414  1558.43218945
0.42700002 22201.77870366  2280.56681651
0.42800002 22285.19941589  1864.26844548
0.42900002 22371.28545401  1442.94798016
0.43000002 22458.72484762  2032.73928228
0.43100002 22546.40522656  1607.10784071
0.43200002 22636.81758676  1911.33978351
0.43300002 22727.78320687  2219.36813532
0.43400002 22820.55092716  2084.65742598
0.43500002 22913.76949882  1948.12877511
0.43600002 23008.75600591  1659.04643043
0.43700002 23103.83377430  2125.09073127
0.43800002 23199.27547800  1680.43959888
0.43900002 23296.40423708  1537.56275251
0.44000002 23393.31697089  1702.21479005
0.44100002 23491.02628265  2491.92818616
0.44200002 23588.93122781  2507.97528699
0.44300002 23687.13232440  1893.07570508
0.44400002 23785.19362018  1905.19409927
0.44500002 23882.79989839  2236.86314449
0.44600002 23980.23328290  1929.44966138
0.44700002 24078.44187555  1779.87850779
0.44800002 24175.24371690  2279.48383809
0.44900002 24272.26621277  2129.89146111
0.45000002 24369.04126170  2637.70515117
0.45100002 24464.19695328  1658.67263204
0.45200002 24559.26391841  1668.80206234
0.45300002 24653.13221863  1846.76622202
0.45400002 24746.23123847  1857.82339828
0.45500002 24838.79299981  1868.87087388
0.45600002 24929.73428640  1879.82670296
0.45700002 25019.91948039  1890.75540474
0.45800002 25108.39083039  3111.68302309
0.45900002 25195.66170846  2433.90103639
0.46000002 25281.99916273  2447.55045494
0.46100002 25365.97939059  2285.22119161
0.46200002 25449.10134242  2297.67222360
0.46300002 25530.46613510  1954.61257994
0.46400002 25609.53676060  1964.89180108
0.46500002 25688.03188146  2154.71221634
0.46600002 25763.62257475  1985.21603159
0.46700002 25837.39305539  2176.54209415
0.46800002 25909.88295355  2369.58845783
0.46900002 25979.63183196  2014.72054406
0.47000002 26047.48677048  2760.38254133
0.47100002 26113.43554861  2588.36385426
0.47200002 26177.26952470  2414.46056905
0.47300002 26238.66071524  2052.12575180
0.47400002 26297.31337745  2061.05203365
0.47500002 26354.06921469  3198.85707290
0.47600002 26409.11358205  2456.44381626
0.47700002 26460.55048856  2276.66587194
