# SAXS profile: number of points = 501, q_min = 0, q_max = 0.5, delta_q = 0.001
#    q    intensity    error
0.00000000 1664650.74656090 274.66737318
0.00100000 1664569.80068261 699.11933289
0.00200000 1664326.90666699 823.84184489
0.00300000 1663922.28220505 1098.18874538
0.00400000 1663355.79559171 1497.02027292
0.00500000 1662627.95672098 2094.91130839
0.00600000 1661738.66696784 1919.30823849
0.00700000 1660688.46707708 2989.23936497
0.00800000 1659477.22709145 2688.35322139
0.00900000 1658106.10038543 3482.02295966
0.01000000 1656574.52646547 3553.35251270
0.01100000 1654883.72692715 3574.54900580
0.01200000 1653033.62256432 3545.75727586
0.01300000 1651025.40394270 5200.73025180
0.01400000 1648859.03980709 5193.90620564
0.01500000 1646535.96155250 5532.36107717
0.01600000 1644055.53353600 5450.04433731
0.01700000 1641420.12243986 4875.01798233
0.01800000 1638629.49883378 7005.14142273
0.01900000 1635684.34638728 6869.87456481
0.02000000 1632585.92485625 7199.70425430
0.02100000 1629336.20698875 8602.89556294
0.02200000 1625933.61318417 6731.36546440
0.02300000 1622381.55361092 7008.68863062
0.02400000 1618679.29463916 9105.07144751
0.02500000 1614829.62790956 6927.61942012
0.02600000 1610832.32032024 6523.87119569
0.02700000 1606689.66620488 8097.71628856
0.02800000 1602401.39583933 11152.71422650
0.02900000 1597969.90934120 10786.29738330
0.03000000 1593396.74463981 8891.15424377
0.03100000 1588682.08064773 7625.67433799
0.03200000 1583827.52590941 9407.93593721
0.03300000 1578836.66664605 11272.89431954
0.03400000 1573707.57732625 9088.16167839
0.03500000 1568443.73557099 11010.47553215
0.03600000 1563046.19830694 9542.39748165
0.03700000 1557516.69731691 11541.19926087
0.03800000 1551856.83898815 9078.36292822
0.03900000 1546068.59356029 13914.61798643
0.04000000 1540151.91273294 10419.12817245
0.04100000 1534110.55440251 9664.89694086
0.04200000 1527945.43324604 11826.29820198
0.04300000 1521657.51473676 11047.23406978
0.04400000 1515250.32141558 16364.70423130
0.04500000 1508724.77915192 11451.22160584
0.04600000 1502081.42348644 14825.54433900
0.04700000 1495324.18420196 11842.96808967
0.04800000 1488453.51281311 12034.14721102
0.04900000 1481473.06377940 13333.25819464
0.05000000 1474382.56298281 14662.73527165
0.05100000 1467186.37163600 14877.27050143
0.05200000 1459882.90893841 15087.89056699
0.05300000 1452478.04316062 23530.14539613
0.05400000 1444971.92758984 13113.12085439
0.05500000 1437366.89335122 18110.82370108
0.05600000 1429664.04617496 14668.35379824
0.05700000 1421868.55530079 19792.41121367
0.05800000 1413979.01633790 15016.45785466
0.05900000 1405998.36503545 18980.97881450
0.06000000 1397930.10827266 16628.37941476
0.06100000 1389775.82747007 16802.39053931
0.06200000 1381537.35582458 16972.18720964
0.06300000 1373218.18655283 14501.18472801
0.06400000 1364816.66867606 13306.96314191
0.06500000 1356339.21504407 14770.53474276
0.06600000 1347786.45626774 23026.93268273
0.06700000 1339160.19984171 17757.26508092
0.06800000 1330463.35870199 16524.35568857
0.06900000 1321698.72984540 15265.62104443
0.07000000 1312866.75397240 15380.23474302
0.07100000 1303970.90936252 21124.32972109
0.07200000 1295013.22078589 21270.59314787
0.07300000 1285996.41550053 15702.01696899
0.07400000 1276922.72767232 15801.91949549
0.07500000 1267793.82301510 17343.42031178
0.07600000 1258610.87500976 30527.60820451
0.07700000 1249379.05281022 14617.73560328
0.07800000 1240098.53266976 17634.20196154
0.07900000 1230771.35459869 19200.03403229
0.08000000 1221401.80938397 17808.03921621
0.08100000 1211990.63751235 23851.97686534
0.08200000 1202539.55130979 22457.42717453
0.08300000 1193052.04838057 15032.45651510
0.08400000 1183529.67791159 19617.00533218
0.08500000 1173974.93471385 18173.13284251
0.08600000 1164389.63075637 15195.28539481
0.08700000 1154777.49906565 22864.59555517
0.08800000 1145137.90016406 16816.35085367
0.08900000 1135476.57154678 19927.61476664
0.09000000 1125792.83403110 16903.78019704
0.09100000 1116089.77697656 21562.85550424
0.09200000 1106369.12893610 18520.62008861
0.09300000 1096635.87422722 21647.59317451
0.09400000 1086886.83505472 17036.95194018
0.09500000 1077127.84498696 20163.83420591
0.09600000 1067359.84291970 15530.08644452
0.09700000 1057587.15563153 21765.14468614
0.09800000 1047809.76308471 20227.96842742
0.09900000 1038030.60744472 20241.59779698
0.10000000 1028249.64365269 20251.37768410
0.10100000 1018470.28932824 20257.37500748
0.10200000 1008694.94858139 17142.77145747
0.10300000 998924.71986299 17141.54899920
0.10400000 989162.97734984 17137.24938881
0.10500000 979412.04099556 17129.91740296
0.10600001 969669.15953514 17119.50981713
0.10700001 959942.09678960 23326.59404968
0.10800001 950229.21392909 21750.74773046
0.10900001 940534.13545258 20174.45815498
0.11000001 930856.99652321 20148.40063812
0.11100001 921200.76594162 23214.26039450
0.11200001 911566.61751057 18541.26587303
0.11300001 901956.48930551 16965.80236260
0.11400001 892372.36095955 16932.76634648
0.11500001 882816.39754620 21505.40845687
0.11600001 873288.96737494 19924.08872891
0.11700001 863793.20042910 19875.88247793
0.11800001 854328.13283542 21349.66104509
0.11900001 844896.81402474 21291.40071628
0.12000001 835500.25877280 16680.76345214
0.12100001 826142.94331269 15118.41657482
0.12200001 816822.94088504 18084.46076318
0.12300001 807543.61222255 16522.34308451
0.12400001 798304.13133935 25445.94538539
0.12500001 789106.98058978 19388.35942668
0.12600001 779955.50381808 16343.96835269
0.12700001 770848.73621207 16280.32607603
0.12800001 761788.08796409 19162.78025586
0.12900001 752775.78241296 19082.86698358
0.13000001 743812.88352759 17539.10862028
0.13100001 734899.35828239 14551.00797989
0.13200001 726037.86816328 21726.68422899
0.13300001 717229.04875017 18741.19592736
0.13400001 708473.23172202 15781.24198062
0.13500001 699772.99930974 14275.36985898
0.13600001 691128.36329770 14202.68853544
0.13700001 682540.81943166 15541.45519129
0.13800001 674009.37435890 14053.09611807
0.13900001 665538.45511106 19566.83150300
0.14000001 657125.99038187 16677.85842243
0.14100001 648775.02774995 15200.79961710
0.14200001 640484.93065679 19233.76337479
0.14300001 632258.07065584 13656.77497032
0.14400001 624091.10477158 13573.98216906
0.14500001 615990.64098836 14839.21524141
0.14600001 607953.72563474 14745.91831090
0.14700001 599983.02535117 14651.58617029
0.14800001 592075.74046347 15879.47210840
0.14900001 584235.83428166 15774.36826985
0.15000001 576462.54754783 18279.62824523
0.15100001 568756.92616820 15561.19023422
0.15200001 561120.18665461 12877.70889138
0.15300001 553551.92929250 17901.87023809
0.15400001 546050.75027180 13965.24859724
0.15500001 538620.62016229 16384.84003859
0.15600001 531258.59148588 16264.48254594
0.15700001 523969.61821994 13659.88859170
0.15800001 516747.96782712 16021.77149869
0.15900001 509599.30714629 15899.49913343
0.16000001 502519.42573981 13349.42917490
0.16100001 495513.22166837 15653.26341140
0.16200001 488578.03526292 19113.17364174
0.16300001 481714.24325428 14220.20513217
0.16400001 474923.02250662 19982.38711533
0.16500001 468202.87013976 12824.07721857
0.16600001 461555.85135222 15030.56700892
0.16700001 454980.11472790 17198.24914873
0.16800001 448477.01520210 12505.78215939
0.16900001 442047.48320093 11272.21135388
0.17000001 435688.85107481 12292.96151355
0.17100001 429403.33526538 17725.77051679
0.17200001 423189.88541034 15374.48926299
0.17300001 417048.71685057 14150.46363099
0.17400001 410980.71759291 11867.06878093
0.17500001 404983.61357271 14968.19506456
0.17600001 399057.38162534 10594.97398254
0.17700001 393205.73128319 12598.31222534
0.17800001 387423.91797022 15603.49903324
0.17900001 381713.35991825 13398.13956597
0.18000001 376075.34522181 12252.53532608
0.18100001 370508.59353019 13149.35060552
0.18200001 365010.48052094 10019.53816360
0.18300001 359583.68913016 15879.21646211
0.18400001 354226.86177862 10812.77546660
0.18500001 348940.36377981 10708.98027032
0.18600001 343723.60912203 11569.73722964
0.18700001 338575.15899699 12412.16591524
0.18800001 333494.21859433 11345.47385261
0.18900001 328484.94337259 12170.36772697
0.19000001 323539.75313464 12977.18011139
0.19100001 318664.74460639 12848.56310962
0.19200001 313855.21828943 9994.71989869
0.19300001 309114.36599685 10794.27417067
0.19400001 304437.77606148 12466.72751882
0.19500001 299827.69629044 10577.92162499
0.19600001 295281.83559250 9598.13651951
0.19700001 290802.38667651 10364.19755094
0.19800001 286386.01958467 12822.93463290
0.19900001 282033.74304222 11845.41776759
0.20000001 277743.06805603 8373.95389765
0.20100001 273516.74427190 11602.58084038
0.20200001 269351.13985225 10662.26537499
0.20300001 265247.56653860 8928.23351168
0.20400001 261205.04489526 10441.67216322
0.20500001 257222.04255339 10332.60993776
0.20600001 253298.60476119 8651.41425455
0.20700001 249434.49124892 9338.82779380
0.20800001 245628.42304346 10010.58685434
0.20900001 241882.48109931 10667.01792072
0.21000001 238190.85880973 8292.61514147
0.21100001 234557.24402702 8204.81278393
0.21200001 230978.48266124 11807.62059184
0.21300001 227454.89952193 9491.69340577
0.21400001 223986.40053544 8668.27411053
0.21500001 220572.94961307 8575.87668640
0.21600001 217211.23722382 7777.24871650
0.21700001 213902.77264688 9792.46939476
0.21800001 210646.38162049 9687.62754876
0.21900001 207440.61158796 8214.64860728
0.22000001 204284.90499792 8803.65839714
0.22100001 201180.90460727 6699.32444019
0.22200001 198125.56965342 7952.76074193
0.22300001 195118.42536205 6555.97940217
0.22400001 192158.77509310 7782.43075927
0.22500001 189248.52968939 7698.63055181
0.22600001 186383.08883317 8250.24781734
0.22700001 183564.42033983 8161.27451425
0.22800001 180790.48644592 8694.21490433
0.22900001 178060.79418556 7371.71722790
0.23000001 175375.76060915 8507.47854948
0.23100001 172735.05652836 6612.29827662
0.23200001 170135.19080131 7135.47023967
0.23300001 167578.51867991 7646.60816901
0.23400001 165062.07076399 8727.65740442
0.23500001 162586.26647449 7482.22033704
0.23600001 160150.99480178 6262.70494793
0.23700001 157755.05087792 7321.41225753
0.23800001 155397.59023148 7242.30503529
0.23900001 153078.29224585 6061.90065966
0.24000001 150796.13690526 5996.40866767
0.24100001 148551.77392814 7549.40150812
0.24200001 146343.71419366 6401.07436161
0.24300001 144170.58885812 6859.63694235
0.24400001 142032.47764220 5741.66318029
0.24500001 139928.39445220 6196.02959944
0.24600001 137858.44291419 7150.71777222
0.24700001 135822.26145197 5557.84720153
0.24800001 133818.33759093 5997.73817456
0.24900001 131845.37868936 5438.62212822
0.25000001 129905.17012858 5869.11586407
0.25100001 127994.92892646 4838.20854231
0.25200001 126116.96067496 5264.75277245
0.25300001 124267.17703584 5681.49560287
0.25400001 122447.72716932 6088.71352156
0.25500001 120655.38953928 6486.43404852
0.25600001 118892.79975874 6416.64470657
0.25700001 117156.73282292 4533.96577476
0.25800001 115448.13787852 5830.70847943
0.25900001 113767.13853713 4436.91861288
0.26000001 112111.25217733 4828.07130346
0.26100001 110480.79378435 4341.89540117
0.26200001 108876.76108835 7731.33917071
0.26300001 107296.14821280 4248.92767028
0.26400001 105740.71867972 5043.83251969
0.26500001 104208.98604449 5405.32036190
0.26600001 102700.37777436 4935.78038939
0.26700001 101214.89760489 4068.83907626
0.26800001 99752.29957326  4830.00657390
0.26900001 98310.86997612  4777.90850694
0.27000001 96891.87719115  3938.65499421
0.27100001 95493.78766715  4285.76139332
0.27200001 94117.37203510  5010.33853740
0.27300001 92761.16484457  4193.73246109
0.27400001 91423.76527761  4525.47659541
0.27500001 90108.15363179  3730.47773690
0.27600001 88809.83846414  3690.04896282
0.27700001 87532.31235567  5110.13663717
0.27800001 86272.54640636  3971.55686178
0.27900001 85031.52494031  4285.58905982
0.28000001 83808.12624612  4239.01522615
0.28100001 82602.68153085  5241.14039119
0.28200001 81415.11948394  3801.67918423
0.28300001 80244.37803098  4102.09279910
0.28400001 79089.84358553  3719.20007064
0.28500001 77952.57535092  5016.24846126
0.28600001 76831.22626305  3638.34289190
0.28700001 75726.50414166  4252.80067389
0.28800001 74635.99874294  3559.01776852
0.28900001 73562.68742717  3519.97476000
0.29000001 72503.63649179  4430.69743574
0.29100001 71460.30496750  3442.95765631
0.29200001 70431.22517431  3404.99774223
0.29300001 69417.00358667  3367.41900339
0.29400001 68416.34146685  3935.65022918
0.29500001 67431.03882077  3892.11974498
0.29600001 66458.26100570  4145.00193514
0.29700001 65499.87287950  3513.41334757
0.29800001 64555.08730315  3763.88454339
0.29900001 63624.00934963  2863.08055627
0.30000001 62704.91382577  3397.35239191
0.30100001 61799.98453061  4479.26309083
0.30200001 60906.74378844  3598.67512710
0.30300001 60026.94947578  3284.67483081
0.30400001 59159.55174811  2706.54962061
0.30500001 58304.78666495  4549.52271885
0.30600001 57461.04286980  4498.33795403
0.30700001 56630.16135501  2616.31357847
0.30800001 55810.96867283  3362.89007659
0.30900001 55003.72133084  3324.97511187
0.31000001 54208.17932736  3034.57402242
0.31100001 53423.62812078  3500.31628020
0.31200001 52651.39639819  3707.97476690
0.31300001 51889.59517497  3421.60006784
0.31400001 51140.39353382  2416.38370888
0.31500001 50400.82670485  3344.59901849
0.31600002 49673.61886919  3070.57489578
0.31700002 48956.48476779  2802.26932079
0.31800002 48249.91342195  3001.38600652
0.31900002 47554.83590499  2510.89545467
0.32000002 46870.55749418  2708.18094024
0.32100002 46196.27601337  3123.79233194
0.32200002 45533.53251573  2426.70973033
0.32300002 44879.53778899  2399.26020381
0.32400002 44237.09513444  2587.87018790
0.32500002 43604.50430391  2558.71243371
0.32600002 42982.39870812  3162.43013470
0.32700002 42370.50952639  2293.09208415
0.32800002 41769.52621833  2885.85670308
0.32900002 41176.62938864  2038.24325126
0.33000002 40595.17718474  2217.10570693
0.33100002 40022.47232786  2591.05498120
0.33200002 39461.30036224  2562.41966037
0.33300002 38908.96260981  2144.27303097
0.33400002 38367.15755162  2120.74473409
0.33500002 37834.51592505  2288.23163151
0.33600002 37311.24220548  2263.30005937
0.33700002 36797.63121844  2798.45998669
0.33800002 36294.36186861  2030.12522726
0.33900002 35799.89914635  1825.79494293
0.34000002 35314.85562433  1986.99044580
0.34100002 34839.54719880  2144.72262713
0.34200002 34374.24206552  1945.41032183
0.34300002 33917.56454967  2100.17569638
0.34400002 33470.93205549  2078.54497909
0.34500002 33033.02466252  2571.62109177
0.34600002 32605.09917673  2036.51459103
0.34700002 32184.99559166  2520.08527418
0.34800002 31775.13457457  2328.79972327
0.34900002 31373.72679485  1811.83280821
0.35000002 30981.85635794  2120.55325885
0.35100002 30599.64652511  1615.66141305
0.35200002 30224.71492324  2080.51835028
0.35300002 29860.04021043  1902.68185233
0.35400002 29503.60059089  1885.28016705
0.35500002 29156.41480777  1712.64788693
0.35600002 28817.42403960  1697.49044345
0.35700002 28487.22555467  2600.59894406
0.35800002 28165.99878035  2578.45648048
0.35900002 27853.80947013  1804.92693916
0.36000002 27549.97240490  1641.01418403
0.36100002 27253.92390654  1627.87695204
0.36200002 26967.96371539  2349.44911017
0.36300002 26688.84917307  1602.93235726
0.36400002 26418.76730988  1880.35585235
0.36500002 26156.17013142  1579.57118906
0.36600002 25902.69136545  1711.13187265
0.36700002 25656.77727068  1557.87958967
0.36800002 25419.77666583  1688.38164612
0.36900002 25190.66981408  1677.69868909
0.37000002 24968.76237636  1945.31636889
0.37100002 24754.84412987  1795.71647824
0.37200002 24549.40321231  1373.53917479
0.37300002 24351.45408015  2049.17495792
0.37400002 24160.96084088  1630.86493401
0.37500002 23978.36154040  1352.37965494
0.37600002 23803.50187862  1346.08809500
0.37700002 23635.89328855  2412.27938330
0.37800002 23475.52656942  1468.04212356
0.37900002 23323.38813493  1861.20646134
0.38000002 23177.58109277  1324.59882220
0.38100002 23038.39683525  1848.14028168
0.38200002 22907.44089014  3026.87484541
0.38300002 22782.70078785  1574.74035306
0.38400002 22665.24135946  1439.80952557
0.38500002 22554.03559376  1567.05446729
0.38600002 22450.44995241  1433.57354963
0.38700002 22352.60875135  1821.29064734
0.38800002 22261.34765091  1948.42454545
0.38900002 22176.50907577  1556.79101087
0.39000002 22098.62091443  1296.08417803
0.39100002 22026.06218736  1683.67227337
0.39200002 21960.40741989  1424.02268661
0.39300002 21900.09301195  1682.58422582
0.39400002 21846.89310789  1423.87132577
0.39500002 21798.35216833  1294.82218014
0.39600002 21755.77321081  1425.11199169
0.39700002 21718.14901303  1555.88826901
0.39800002 21687.24589449  1427.77990111
0.39900002 21660.70082865  1689.53474468
0.40000002 21639.85437716  1561.96476295
0.40100002 21623.76209396  1434.30420765
0.40200002 21613.31435927  1567.82989790
0.40300002 21607.39697948  1702.23081469
0.40400002 21606.44141009  1706.36879121
0.40500002 21609.70322363  1710.84028528
0.40600002 21618.52380708  1583.77312915
0.40700002 21631.20947739  1853.36211584
0.40800002 21648.14100491  1460.92486494
0.40900002 21668.99435800  1465.90753778
0.41000002 21694.67899605  1604.97242817
0.41100002 21724.02670219  1879.56287933
0.41200002 21756.44521580  1482.59302948
0.41300002 21793.98565292  1894.76920244
0.41400002 21834.31940459  1631.02373681
0.41500002 21878.21610193  1638.24089934
0.41600002 21924.56501319  1645.65792787
0.41700002 21975.69061121  1515.66345327
0.41800002 22030.16412029  1523.05546862
0.41900002 22085.88745069  1947.97536545
0.42000002 22145.15744853  1398.46675914
0.42100002 22207.96688390  1968.07011851
0.42200002 22272.94368642  1695.86201264
0.42300002 22340.12982447  1562.91555658
0.42400002 22409.75389689  1714.34625435
0.42500002 22482.11302595  1723.92850852
0.42600002 22555.46513173  2167.01641522
0.42700002 22632.02385061  1598.27360007
0.42800002 22709.73533401  1607.50869179
0.42900002 22790.27385121  1616.97000637
0.43000002 22872.10889264  2070.15467397
0.43100002 22954.19186857  1636.17487393
0.43200002 23038.92319134  1795.65375862
0.43300002 23124.35857315  2258.09372167
0.43400002 23211.44775092  2271.82055628
0.43500002 23299.10309399  1980.88983892
0.43600002 23388.45161887  2146.35830678
0.43700002 23477.90625397  2159.49791958
0.43800002 23567.80119252  1707.13376028
0.43900002 23659.25159753  1873.81281532
0.44000002 23750.57745222  2042.43100479
0.44100002 23842.68301255  1896.92395037
0.44200002 23934.90678568  1908.56955754
0.44300002 24027.49665963  2240.32389471
0.44400002 24119.95795866  2093.00945105
0.44500002 24211.97584788  2105.71563928
0.44600002 24303.76380908  2281.39441688
0.44700002 24396.37803436  1639.43668160
0.44800002 24487.51682799  1979.08120383
0.44900002 24578.96894711  2820.43682035
0.45000002 24670.06426166  2002.71591167
0.45100002 24759.70684287  2350.19148491
0.45200002 24849.15613943  1688.50023970
0.45300002 24937.39387087  2377.53124433
0.45400002 25024.89282814  1707.94901647
0.45500002 25111.85112391  2232.94590776
0.45600002 25197.17908301  2072.72004960
0.45700002 25281.79189954  2431.60286014
0.45800002 25364.64747828  1746.35606165
0.45900002 25446.29063242  1755.79413685
0.46000002 25526.99072354  2647.78723829
0.46100002 25605.36906766  2839.12345678
0.46200002 25682.83678373  2140.40771900
0.46300002 25758.68168505  2151.36519630
0.46400002 25832.17569006  1981.97377376
0.46500002 25905.05984033  1810.76376866
0.46600002 25975.06280749  2183.46388308
0.46700002 26043.22628453  1828.23457183
0.46800002 26110.19940449  2387.90839972
0.46900002 26174.34619867  2583.40809225
0.47000002 26236.64862541  2409.70510721
0.47100002 26297.08436938  2234.20039392
0.47200002 26355.33889968  2243.89366027
0.47300002 26411.29048259  2441.19569501
0.47400002 26464.39751470  2639.82377721
0.47500002 26515.61338105  3597.10828177
0.47600002 26565.15262161  2851.10514025
0.47700002 26611.14366164  2098.82100007
