# SAXS profile: number of points = 501, q_min = 0, q_max = 0.5, delta_q = 0.001
#    q    intensity    error
0.00000000 1664650.74656090 299.63713438
0.00100000 1664569.78894360 549.30804340
0.00200000 1664326.86343342 898.73653471
0.00300000 1663922.17519218 1198.02400882
0.00400000 1663355.60374460 1871.27512532
0.00500000 1662627.65721382 2693.45691130
0.00600000 1661738.24060262 2093.79026840
0.00700000 1660687.88633551 2590.67321035
0.00800000 1659476.45433554 2912.38130032
0.00900000 1658105.14217279 2735.87360154
0.01000000 1656573.33483220 3280.01534460
0.01100000 1654882.28369077 5361.81883261
0.01200000 1653031.90421873 5479.80100274
0.01300000 1651023.40032634 4854.00901104
0.01400000 1648856.74370714 5193.89897293
0.01500000 1646533.30920585 4742.01614167
0.01600000 1644052.51016020 4611.56749715
0.01700000 1641416.70344670 5761.37288755
0.01800000 1638625.66124494 5604.10001363
0.01900000 1635680.06888896 7360.56064213
0.02000000 1632581.21951162 5142.63107409
0.02100000 1629331.00340513 6452.15106601
0.02200000 1625927.92692769 8975.12256440
0.02300000 1622375.31345514 8176.77195201
0.02400000 1618672.54532378 6070.02232174
0.02500000 1614822.31261971 9446.71096026
0.02600000 1610824.42497329 9133.37490734
0.02700000 1606681.10807039 8772.47925185
0.02800000 1602392.20098745 6970.40639396
0.02900000 1597960.07872927 10067.14895822
0.03000000 1593386.20935014 11113.86932107
0.03100000 1588670.90248522 7625.62068281
0.03200000 1583815.61957071 9407.86521356
0.03300000 1578824.00137667 10467.60361169
0.03400000 1573694.23141151 9088.08460573
0.03500000 1568429.55910661 10163.42401234
0.03600000 1563031.19453398 13879.71764890
0.03700000 1557500.91631682 10653.30676030
0.03800000 1551840.24082076 10893.91899473
0.03900000 1546051.09115954 10203.93767420
0.04000000 1540133.55520434 12313.36834445
0.04100000 1534091.33139404 13530.68617027
0.04200000 1527925.26395695 9855.11840973
0.04300000 1521636.39834641 14059.92097335
0.04400000 1515228.17705774 17387.24413924
0.04500000 1508701.79031588 13533.05568795
0.04600000 1502057.37125948 14825.30694351
0.04700000 1495299.22543159 12919.38590858
0.04800000 1488427.43179504 13127.93055925
0.04900000 1481446.00480458 14444.09921918
0.05000000 1474354.45495647 12406.69331619
0.05100000 1467157.29281363 12588.21015875
0.05200000 1459852.66254814 13926.99504972
0.05300000 1452446.74622449 14117.78303144
0.05400000 1444939.52113905 13112.82676584
0.05500000 1437333.32781518 18110.40077531
0.05600000 1429629.38261472 13445.66497092
0.05700000 1421832.65619810 12369.94468633
0.05800000 1413941.94550783 15016.06416243
0.05900000 1405960.09360860 13919.00557682
0.06000000 1397890.78508522 17906.98179353
0.06100000 1389735.22032726 14216.99196833
0.06200000 1381495.56657971 19582.70057163
0.06300000 1373175.01756052 21091.96925589
0.06400000 1364772.21432293 13306.52971195
0.06500000 1356293.66058910 14770.03865473
0.06600000 1347739.58812219 14899.26184381
0.06700000 1339112.03404162 17756.62640238
0.06800000 1330413.92798683 23408.63415866
0.06900000 1321648.04051950 16652.76609021
0.07000000 1312814.84383490 16777.77448989
0.07100000 1303917.50733151 23939.92655590
0.07200000 1294958.49973227 18433.73510725
0.07300000 1285940.48124672 21410.91001598
0.07400000 1276865.37949991 17237.68343108
0.07500000 1267735.13496298 17342.61745919
0.07600000 1258550.82643051 23258.02036279
0.07700000 1249317.71551875 16078.71975263
0.07800000 1240035.82635789 16163.86775460
0.07900000 1230707.31961243 23629.58164487
0.08000000 1221336.35826649 17807.08493887
0.08100000 1211923.80176452 20869.32884554
0.08200000 1202471.35014908 16467.84591305
0.08300000 1192982.49362577 22547.37018772
0.08400000 1183458.64742500 21124.73784810
0.08500000 1173902.58182370 21200.68162301
0.08600000 1164315.77387454 16713.75371870
0.08700000 1154702.24414223 16766.27737225
0.08800000 1145061.36282658 16815.22690281
0.08900000 1135398.50673079 16860.66861689
0.09000000 1125713.39892891 16902.58747893
0.09100000 1116009.01869112 15400.92518149
0.09200000 1106286.95248359 23149.05556842
0.09300000 1096552.26989148 15461.38773203
0.09400000 1086801.80252172 20133.00433792
0.09500000 1077041.36833469 18611.27571960
0.09600000 1067272.06556251 20187.45206908
0.09700000 1057497.90424450 24872.35187715
0.09800000 1047719.16264266 18670.35635613
0.09900000 1037938.54887811 20239.80265485
0.10000000 1028156.21734817 20249.53765295
0.10100000 1018375.52187779 18697.37546105
0.10200000 1008598.87602803 17141.13870435
0.10300000 998827.25164431 18698.04703035
0.10400000 989063.99588854 15577.75866810
0.10500000 979311.74558359 18685.26898486
0.10600001 969567.58113607 21786.18457324
0.10700001 959839.16118750 17104.33465725
0.10800001 950124.97886678 21748.36178978
0.10900001 940428.57081218 15517.07214872
0.11000001 930750.19461632 21695.78805772
0.11100001 921092.54093567 17021.79095776
0.11200001 911457.07739967 18539.03782707
0.11300001 901845.71415602 16963.71868194
0.11400001 892260.23671452 18469.78776963
0.11500001 882703.02733541 15359.03339886
0.11600001 873174.36734603 18389.05304228
0.11700001 863677.31156743 18344.50696163
0.11800001 854211.10139924 19821.96954155
0.11900001 844778.69898035 24329.62767660
0.12000001 835380.76903894 18194.59400672
0.12100001 826022.35260242 15116.20976472
0.12200001 816701.01480209 19588.57476287
0.12300001 807420.55641963 15018.02305697
0.12400001 798179.95526905 17959.04983974
0.12500001 788981.62478828 14911.75341115
0.12600001 779829.04384409 17826.89278234
0.12700001 770721.11054238 22196.76902967
0.12800001 761659.61245011 16211.92561506
0.12900001 752646.16319815 14676.60087410
0.13000001 743682.15476448 18997.36153890
0.13100001 734767.53225224 16003.23760681
0.13200001 725905.06044698 20274.52929403
0.13300001 717095.31001797 14413.61641086
0.13400001 708338.40349897 20081.39468595
0.13500001 699637.28843493 17127.12162840
0.13600001 690991.79007610 22719.81112896
0.13700001 682403.23361228 22601.19616296
0.13800001 673870.97434975 21075.31571661
0.13900001 665399.16102203 16768.05964851
0.14000001 656985.86746943 18063.82727797
0.14100001 648634.18411487 16579.09052790
0.14200001 640343.21261271 21976.58009340
0.14300001 632115.41702271 20480.54047755
0.14400001 623947.78764994 17642.12452798
0.14500001 615846.48783614 21579.26195172
0.14600001 607808.85612230 16082.62309168
0.14700001 599837.54083667 19974.59105219
0.14800001 591929.61014378 15875.55289304
0.14900001 584089.10756134 14456.20609420
0.15000001 576315.25762589 14358.89532124
0.15100001 568608.97715954 16853.57087824
0.15200001 560971.73622634 14161.73214928
0.15300001 553402.93213420 15340.33000266
0.15400001 545901.27636966 21576.74896674
0.15500001 538470.63664408 16380.27753975
0.15600001 531108.15281184 13758.35734792
0.15700001 523818.71397720 13655.95451790
0.15800001 516596.63726761 16017.07949447
0.15900001 509447.67158188 12226.74469507
0.16000001 502367.38098727 12132.17282351
0.16100001 495360.98484445 14444.72699992
0.16200001 488425.40978245 19107.20293267
0.16300001 481561.37526800 15400.33350809
0.16400001 474769.96220391 21151.00281471
0.16500001 468049.67392545 15150.76866025
0.16600001 461402.42295710 13869.75748892
0.16700001 454826.54794392 14900.11841415
0.16800001 448323.28271356 12501.49532874
0.16900001 441893.67920533 11268.28935180
0.17000001 435534.95422619 16757.20815512
0.17100001 429249.40904372 13289.56233154
0.17200001 423036.02229288 10977.78529690
0.17300001 416894.98599577 14145.24754284
0.17400001 410826.92775070 11862.62809903
0.17500001 404829.99611865 11756.26364251
0.17600001 398903.90198137 10590.89909780
0.17700001 393052.36956762 16791.19802099
0.17800001 387270.76520278 11438.04259051
0.17900001 381560.35626916 12362.55612705
0.18000001 375922.60017708 10206.29907690
0.18100001 370356.08452858 10110.72158522
0.18200001 364858.33370391 15023.04259992
0.18300001 359431.86459006 10912.35192445
0.18400001 354075.52330552 16703.51360102
0.18500001 348789.39789987 12650.59205947
0.18600001 343573.03479525 11564.66889756
0.18700001 338425.02332662 13361.02055217
0.18800001 333344.56703883 14175.47838306
0.18900001 328335.86844850 10293.32996219
0.19000001 323391.23965916 10191.67539940
0.19100001 318516.83637890 11007.94238538
0.19200001 313707.91850250 10898.21360373
0.19300001 308967.65612726 10789.15106178
0.19400001 304291.77228731 9790.58823599
0.19500001 299682.41781104 10572.79619999
0.19600001 295137.23466592 9593.43626617
0.19700001 290658.63693712 9495.81811748
0.19800001 286243.01085049 12816.53141652
0.19900001 281891.55366485 9302.42171057
0.20000001 277601.79305498 9206.66390179
0.20100001 273376.29938835 10768.29294184
0.20200001 269211.60473632 9017.24312683
0.20300001 265108.91627944 8112.33322158
0.20400001 261067.32341488 8830.60263189
0.20500001 257085.39166022 7943.93897779
0.20600001 253162.94568527 8646.78081860
0.20700001 249299.93447641 9333.78998800
0.20800001 245494.93169809 8465.89311979
0.20900001 241750.08941157 8376.64099409
0.21000001 238059.57806117 15822.63060381
0.21100001 234427.12917969 9691.21797843
0.21200001 230849.50330454 8850.77037511
0.21300001 227327.18097986 8026.92313988
0.21400001 223859.90801564 10107.27532474
0.21500001 220447.68528799 7856.75587511
0.21600001 217087.19028677 11305.90140466
0.21700001 213780.12091426 7689.67131285
0.21800001 210525.04137238 8298.89752328
0.21900001 207320.53841249 8894.05151842
0.22000001 204166.32462169 10828.98236996
0.22100001 201063.66155297 8034.50429556
0.22200001 198009.75294116 6623.42654907
0.22300001 195004.07316102 7207.35088483
0.22400001 192045.88985785 7777.85890703
0.22500001 189137.11406155 7694.09816386
0.22600001 186273.14744424 6976.86106745
0.22700001 183456.02767985 8156.45537636
0.22800001 180683.64844273 8689.07706452
0.22900001 177955.57179684 7981.30777253
0.23000001 175272.02537798 9109.76394984
0.23100001 172632.90533735 8410.67554580
0.23200001 170034.66811530 7131.25431802
0.23300001 167479.63721312 7054.24265304
0.23400001 164964.87510747 7559.51575933
0.23500001 162490.74129136 7477.82426790
0.23600001 160057.12313698 7397.04029563
0.23700001 157662.92501703 7879.99336506
0.23800001 155307.05347035 8908.41300842
0.23900001 152989.59302383 7710.67585311
0.24000001 150709.16300591 5448.13650036
0.24100001 148466.54973611 6467.20321241
0.24200001 146260.24510982 6930.54204236
0.24300001 144088.82586249 9492.57229685
0.24400001 141952.58206609 5738.43340147
0.24500001 139850.29308798 7224.66648268
0.24600001 137782.13840114 6636.27701002
0.24700001 135747.72689775 5554.79724743
0.24800001 133745.68118567 5994.48171432
0.24900001 131774.52256155 5929.85379580
0.25000001 129836.14758054 5377.16430643
0.25100001 127927.73471474 6286.36918128
0.25200001 126051.58963714 5262.02385835
0.25300001 124203.75600552 8044.67765707
0.25400001 122386.13922703 5149.39705160
0.25500001 120595.68179038 6946.31159977
0.25600001 118834.90093675 5955.41134221
0.25700001 117100.72427492 4984.97806824
0.25800001 115393.97736989 7621.19559598
0.25900001 113714.85559573 5321.85549368
0.26000001 112060.92710275 5264.62260439
0.26100001 110432.34906226 5641.98898055
0.26200001 108830.22493853 4293.35257697
0.26300001 107251.46149976 4671.87388399
0.26400001 105697.85998522 5041.78815986
0.26500001 104168.04035519 5403.19650890
0.26600001 102661.24374307 6989.69111100
0.26700001 101177.68176650 5694.28019927
0.26800001 99716.97706580  6840.08636551
0.26900001 98277.41467980  5174.30612775
0.27000001 96860.24560162  6299.79067205
0.27100001 95464.06751925  4284.42755302
0.27200001 94089.51232471  4623.55885444
0.27300001 92735.13673201  4573.69716007
0.27400001 91399.47303009  3770.22844092
0.27500001 90085.74145755  4848.41483470
0.27600001 88789.24425121  5902.70923717
0.27700001 87513.54656770  3649.31506458
0.27800001 86255.50708413  4692.73108501
0.27900001 85016.32866689  3927.75457030
0.28000001 83794.74252141  5297.92284666
0.28100001 82591.06514406  4192.32266513
0.28200001 81405.15536968  4146.77881080
0.28300001 80236.21595147  3418.06296131
0.28400001 79083.39618407  5409.30455502
0.28500001 77947.85096346  4681.54815045
0.28600001 76828.19807659  3968.94490049
0.28700001 75725.16051369  3598.45979793
0.28800001 74636.34761531  5823.87448008
0.28900001 73564.63885438  3200.06194164
0.29000001 72507.19951289  4747.40911282
0.29100001 71465.53660644  3443.20971668
0.29200001 70438.06157769  4024.47883874
0.29300001 69425.39390079  3367.82601755
0.29400001 68426.28899734  3027.86343146
0.29500001 67442.54975692  2994.44935096
0.29600001 66471.29673192  3257.42605055
0.29700001 65514.40794555  3221.34359117
0.29800001 64571.15310145  4344.02453054
0.29900001 63641.49356455  4009.41428437
0.30000001 62723.79967064  3115.17765811
0.30100001 61820.27995689  3360.55057755
0.30200001 60928.43346730  3876.87640506
0.30300001 60050.08469859  3559.76918946
0.30400001 59183.96819030  4332.26667663
0.30500001 58330.57427335  2945.11083449
0.30600001 57488.02598581  4235.71795516
0.30700001 56658.54175295  2617.62475291
0.30800001 55840.56291681  3364.67327785
0.30900001 55034.58164737  2815.01898454
0.31000001 54240.23188866  3289.39901862
0.31100001 53456.89596659  2501.78284968
0.31200001 52685.77755403  3710.39605991
0.31300001 51925.07837549  3423.93983019
0.31400001 51177.02217004  2901.73729443
0.31500001 50438.51758880  2868.94301629
0.31600002 49712.29950375  2600.20194866
0.31700002 48996.21368916  3038.25535472
0.31800002 48290.66418051  3003.92090758
0.31900002 47596.57009195  2970.02611437
0.32000002 46913.16114292  2936.52946078
0.32100002 46239.77396937  2456.71930732
0.32200002 45577.93062407  2870.72609629
0.32300002 44924.78346723  2620.01349587
0.32400002 44283.16228049  2590.56511608
0.32500002 43651.38258241  3415.28433497
0.32600002 43030.01400798  2110.62228703
0.32700002 42418.85319459  2504.40921120
0.32800002 41818.60675647  2889.24767762
0.32900002 41226.36278047  2652.91657055
0.33000002 40645.56824458  2421.66307069
0.33100002 40073.43476130  2195.22286018
0.33200002 39512.88851749  2565.76953739
0.33300002 38961.13804332  2147.14841925
0.33400002 38419.80113573  2123.65460834
0.33500002 37887.68777739  2100.49350985
0.33600002 37364.88322744  2833.19240489
0.33700002 36851.69293765  2055.21901246
0.33800002 36348.83332311  2957.34121922
0.33900002 35854.76062660  1828.59287855
0.34000002 35370.08517134  2171.01593063
0.34100002 34895.08070460  2327.15304240
0.34200002 34430.00579682  2125.70865857
0.34300002 33973.65900493  1928.34497644
0.34400002 33527.18295141  1735.03179991
0.34500002 33089.55873062  2060.81781534
0.34600002 32661.71018067  2210.05472404
0.34700002 32241.80720194  3029.44034817
0.34800002 31832.01084119  1833.04643111
0.34900002 31430.76312749  1980.13817081
0.35000002 31038.92534290  2451.29924505
0.35100002 30656.74161524  2104.27884413
0.35200002 30281.77630693  2565.47221023
0.35300002 29917.09548243  1747.45762989
0.35400002 29560.62177228  1731.51350232
0.35500002 29213.32786719  2183.98849479
0.35600002 28874.26014850  1700.83837461
0.35700002 28543.84178256  1839.36525159
0.35800002 28222.51159368  1975.71701770
0.35900002 27910.16454245  1808.57874802
0.36000002 27606.05858615  1793.84177189
0.36100002 27309.85509831  2224.38780312
0.36200002 27023.53917100  2060.00448858
0.36300002 26744.16718009  2190.34739580
0.36400002 26473.78764609  2464.04790188
0.36500002 26210.86218171  1582.87404213
0.36600002 25956.98993729  1857.61207285
0.36700002 25710.70801951  1986.92360986
0.36800002 25473.31276673  1832.93230695
0.36900002 25243.69297062  1681.23003148
0.37000002 25021.38416639  1949.41613275
0.37100002 24806.99427272  1799.49944979
0.37200002 24601.12285953  2202.29262271
0.37300002 24402.63538892  1779.68428322
0.37400002 24211.57206406  2451.42178761
0.37500002 24028.44365098  1490.72471472
0.37600002 23852.95579841  2023.32707145
0.37700002 23684.76164124  2014.38907301
0.37800002 23523.80484551  1738.52687946
0.37900002 23371.01819261  2131.43696014
0.38000002 23224.62952898  1327.28764046
0.38100002 23084.73457573  1719.58196001
0.38200002 22953.08263788  1846.11652402
0.38300002 22827.66206475  1709.33541639
0.38400002 22709.50122953  1442.62113395
0.38500002 22597.50220141  2093.43270311
0.38600002 22493.22468897  1958.59763258
0.38700002 22394.58823042  1564.03811611
0.38800002 22302.56916080  1431.49046940
0.38900002 22216.95946243  1559.63062815
0.39000002 22138.26408812  1817.77295039
0.39100002 22064.91383156  1556.90039371
0.39200002 21998.42596395  1556.16872642
0.39300002 21937.29564850  1944.74135138
0.39400002 21883.26861698  1685.55884508
0.39500002 21833.90317138  1686.01408277
0.39600002 21790.42513770  1816.66782980
0.39700002 21751.97694651  1428.45239375
0.39800002 21720.18838104  1689.93933705
0.39900002 21692.81200460  1431.72566014
0.40000002 21671.06121372  2215.97446940
0.40100002 21654.07148210  1697.46274391
0.40200002 21642.70146439  1569.96163861
0.40300002 21635.93235999  1835.59258839
0.40400002 21634.01419307  1577.11970940
0.40500002 21636.41305895  1976.48642658
0.40600002 21644.33904865  1982.08044229
0.40700002 21656.08333685  2120.56378082
0.40800002 21672.09389547  1728.45793053
0.40900002 21692.00476770  1334.05835642
0.41000002 21716.77383239  2142.14267233
0.41100002 21745.24000109  1612.62707489
0.41200002 21776.74244559  1888.69696180
0.41300002 21813.40290475  1490.07362303
0.41400002 21852.77888322  1768.43621492
0.41500002 21895.79963739  1639.55755454
0.41600002 21941.20275158  1509.66452686
0.41700002 21991.48477924  1654.63939319
0.41800002 22045.04484220  1662.63736078
0.41900002 22099.86943082  1531.52102413
0.42000002 22158.23018577  1539.22153279
0.42100002 22220.13721327  1828.49517792
0.42200002 22284.32168277  1838.12236110
0.42300002 22350.61301471  1563.64896060
0.42400002 22419.36452865  2000.92837900
0.42500002 22490.85591861  1724.59891356
0.42600002 22563.36894400  1589.70223428
0.42700002 22639.09485422  1453.42995851
0.42800002 22715.97202586  1754.12744296
0.42900002 22795.70772770  1617.35553992
0.43000002 22876.71617059  2070.57167872
0.43100002 22958.02845579  1487.68031443
0.43200002 23041.96658474  2095.20612084
0.43300002 23126.60743650  1656.09643701
0.43400002 23212.95375843  1817.57436542
0.43500002 23299.84258695  1828.57173288
0.43600002 23388.44799683  1839.73540661
0.43700002 23477.20764032  2159.43366109
0.43800002 23566.33856772  1707.02781505
0.43900002 23657.13610348  1873.64526819
0.44000002 23747.78729751  1885.09944501
0.44100002 23839.19758156  1580.53887456
0.44200002 23930.79541433  1908.24171677
0.44300002 24022.75325848  2079.89007569
0.44400002 24114.54839243  2092.54003592
0.44500002 24205.98877441  1619.38072575
0.44600002 24297.17502908  1954.95079549
0.44700002 24389.23910239  1638.95694535
0.44800002 24479.83223551  1648.71677920
0.44900002 24570.72279548  1658.52386730
0.45000002 24661.34242560  2168.84186241
0.45100002 24750.46852249  1845.89002989
0.45200002 24839.41051916  2531.75703715
0.45300002 24927.17935552  1867.29509402
0.45400002 25014.26144099  2731.55747881
0.45500002 25100.79118820  2231.96245823
0.45600002 25185.67744901  2071.77392514
0.45700002 25269.87582576  1909.64460666
0.45800002 25352.35686024  2269.16280832
0.45900002 25433.66756069  1754.92314486
0.46000002 25514.03061868  2117.15436108
0.46100002 25592.13547798  2128.24208722
0.46200002 25669.30756104  2317.55354299
0.46300002 25744.81341814  2329.39082847
0.46400002 25818.11762624  2881.30206365
0.46500002 25890.76721328  1809.76471398
0.46600002 25960.54479717  2182.24349908
0.46700002 26028.53438568  2375.36416062
0.46800002 26095.33758766  2570.12992082
0.46900002 26159.34009047  1844.23356379
0.47000002 26221.47629637  2593.56634340
0.47100002 26281.78385781  2418.97550092
0.47200002 26339.97393935  2242.58548749
0.47300002 26395.85620900  2252.09455849
0.47400002 26448.86952279  1884.48204282
0.47500002 26500.04362475  2081.31352494
0.47600002 26549.60240508  2089.58655633
0.47700002 26595.61554304  3241.73973219
