# SAXS profile: number of points = 501, q_min = 0, q_max = 0.5, delta_q = 0.001
#    q    intensity    error
0.00000000 1646666.22097351 271.69992646
0.00100000 1646585.78220709 493.97574639
0.00200000 1646344.40405384 963.11150687
0.00300000 1645942.30545124 987.56541845
0.00400000 1645379.35730181 1480.84147784
0.00500000 1644656.07127570 1480.19052274
0.00600000 1643772.32506545 2761.53761854
0.00700000 1642728.69591920 2562.65687214
0.00800000 1641525.02060153 2216.05887137
0.00900000 1640162.48387686 2952.29259718
0.01000000 1638640.48203142 2703.75691210
0.01100000 1636960.26620927 4125.14005045
0.01200000 1635121.74978797 5101.58008301
0.01300000 1633126.09940977 3429.56496002
0.01400000 1630973.33265187 4036.65917726
0.01500000 1628664.84160696 4299.67537330
0.01600000 1626199.99038482 4561.49117694
0.01700000 1623581.13447110 5260.40311166
0.01800000 1620807.99419056 6928.95448695
0.01900000 1617881.36142378 4853.64430328
0.02000000 1614802.52066106 5086.62817018
0.02100000 1611573.23522911 6913.64949259
0.02200000 1608192.06644439 6657.91545756
0.02300000 1604662.48694052 8665.17782390
0.02400000 1600983.61893789 7204.42661372
0.02500000 1597158.30949757 8097.59299897
0.02600000 1593186.32516419 6452.40491204
0.02700000 1589069.92304205 9343.73157544
0.02800000 1584808.89618093 7583.31091599
0.02900000 1580405.55076434 9956.55542696
0.03000000 1575861.48500996 7327.75624212
0.03100000 1571176.87038543 8295.81425735
0.03200000 1566353.23175026 13180.86305226
0.03300000 1561394.27085718 8759.42226332
0.03400000 1556298.14859268 13072.90505137
0.03500000 1551068.04497061 8375.76782962
0.03600000 1545705.09458289 12010.12913994
0.03700000 1540211.09608702 10535.04438445
0.03800000 1534587.72838070 9875.07248914
0.03900000 1528836.75613236 10090.32305776
0.04000000 1522958.35789654 13112.67206912
0.04100000 1516956.13574216 11468.18891795
0.04200000 1510830.95077314 10719.34609304
0.04300000 1504583.81560969 14895.38046595
0.04400000 1498218.27120165 12135.56856033
0.04500000 1491735.46179766 11322.27268113
0.04600000 1485135.43332999 12564.24635004
0.04700000 1478422.44826200 11709.10633480
0.04800000 1471596.90446004 12979.48530125
0.04900000 1464662.26949774 13181.96103907
0.05000000 1457618.42464525 11150.78146778
0.05100000 1450469.86707797 13576.39858829
0.05200000 1443214.76219508 11473.55789413
0.05300000 1435858.96799617 11630.45818296
0.05400000 1428402.77089941 22390.21447799
0.05500000 1420848.45166528 14322.15306090
0.05600000 1413197.04282033 13291.11880794
0.05700000 1405453.68178611 14672.93712276
0.05800000 1397617.20333883 13605.80410979
0.05900000 1389690.11412256 13757.93277239
0.06000000 1381676.51804445 17699.27702304
0.06100000 1373577.40365661 19161.40567645
0.06200000 1365394.71329695 16773.87483692
0.06300000 1357132.13899485 16937.00988655
0.06400000 1348787.94860323 18410.95635945
0.06500000 1340368.50328772 19904.47320491
0.06600000 1331874.44928760 16062.40660994
0.06700000 1323307.43222368 13497.73644036
0.06800000 1314670.62025939 21770.94649057
0.06900000 1305966.83628752 17826.44814994
0.07000000 1297196.24323657 17959.68282863
0.07100000 1288362.18007584 18088.60585549
0.07200000 1279467.08707171 23817.28094160
0.07300000 1270513.53047507 19743.78118869
0.07400000 1261503.51689090 15611.10675313
0.07500000 1252439.14396997 15705.58760154
0.07600000 1243321.14565362 17232.43188663
0.07700000 1234154.83162705 15883.57342780
0.07800000 1224940.50043467 18870.20929414
0.07900000 1215679.99837643 18964.60886418
0.08000000 1206377.74170055 17588.98829911
0.08100000 1197034.17893778 14723.52109174
0.08200000 1187651.35836759 17743.51212663
0.08300000 1178232.76750807 26722.32042122
0.08400000 1168779.58768308 16392.13448668
0.08500000 1159294.80532826 26918.82664343
0.08600000 1149779.61767525 18005.54965818
0.08700000 1140238.24629688 19566.48922525
0.08800000 1130669.96189845 21132.22258033
0.08900000 1121080.21844593 21188.41712384
0.09000000 1111468.62583243 18205.85694636
0.09100000 1101838.13217490 22808.05040757
0.09200000 1092190.22821528 22854.08159924
0.09300000 1082530.54187618 18316.41762927
0.09400000 1072855.27907223 21403.46382340
0.09500000 1063170.41825295 21433.51663941
0.09600000 1053476.83344619 26057.75070021
0.09700000 1043778.96540251 18412.26181531
0.09800000 1034076.80417424 19962.85364319
0.09900000 1024373.23880133 19975.27909591
0.10000000 1014668.18281767 23058.33553890
0.10100000 1004965.13725159 16913.56405542
0.10200000 995266.45791070 16914.55424779
0.10300000 985572.94908824 23062.40809354
0.10400000 975888.25192342 18444.28882907
0.10500000 966214.68707187 21507.93994615
0.10600001 956549.77400664 16887.88705472
0.10700001 946900.28686451 18407.74244287
0.10800001 937265.82505349 22986.44544122
0.10900001 927649.09161576 16836.83180526
0.11000001 918050.49541664 25985.42049589
0.11100001 908473.03598578 15262.34772301
0.11200001 898917.91694599 16760.32535049
0.11300001 889387.11778004 16729.37247307
0.11400001 879882.31313122 22766.95592424
0.11500001 870405.85878555 18174.07518722
0.11600001 860958.30720186 21153.74660411
0.11700001 851542.35424103 21101.22053185
0.11800001 842157.36299869 16535.76060129
0.11900001 832806.38130586 16489.56712654
0.12000001 823489.90290775 17935.61093019
0.12100001 814212.93910370 16390.10723626
0.12200001 804973.32239053 23762.81359647
0.12300001 795774.49587735 16281.54695275
0.12400001 786615.75811175 17698.85539144
0.12500001 777499.10747920 19103.15397091
0.12600001 768428.46730252 16102.41929113
0.12700001 759402.40027407 17496.63212687
0.12800001 750422.70003723 18876.88390909
0.12900001 741491.03128345 14459.07579151
0.13000001 732608.97703282 17274.92049269
0.13100001 723776.60166438 21496.16608271
0.13200001 714995.68602926 21396.24691305
0.13300001 706267.76767958 19874.37591944
0.13400001 697592.70938588 16951.50363727
0.13500001 688973.22749897 15460.55995401
0.13600001 680409.16783219 20973.61358735
0.13700001 671902.30172354 15299.21613165
0.13800001 663451.51227471 19366.15055652
0.13900001 655061.07952575 13756.28331876
0.14000001 646728.93191667 19149.64457716
0.14100001 638458.36874713 17678.91306440
0.14200001 630248.54765089 13518.83198473
0.14300001 622101.54320775 21499.83034736
0.14400001 614014.72552548 16025.78509215
0.14500001 605993.93487523 17252.64813974
0.14600001 598036.80552015 18461.39705731
0.14700001 590145.68239653 13101.23476727
0.14800001 582317.60525632 15617.75890980
0.14900001 574557.01088384 15513.04002578
0.15000001 566862.74491946 14123.38595605
0.15100001 559236.03187462 15300.69855405
0.15200001 551677.95740213 15193.21166378
0.15300001 544188.05969439 12570.74477214
0.15400001 536765.11376775 14975.74738084
0.15500001 529413.07201399 13627.09311674
0.15600001 522128.85325324 13525.74858187
0.15700001 514917.34089339 12203.54155514
0.15800001 507773.02579512 15743.50340785
0.15900001 500701.48507594 14420.20345083
0.16000001 493698.39401214 20268.78852290
0.16100001 486768.86394359 16559.87753306
0.16200001 479910.00663547 24640.98045390
0.16300001 473122.33205652 16294.33388525
0.16400001 466406.67316553 18469.70512930
0.16500001 459761.95726121 13737.68793154
0.16600001 453189.97131768 13622.89118099
0.16700001 446689.18803364 15759.19529789
0.16800001 440260.65500132 12276.66894437
0.16900001 433905.22118465 13277.50039519
0.17000001 427620.37075709 15355.84823899
0.17100001 421408.26296284 10872.33369785
0.17200001 415268.20623633 17241.93673715
0.17300001 409199.76610323 13884.14871955
0.17400001 403204.34214751 13759.34882558
0.17500001 397279.33185354 10488.17485626
0.17600001 391424.93097694 13510.03213074
0.17700001 385644.64250577 11326.38368535
0.17800001 379933.90327955 15301.83867732
0.17900001 374294.07217498 13137.72255388
0.18000001 368726.11009468 11012.00579813
0.18100001 363229.22738358 12891.00588877
0.18200001 357800.73916916 11785.95690498
0.18300001 352442.94555372 11672.91090816
0.18400001 347154.96773389 12523.61605262
0.18500001 341936.71867520 10494.03839190
0.18600001 336787.75808228 9446.89706051
0.18700001 331706.92968723 12160.37661685
0.18800001 326693.00486691 13892.62068834
0.18900001 321750.38710367 12837.84105199
0.19000001 316871.22365877 11801.86928279
0.19100001 312062.02360894 9886.12537505
0.19200001 307317.96373410 10676.22656459
0.19300001 302641.88819591 10568.25523518
0.19400001 298029.73170226 10460.84407706
0.19500001 293483.64732378 9491.26160296
0.19600001 289001.37005009 9393.98997740
0.19700001 284585.03766131 8452.17601797
0.19800001 280231.17666575 10037.88122255
0.19900001 275941.08873155 9933.87966381
0.20000001 271712.15520534 8192.12186661
0.20100001 267547.00947072 12970.67963217
0.20200001 263442.23269296 9626.17963757
0.20300001 259398.85677994 8731.36593190
0.20400001 255416.29359707 9424.86167920
0.20500001 251492.74618746 8548.23884696
0.20600001 247628.09477341 7688.85270615
0.20700001 243822.58688007 10650.17109835
0.20800001 240074.30562250 9031.59580444
0.20900001 236385.93509999 8190.77303840
0.21000001 232751.32030942 8839.89556323
0.21100001 229174.08621539 7287.73628617
0.21200001 225651.46294962 7209.56458207
0.21300001 222183.38800239 9271.71321966
0.21400001 218770.03733636 7760.86744141
0.21500001 215411.02625495 8375.18109675
0.21600001 212103.42889981 7594.36363081
0.21700001 208848.53162235 8195.21676833
0.21800001 205645.26909741 6755.44740925
0.21900001 202492.18994141 10691.58813442
0.22000001 199388.70951166 6609.73603284
0.22100001 196336.36868795 6538.00138645
0.22200001 193332.07476953 9700.43731024
0.22300001 190375.60768138 8315.60693673
0.22400001 187466.32947459 7592.38670274
0.22500001 184605.65045885 6258.13184649
0.22600001 181789.44509585 6189.93089822
0.22700001 179019.45904999 6122.46578904
0.22800001 176293.90982862 6661.26569789
0.22900001 173611.93464351 6588.57323130
0.23000001 170974.07061128 8886.37774027
0.23100001 168380.19079357 7031.55710008
0.23200001 165826.57515980 9273.02252149
0.23300001 163315.74327617 5732.38286010
0.23400001 160844.81669671 7370.71407373
0.23500001 158413.82339917 6729.41953627
0.23600001 156022.78278784 6101.27120949
0.23700001 153670.92539979 6583.26275550
0.23800001 151356.85990012 6511.37242088
0.23900001 149080.59437476 6440.28198161
0.24000001 146840.89786282 6369.95845059
0.24100001 144638.61617458 5775.42021704
0.24200001 142472.15179834 6231.73221443
0.24300001 140340.07104674 6163.73621193
0.24400001 138242.66094172 6604.54343891
0.24500001 136178.83941117 5024.99941198
0.24600001 134148.68962352 6461.27194137
0.24700001 132151.67402318 4916.04250622
0.24800001 130186.57597825 6321.20949566
0.24900001 128252.07879213 5290.39850045
0.25000001 126349.78617809 4757.06967465
0.25100001 124477.05398629 6587.32600859
0.25200001 122636.06726385 5119.44287013
0.25300001 120823.00862497 5524.02821568
0.25400001 119039.76840693 5463.92562838
0.25500001 117283.25163648 4503.67707592
0.25600001 115555.87590634 5791.08299504
0.25700001 113854.75245904 4846.79704150
0.25800001 112180.65875617 4794.04067877
0.25900001 110533.68886371 5172.97688358
0.26000001 108911.52865784 5543.05251331
0.26100001 107314.26195860 4217.45069453
0.26200001 105743.12434424 5005.87974332
0.26300001 104194.85179962 6189.17448975
0.26400001 102671.53017094 4489.31286915
0.26500001 101171.38280867 4844.08603810
0.26600001 99694.01121867  5589.84347354
0.26700001 98239.39531057  5528.91342971
0.26800001 96807.18785540  5078.02127925
0.26900001 95395.88961954  5408.94719739
0.27000001 94006.71336131  5732.05961846
0.27100001 92637.87767185  4157.58814666
0.27200001 91290.47819809  3738.34525912
0.27300001 89962.81810499  4806.71359882
0.27400001 88653.71652506  4754.05577364
0.27500001 87365.95526395  3978.64579101
0.27600001 86095.03587055  3934.97380069
0.27700001 84844.78334918  4599.43592303
0.27800001 83611.80150771  3499.15405870
0.27900001 82397.25167167  4498.89015420
0.28000001 81200.05846775  4107.09915168
0.28100001 80020.50151475  4061.84084913
0.28200001 78858.34068115  4686.55140849
0.28300001 77712.77833363  4634.79031918
0.28400001 76583.10200778  3601.32054237
0.28500001 75470.33242800  3885.21289729
0.28600001 74373.20185522  4162.29643884
0.28700001 73292.41484061  3799.47896518
0.28800001 72225.56531759  3444.07624519
0.28900001 71175.49492573  3715.36101098
0.29000001 70139.47496876  3367.74705003
0.29100001 69118.93333485  4541.11413505
0.29200001 68112.29467221  2993.53549254
0.29300001 67120.17492630  5031.99975242
0.29400001 66141.44691652  3512.11099752
0.29500001 65177.78768279  3472.67269213
0.29600001 64226.34517151  4005.79733797
0.29700001 63289.08109760  3111.92426488
0.29800001 62365.14200445  3636.19977670
0.29900001 61454.56427737  3871.63773275
0.30000001 60555.90044403  3827.73864827
0.30100001 59671.00340754  2973.40624056
0.30200001 58797.63592586  3474.05848314
0.30300001 57937.52723554  3962.92705052
0.30400001 57089.43614476  4440.13110636
0.30500001 56253.89166331  3356.66987446
0.30600001 55429.08010233  2552.50925956
0.30700001 54616.93760618  2775.63290055
0.30800001 53816.25746225  2743.82201662
0.30900001 53027.31087245  3698.65510846
0.31000001 52249.79519644  2924.94367358
0.31100001 51483.14255159  2891.29342259
0.31200001 50728.61624449  3096.22123908
0.31300001 49984.36867979  2354.26387628
0.31400001 49252.48467471  3025.33401438
0.31500001 48530.25188737  3220.46766773
0.31600002 47819.86425734  3183.36851434
0.31700002 47119.53379330  3371.40280254
0.31800002 46429.59346835  2443.82176792
0.31900002 45750.96126635  2854.86011820
0.32000002 45082.93416820  2170.74338298
0.32100002 44424.78838758  2145.71738072
0.32200002 43778.02739747  2333.15008062
0.32300002 43139.80254915  2096.59450316
0.32400002 42512.92492821  2487.00622606
0.32500002 41895.95383574  2253.58346354
0.32600002 41289.31539961  2430.28921950
0.32700002 40692.67641541  2802.91168422
0.32800002 40106.78426117  2573.05086612
0.32900002 39528.87030509  2348.01500731
0.33000002 38962.38954446  1934.48273249
0.33100002 38404.37057035  2486.29906846
0.33200002 37857.83817170  2269.19892747
0.33300002 37320.06527812  2617.62950257
0.33400002 36792.74930900  2033.71931436
0.33500002 36274.35066854  2376.69556835
0.33600002 35765.26532049  2892.69479611
0.33700002 35265.75802000  2145.56881954
0.33800002 34776.56001954  1945.22697681
0.33900002 34295.94765702  1749.09341334
0.34000002 33824.80361804  2076.16654440
0.34100002 33363.16794408  2053.83671590
0.34200002 32911.49579203  2201.28550030
0.34300002 32468.49957106  1842.91212293
0.34400002 32035.37137522  2320.96276605
0.34500002 31610.97124220  1804.67043369
0.34600002 31196.20689981  1786.13891064
0.34700002 30789.49854980  1607.21190042
0.34800002 30392.82240432  2386.59649233
0.34900002 30004.58742578  1732.76500591
0.35000002 29625.72691742  1559.79459608
0.35100002 29256.61572242  2471.59901329
0.35200002 28894.66091487  2294.95855186
0.35300002 28542.89217677  1970.31594028
0.35400002 28199.42434687  1651.78135935
0.35500002 27865.12866245  2231.99691158
0.35600002 27538.84285755  1622.17561536
0.35700002 27221.44118748  1607.97060711
0.35800002 26912.79838421  2028.95596629
0.35900002 26613.31337972  1868.25468775
0.36000002 26322.11523718  1710.41112913
0.36100002 26038.68442046  1413.90063100
0.36200002 25765.18509497  1823.78871333
0.36300002 25498.66921758  1392.22740523
0.36400002 25241.09969996  1520.14530144
0.36500002 24990.87842429  1371.99929048
0.36600002 24749.83670878  1771.22214796
0.36700002 24516.34134448  1353.30210632
0.36800002 24291.73756971  1613.45728581
0.36900002 24075.00523729  1469.77913936
0.37000002 23865.48718424  1859.36019460
0.37100002 23663.87162738  1848.62173910
0.37200002 23470.71319738  1313.18646560
0.37300002 23285.09443810  1306.29385986
0.37400002 23106.90130212  1559.71591178
0.37500002 22936.60897429  2069.79969189
0.37600002 22773.91087393  1416.65119302
0.37700002 22618.48324587  1410.71486687
0.37800002 22470.41459262  1405.18744312
0.37900002 22330.47830787  1654.68852100
0.38000002 22196.93574352  1522.26592540
0.38100002 22069.97909308  1770.45380672
0.38200002 21951.21825325  1513.31705807
0.38300002 21838.55409500  1383.69085301
0.38400002 21733.31389940  1255.09893715
0.38500002 21634.28754533  1503.15036986
0.38600002 21542.85913626  1250.56303211
0.38700002 21457.16062009  1623.44884943
0.38800002 21378.10746472  1372.15389263
0.38900002 21305.45407011  1371.00603436
0.39000002 21239.71134571  1370.28004239
0.39100002 21179.32738284  1618.94786184
0.39200002 21125.71856991  1494.43340244
0.39300002 21077.61336178  1370.25570957
0.39400002 21036.52107455  1371.05532599
0.39500002 21000.17133328  1746.37433081
0.39600002 20969.72723543  1873.12097405
0.39700002 20944.23931857  1750.51960518
0.39800002 20925.38651011  1377.62288616
0.39900002 20911.02908558  1881.99270687
0.40000002 20902.30107373  1634.45550990
0.40100002 20898.38125035  1386.18969401
0.40200002 20900.02772124  1389.74740917
0.40300002 20906.21629427  1393.60844420
0.40400002 20917.32206038  1524.87285045
0.40500002 20932.71749274  1402.28281128
0.40600002 20953.62904600  1407.14102526
0.40700002 20978.42052511  1412.26733667
0.40800002 21007.45242194  1804.33017401
0.40900002 21040.29348906  1293.97811089
0.41000002 21078.03833643  1949.19168752
0.41100002 21119.42891101  1305.18076854
0.41200002 21163.98268814  1704.44142655
0.41300002 21213.48187938  1580.82874456
0.41400002 21265.85220749  1720.93917143
0.41500002 21321.74785114  1729.62026764
0.41600002 21380.18448169  2139.72896432
0.41700002 21443.30140703  1478.94456812
0.41800002 21509.67471415  2027.82467976
0.41900002 21577.39678987  1359.37606218
0.42000002 21648.58528877  1777.24069350
0.42100002 21723.24403016  1512.58955349
0.42200002 21800.21832144  1798.19109345
0.42300002 21879.27984868  1530.67449075
0.42400002 21960.76875585  1399.99907453
0.42500002 22044.88881309  1549.53530810
0.42600002 22130.04394866  1842.65819670
0.42700002 22218.47449180  1854.35396896
0.42800002 22307.96093919  1579.06908991
0.42900002 22400.22454342  1878.25891697
0.43000002 22493.73745725  1599.64221507
0.43100002 22587.49792027  1902.77091497
0.43200002 22683.91185180  1473.32014459
0.43300002 22780.92837838  1631.34235848
0.43400002 22879.54666472  1791.46858874
0.43500002 22978.77184365  1653.09292477
0.43600002 23079.63081178  1815.44384569
0.43700002 23180.52698024  1522.96069477
0.43800002 23281.81972312  2606.28343241
0.43900002 23384.67095850  1543.38835640
0.44000002 23487.33194093  2175.16191413
0.44100002 23590.72758422  2033.28490684
0.44200002 23694.22685919  1889.37773929
0.44300002 23798.05600447  1901.94072601
0.44400002 23901.65839006  2233.61008240
0.44500002 24004.73771386  2248.28384083
0.44600002 24107.61139396  1616.41542057
0.44700002 24211.20152814  1952.39138376
0.44800002 24313.34653509  1637.50396674
0.44900002 24415.66325859  2142.47455248
0.45000002 24517.56655573  1990.33614732
0.45100002 24617.90638973  2002.91295879
0.45200002 24718.09547699  1679.59466726
0.45300002 24816.98321739  2028.04396464
0.45400002 24915.04116827  2040.54196839
0.45500002 25012.48414962  2053.02479630
0.45600002 25108.27044296  1893.28922248
0.45700002 25203.21735736  2250.89944886
0.45800002 25296.33823861  1915.81826730
0.45900002 25388.24959984  2978.04181920
0.46000002 25479.14067429  2290.44745947
0.46100002 25567.61168877  1771.83557401
0.46200002 25655.08313015  3028.96753332
0.46300002 25740.79978332  1791.55974983
0.46400002 25824.14399181  2701.85119320
0.46500002 25906.76364329  2354.14772384
0.46600002 25986.44786485  2184.42091105
0.46700002 26064.24078368  2927.53566358
0.46800002 26140.66930423  1838.99617271
0.46900002 26214.25656533  1848.10517545
0.47000002 26285.88452592  2414.22717871
0.47100002 26355.59950648  2985.56245360
0.47200002 26422.96220011  2437.12203404
0.47300002 26487.89848236  2448.27657277
0.47400002 26550.01619693  2459.19536680
0.47500002 26610.08136661  1899.95989963
0.47600002 26668.34814691  2480.55652046
0.47700002 26723.00502840  2107.64350649
