# SAXS profile: number of points = 501, q_min = 0, q_max = 0.5, delta_q = 0.001
#    q    intensity    error
0.00000000 1646666.22097351 296.39991978
0.00100000 1646585.77600199 543.37331899
0.00200000 1646344.37772136 963.11149146
0.00300000 1645942.24731864 1086.32192193
0.00400000 1645379.25746370 1357.43793899
0.00500000 1644655.91423468 1628.20941954
0.00600000 1643772.10082582 2243.74900897
0.00700000 1642728.38811847 2365.52897720
0.00800000 1641524.62494608 2659.27000469
0.00900000 1640161.97628362 2706.26737655
0.01000000 1638639.85581891 2703.75587885
0.01100000 1636959.51463189 3241.17998009
0.01200000 1635120.84082403 3507.33435734
0.01300000 1633125.03689931 4458.43154737
0.01400000 1630972.09250023 4403.62484497
0.01500000 1628663.42729826 5081.43011944
0.01600000 1626198.37050366 6220.20904524
0.01700000 1623579.32502170 4822.03081162
0.01800000 1620805.97629258 5081.22696432
0.01900000 1617879.11533987 5824.36507803
0.02000000 1614800.01802490 6103.94434425
0.02100000 1611570.48453042 7977.27426010
0.02200000 1608189.02754414 6657.90287652
0.02300000 1604659.19418773 8087.48270684
0.02400000 1600980.03727288 10206.24820299
0.02500000 1597154.41801964 7474.68301771
0.02600000 1593182.11422424 7742.86542928
0.02700000 1589065.41449117 8008.89005585
0.02800000 1584804.05459036 8272.67754434
0.02900000 1580400.32616171 7822.98197369
0.03000000 1575855.91230029 8793.27639482
0.03100000 1571170.95312397 11312.43138301
0.03200000 1566346.91852361 8528.75936418
0.03300000 1561387.56184317 8759.38462575
0.03400000 1556290.97365000 10621.68638525
0.03500000 1551060.49108161 10050.87244634
0.03600000 1545697.14902912 12867.92936034
0.03700000 1540202.67759474 9657.07123513
0.03800000 1534578.87572860 9875.01552232
0.03900000 1528827.43972624 11007.55807579
0.04000000 1522948.56161927 11239.36090557
0.04100000 1516945.82125442 12423.78685212
0.04200000 1510820.18934557 13642.70694271
0.04300000 1504572.55354839 16881.30483441
0.04400000 1498206.54456028 13146.76303908
0.04500000 1491723.17715837 12351.46848078
0.04600000 1485122.60000309 13611.14926177
0.04700000 1478409.05807195 15966.81856976
0.04800000 1471582.96753586 17305.81650343
0.04900000 1464647.76613213 12083.34463304
0.05000000 1457603.39393185 15610.93307595
0.05100000 1450454.17251508 13576.25168718
0.05200000 1443198.52497751 16062.80033155
0.05300000 1435842.10690909 12793.35376896
0.05400000 1428385.33164794 11784.17953564
0.05500000 1420830.36060709 15515.46826161
0.05600000 1413178.33814584 14499.21042597
0.05700000 1405434.40511295 14672.73587428
0.05800000 1397597.27065540 12368.73642283
0.05900000 1389669.54884862 16259.13448093
0.06000000 1381655.27798066 17699.00493781
0.06100000 1373555.46126772 16606.28630276
0.06200000 1365372.08546346 19354.15021613
0.06300000 1357108.92922772 14331.07096270
0.06400000 1348764.02214994 18410.62976335
0.06500000 1340343.86265189 13269.40486097
0.06600000 1331849.07652182 17400.60899891
0.06700000 1323281.42307221 18896.45960581
0.06800000 1314643.81155098 19049.18972105
0.06900000 1305939.30348377 16454.83599429
0.07000000 1297167.86223614 15196.32221772
0.07100000 1288333.24642790 16696.79965575
0.07200000 1279437.39961027 14009.84018205
0.07300000 1270483.01448567 14102.36212157
0.07400000 1261472.24584029 18449.03246001
0.07500000 1252407.10306217 19988.41830178
0.07600000 1243288.40423914 18667.97626482
0.07700000 1234121.28791412 17327.06369475
0.07800000 1224906.14763531 27578.76320735
0.07900000 1215644.89128727 16046.51331763
0.08000000 1206341.76535040 16122.75845024
0.08100000 1196997.54167620 22084.60568010
0.08200000 1187613.88027786 17742.95220394
0.08300000 1178194.49032585 17814.30152979
0.08400000 1168740.55384955 14901.44276104
0.08500000 1159254.96912354 17945.26776448
0.08600000 1149738.97352803 22506.14146351
0.08700000 1140196.81895959 22575.89807551
0.08800000 1130627.63291795 18112.65552998
0.08900000 1121037.16019974 16647.40261089
0.09000000 1111424.63501647 15170.94698064
0.09100000 1101793.32071644 22807.12281034
0.09200000 1092144.72635281 15235.41964848
0.09300000 1082484.12314133 19841.93490960
0.09400000 1072808.04227751 16816.26685302
0.09500000 1063122.35621945 16839.85891403
0.09600000 1053427.99154388 18392.85359696
0.09700000 1043729.24513541 18411.38474976
0.09800000 1034026.29286739 24568.46587368
0.09900000 1024321.85280406 16901.31136601
0.10000000 1014616.04749840 19982.86399522
0.10100000 1004912.04200220 19987.70145548
0.10200000 995212.49927238 16913.63722069
0.10300000 985518.28302433 29210.76328294
0.10400000 975832.72851723 21517.11267608
0.10500000 966158.42329527 16898.11161848
0.10600001 956492.56229264 19957.21825129
0.10700001 946842.37037883 23008.27068292
0.10800001 937206.97208729 15323.33471477
0.10900001 927589.50339881 22957.84128965
0.11000001 917990.09983574 18341.44305804
0.11100001 908411.84403002 18313.58363773
0.11200001 898855.90234190 16759.16908814
0.11300001 889324.19951935 18248.93343331
0.11400001 879818.71868834 21247.62305676
0.11500001 870341.41798881 16658.33552471
0.11600001 860893.05076545 18130.40850291
0.11700001 851476.35433592 19592.47183598
0.11800001 842090.52119695 21043.84311584
0.11900001 832738.75561699 17987.15796855
0.12000001 823421.47906471 17934.12065881
0.12100001 814143.77159076 28307.78027174
0.12200001 804903.35296610 16335.51431803
0.12300001 795703.75091083 20720.12664993
0.12400001 786544.28389526 20646.78842508
0.12500001 777426.99880953 16162.70806684
0.12600001 768355.48602011 20492.04177781
0.12700001 759328.76791379 17494.93563721
0.12800001 750348.25629103 14519.23944351
0.12900001 741416.01323965 21686.41940939
0.13000001 732533.09176601 14394.27593167
0.13100001 723700.13252088 18628.04228917
0.13200001 714918.45455378 15688.88622476
0.13300001 706189.85927602 19872.18357686
0.13400001 697514.10937101 21186.99207102
0.13500001 688893.98824098 15458.78182498
0.13600001 680329.34938958 16776.92254699
0.13700001 671821.77533696 13906.71140522
0.13800001 663370.33658384 15214.39938700
0.13900001 654979.21043974 20631.84610181
0.14000001 646646.49623139 16411.88884835
0.14100001 638375.37853560 16316.87544492
0.14200001 630164.92626753 16220.44596717
0.14300001 622017.36110677 20153.36345045
0.14400001 613929.93225694 13352.97665645
0.14500001 605908.67156344 13269.40053319
0.14600001 597951.02929178 18458.74914502
0.14700001 590059.33422332 14409.24962151
0.14800001 582230.74581919 14314.14356129
0.14900001 574469.53067403 15510.67806001
0.15000001 566774.83195826 15404.94065948
0.15100001 559147.51558168 15298.27674816
0.15200001 551589.03328846 16456.65958470
0.15300001 544098.63896825 17596.15081458
0.15400001 536675.30281753 16221.01179315
0.15500001 529322.78845177 17340.61536804
0.15600001 522038.24328638 19670.40193537
0.15700001 514826.30166372 15861.79910289
0.15800001 507681.67554042 19373.13365301
0.15900001 500609.76336268 13216.09837658
0.16000001 493606.28033942 16688.82912603
0.16100001 486676.38896696 14191.48417217
0.16200001 479817.23386793 15250.99149843
0.16300001 473029.22313831 13963.82332624
0.16400001 466313.32868113 21928.38531646
0.16500001 459668.30414200 12590.31544485
0.16600001 453096.03397959 15890.07866188
0.16700001 446595.03330811 13505.03444487
0.16800001 440166.26389975 14505.67991172
0.16900001 433810.60677831 14380.82229374
0.17000001 427525.52524530 15352.44233650
0.17100001 421313.36614147 11956.87389571
0.17200001 415173.16636453 16160.61626389
0.17300001 409104.53417612 11745.39173087
0.17400001 403108.97195583 14814.25541900
0.17500001 397183.86680577 12582.78549466
0.17600001 391329.35829695 10389.79495348
0.17700001 385549.06648830 14411.82478601
0.17800001 379838.24418310 18357.58320844
0.17900001 374198.45292139 13134.36631792
0.18000001 368630.49861454 14011.64591418
0.18100001 363133.64697443 16853.03335216
0.18200001 357705.12289760 11782.80730484
0.18300001 352347.38468736 12642.22475979
0.18400001 347059.48176156 10593.99118124
0.18500001 341841.35909409 12398.58668008
0.18600001 336692.52156200 9444.22567599
0.18700001 331611.72139058 12156.88628053
0.18800001 326597.99489300 9259.05359267
0.18900001 321655.52324677 13750.77426849
0.19000001 316776.65251380 10890.78182800
0.19100001 311967.59043147 13477.00054343
0.19200001 307223.79970185 9783.54236379
0.19300001 302547.91276222 10564.97361288
0.19400001 297936.02695942 10457.55504044
0.19500001 293390.18729588 10350.80629693
0.19600001 288908.23881170 8537.23886032
0.19700001 284492.26620574 8449.42070561
0.19800001 280138.76460691 9198.35677057
0.19900001 275849.02303308 13240.75373135
0.20000001 271620.48393820 9008.29377555
0.20100001 267455.86305473 8914.30433692
0.20200001 263351.41766849 11226.67146582
0.20300001 259308.53748290 15869.68324403
0.20400001 255326.43354357 8636.41702282
0.20500001 251403.37124719 10098.87390034
0.20600001 247539.27666881 9991.92337503
0.20700001 243734.25282264 10646.31266653
0.20800001 239986.57899870 8275.93756798
0.20900001 236298.76104466 8187.75245724
0.21000001 232664.71969813 10309.37421717
0.21100001 229088.19900943 8742.00608746
0.21200001 225566.12941864 7927.52199319
0.21300001 222098.79352046 10694.05741358
0.21400001 218686.05535117 9168.41330405
0.21500001 215327.78310935 9069.60665335
0.21600001 212020.89251419 8281.53645314
0.21700001 208766.73154111 8874.67417740
0.21800001 205564.14514037 7428.06073585
0.21900001 202411.86270864 8683.46932077
0.22000001 199309.18605002 8589.22977895
0.22100001 196257.67529226 9149.53325475
0.22200001 193254.20822740 8403.65964213
0.22300001 190298.62735003 6394.03418131
0.22400001 187390.19450185 10751.51291794
0.22500001 184530.49096496 6255.58393952
0.22600001 181715.12461246 7424.88034277
0.22700001 178946.10913504 6119.95722183
0.22800001 176221.49262668 7263.85026958
0.22900001 173540.47854839 9579.43486889
0.23000001 170903.60407546 7698.35320965
0.23100001 168310.76040916 5857.21473924
0.23200001 165758.15215826 6372.57246111
0.23300001 163248.31575973 7449.02100041
0.23400001 160778.42380037 6800.92764841
0.23500001 158348.52571183 8968.86092051
0.23600001 155958.61360982 7762.06056648
0.23700001 153607.83898187 6032.18012213
0.23800001 151294.89887697 5966.31461941
0.23900001 149019.76609736 6437.65419990
0.24000001 146781.23443222 5836.75606328
0.24100001 144580.09037059 5773.08328157
0.24200001 142414.82083789 5710.12251160
0.24300001 140283.93307189 5647.83141263
0.24400001 138187.73627544 5078.39954835
0.24500001 136125.17189238 8036.83052870
0.24600001 134096.25560888 7452.39975800
0.24700001 132100.50612543 5896.96687240
0.24800001 130136.70731973 4860.60624833
0.24900001 128203.44687710 6730.68127946
0.25000001 126302.44579072 7132.93096348
0.25100001 124431.04317221 6584.89111620
0.25200001 122591.31079950 4652.34046494
0.25300001 120779.61923133 5061.87408146
0.25400001 118997.75100595 4551.66419132
0.25500001 117242.58832279 4502.11560460
0.25600001 115516.51795982 5343.79437365
0.25700001 113816.79910765 7047.53653419
0.25800001 112144.07861715 5228.15719250
0.25900001 110498.48174879 5171.32919052
0.26000001 108877.68262296 5541.32991929
0.26100001 107281.90300573 5059.41478514
0.26200001 105712.18835058 5004.41523331
0.26300001 104165.30987940 4537.44111305
0.26400001 102643.38257251 4488.08211535
0.26500001 101144.69602920 4842.80827503
0.26600001 99668.79302295  6785.95009408
0.26700001 98215.61460778  4343.09468347
0.26800001 96784.85771259  5857.90379026
0.26900001 95375.06785615  5021.49756025
0.27000001 93987.32481707  4584.70192153
0.27100001 92619.99279034  4156.78547314
0.27200001 91274.05964018  5980.27667063
0.27300001 89947.85437882  3696.85698992
0.27400001 88640.23003169  3656.40966185
0.27500001 87353.96055408  3978.09955190
0.27600001 86084.56320646  3934.49514755
0.27700001 84835.74883720  3537.65089394
0.27800001 83604.32887181  4548.49372754
0.27900001 82391.21929571  3806.47451161
0.28000001 81195.53401636  4106.87030492
0.28100001 80017.49672478  3384.74027165
0.28200001 78856.80056289  4351.71274503
0.28300001 77712.72195286  3972.67453426
0.28400001 76584.53614899  3601.38798286
0.28500001 75473.26833214  5180.48538352
0.28600001 74377.67521930  3522.15497672
0.28700001 73298.33868099  4749.73257135
0.28800001 72232.99362969  3757.56050647
0.28900001 71184.35911158  3406.17174472
0.29000001 70149.82360163  3674.44793418
0.29100001 69130.70444965  3330.71749804
0.29200001 68125.55804250  3892.35394300
0.29300001 67134.92268813  4144.91032297
0.29400001 66157.65835481  4098.46712909
0.29500001 65195.41797085  3763.07970341
0.29600001 64245.41508038  4293.20006598
0.29700001 63309.57015314  3112.93171179
0.29800001 62387.06519123  3077.86600691
0.29900001 61477.87597890  3043.15500502
0.30000001 60580.62496748  2735.21534677
0.30100001 59697.12819606  2704.28003530
0.30200001 58825.16997046  4010.40615259
0.30300001 57966.34520209  2907.59201299
0.30400001 57119.63046187  3135.86786081
0.30500001 56285.44691130  2583.50213554
0.30600001 55461.97233196  3831.03592020
0.30700001 54651.22268743  3534.84125077
0.30800001 53851.78258184  2995.23628901
0.30900001 53064.15996321  2714.23191062
0.31000001 52287.91679572  2439.23143401
0.31100001 51522.59017631  2893.50880130
0.31200001 50769.26656820  2383.61717823
0.31300001 50026.26087307  3063.10809828
0.31400001 49295.61327151  2329.21783736
0.31500001 48574.56696002  3914.13879096
0.31600002 47865.38003561  2275.99892846
0.31700002 47166.27198308  2699.79753614
0.31800002 46477.45691105  2891.13034404
0.31900002 45799.96648530  2418.23834492
0.32000002 45133.00037345  3694.36192049
0.32100002 44476.02984337  2148.19234315
0.32200002 43830.30684884  2548.29416085
0.32300002 43193.16707794  2728.94442520
0.32400002 42567.32820798  2282.67308324
0.32500002 41951.39258710  2256.56551411
0.32600002 41345.73344143  2230.80915347
0.32700002 40750.06165329  2405.88375394
0.32800002 40165.18229354  2180.36702405
0.32900002 39588.18841312  2351.53850309
0.33000002 39022.58796369  2324.96590097
0.33100002 38465.47278345  2490.25482593
0.33200002 37919.82485655  2083.50487541
0.33300002 37382.91101231  2060.17232345
0.33400002 36856.39664581  2222.44082299
0.33500002 36338.81333846  1831.47627899
0.33600002 35830.48260319  1992.35407950
0.33700002 35331.75562685  1970.45210462
0.33800002 34843.23137158  2303.31191890
0.33900002 34363.33741029  2453.54240729
0.34000002 33892.89168443  2080.34579011
0.34100002 33431.83746355  1886.55867741
0.34200002 32980.80612209  2036.23506641
0.34300002 32538.42006962  2014.77906613
0.34400002 32105.83697107  2159.92028452
0.34500002 31681.93478438  1973.15099182
0.34600002 31267.71304959  1952.98144957
0.34700002 30861.52521672  1772.06886187
0.34800002 30465.24829119  1594.85582358
0.34900002 30077.49167196  1736.97522632
0.35000002 29699.01946295  1876.38413854
0.35100002 29330.27792903  1703.50262280
0.35200002 28968.63009410  1840.66684336
0.35300002 28617.19084238  1671.53019627
0.35400002 28274.04096057  1806.71130295
0.35500002 27939.95476243  1790.39238598
0.35600002 27613.90732112  2218.08721063
0.35700002 27296.67778131  1758.99799954
0.35800002 26988.29050929  1889.31536659
0.35900002 26688.93103862  1585.32257878
0.36000002 26397.76627239  1715.32693363
0.36100002 26114.39902840  1985.21670817
0.36200002 25840.97175110  1407.04097849
0.36300002 25574.42440888  1815.27273053
0.36400002 25316.83805676  2356.36481375
0.36500002 25066.60523174  2201.85070785
0.36600002 24825.47767375  1503.30687174
0.36700002 24591.87464462  1357.47154468
0.36800002 24367.14616104  1483.59376429
0.36900002 24150.21384616  1742.43801154
0.37000002 23940.51710563  1465.51882404
0.37100002 23738.63202975  1854.46202201
0.37200002 23545.29645375  1317.35939899
0.37300002 23359.35166998  2620.91938153
0.37400002 23180.76729851  1303.91822231
0.37500002 23010.18996598  1687.10720823
0.37600002 22847.08968213  1550.40357927
0.37700002 22691.27260540  2058.55234828
0.37800002 22542.73643178  1922.33194028
0.37900002 22402.33393002  1532.31971340
0.38000002 22268.30859404  1399.89728608
0.38100002 22140.76616486  1649.26574975
0.38200002 22021.44647135  1391.64537568
0.38300002 21908.19356182  1640.48561163
0.38400002 21802.33631259  1636.81047621
0.38500002 21702.63019605  1759.21528703
0.38600002 21610.54703938  1254.49231507
0.38700002 21524.13631488  1753.78671002
0.38800002 21444.29539753  1251.27469573
0.38900002 21370.89195576  1375.21696250
0.39000002 21304.30828429  1249.49774007
0.39100002 21243.11948583  1498.91458193
0.39200002 21188.69460061  1498.88832706
0.39300002 21139.68530849  1249.35546092
0.39400002 21097.66649126  1875.05519825
0.39500002 21060.34726765  1626.28009306
0.39600002 21028.96014230  1377.50209938
0.39700002 21002.47473322  1253.84780098
0.39800002 20982.61857516  1255.80978122
0.39900002 20967.22940898  1887.05073621
0.40000002 20957.39457141  1260.58734320
0.40100002 20952.33918244  1263.42611256
0.40200002 20952.89659764  1393.26292527
0.40300002 20957.94969139  1524.06217377
0.40400002 20967.83507052  1655.93485315
0.40500002 20982.08843631  1277.80924631
0.40600002 21001.76262749  2179.66803757
0.40700002 21025.25342832  1801.44379909
0.40800002 21053.01396997  1808.24345556
0.40900002 21084.54490516  1945.04935966
0.41000002 21121.00967856  1692.74340089
0.41100002 21161.06445817  1438.52923003
0.41200002 21204.21380554  1576.32132899
0.41300002 21252.38681450  1847.68259720
0.41400002 21303.32390224  1591.35837090
0.41500002 21357.80823052  1599.27275608
0.41600002 21414.78216963  2143.19150109
0.41700002 21476.46828259  1750.54701266
0.41800002 21541.31981017  1489.25921564
0.41900002 21607.56519676  1361.27667190
0.42000002 21677.23506596  1505.80920521
0.42100002 21750.37509890  2202.87809440
0.42200002 21825.76663512  1938.78294207
0.42300002 21903.26528197  1671.65728553
0.42400002 21983.20636288  1681.71536645
0.42500002 22065.71973109  1691.99946916
0.42600002 22149.24923064  1844.25732458
0.42700002 22236.00866534  1855.81737115
0.42800002 22323.85696516  1580.19429016
0.42900002 22414.46602669  1879.45306540
0.43000002 22506.28329672  2910.06256817
0.43100002 22598.36729000  1757.24912374
0.43200002 22693.08673367  1768.69926384
0.43300002 22788.42263183  1631.87902200
0.43400002 22885.32832618  1791.92129286
0.43500002 22982.80705957  2104.30591409
0.43600002 23081.94416160  1664.32366264
0.43700002 23181.10678211  1522.99878776
0.43800002 23280.61452963  1839.63424731
0.43900002 23381.73439026  3240.70854007
0.44000002 23482.63817701  1553.37658902
0.44100002 23584.25553529  1719.99983770
0.44200002 23685.95525652  1573.93180139
0.44300002 23787.99799719  2376.42111254
0.44400002 23889.81052818  2391.96739249
0.44500002 23991.11403338  2247.00784685
0.44600002 24092.17311862  1776.91831257
0.44700002 24193.97640495  1788.41882061
0.44800002 24294.33169684  2127.09031252
0.44900002 24394.78840142  1975.97795416
0.45000002 24494.93766419  1657.08261152
0.45100002 24593.47995760  1667.43802015
0.45200002 24691.80801618  1845.58927764
0.45300002 24788.94137047  1688.12698733
0.45400002 24885.19864612  1698.41488809
0.45500002 24980.85197253  2221.29746267
0.45600002 25074.83799914  1718.88022630
0.45700002 25167.98950522  2593.56144143
0.45800002 25259.32156136  2260.83568350
0.45900002 25349.46365489  1749.11307509
0.46000002 25438.57683903  1934.98543897
0.46100002 25525.28541277  1945.79259924
0.46200002 25611.02514529  2845.89724903
0.46300002 25694.91017371  1788.36583285
0.46400002 25776.54686032  2517.07992021
0.46500002 25857.45459820  2530.41062691
0.46600002 25935.36753084  2906.83613063
0.46700002 26011.46026060  2191.20551621
0.46800002 26086.19230935  2018.68008754
0.46900002 26158.10666733  2028.56126820
0.47000002 26228.02439827  2038.31101272
0.47100002 26296.02902815  2047.93483778
0.47200002 26361.74828594  2057.40274249
0.47300002 26425.05123996  2254.58547865
0.47400002 26485.51187979  2075.80209197
0.47500002 26543.95397429  2653.33376503
0.47600002 26600.64043695  2283.93109617
0.47700002 26653.70912023  2484.39234485
