# SAXS profile: number of points = 501, q_min = 0, q_max = 0.5, delta_q = 0.001
#    q    intensity    error
0.00000000 1646666.22097351 271.69992646
0.00100000 1646585.16705590 543.37311803
0.00200000 1646341.91923512 814.93927583
0.00300000 1645936.74005389 1185.07449505
0.00400000 1645369.46756591 1480.83257708
0.00500000 1644640.61007088 1924.22958995
0.00600000 1643750.06845357 1725.93764214
0.00700000 1642698.44403694 3153.98114363
0.00800000 1641485.52886342 2437.60611328
0.00900000 1640112.51088656 3198.21953295
0.01000000 1638578.85857067 4325.84837341
0.01100000 1636885.75734001 2946.39449150
0.01200000 1635033.16527908 3507.14629329
0.01300000 1633022.28551858 4458.15103609
0.01400000 1630853.10248416 4403.30357191
0.01500000 1628526.94982969 6644.39025117
0.01600000 1626043.31017690 7463.53912736
0.01700000 1623404.47973776 4821.51152111
0.01800000 1620610.32218694 5080.61358867
0.01900000 1617661.49248707 5823.58163573
0.02000000 1614559.21825793 5594.44794433
0.02100000 1611305.51283817 6380.77012013
0.02200000 1607898.91302651 7766.15210275
0.02300000 1604342.57178573 7508.32357772
0.02400000 1600636.10466464 6002.38566619
0.02500000 1596781.87860667 7472.93953317
0.02600000 1592780.17784812 10321.21602453
0.02700000 1588633.01022242 10675.61431765
0.02800000 1584340.02215040 8959.44323614
0.02900000 1579904.03317842 9953.39586603
0.03000000 1575326.11954524 11720.42686815
0.03100000 1570606.75401345 9046.69531938
0.03200000 1565747.49285537 9300.54053593
0.03300000 1560751.78900401 10347.78483813
0.03400000 1555618.33854092 8983.69631958
0.03500000 1550349.68916731 9209.07757891
0.03600000 1544947.55999883 11146.79716053
0.03700000 1539413.60351075 10529.58953498
0.03800000 1533749.27889085 13458.65054513
0.03900000 1527956.73595734 10084.51492433
0.04000000 1522035.67988598 13104.72781108
0.04100000 1515990.37606440 10505.81379324
0.04200000 1509821.34431681 11686.01774716
0.04300000 1503529.49597371 10915.62464745
0.04400000 1497118.31776390 13137.21384850
0.04500000 1490589.70769225 11313.57640707
0.04600000 1483943.12346080 10461.79950673
0.04700000 1477182.64314374 12762.85863034
0.04800000 1470309.26172057 10806.77357646
0.04900000 1463326.25770927 10974.94744368
0.05000000 1456233.52276323 13368.22436147
0.05100000 1449035.36278911 13562.97162752
0.05200000 1441730.44522912 17192.63636056
0.05300000 1434324.39404282 12779.83094669
0.05400000 1426817.02554574 20011.10971647
0.05500000 1419211.60950654 15497.79149877
0.05600000 1411508.48839933 13275.23795287
0.05700000 1403713.02003644 14654.76461324
0.05800000 1395824.28917589 12353.04553600
0.05900000 1387844.57111089 14988.72206806
0.06000000 1379777.99873000 17674.95698948
0.06100000 1371625.54895942 19134.17730215
0.06200000 1363389.74184137 23191.26059276
0.06300000 1355073.51999778 13008.70640020
0.06400000 1346675.56981209 17069.11364563
0.06500000 1338201.92898876 21197.11954674
0.06600000 1329654.26299887 13363.02596837
0.06700000 1321032.80337210 21559.25635998
0.06800000 1312342.07711351 17657.56347410
0.06900000 1303583.82056678 16425.15690815
0.07000000 1294759.18748238 15168.10459166
0.07100000 1285870.82488274 15276.14611511
0.07200000 1276921.56112231 22371.66679890
0.07300000 1267913.87377341 15481.22912416
0.07400000 1258850.37081314 15578.27406888
0.07500000 1249731.65707467 21370.41233766
0.07600000 1240559.99277489 17194.16230593
0.07700000 1231340.31040071 15847.35053792
0.07800000 1222072.56530858 14481.56057804
0.07900000 1212759.21772338 18919.04468386
0.08000000 1203404.04605786 19007.76779916
0.08100000 1194007.91434907 23498.07685688
0.08200000 1184572.81045013 19172.31183680
0.08300000 1175102.46099906 19248.17921452
0.08400000 1165597.78966770 23778.19602534
0.08500000 1156061.87690780 20878.47847710
0.08600000 1146496.02677056 16457.95123702
0.08700000 1136904.35272731 24011.42105712
0.08800000 1127286.37476456 21068.98333383
0.08900000 1117647.36787300 18105.88820997
0.09000000 1107986.59274500 22686.02655214
0.09100000 1098307.65626315 18187.97564221
0.09200000 1088612.49461124 15186.14501337
0.09300000 1078905.53275978 18255.08247214
0.09400000 1069183.60464659 22853.80062339
0.09500000 1059452.91559369 22884.18405244
0.09600000 1049713.93393792 22910.00768514
0.09700000 1039971.79102515 18345.10325614
0.09800000 1030225.56703826 21418.39054577
0.09900000 1020478.49473205 24491.48502522
0.10000000 1010731.21390962 18375.09433301
0.10100000 1000986.02197821 19909.61291353
0.10200000 991246.39751030 18377.70907426
0.10300000 981512.69402365 21436.23824585
0.10400000 971788.60478755 19897.37261910
0.10500000 962076.36070223 16826.71634037
0.10600001 952373.64382696 22928.39655400
0.10700001 942687.15544452 19852.99242790
0.10800001 933016.43588822 16780.30138916
0.10900001 923364.78118234 18282.62352789
0.11000001 913732.02116279 19777.73052900
0.11100001 904120.77245204 16708.15266142
0.11200001 894533.40316542 15162.34189745
0.11300001 884970.83715437 18159.60243338
0.11400001 875435.69400553 18121.51971916
0.11500001 865929.37012343 16573.88892459
0.11600001 856453.12756871 18036.90371598
0.11700001 847009.50539034 28484.93100777
0.11800001 837597.92272482 16446.23598729
0.11900001 828221.08708148 17889.57632359
0.12000001 818880.27431961 16348.94544691
0.12100001 809579.64922683 17778.36993453
0.12200001 800317.44833150 17719.02914083
0.12300001 791096.84248313 16185.84215979
0.12400001 781917.64783129 16127.05224639
0.12500001 772781.86259285 17526.69346947
0.12600001 763692.83197430 16003.18404815
0.12700001 754649.26974804 15938.19332819
0.12800001 745653.18871892 15871.22886988
0.12900001 736706.70536823 20112.09400448
0.13000001 727810.55412785 21452.21709407
0.13100001 718964.99856745 22776.81222826
0.13200001 710172.12796825 18418.31500710
0.13300001 701433.22894499 18328.45113639
0.13400001 692748.93456246 15430.98324488
0.13500001 684120.63414162 19538.48623229
0.13600001 675549.05974272 19435.54736520
0.13700001 667036.00968765 17949.93986709
0.13800001 658580.20011520 15104.53760191
0.13900001 650185.00792155 15019.27439127
0.14000001 641849.71482561 16290.14653053
0.14100001 633577.29116065 17543.75601965
0.14200001 625366.54985678 14755.52443982
0.14300001 617219.47198146 18664.71771309
0.14400001 609133.98377884 17223.26420377
0.14500001 601115.42377490 17113.75692216
0.14600001 593161.77138580 15695.06121127
0.14700001 585275.07425206 16891.03943978
0.14800001 577452.41548806 15487.27451406
0.14900001 569698.76324724 17945.51188897
0.15000001 562012.02336318 17821.40210171
0.15100001 554393.75419743 12640.17819213
0.15200001 546845.31046291 18825.15070099
0.15300001 539366.14469690 12459.35853044
0.15400001 531954.98543352 12367.95399499
0.15500001 524615.71664347 13503.60918368
0.15600001 517345.45003498 17056.88029265
0.15700001 510148.53846094 15717.67721181
0.15800001 503020.20203310 13196.73562321
0.15900001 495965.36009321 13093.48612448
0.16000001 488979.87395798 17713.29677024
0.16100001 482068.92505392 12885.70297495
0.16200001 475229.51758939 13943.23470428
0.16300001 468462.39116559 13829.01044005
0.16400001 461768.01009028 14857.38642607
0.16500001 455145.59491931 14733.06360311
0.16600001 448596.62996507 19103.48838900
0.16700001 442119.76465927 13369.70231454
0.16800001 435716.41297585 16568.11738569
0.16900001 429386.61332798 19708.84648237
0.17000001 423128.35438720 10853.24280252
0.17100001 416943.50211265 11832.85714872
0.17200001 410831.74400808 11727.19268650
0.17300001 404792.06913488 12678.08820402
0.17400001 398826.35464616 12563.03076466
0.17500001 392931.81514683 11410.74045077
0.17600001 387108.42218644 19527.68527947
0.17700001 381360.07411806 13237.00879783
0.17800001 375681.95259797 13113.17917480
0.17900001 370075.44608634 16986.46377769
0.18000001 364541.45608005 10887.03110008
0.18100001 359078.89855514 10783.13983297
0.18200001 353685.71943401 11650.40814850
0.18300001 348363.63792511 10576.32054702
0.18400001 343112.07148205 9521.36043342
0.18500001 337930.66758784 10371.09267822
0.18600001 332819.24841052 11202.69643075
0.18700001 327776.43930101 12016.28483248
0.18800001 322801.30096749 10066.55904628
0.18900001 317897.83668373 10872.10652826
0.19000001 313057.93281788 12556.75427862
0.19100001 308288.87029700 9766.59187248
0.19200001 303585.12521981 12304.30570655
0.19300001 298949.71239848 14789.04297117
0.19400001 294378.85710565 8610.58197722
0.19500001 289874.34093853 9374.53662895
0.19600001 285434.17782779 11808.41249476
0.19700001 281060.14402156 13355.97867508
0.19800001 276748.92056914 11565.33793715
0.19900001 272501.99972238 9810.07245363
0.20000001 268316.06677780 8898.70277525
0.20100001 264194.58903109 11207.13499637
0.20200001 260133.36003350 11089.48566236
0.20300001 256134.01448220 9405.24145632
0.20400001 252195.90903921 8530.52702645
0.20500001 248316.56695266 13044.06987858
0.20600001 244496.47714355 8350.77757156
0.20700001 240735.70691197 9764.24073390
0.20800001 237032.21546387 11146.44045908
0.20900001 233388.76049762 10292.44482448
0.21000001 229799.18042520 8727.77328513
0.21100001 226266.95799072 7914.81856468
0.21200001 222789.46515440 8541.74849783
0.21300001 219366.82793732 9154.17816259
0.21400001 215998.77260942 9055.74896977
0.21500001 212684.95681178 11025.58868239
0.21600001 209422.47893068 10225.05301722
0.21700001 206212.96985054 10114.74664939
0.21800001 203054.76018503 7337.38410620
0.21900001 199946.82208099 6598.24544065
0.22000001 196888.53114090 7832.22613911
0.22100001 193880.89277923 7747.48084179
0.22200001 190921.69826314 7024.96421976
0.22300001 188009.83993704 6317.13092059
0.22400001 185145.07883022 7498.37604719
0.22500001 182328.76722108 8653.32370150
0.22600001 179556.77223911 7948.08089901
0.22700001 176830.83475267 7257.13780143
0.22800001 174149.04668791 9571.23205859
0.22900001 171510.89437280 8283.97658996
0.23000001 168916.24008105 5852.94799561
0.23100001 166365.57008724 7526.37874669
0.23200001 163854.69863330 6872.06638569
0.23300001 161386.44533759 6231.13094918
0.23400001 158957.90663421 7284.24641602
0.23500001 156568.90773400 6096.79355552
0.23600001 154219.40192423 6578.99999725
0.23700001 151909.20706705 6507.79073856
0.23800001 149636.12759244 6973.79205630
0.23900001 147400.66320657 6898.35136436
0.24000001 145201.20933466 5773.92636230
0.24100001 143038.90147608 7269.23731686
0.24200001 140912.01863377 7190.74065102
0.24300001 138819.14095356 5080.78079924
0.24400001 136760.74450836 6533.74487796
0.24500001 134735.23357469 4971.73035409
0.24600001 132743.10629454 6393.57201713
0.24700001 130783.58597394 6811.20947973
0.24800001 128855.64010697 5294.03422424
0.24900001 126957.89369787 6189.19761057
0.25000001 125091.80294131 5651.64792426
0.25100001 123254.86231866 5124.93741767
0.25200001 121449.21325461 6452.59700549
0.25300001 119671.20321350 7751.10419885
0.25400001 117922.30546183 4961.58123704
0.25500001 116199.66102566 4908.27391394
0.25600001 114505.62934119 5738.44988594
0.25700001 112837.48694539 6113.53533195
0.25800001 111195.85963430 5183.95122143
0.25900001 109580.64024253 4701.00968883
0.26000001 107990.20024187 5073.37984741
0.26100001 106423.70161871 5855.43234012
0.26200001 104883.08098241 7033.98415891
0.26300001 103364.65139955 5321.21250584
0.26400001 101870.77429281 6883.91789857
0.26500001 100399.51753100 4807.12912685
0.26600001 98950.43588786  4359.26165932
0.26700001 97523.60550707  4704.53895228
0.26800001 96118.62314944  5429.74127865
0.26900001 94734.31339215  4604.08784873
0.27000001 93371.21808441  4554.64823369
0.27100001 92028.15610079  4130.22384126
0.27200001 90705.87596424  4085.84637617
0.27300001 89402.85066140  4041.90306968
0.27400001 88117.88221507  4725.32165741
0.27500001 86853.82296770  4314.89812924
0.27600001 85605.93363763  5691.08273757
0.27700001 84378.28479075  4926.00449921
0.27800001 83167.23838034  4872.76872732
0.27900001 81974.26540493  3787.21124095
0.28000001 80798.01976209  5108.45504123
0.28100001 79638.94449306  3705.60026264
0.28200001 78496.79345917  4665.06465607
0.28300001 77370.65050970  3625.58885448
0.28400001 76259.86152313  3260.10923442
0.28500001 75165.53907710  3547.06195694
0.28600001 74086.24259458  4146.23676306
0.28700001 73022.91927179  4416.42636660
0.28800001 71973.04307792  3432.03472162
0.28900001 70939.28547678  3703.03087717
0.29000001 69919.42620988  3967.57802808
0.29100001 68914.27082105  3320.28972532
0.29200001 67922.69059220  3880.76311068
0.29300001 66945.12170337  4723.64801099
0.29400001 65980.34708842  3795.51964593
0.29500001 65030.41601139  3753.55578986
0.29600001 64092.08417796  3997.42347941
0.29700001 63167.50090849  3105.94616670
0.29800001 62255.84377719  3071.39219814
0.29900001 61357.09570758  2761.06943755
0.30000001 60469.97176082  3276.26322510
0.30100001 59595.96153537  3509.60634096
0.30200001 58733.19191043  3737.19317818
0.30300001 57883.29615974  3431.32195879
0.30400001 57044.85108233  3131.76247268
0.30500001 56218.69985201  3354.56997898
0.30600001 55402.81249881  2551.29963636
0.30700001 54599.34898083  2774.73904657
0.30800001 53806.77209565  4738.49360894
0.30900001 53025.68844799  3451.97248139
0.31000001 52255.64087426  4387.90637196
0.31100001 51496.13283167  3133.02486981
0.31200001 50748.47580106  2382.64105167
0.31300001 50010.59997365  2826.59924434
0.31400001 49284.88082358  3260.19502084
0.31500001 48568.40834756  3222.99973054
0.31600002 47863.51516939  2275.91025406
0.31700002 47168.30454779  2474.92105681
0.31800002 46483.24026399  2669.06778233
0.31900002 45809.16443395  2638.60799633
0.32000002 45145.39387594  2173.75081805
0.32100002 44491.38612237  2793.61426690
0.32200002 43848.20698610  2336.89030198
0.32300002 43213.48618328  2730.22818634
0.32400002 42589.92645225  2906.76261801
0.32500002 41975.90525234  2052.62186403
0.32600002 41372.01935542  2638.08693912
0.32700002 40777.81137237  2006.26841452
0.32800002 40194.27056463  2181.94608092
0.32900002 39618.48388613  2157.22654975
0.33000002 39053.79710184  2132.92322972
0.33100002 38497.51592837  2492.32929923
0.33200002 37952.33110703  2654.00663999
0.33300002 37415.94661902  2811.80852157
0.33400002 36889.69435796  2039.07795220
0.33500002 36372.27342809  2749.74400138
0.33600002 35863.88726619  1812.91958716
0.33700002 35365.05294261  2868.81323056
0.33800002 34876.36183319  2660.19462481
0.33900002 34396.04221564  2455.87753050
0.34000002 33925.07868659  2429.37499980
0.34100002 33463.52441638  1716.67888386
0.34200002 33011.80632185  2207.99477041
0.34300002 32568.64755029  1848.59652250
0.34400002 32135.14330940  2328.19124303
0.34500002 31710.37051632  2633.22929239
0.34600002 31295.16443479  2117.58740177
0.34700002 30887.83177885  1934.81387426
0.34800002 30490.39649460  2553.87573134
0.34900002 30101.62315597  1896.40234864
0.35000002 29721.90703930  2190.80187163
0.35100002 29351.82719614  2324.66482404
0.35200002 28988.86272546  1995.44846022
0.35300002 28636.20294618  1520.58244846
0.35400002 28291.67382588  1506.53170258
0.35500002 27956.19894452  2239.29164152
0.35600002 27628.78668423  2219.28239553
0.35700002 27310.18096169  2199.83518066
0.35800002 27000.38883482  2035.55941067
0.35900002 26699.64824769  1874.31539577
0.36000002 26406.98395663  1715.92589878
0.36100002 26122.32244346  1560.28639345
0.36200002 25847.48727306  1548.13532355
0.36300002 25579.65301375  1536.31403278
0.36400002 25320.80439742  1524.94551707
0.36500002 25069.25370174  1651.56251210
0.36600002 24826.82987274  1913.40386893
0.36700002 24592.04347227  1900.47320956
0.36800002 24366.20532211  1753.27038700
0.36900002 24147.99864493  1608.25678593
0.37000002 23937.26039437  1332.10860405
0.37100002 23734.30293509  1324.37416651
0.37200002 23539.88170505  1448.76208817
0.37300002 23352.90660727  1310.09812273
0.37400002 23173.56601202  1564.21577991
0.37500002 23002.03844971  1297.31503002
0.37600002 22838.19014876  1291.49971409
0.37700002 22681.49814944  1286.04100600
0.37800002 22532.45095824  1409.06688742
0.37900002 22391.27797534  1403.93319556
0.38000002 22256.72304464  1271.97178226
0.38100002 22128.67307905  1394.77033025
0.38200002 22008.95407774  2023.06315467
0.38300002 21895.35069162  1261.17225958
0.38400002 21789.15116297  2013.31766284
0.38500002 21689.25867423  1632.55057775
0.38600002 21597.00263742  1629.81788124
0.38700002 21510.46383625  1877.86358187
0.38800002 21430.65588284  1250.47883001
0.38900002 21357.24568775  1624.21861150
0.39000002 21290.84156392  1498.44950026
0.39100002 21229.90355597  1497.98206588
0.39200002 21175.59847900  1373.13174842
0.39300002 21126.99375091  2247.48970170
0.39400002 21085.34695758  1624.09892635
0.39500002 21048.56621634  1375.31338173
0.39600002 21017.69348894  1877.40555985
0.39700002 20991.82885486  1503.85469041
0.39800002 20972.66234036  1757.29946076
0.39900002 20957.96540431  1760.46917737
0.40000002 20949.00810050  1512.09947634
0.40100002 20944.84815838  1389.27184417
0.40200002 20946.28212033  1392.82309558
0.40300002 20952.35396590  1650.62652364
0.40400002 20963.30036039  1400.87261296
0.40500002 20978.65867647  1405.36041132
0.40600002 20999.50801285  1666.62603241
0.40700002 21024.31460026  1672.69454885
0.40800002 21053.27774517  1549.94238104
0.40900002 21086.21507947  1945.20343325
0.41000002 21124.10710338  1953.45189694
0.41100002 21165.54340569  1308.03064445
0.41200002 21210.24354860  1708.16704512
0.41300002 21259.87767904  1320.23846643
0.41400002 21312.42134904  1459.36812102
0.41500002 21368.51863635  2000.09343913
0.41600002 21427.31433279  1608.33429003
0.41700002 21490.63044384  1886.44762975
0.41800002 21557.36239196  1761.34437769
0.41900002 21625.33873093  1498.63604507
0.42000002 21696.82204034  2055.23156516
0.42100002 21771.82073326  2067.23447658
0.42200002 21849.13960888  2079.49196081
0.42300002 21928.53144554  2091.98199903
0.42400002 22010.35228047  1543.47602681
0.42500002 22094.86047800  1976.60631202
0.42600002 22180.27411134  2130.96993623
0.42700002 22269.13375380  1429.67845474
0.42800002 22358.96537339  1726.55938795
0.42900002 22451.63632095  1448.13061132
0.43000002 22545.60052770  2332.11702910
0.43100002 22639.70165021  1613.75801010
0.43200002 22736.50249006  1624.40949738
0.43300002 22833.88228628  2229.72871092
0.43400002 22932.90492117  1496.37211702
0.43500002 23032.48330355  1807.58937532
0.43600002 23133.57526508  1668.04652354
0.43700002 23235.03803723  2289.81310708
0.43800002 23336.49755398  1690.37928043
0.43900002 23439.71666457  2011.12778513
0.44000002 23542.68595227  1557.34874955
0.44100002 23646.37493992  2038.08115266
0.44200002 23750.13651863  1893.83597574
0.44300002 23854.28879431  2224.17399259
0.44400002 23958.01464479  1919.03706399
0.44500002 24061.35890743  1931.64598463
0.44600002 24164.48944577  1944.27491295
0.44700002 24268.13103831  1793.90033137
0.44800002 24370.54116530  1969.62723032
0.44900002 24472.91555188  1817.11406584
0.45000002 24575.06102540  1828.75325287
0.45100002 24675.36990719  2007.58819079
0.45200002 24775.59210892  2020.20187630
0.45300002 24874.58929316  1863.35557226
0.45400002 24972.68964016  2045.26337846
0.45500002 25070.10552414  2229.23388886
0.45600002 25165.81741698  2415.16361197
0.45700002 25260.63829037  1908.94652608
0.45800002 25353.69175108  2269.28228773
0.45900002 25445.49885559  2809.18320680
0.46000002 25536.30342245  1765.83546535
0.46100002 25624.59428834  2486.09825568
0.46200002 25711.85993897  2142.82650887
0.46300002 25797.20676179  2154.58281086
0.46400002 25880.32292642  2527.21365354
0.46500002 25962.66543498  1814.79039992
0.46600002 26042.00052176  2189.09066761
0.46700002 26119.53176725  3117.10506884
0.46800002 26195.56974807  2580.00178677
0.46900002 26268.71543779  1851.94452614
0.47000002 26339.93301783  2047.00799150
0.47100002 26409.09627870  2804.64615773
0.47200002 26476.03673983  2254.16987487
0.47300002 26540.51207886  2453.13964772
0.47400002 26602.06784304  2084.93716602
0.47500002 26661.56995531  2284.36342204
0.47600002 26719.23467940  3441.17039746
0.47700002 26773.30162714  2111.61039942
