# SAXS profile: number of points = 501, q_min = 0, q_max = 0.5, delta_q = 0.001
#    q    intensity    error
0.00000000 1646666.22097350 419.89988635
0.00100000 1646585.16392251 642.16822918
0.00200000 1646341.90690112 814.93926972
0.00300000 1645936.70940795 1086.31826691
0.00400000 1645369.41767682 1851.04066522
0.00500000 1644640.53063576 1628.19418978
0.00600000 1643749.96187629 2071.12503628
0.00700000 1642698.29960622 2759.73325803
0.00800000 1641485.33301175 3102.40741038
0.00900000 1640112.24611008 2952.20216920
0.01000000 1638578.55548527 3244.38567995
0.01100000 1636885.39035361 3830.31198020
0.01200000 1635032.73394199 4463.63955936
0.01300000 1633021.76981396 4115.21504143
0.01400000 1630852.49805110 3669.41828328
0.01500000 1628526.25255745 4299.30949820
0.01600000 1626042.51659464 5804.97204375
0.01700000 1623403.59033504 5698.14685769
0.01800000 1620609.34382662 4618.73683774
0.01900000 1617660.38652054 6308.87579210
0.02000000 1614558.01003477 7120.20114634
0.02100000 1611304.18605836 6912.49527159
0.02200000 1607897.41304862 7211.42022515
0.02300000 1604340.98033874 5775.62779212
0.02400000 1600634.36507851 7202.85497129
0.02500000 1596779.99366994 8095.67493764
0.02600000 1592778.13590982 7095.82692003
0.02700000 1588630.80858613 8006.69964199
0.02800000 1584337.69635881 8959.43008378
0.02900000 1579901.50650770 12086.24707971
0.03000000 1575323.46337155 8790.30532966
0.03100000 1570603.90210903 11308.34861552
0.03200000 1565744.45496240 11625.65311355
0.03300000 1560748.57724157 11143.74535524
0.03400000 1555614.93125422 14700.56177864
0.03500000 1550346.13195177 9209.05644905
0.03600000 1544943.81966684 12861.65789311
0.03700000 1539409.63362989 9652.09884925
0.03800000 1533745.08880994 11664.13194021
0.03900000 1527952.35675411 10084.48602159
0.04000000 1522031.07454170 11232.58985062
0.04100000 1515985.57946745 12415.92247152
0.04200000 1509816.25844420 10712.14685063
0.04300000 1503524.22345249 10915.58636894
0.04400000 1497112.88669335 13137.16619085
0.04500000 1490583.94151478 15427.54451152
0.04600000 1483937.15779669 12554.10893856
0.04700000 1477176.46838841 13826.37238715
0.04800000 1470302.91076820 12968.07227636
0.04900000 1463319.68741325 16462.34724968
0.05000000 1456226.61138397 14482.17432459
0.05100000 1449028.25261681 13562.90507631
0.05200000 1441723.05810849 12607.86873070
0.05300000 1434316.72544772 13941.55922128
0.05400000 1426809.20615955 15302.52944968
0.05500000 1419203.51860342 15497.70314611
0.05600000 1411500.05862416 13275.15867083
0.05700000 1403704.36012918 12212.22850317
0.05800000 1395815.44448253 13588.26398651
0.05900000 1387835.44095901 16237.67541761
0.06000000 1379768.65684732 12624.88379997
0.06100000 1371615.97123955 12756.02912863
0.06200000 1363379.82978592 12883.93999372
0.06300000 1355063.39725506 13008.60922187
0.06400000 1346665.28484375 13129.98714127
0.06500000 1338191.28214435 13248.09431295
0.06600000 1329643.31496778 14699.20753472
0.06700000 1321021.64874272 18864.19002687
0.06800000 1312330.66591891 14940.88533086
0.06900000 1303572.12836717 15056.25878756
0.07000000 1294747.18465259 17925.77561095
0.07100000 1285858.65214035 15276.00150292
0.07200000 1276909.14006918 15380.37131265
0.07300000 1267901.13933662 15481.07363667
0.07400000 1258837.35120394 21242.88129710
0.07500000 1249718.41324888 22794.86492611
0.07600000 1240546.58152310 20059.63916364
0.07700000 1231326.60474081 15847.17414606
0.07800000 1222058.57470236 21722.09218402
0.07900000 1212744.99843510 17463.52879657
0.08000000 1203389.56414137 20469.65744630
0.08100000 1193993.24340880 20560.56461616
0.08200000 1184557.92946825 14747.74691392
0.08300000 1175087.27627167 22209.15056385
0.08400000 1165582.47411403 14861.17724252
0.08500000 1156046.36157181 22369.49814655
0.08600000 1146480.16781794 19450.03696024
0.08700000 1136888.26538898 15006.92580783
0.08800000 1127270.10697431 19563.77362533
0.08900000 1117630.83880568 24140.82725209
0.09000000 1107969.89722626 16636.16878834
0.09100000 1098290.81093237 16672.05529323
0.09200000 1088595.37060275 19741.67797348
0.09300000 1078888.11603773 15212.32315099
0.09400000 1069166.09239750 16759.17928597
0.09500000 1059435.16664680 25934.97409853
0.09600000 1049696.01829556 15273.07778415
0.09700000 1039953.70424930 21402.24823963
0.09800000 1030207.21034269 16828.43557218
0.09900000 1020460.04330594 21429.66191710
0.10000000 1010712.57331360 22968.44430869
0.10100000 1000967.31719164 18377.76080798
0.10200000 991227.47063804 19908.80468420
0.10300000 981493.54582541 19904.69004567
0.10400000 971769.35533157 16835.90487317
0.10500000 962057.06772055 15296.70809646
0.10600001 952354.10277150 18342.34088245
0.10700001 942667.51089409 16798.33583462
0.10800001 932996.65129692 16779.94556327
0.10900001 923344.91104689 19805.74927413
0.11000001 913711.91790519 18255.96497905
0.11100001 904100.62581303 19745.55859725
0.11200001 894513.08106709 15161.99743787
0.11300001 884950.46402794 19672.44974154
0.11400001 875415.25530437 15100.91386502
0.11500001 865908.85363746 15066.81476276
0.11600001 856432.49921494 19539.50838973
0.11700001 846988.73876099 17990.04165852
0.11800001 837577.14693617 14950.75277697
0.11900001 828200.31613743 16398.36703191
0.12000001 818859.39897412 20807.21830805
0.12100001 809558.66634389 17777.90915040
0.12200001 800296.43185096 16242.01684960
0.12300001 791075.82683279 23542.41771573
0.12400001 781896.62337838 17592.67485494
0.12500001 772760.81354007 21907.77009617
0.12600001 763671.81685093 20367.12831518
0.12700001 754628.17314979 17386.63392874
0.12800001 745631.99786522 21641.96975801
0.12900001 736685.63163617 22984.59279036
0.13000001 727789.47702704 21451.59584649
0.13100001 718943.94039496 15658.59975991
0.13200001 710151.14142744 15584.26753327
0.13300001 701412.31933681 15508.22711164
0.13400001 692727.96235233 19638.83865857
0.13500001 684099.68232735 16746.76101295
0.13600001 675528.20219514 13882.10520966
0.13700001 667015.24710459 17949.38114596
0.13800001 658559.40684769 15104.06070829
0.13900001 650164.29963525 17749.48621708
0.14000001 641829.20755597 14932.15721800
0.14100001 633556.77748968 14844.23599668
0.14200001 625346.16790533 14755.04352765
0.14300001 617199.20436215 15997.80413165
0.14400001 609113.78172671 14573.04791522
0.14500001 601095.35226712 14480.38771919
0.14600001 593141.90570800 17002.41352920
0.14700001 585255.34146013 14291.93611270
0.14800001 577432.72494847 16777.30861491
0.14900001 569679.24048583 14099.56186725
0.15000001 561992.70566385 14002.04892227
0.15100001 554374.53050685 15167.68787035
0.15200001 546826.28785584 15059.59667817
0.15300001 539347.27399056 14950.70714053
0.15400001 531936.26952813 13604.27073518
0.15500001 524597.12028717 17185.80247166
0.15600001 517327.09477123 14619.66438821
0.15700001 510130.42067099 16926.12815672
0.15800001 503002.23802692 16795.24552043
0.15900001 495947.67692127 16663.84273110
0.16000001 488962.28882521 16531.81576552
0.16100001 482051.57897991 15228.01009880
0.16200001 475212.43081535 13942.73337830
0.16300001 468445.44499383 14980.88603812
0.16400001 461751.32858031 13714.01510627
0.16500001 455129.20773520 11332.71780764
0.16600001 448580.41605438 11236.93995269
0.16700001 442103.84196970 15597.42428112
0.16800001 435700.75795703 14358.51915643
0.16900001 429371.25514762 15328.55453255
0.17000001 423113.19497397 11938.13935991
0.17100001 416928.66529062 13983.78809418
0.17200001 410817.19443448 15991.06004851
0.17300001 404777.77627708 11621.17050572
0.17400001 398812.36389593 12562.59005600
0.17500001 392918.02403573 11410.33995688
0.17600001 387094.99072066 11305.10973793
0.17700001 381346.94690550 12218.35675593
0.17800001 375669.09180627 11095.38715056
0.17900001 370062.87397787 14987.54710402
0.18000001 364529.30693308 11876.36538086
0.18100001 359067.04118067 10782.78375600
0.18200001 353674.12370321 10679.19066968
0.18300001 348352.31527937 9614.52435589
0.18400001 343101.08156100 10473.16100941
0.18500001 337920.05611799 14141.95501663
0.18600001 332808.92768346 10268.81994881
0.18700001 327766.44421115 9243.01416344
0.18800001 322791.56587506 10066.25545741
0.18900001 317888.46009730 9965.80369491
0.19000001 313048.91744861 8968.85190867
0.19100001 308280.17397640 10654.16331603
0.19200001 303576.83442285 15819.38958926
0.19300001 298941.74318823 10439.04616541
0.19400001 294371.25401391 12054.50342149
0.19500001 289866.97350799 11078.71625100
0.19600001 285427.16958761 13494.99721583
0.19700001 281053.57576329 10851.47907304
0.19800001 276742.66043835 10738.99944582
0.19900001 272496.03244778 8992.36949576
0.20000001 268310.47964288 8089.56134355
0.20100001 264189.41655611 12007.40954997
0.20200001 260128.46683053 10297.18584617
0.20300001 256129.49314858 8621.31914686
0.20400001 252191.78127696 9305.87716897
0.20500001 248312.74757544 11509.29639413
0.20600001 244493.05121777 7591.50959915
0.20700001 240732.58998264 9013.02859499
0.20800001 237029.45129035 8917.04837905
0.20900001 233386.34721608 8086.83731331
0.21000001 229797.11617944 10182.31069925
0.21100001 226265.34156483 10073.33348267
0.21200001 222788.13757696 10677.12199813
0.21300001 219365.82411378 7041.64328695
0.21400001 215998.12369453 8359.12778217
0.21500001 212684.67804599 6890.98389448
0.21600001 209422.47115836 9543.38246188
0.21700001 206213.28841755 7417.49233508
0.21800001 203055.43115314 8004.44547451
0.21900001 199947.85943185 8577.76357520
0.22000001 196889.81587106 7179.58747521
0.22100001 193882.55961305 6456.28954039
0.22200001 190923.66419187 10218.23499071
0.22300001 188012.14747202 9475.81268066
0.22400001 185147.71817654 7498.48294073
0.22500001 182331.74392990 9889.67425841
0.22600001 179560.00611028 8559.62589605
0.22700001 176834.45180320 8466.83395273
0.22800001 174153.03178326 8375.01969451
0.22900001 171515.10001933 6508.99835355
0.23000001 168920.76178330 8779.65700889
0.23100001 166370.36403993 6368.65783664
0.23200001 163859.79388173 6299.59007371
0.23300001 161391.85038681 8497.28132474
0.23400001 158963.60224107 6163.81396842
0.23500001 156574.87137105 8314.12606303
0.23600001 154225.69724552 6030.99617603
0.23700001 151915.71919699 7050.40886140
0.23800001 149642.88017263 5364.69750793
0.23900001 147407.69075286 5306.67711811
0.24000001 145208.49691658 7349.00237656
0.24100001 143046.45742426 8308.13864019
0.24200001 140919.83380901 6163.83382237
0.24300001 138827.15939004 5081.07427402
0.24400001 136768.99228078 6031.51284489
0.24500001 134743.72995888 5469.24825775
0.24600001 132751.82255157 6885.83736149
0.24700001 130792.52720851 6811.67513925
0.24800001 128864.80026670 5775.72062118
0.24900001 126967.24445844 6665.78064941
0.25000001 125101.38995101 5181.07430993
0.25100001 123264.60233500 5591.28262643
0.25200001 121459.16958109 6453.12598514
0.25300001 119681.30597744 6383.80116286
0.25400001 117932.62335989 5413.10766832
0.25500001 116210.15420619 5801.21117244
0.25600001 114516.25277304 4856.06192859
0.25700001 112848.27992418 6987.56582351
0.25800001 111206.80065505 5184.46129184
0.25900001 109591.72358965 5983.70839111
0.26000001 108001.37536091 5496.73025907
0.26100001 106435.03106059 5019.47630232
0.26200001 104894.58499452 4138.09157384
0.26300001 103376.22956987 5731.17843854
0.26400001 101882.47512476 4454.81143562
0.26500001 100411.36419928 4807.69634536
0.26600001 98962.34059223  3963.44192827
0.26700001 97535.59132655  5881.39643530
0.26800001 96130.71703547  5042.53700071
0.26900001 94746.45794285  4220.95490110
0.27000001 93383.42507787  6832.86553629
0.27100001 92040.42971285  3755.24970999
0.27200001 90718.21010132  4457.89305534
0.27300001 89415.22854438  4409.95928051
0.27400001 88130.32401597  5089.52645278
0.27500001 86866.29053671  3955.89105826
0.27600001 85618.46647855  3557.44745054
0.27700001 84390.77252327  4574.82399500
0.27800001 83179.77032318  3481.07355277
0.27900001 81986.82117185  4132.13598263
0.28000001 80810.54665382  5109.24705400
0.28100001 79651.46092049  4716.95973896
0.28200001 78509.32461338  3665.99308633
0.28300001 77383.09624982  3296.52005627
0.28400001 76272.35073261  3586.70746296
0.28500001 75177.97095875  5160.21617085
0.28600001 74098.67639171  3189.94816965
0.28700001 73035.30384056  3470.63780278
0.28800001 71985.36235579  4056.73528758
0.28900001 70951.53842726  3395.03127444
0.29000001 69931.63163025  3968.27062469
0.29100001 68926.36558771  3018.97495564
0.29200001 67934.69990876  3284.30322255
0.29300001 66957.06189125  3838.64853993
0.29400001 65992.21954687  3212.17143850
0.29500001 65042.14445712  3465.44562072
0.29600001 64103.73735681  4283.73245165
0.29700001 63179.05449337  3388.92464345
0.29800001 62267.29280054  3630.49467860
0.29900001 61368.38447997  3590.05066203
0.30000001 60481.15086867  3276.86890919
0.30100001 59607.02136587  4320.31711312
0.30200001 58744.10737222  3737.88772905
0.30300001 57893.99915925  2903.96313531
0.30400001 57055.44102100  3132.34386034
0.30500001 56229.12638274  2839.00872547
0.30600001 55413.07437345  5358.72161098
0.30700001 54609.47953438  3027.54968872
0.30800001 53816.73121227  2494.40560978
0.30900001 53035.46639764  2959.37916510
0.31000001 52265.20683674  2681.98921581
0.31100001 51505.54560846  4097.78140262
0.31200001 50757.65369181  3336.30073512
0.31300001 50019.61308338  2591.51627655
0.31400001 49293.69058516  2794.95238851
0.31500001 48576.96147088  2532.80289101
0.31600002 47871.90807443  2503.94027039
0.31700002 47176.48594784  2700.38218351
0.31800002 46491.22862874  2669.52647426
0.31900002 45816.92333381  2858.97615140
0.32000002 45152.91848606  2391.52444085
0.32100002 44498.68560789  2364.21527829
0.32200002 43855.29752497  3612.14175168
0.32300002 43220.29974665  2100.50666715
0.32400002 42596.51227293  2284.23807880
0.32500002 41982.29316595  3284.69477284
0.32600002 41378.13928186  2435.51739346
0.32700002 40783.67354489  2809.17956679
0.32800002 40199.87401469  2777.40942719
0.32900002 39623.82750288  2942.06933141
0.33000002 39058.89721491  3102.83894168
0.33100002 38502.36318153  2300.90133269
0.33200002 37956.90635374  2275.13707458
0.33300002 37420.28322996  1874.75627860
0.33400002 36893.72278614  1853.90965780
0.33500002 36376.08561757  2200.02576234
0.33600002 35867.43572624  3082.26823510
0.33700002 35368.31830804  1972.49120545
0.33800002 34879.35987066  1773.61553342
0.33900002 34398.77868226  2105.20535505
0.34000002 33927.56483869  2082.47402842
0.34100002 33465.68994794  2575.18496345
0.34200002 33013.75202405  2038.26914649
0.34300002 32570.29760900  2184.81566708
0.34400002 32136.53644634  2161.98559182
0.34500002 31711.47623263  1974.99083330
0.34600002 31295.96370125  1791.85048658
0.34700002 30888.38935490  1773.61140076
0.34800002 30490.69148713  1915.42532994
0.34900002 30101.64672217  1580.33652776
0.35000002 29721.67573619  2034.30019211
0.35100002 29351.30033523  1549.74873110
0.35200002 28988.06124823  1688.40970737
0.35300002 28635.14846511  1672.57910107
0.35400002 28290.35300612  2410.33819028
0.35500002 27954.61456052  1642.05413706
0.35600002 27626.91967139  2071.19026586
0.35700002 27308.00007153  1759.72760796
0.35800002 26997.99532206  1744.61054035
0.35900002 26697.00931335  1585.80242833
0.36000002 26404.09456548  2144.67268267
0.36100002 26119.15478654  2127.40525813
0.36200002 25844.09602084  1688.65331399
0.36300002 25575.96661713  1396.44784344
0.36400002 25316.85789437  1524.70783891
0.36500002 25065.08006659  1651.28755300
0.36600002 24822.42566238  1913.06443642
0.36700002 24587.35051822  2035.83271934
0.36800002 24361.25971011  1348.39578883
0.36900002 24142.84028472  1339.92769927
0.37000002 23931.84283597  1598.16854029
0.37100002 23728.70101387  1588.87389515
0.37200002 23534.08081506  1448.40507237
0.37300002 23346.83622262  1702.68484637
0.37400002 23167.24902264  1694.10516503
0.37500002 22995.53069474  1815.72718967
0.37600002 22831.49765902  1549.34550454
0.37700002 22674.56852502  1414.21290590
0.37800002 22525.30337076  1792.78898021
0.37900002 22383.98071451  1403.47565729
0.38000002 22249.20711257  1780.15914541
0.38100002 22120.94848113  1774.54257122
0.38200002 22001.02471750  1769.54250186
0.38300002 21887.26237746  1386.77700993
0.38400002 21780.88745049  1383.63094084
0.38500002 21680.80081653  1255.31842675
0.38600002 21588.41112034  1629.16952238
0.38700002 21501.70855069  1877.09924540
0.38800002 21421.73121125  1374.95388293
0.38900002 21348.16474652  1498.64123620
0.39000002 21281.60558012  1622.61609433
0.39100002 21220.52216637  1497.32011500
0.39200002 21166.07622061  1247.74025232
0.39300002 21117.34539039  2246.46330906
0.39400002 21075.58680742  1498.47429300
0.39500002 21038.62546698  1249.69441195
0.39600002 21007.66854911  1501.20806564
0.39700002 20981.67386226  1503.12718671
0.39800002 20962.41594685  2132.82111156
0.39900002 20947.60213618  1633.91304403
0.40000002 20938.54565979  1889.18037166
0.40100002 20934.29796722  1767.27351812
0.40200002 20935.67577510  1392.11782662
0.40300002 20941.65429180  1395.97074123
0.40400002 20952.55266145  1909.30145174
0.40500002 20967.82614922  1276.94067299
0.40600002 20988.63252615  1537.62729172
0.40700002 21013.35376637  1286.01731143
0.40800002 21042.26955206  1936.41494728
0.40900002 21075.14477576  1684.95790466
0.41000002 21112.99822969  1301.61640253
0.41100002 21154.40832258  1568.81099554
0.41200002 21199.07733462  1444.61119342
0.41300002 21248.71454124  1451.49975909
0.41400002 21301.26219949  1326.00363475
0.41500002 21357.35566351  1865.77867917
0.41600002 21416.07755051  1339.57571426
0.41700002 21479.44058703  1616.11318635
0.41800002 21546.13047987  1625.00923779
0.41900002 21614.15120062  1634.02990819
0.42000002 21685.66933369  1643.34009998
0.42100002 21760.64944639  1377.44917523
0.42200002 21838.04316023  1662.74868501
0.42300002 21917.46467227  1672.74098305
0.42400002 21999.34208817  1682.94974949
0.42500002 22083.91998640  1411.16255400
0.42600002 22169.38308925  1703.93886498
0.42700002 22258.25717513  1571.87819619
0.42800002 22348.16487695  1581.91492578
0.42900002 22440.90429012  1592.18223483
0.43000002 22534.93617733  1602.57206219
0.43100002 22629.09925288  2346.18512172
0.43200002 22726.00270193  2361.68631270
0.43300002 22823.48252518  1782.97053936
0.43400002 22922.58988503  1944.40877914
0.43500002 23022.23671499  1957.35065826
0.43600002 23123.47516358  2273.61580320
0.43700002 23225.01396146  2441.41358332
0.43800002 23326.58857426  1843.26711649
0.43900002 23429.96871261  2938.11821580
0.44000002 23533.06426876  1556.71227515
0.44100002 23636.86390362  2037.26139640
0.44200002 23740.76986957  1893.08907911
0.44300002 23845.05018640  1746.88845944
0.44400002 23948.93928372  2397.88765942
0.44500002 24052.44596671  1770.01958257
0.44600002 24155.69930380  1781.60368658
0.44700002 24259.53705353  1956.28916071
0.44800002 24362.06659489  1804.86378922
0.44900002 24464.57525065  2311.90247075
0.45000002 24566.90689752  1994.34159646
0.45100002 24667.42062296  2006.94143700
0.45200002 24767.77654608  1851.26754567
0.45300002 24866.98481152  2032.13009511
0.45400002 24965.28059909  2726.20877062
0.45500002 25062.83509518  1714.29800176
0.45600002 25158.74018789  2414.48441026
0.45700002 25253.78232572  2428.90889920
0.45800002 25347.04216729  2617.71590389
0.45900002 25439.04828451  1930.82385630
0.46000002 25529.98920140  2824.63813912
0.46100002 25618.47800819  2130.43273213
0.46200002 25705.99004594  2142.33731196
0.46300002 25791.54863183  2333.61943081
0.46400002 25874.89831291  1985.25166715
0.46500002 25957.45349802  2540.19651971
0.46600002 26036.98754055  2188.66927639
0.46700002 26114.71742321  2016.57857500
0.46800002 26190.96292497  2026.78776201
0.46900002 26264.36625842  2036.80169988
0.47000002 26335.79740417  2046.68659227
0.47100002 26405.16484649  1869.48575974
0.47200002 26472.33987546  2629.49764446
0.47300002 26537.05158775  2264.14134878
0.47400002 26598.80847460  3411.29734855
0.47500002 26658.57279016  2284.10662492
0.47600002 26716.49058928  1911.56499227
0.47700002 26770.76036462  1919.46360912
