# SAXS profile: number of points = 501, q_min = 0, q_max = 0.5, delta_q = 0.001
#    q    intensity    error
0.00000000 1664650.74656090 299.63713438
0.00100000 1664569.17782035 549.30784173
0.00200000 1664324.39715942 898.73520292
0.00300000 1663916.64360105 1098.18502390
0.00400000 1663345.77971623 1621.76219685
0.00500000 1662612.30724998 2094.89159005
0.00600000 1661716.13835222 1919.28221793
0.00700000 1660657.84567129 2789.90529668
0.00800000 1659437.24213675 3136.33652005
0.00900000 1658055.52801883 3233.20841785
0.01000000 1656512.15668620 3553.21872952
0.01100000 1654808.30386967 3574.38609198
0.01200000 1652943.97211043 4512.53724171
0.01300000 1650920.30151872 5547.09245776
0.01400000 1648737.35901543 5935.45475558
0.01500000 1646396.39972345 4346.48668881
0.01600000 1643896.96789219 5030.32494662
0.01700000 1641241.33129487 5317.62215194
0.01800000 1638429.39076239 5603.42876855
0.01900000 1635461.77135359 5397.02408899
0.02000000 1632339.67633664 6170.24425567
0.02100000 1629065.21936848 6451.09856118
0.02200000 1625636.85933064 6730.13690339
0.02300000 1622057.74391873 7007.28977269
0.02400000 1618327.53312864 7282.47423114
0.02500000 1614448.69860073 6925.98523331
0.02600000 1610421.30458861 9783.30987285
0.02700000 1606247.41133833 9444.73521125
0.02800000 1601926.84521658 9058.89672514
0.02900000 1597462.31332447 11501.72918403
0.03000000 1592854.90851767 9628.80836458
0.03100000 1588105.05256195 9147.48552366
0.03200000 1583214.45711867 11755.36788554
0.03300000 1578186.46476321 8853.62647548
0.03400000 1573019.60853682 8258.35332586
0.03500000 1567716.86537384 10158.80575674
0.03600000 1562279.57486753 8670.65204122
0.03700000 1556709.65516691 10647.89453378
0.03800000 1551008.38791669 9980.73943815
0.03900000 1545177.94427581 13906.60214250
0.04000000 1539218.16514184 9466.19215428
0.04100000 1533133.20010925 11590.48753024
0.04200000 1526923.76426219 9848.65873640
0.04300000 1520590.51531120 10035.89786690
0.04400000 1514137.20438332 11242.46926467
0.04500000 1507565.44686620 12482.64248006
0.04600000 1500874.92102517 11639.28555362
0.04700000 1494069.64879902 15060.22276031
0.04800000 1487150.68947865 14209.72549912
0.04900000 1480121.24308088 16651.36475974
0.05000000 1472981.21979301 13521.96822737
0.05100000 1465734.98304987 17149.10010056
0.05200000 1458381.07410546 13912.95609533
0.05300000 1450925.43620443 15278.24555547
0.05400000 1443367.64736460 16670.89710449
0.05500000 1435710.90590152 18089.95825824
0.05600000 1427955.83265218 15871.72982057
0.05700000 1420107.51124314 19767.89747924
0.05800000 1412165.15141979 17496.72704306
0.05900000 1404131.13808791 22746.92549944
0.06000000 1396009.56312000 17882.88333903
0.06100000 1387801.45452662 16778.52036931
0.06200000 1379509.19917473 14339.99879572
0.06300000 1371135.65211187 21060.64460114
0.06400000 1362679.86149457 14614.74219801
0.06500000 1354147.78292146 13406.06367803
0.06600000 1345540.64827740 14874.95256268
0.06700000 1336859.52903344 13635.96783429
0.06800000 1328108.15530788 16495.10406104
0.06900000 1319288.66292909 22164.05057491
0.07000000 1310402.14873532 18142.51859883
0.07100000 1301451.27367537 18272.37673824
0.07200000 1292438.87135972 18397.86819569
0.07300000 1283367.40179537 17094.45459289
0.07400000 1274239.56512476 14335.19577946
0.07500000 1265055.97578339 21632.45819986
0.07600000 1255818.72094926 15955.17759765
0.07700000 1246532.86280737 17501.32221443
0.07800000 1237198.72005899 16126.88607226
0.07900000 1227818.14172095 22100.72758758
0.08000000 1218395.20309244 20724.90337683
0.08100000 1208930.76609216 16356.83403266
0.08200000 1199427.10951251 20906.01549982
0.08300000 1189887.17106267 16491.83696492
0.08400000 1180312.96677755 16553.89013607
0.08500000 1170706.66890409 18122.54008540
0.08600000 1161070.21469556 19697.55711714
0.08700000 1151407.23626089 18238.29147880
0.08800000 1141717.71264452 21338.70505147
0.08900000 1132006.44222705 16810.29645665
0.09000000 1122273.46790480 16850.93691217
0.09100000 1112521.52515571 16888.07754529
0.09200000 1102753.03270082 16921.74608189
0.09300000 1092972.21185193 16951.99980243
0.09400000 1083176.19246612 23152.89220209
0.09500000 1073370.91677357 18547.85031365
0.09600000 1063557.22592055 20117.18587395
0.09700000 1053739.89794382 20136.97039640
0.09800000 1043918.08030909 20152.83948791
0.09900000 1034095.21559210 17062.57185959
0.10000000 1024271.68237477 18621.26006128
0.10100000 1014449.97637122 21729.51951585
0.10200000 1004633.44990388 17073.74628420
0.10300000 994822.75676130 20175.00645617
0.10400000 985021.25593688 23271.12826630
0.10500000 975231.46182821 15506.18097262
0.10600001 965450.61862846 20144.12810554
0.10700001 955686.27829251 23223.17765534
0.10800001 945937.00044793 27838.92723333
0.10900001 936206.72136808 20081.63511850
0.11000001 926495.39469053 16968.76395247
0.11100001 916805.22808395 20023.02712390
0.11200001 907138.61809788 19988.80039080
0.11300001 897496.67894236 26090.22968520
0.11400001 887882.06043756 18379.15951643
0.11500001 878296.18031655 16810.58968284
0.11600001 868740.02415419 19820.30458445
0.11700001 859216.63495230 21291.38921683
0.11800001 849724.86870480 18201.10754490
0.11900001 840267.74569232 18149.78416184
0.12000001 830846.71879288 22619.80298464
0.12100001 821465.80140669 19542.67233608
0.12200001 812123.28552323 20977.14545333
0.12300001 802822.17561355 25385.23838891
0.12400001 793562.36230914 16367.22449381
0.12500001 784345.91404861 17788.96616885
0.12600001 775176.23037848 20673.95103842
0.12700001 766051.99735463 17649.83885082
0.12800001 756975.19053437 16112.21768988
0.12900001 747948.00458512 14584.98677683
0.13000001 738971.15748347 14520.78392899
0.13100001 730044.79063298 17345.86504308
0.13200001 721171.43912673 15826.10797768
0.13300001 712352.10228402 18613.76131019
0.13400001 703586.93650150 19946.69059022
0.13500001 694878.12699065 18428.16879665
0.13600001 686226.14219577 18332.53225315
0.13700001 677632.53950476 14026.99422917
0.13800001 669096.17612017 16740.78711595
0.13900001 660621.09932634 15260.34811409
0.14000001 652205.59061330 16552.97867041
0.14100001 643853.14810791 15085.47997164
0.14200001 635562.42383305 13632.81463421
0.14300001 627335.74516959 17615.58855525
0.14400001 619170.40084923 14813.65253908
0.14500001 611072.45442860 17397.23359825
0.14600001 603039.21650587 17286.11995660
0.14700001 595073.44570493 13210.63111788
0.14800001 587171.86248406 14435.62092022
0.14900001 579339.21048475 14338.64613601
0.15000001 571573.81831501 19419.22139351
0.15100001 563877.04112112 15427.67657303
0.15200001 556250.40387961 16595.73158285
0.15300001 548693.31432288 19012.22423846
0.15400001 541204.24046876 17616.19885858
0.15500001 533787.37298417 13739.68762903
0.15600001 526439.59585015 14877.18368085
0.15700001 519165.57673757 14765.06969928
0.15800001 511960.16643403 13431.27560034
0.15900001 504828.66265752 12115.88847566
0.16000001 497766.96703165 13223.18010336
0.16100001 490779.72074389 15503.73211014
0.16200001 483864.52023182 13013.53688595
0.16300001 477021.73885626 14081.68239580
0.16400001 470252.14826595 12802.61534095
0.16500001 463554.74442264 17313.77052159
0.16600001 456931.38100301 16024.58428834
0.16700001 450379.91927421 11349.57450158
0.16800001 443902.25523808 15754.09178225
0.16900001 437498.87142964 11156.22174823
0.17000001 431167.21796118 12165.38362922
0.17100001 424909.38495087 12058.92891434
0.17200001 418724.64379547 11952.49552157
0.17300001 412612.87036367 16153.79463759
0.17400001 406574.85583199 13874.36761050
0.17500001 400608.70913618 12691.28450481
0.17600001 394713.99156575 10479.65697102
0.17700001 388894.75415949 11421.83946912
0.17800001 383146.01349403 14402.45932750
0.17900001 377469.02274997 16306.66255302
0.18000001 371865.41498326 13124.99044179
0.18100001 366333.43490129 13001.17421878
0.18200001 360871.09018282 11887.09427214
0.18300001 355480.37579405 10792.38471893
0.18400001 350160.47316395 11660.34430720
0.18500001 344911.14798262 14434.53222499
0.18600001 339732.27877514 12388.33813080
0.18700001 334622.19951599 11323.61576660
0.18800001 329580.30675875 11212.32256567
0.18900001 324610.59589530 12026.82314616
0.19000001 319704.98360631 13739.32231965
0.19100001 314870.37969158 10881.92083631
0.19200001 310101.61257038 10772.93052973
0.19300001 305401.83153109 9775.91308925
0.19400001 300766.82685301 11436.65913151
0.19500001 296198.67994985 12191.53824285
0.19600001 291695.00942074 9481.54672928
0.19700001 287258.21535683 11091.04021906
0.19800001 282884.68786156 11821.75166442
0.19900001 278575.68477907 9192.99803217
0.20000001 274328.31502516 12406.49863336
0.20100001 270145.83650921 13096.67077295
0.20200001 266024.04886026 8100.43267065
0.20300001 261964.56144978 8016.11595924
0.20400001 257966.61441845 11898.71065245
0.20500001 254028.04211940 12559.14699601
0.20600001 250149.32886694 10097.27813699
0.20700001 246330.08502584 11528.24852414
0.20800001 242568.83877404 9125.44014604
0.20900001 238867.83814516 10534.07216016
0.21000001 235221.25605961 10422.65434870
0.21100001 231632.66496923 7365.91909423
0.21200001 228099.13825569 9474.09815533
0.21300001 224620.89410779 7210.33104173
0.21400001 221197.64324020 9273.71163127
0.21500001 217829.37885740 8469.20665038
0.21600001 214512.66724585 12568.29776815
0.21700001 211249.38358910 8289.42620396
0.21800001 208038.10236326 11617.88837578
0.21900001 204877.25971052 10817.51982418
0.22000001 201766.54911888 8695.12984541
0.22100001 198707.09092050 8602.03037268
0.22200001 195696.49586711 8509.86252517
0.22300001 192733.81928655 9066.19928794
0.22400001 189818.43552237 7047.00975200
0.22500001 186952.27242552 8872.75526888
0.22600001 184130.69715136 7523.58064138
0.22700001 181355.75684940 8063.07733082
0.22800001 178625.39625414 7362.93918179
0.22900001 175939.00599094 6676.88559311
0.23000001 173296.80378916 9007.10180290
0.23100001 170698.70745630 7722.40989054
0.23200001 168141.21534560 7639.49648053
0.23300001 165626.61319594 6394.84383794
0.23400001 163152.09144328 8051.55609353
0.23500001 160717.73561437 7396.23054279
0.23600001 158323.42125966 6191.23768119
0.23700001 155968.55495001 6124.88544258
0.23800001 153651.36569399 7711.76240894
0.23900001 151372.37395837 8719.04915241
0.24000001 149129.63155124 7547.45100981
0.24100001 146924.71516207 5866.70415392
0.24200001 144755.49978180 5803.97203829
0.24300001 142620.78855411 6263.90532960
0.24400001 140520.89003841 6196.97154383
0.24500001 138454.36781464 5108.96641404
0.24600001 136421.60462375 5054.42069041
0.24700001 134422.07656486 7000.70207867
0.24800001 132454.46253220 5936.60929153
0.24900001 130517.23974855 4894.39672211
0.25000001 128612.36758139 5810.70704222
0.25100001 126737.12916382 6227.86282174
0.25200001 124893.35847902 4739.70317851
0.25300001 123077.58449776 5627.10742946
0.25400001 121291.51293452 6031.22076601
0.25500001 119531.95119171 5508.03257151
0.25600001 117801.55674554 6357.75031836
0.25700001 116097.50672826 4942.27109526
0.25800001 114420.15811197 5778.79035886
0.25900001 112769.85481797 5717.43190979
0.26000001 111144.45809761 5221.56688849
0.26100001 109543.64696740 5166.07863542
0.26200001 107968.90539055 6389.06027880
0.26300001 106416.95959355 5478.34533910
0.26400001 104889.58690999 5003.23353235
0.26500001 103385.49984408 4537.58980287
0.26600001 101903.83429532 4081.24875665
0.26700001 100444.88036998 4037.88438195
0.26800001 99008.15593490  5193.47306532
0.26900001 97592.28515636  4742.98528304
0.27000001 96198.07741895  4301.49723534
0.27100001 94824.35836268  5029.48420557
0.27200001 93471.62555504  4975.96222190
0.27300001 92138.59446540  4165.58605291
0.27400001 90823.91359415  4495.78393567
0.27500001 89530.43194467  4447.87206951
0.27600001 88253.55719177  4033.62902235
0.27700001 86997.21082505  5804.45418095
0.27800001 85757.85967924  5383.44989615
0.27900001 84536.84175691  4260.65702620
0.28000001 83332.83149302  5268.71852051
0.28100001 82146.39021233  3822.27171748
0.28200001 80977.07105644  5156.21524356
0.28300001 79824.23611891  4080.61514354
0.28400001 78686.98986780  4373.02966888
0.28500001 77566.53799435  4325.88602870
0.28600001 76461.41937017  4279.16353759
0.28700001 75372.53488936  4232.92175974
0.28800001 74297.31632346  4831.18322261
0.28900001 73238.71882328  3823.06130353
0.29000001 72194.05904640  4096.65207450
0.29100001 71164.41270104  4363.80199339
0.29200001 70148.64135555  3391.33622686
0.29300001 69147.31246328  3354.33628637
0.29400001 68158.94614071  3920.84356234
0.29500001 67185.60665970  4176.25750766
0.29600001 66224.25756068  2950.29081399
0.29700001 65276.80582814  4376.81003797
0.29800001 64342.50313776  2885.76140234
0.29900001 63421.53001395  3424.76278288
0.30000001 62512.26886635  2822.42907293
0.30100001 61616.43616741  3907.71456673
0.30200001 60732.14456376  3864.38654153
0.30300001 59860.79773119  3002.61775634
0.30400001 59001.24103166  3239.16828599
0.30500001 58154.17773112  2669.27688423
0.30600001 57317.57775846  3959.21187111
0.30700001 56493.71249629  2871.01060498
0.30800001 55680.88926232  3096.97120739
0.30900001 54879.85748371  3317.48754195
0.31000001 54089.90616920  3784.94136339
0.31100001 53310.89689324  4241.41515764
0.31200001 52543.71002452  3207.00549318
0.31300001 51786.65816220  4390.47308686
0.31400001 51041.97735360  2894.08025297
0.31500001 50306.47184408  3338.33762963
0.31600002 49583.05752740  4008.04664500
0.31700002 48869.35730692  2564.17529930
0.31800002 48166.07704261  2535.22158518
0.31900002 47473.94317789  2734.49925652
0.32000002 46792.25282371  2703.65649617
0.32100002 46120.37847651  3118.66014025
0.32200002 45459.73609785  2863.28161370
0.32300002 44807.60826214  3048.70981052
0.32400002 44166.85357121  2583.76105626
0.32500002 43535.74770143  3193.34724511
0.32600002 42914.87293861  2736.46700251
0.32700002 42303.86437025  3330.16036092
0.32800002 41703.73254358  3292.92687757
0.32900002 41111.55150583  3459.53722304
0.33000002 40530.42642701  2213.56934413
0.33100002 39957.99014178  2188.89880362
0.33200002 39396.74805171  2558.22795588
0.33300002 38844.44558924  2140.71749780
0.33400002 38302.24147624  2502.09404292
0.33500002 37769.33972422  2474.64725592
0.33600002 37245.42158729  2447.58299552
0.33700002 36731.19250582  2420.95301271
0.33800002 36227.23260591  2026.37035177
0.33900002 35731.70876907  2186.78068023
0.34000002 35245.75391291  1983.10243783
0.34100002 34769.21557062  2497.12518054
0.34200002 34302.75521533  1941.36452335
0.34300002 33844.71147035  2095.66463349
0.34400002 33396.64000300  1901.10382221
0.34500002 32957.30774026  2052.58122327
0.34600002 32527.77301561  1862.37773221
0.34700002 32106.24698754  1843.54078934
0.34800002 31694.55476438  1825.13102255
0.34900002 31291.66051566  2135.65593134
0.35000002 30897.97672523  2602.84568261
0.35100002 30513.97321447  1933.36543444
0.35200002 30137.23640097  2712.80346312
0.35300002 29770.82327330  2055.08002789
0.35400002 29412.52848440  2192.70410237
0.35500002 29063.47436697  1707.18856517
0.35600002 28722.67939034  1691.90950962
0.35700002 28390.58750661  1829.48954558
0.35800002 28067.53153898  2116.01130295
0.35900002 27753.59521553  1648.56363389
0.36000002 27447.72716856  1932.18284555
0.36100002 27149.97864393  1474.24391019
0.36200002 26862.16818404  1462.64512690
0.36300002 26581.28177454  1596.47185900
0.36400002 26309.55596323  1728.53790866
0.36500002 26045.19990735  1429.88154264
0.36600002 25790.02260066  1561.71489256
0.36700002 25542.52051974  1550.94191942
0.36800002 25304.12570621  2380.99182111
0.36900002 25073.29672289  1530.72483744
0.37000002 24850.04253157  1797.77641211
0.37100002 24634.67116538  1512.07618776
0.37200002 24427.89493041  1366.74078610
0.37300002 24228.62729301  2038.83908329
0.37400002 24037.01101824  1622.49832059
0.37500002 23853.25666479  1479.85611359
0.37600002 23677.29736485  1606.74147529
0.37700002 23508.54023975  1732.81458316
0.37800002 23347.31216161  2123.67161482
0.37900002 23194.23741325  1850.90023326
0.38000002 23047.76654752  1975.76988088
0.38100002 22907.75938519  1706.39907744
0.38200002 22776.18453524  1570.19023624
0.38300002 22650.93451883  1435.16327910
0.38400002 22532.92485138  2082.04235490
0.38500002 22421.29050960  1428.01206021
0.38600002 22317.46410135  1813.74039344
0.38700002 22219.29820398  2069.06114678
0.38800002 22127.89592288  1678.51162475
0.38900002 22043.05437791  1289.51874220
0.39000002 21965.12991121  1674.73140942
0.39100002 21892.73052261  1544.75113886
0.39200002 21827.22308702  1544.05783433
0.39300002 21767.19701297  1543.72968530
0.39400002 21714.38120646  1415.23486218
0.39500002 21666.33702257  1930.47072017
0.39600002 21624.17621700  1545.26370568
0.39700002 21587.23609951  1675.38547306
0.39800002 21557.01883188  1419.20640204
0.39900002 21531.22082569  1937.80996612
0.40000002 21511.23891336  1552.68129833
0.40100002 21496.15794809  1425.84022425
0.40200002 21486.59699174  2078.18375950
0.40300002 21481.85209171  1431.98032828
0.40400002 21481.98984748  1435.53403957
0.40500002 21486.47923249  1308.52664726
0.40600002 21496.69924783  1574.84826151
0.40700002 21510.67989237  1448.09903897
0.40800002 21529.01009108  1320.80483167
0.40900002 21551.35172398  2253.19392950
0.41000002 21578.67849129  1596.39071043
0.41100002 21609.66584982  1602.57289536
0.41200002 21643.82140380  1474.91827945
0.41300002 21683.09989115  1481.17262375
0.41400002 21725.27612819  1487.63835337
0.41500002 21771.04716867  1901.91877077
0.41600002 21819.41842593  1910.72656210
0.41700002 21872.45717737  1782.82406900
0.41800002 21929.06243011  1378.24163904
0.41900002 21986.90800631  1523.69279704
0.42000002 22048.34367384  1949.29415657
0.42100002 22113.23923279  1399.76810976
0.42200002 22180.58395548  1407.35811866
0.42300002 22249.97498349  2122.64771401
0.42400002 22321.82880724  1849.92165006
0.42500002 22396.63302481  1574.25940991
0.42600002 22472.26203503  1439.34845155
0.42700002 22551.33328903  1737.35479891
0.42800002 22631.47068630  2038.86929074
0.42900002 22714.38363212  1611.58559507
0.43000002 22798.83466757  1621.33920421
0.43100002 22883.35061302  1631.12530899
0.43200002 22970.66920245  2088.72304956
0.43300002 23058.62375859  1951.45142116
0.43400002 23148.36117571  2114.60289361
0.43500002 23238.45462227  2279.69250648
0.43600002 23330.42929724  1835.17165549
0.43700002 23422.60981406  1692.75209148
0.43800002 23514.94940480  1858.15139002
0.43900002 23609.14637403  1558.20373453
0.44000002 23703.09299487  2038.34757869
0.44100002 23797.79576831  1735.57332763
0.44200002 23892.61780677  1905.19743420
0.44300002 23987.89442455  1757.35322882
0.44400002 24082.88647222  1929.03929784
0.44500002 24177.48227389  1779.22100485
0.44600002 24271.94834838  2441.15132083
0.44700002 24367.04098637  1964.95827826
0.44800002 24460.87377432  1976.92791213
0.44900002 24554.77178484  2154.68132623
0.45000002 24648.54495866  2000.96897457
0.45100002 24740.59871652  2348.37774147
0.45200002 24832.50996882  1687.36913235
0.45300002 24923.26945265  1697.27473016
0.45400002 25013.30085865  1707.15786451
0.45500002 25102.67264332  1717.02289018
0.45600002 25190.37437182  2417.52034304
0.45700002 25277.33171010  2604.82915618
0.45800002 25362.59976077  2793.94412206
0.45900002 25446.53351033  1931.39198497
0.46000002 25529.64236844  1765.37485345
0.46100002 25610.23368979  2484.70499035
0.46200002 25690.05881054  1962.59213585
0.46300002 25767.89792686  2510.82409299
0.46400002 25843.65787372  1982.85474434
0.46500002 25918.71953718  2536.40601412
0.46600002 25990.80959890  2366.85318830
0.46700002 26061.09544712  1829.48898710
0.46800002 26130.07207761  2389.72585512
0.46900002 26196.21865489  2400.88355351
0.47000002 26260.46884705  2040.83243318
0.47100002 26322.75152209  2236.38107531
0.47200002 26382.99578752  2246.24836781
0.47300002 26440.81711343  2443.92484163
0.47400002 26495.65893301  2454.16052499
0.47500002 26548.69061977  3032.92256016
0.47600002 26600.01047246  1903.23083951
0.47700002 26647.61304708  2674.88752445
