# SAXS profile: number of points = 501, q_min = 0, q_max = 0.5, delta_q = 0.001
#    q    intensity    error
0.00000000 1682732.95097188 252.40994265
0.00100000 1682650.91020042 605.75434206
0.00200000 1682404.71526235 984.20678959
0.00300000 1681994.60659266 1211.03615989
0.00400000 1681420.44187146 1513.27845519
0.00500000 1680682.73764306 1663.87597612
0.00600000 1679781.38923337 3174.78695490
0.00700000 1678716.97862788 2820.24464130
0.00800000 1677489.29556988 2943.99383802
0.00900000 1676099.59227665 3519.80929424
0.01000000 1674547.27266544 3591.90405496
0.01100000 1672833.58490134 4817.76093428
0.01200000 1670958.43927381 4887.55364916
0.01300000 1668923.02953315 4556.16007157
0.01400000 1666727.41034268 4875.17789137
0.01500000 1664372.85008692 5192.84352350
0.01600000 1661858.89292311 4661.51440304
0.01700000 1659187.83510879 4927.78809133
0.01800000 1656359.49252596 8497.12457901
0.01900000 1653374.58970302 5456.13639221
0.02000000 1650234.33006135 5198.23837484
0.02100000 1646940.70489380 6521.88548707
0.02200000 1643492.26268734 7938.06798942
0.02300000 1639892.17762984 7084.33452983
0.02400000 1636140.15175106 8589.73618836
0.02500000 1632238.56294882 8275.44989210
0.02600000 1628187.51753178 7912.99169713
0.02700000 1623989.04681132 8866.98060171
0.02800000 1619643.01703988 7045.44744722
0.02900000 1615152.10652799 11629.09570094
0.03000000 1610517.50180708 8237.79740040
0.03100000 1605739.63522945 10019.81578488
0.03200000 1600819.99327532 8716.46526485
0.03300000 1595762.19113017 9766.06505994
0.03400000 1590564.47456576 10855.60303979
0.03500000 1585230.06453153 9416.26701814
0.03600000 1579760.48105051 10521.20529002
0.03700000 1574157.10961261 13459.04390964
0.03800000 1568421.62416297 11927.84700377
0.03900000 1562556.36292516 10312.87247290
0.04000000 1556560.58606848 10530.13285271
0.04100000 1550438.97844680 10744.54261882
0.04200000 1544191.91860259 11952.04600447
0.04300000 1537820.41645688 12179.53826369
0.04400000 1531327.98114342 10336.46435276
0.04500000 1524716.14033314 14728.75859999
0.04600000 1517984.82095776 12842.15218229
0.04700000 1511137.98313310 11968.21338303
0.04800000 1504176.46416789 13266.83703124
0.04900000 1497103.91482287 13473.93586058
0.05000000 1489919.90892228 11397.88783401
0.05100000 1482629.10482027 13877.40906758
0.05200000 1475229.49635481 15246.49755533
0.05300000 1467727.44512863 14266.31143172
0.05400000 1460122.70849442 16864.41806956
0.05500000 1452418.02273268 13420.34315610
0.05600000 1444614.46955380 14821.74514927
0.05700000 1436717.01188463 17499.21402159
0.05800000 1428724.39694311 12644.21150334
0.05900000 1420639.87254775 19178.63917515
0.06000000 1412466.77446665 14216.47874918
0.06100000 1404206.35671747 16976.85564607
0.06200000 1395861.20703613 15829.06682770
0.06300000 1387433.96309069 15983.24000211
0.06400000 1378923.83320546 14788.95880276
0.06500000 1370336.87781728 14922.96929749
0.06600000 1361673.92703197 15053.30596766
0.06700000 1352936.72328298 22079.92835730
0.06800000 1344128.27508431 16694.07395798
0.06900000 1335251.07666649 14020.13696141
0.07000000 1326306.28277188 19775.22760217
0.07100000 1317296.44871809 19917.52323751
0.07200000 1308224.53168108 14325.05929299
0.07300000 1299092.95386342 14419.93246354
0.07400000 1289904.23024828 23218.27723257
0.07500000 1280659.36066331 20439.32435423
0.07600000 1271360.14549244 19089.47347949
0.07700000 1262011.86690554 26577.97116323
0.07800000 1252614.27163647 16327.82779649
0.07900000 1243170.08322018 17901.65003802
0.08000000 1233682.76086871 16488.17087249
0.08100000 1224153.76114681 21079.92875598
0.08200000 1214584.68344361 18145.89602215
0.08300000 1204978.84749871 21255.82786746
0.08400000 1195338.27345942 21336.78918277
0.08500000 1185664.86346369 15295.07745671
0.08600000 1175960.85132308 16880.91881333
0.08700000 1166230.26119849 20012.51222191
0.08800000 1156472.10310046 20070.57429190
0.08900000 1146691.79579278 24768.54395250
0.09000000 1136889.50310846 18622.25093571
0.09100000 1127067.72862995 21774.94954014
0.09200000 1117229.00133988 23378.01795149
0.09300000 1107377.35079058 23421.03206983
0.09400000 1097510.03973521 20331.37444162
0.09500000 1087633.12149240 23492.87652846
0.09600000 1077747.45024230 20385.59397961
0.09700000 1067857.68501133 18837.01044918
0.09800000 1057963.15168957 18852.90424953
0.09900000 1048066.91878783 22009.40632948
0.10000000 1038169.92792568 18873.93017728
0.10100000 1028274.21363141 17305.85582934
0.10200000 1018383.24878433 17307.42412717
0.10300000 1008497.89335308 17305.82466402
0.10400000 998621.32310259 22019.60121033
0.10500000 988756.22758084 22009.71466149
0.10600001 978899.60592746 17282.47335585
0.10700001 969059.50828686 21978.27068219
0.10800001 959233.85966917 17251.82177805
0.10900001 949426.92940980 17232.09957983
0.11000001 939638.74450914 17209.48441573
0.11100001 929871.62558642 26557.13487688
0.11200001 920127.60591680 15596.16365451
0.11300001 910408.06626746 21795.17013258
0.11400001 900715.50347926 21752.28043322
0.11500001 891051.66006881 26357.30934595
0.11600001 881417.04150999 17015.75678765
0.11700001 871815.13950833 21603.58017444
0.11800001 862244.59403567 15391.06672843
0.11900001 852708.57825555 15348.75513155
0.12000001 843208.22016778 18365.07590034
0.12100001 833748.15281560 21360.62868139
0.12200001 824325.74493621 16729.69178164
0.12300001 814945.53492233 18189.58519646
0.12400001 805605.79557400 25678.68594384
0.12500001 796309.42791571 24080.39823485
0.12600001 787059.64234229 16492.83558248
0.12700001 777855.45868726 22402.23826593
0.12800001 768698.33538750 14874.31349076
0.12900001 759590.78968192 19255.62742599
0.13000001 750533.45401065 17697.57967974
0.13100001 741526.27465639 17618.66511634
0.13200001 732572.66857793 16076.30796979
0.13300001 723672.59143076 18909.56570554
0.13400001 714826.46072567 17370.28381457
0.13500001 706037.01056596 18724.10240302
0.13600001 697304.46525720 14329.60743669
0.13700001 688630.00432816 14254.64176175
0.13800001 680012.59777865 18431.74233195
0.13900001 671456.77711041 18330.77087956
0.14000001 662960.61518411 19630.26474138
0.14100001 654527.22705485 16729.71671254
0.14200001 646155.62640853 13860.03884018
0.14300001 637848.39919687 19288.53650151
0.14400001 629602.05438032 13693.84532871
0.14500001 621423.64528164 20413.76771046
0.14600001 613309.69296423 17580.52317817
0.14700001 605263.35967994 17467.90138444
0.14800001 597281.63015924 13349.24506386
0.14900001 589368.35372174 17239.02515971
0.15000001 581522.65150212 13171.48867799
0.15100001 573745.84617733 18313.96827412
0.15200001 566039.21581640 15588.72073917
0.15300001 558402.11651826 16768.81635035
0.15400001 550833.17119272 19210.30775190
0.15500001 543336.78576870 12714.08138700
0.15600001 535909.22409612 13882.72910540
0.15700001 528555.89248150 15032.13029164
0.15800001 521271.23668832 13675.55153999
0.15900001 514060.47845458 14804.94247829
0.16000001 506919.91915645 17138.96327568
0.16100001 499854.00720085 15790.38883285
0.16200001 492860.22464215 18075.64959203
0.16300001 485938.97846887 16735.73920853
0.16400001 479091.41422884 15414.76698054
0.16500001 472316.14093832 15288.87420398
0.16600001 465615.18464090 11663.66092593
0.16700001 458986.17640525 13879.74262982
0.16800001 452431.14276548 13762.95601276
0.16900001 445950.95060411 14783.27471056
0.17000001 439542.51019713 13529.11910271
0.17100001 433208.50654478 13412.13599596
0.17200001 426947.32774353 13295.14041377
0.17300001 420759.69215427 15374.55987737
0.17400001 414645.86614411 11972.89995034
0.17500001 408604.36863722 11865.87142562
0.17600001 402634.72572929 11758.94772029
0.17700001 396740.81648874 14830.17242079
0.17800001 390917.44694377 10496.13394619
0.17900001 385166.22317084 17679.13047859
0.18000001 379488.84890182 10303.12273435
0.18100001 373883.38540659 10207.01690374
0.18200001 368347.63087113 11122.25723955
0.18300001 362884.24790920 12018.72685851
0.18400001 357491.54209382 13888.54706645
0.18500001 352170.20716973 10808.10416864
0.18600001 346919.38592486 14596.63385238
0.18700001 341737.77134522 9637.00560723
0.18800001 336624.66984220 9543.30984091
0.18900001 331584.26810842 9450.15208759
0.19000001 326608.38588251 10293.06376742
0.19100001 321703.78023915 10191.57623953
0.19200001 316865.26119127 9173.24974494
0.19300001 312096.23558225 11806.60114997
0.19400001 307392.41491053 10789.47427320
0.19500001 302755.88959535 9791.12593219
0.19600001 298184.04880168 13217.00858772
0.19700001 293679.66298014 17444.57280541
0.19800001 289238.95272873 11223.91809107
0.19900001 284863.02697968 9400.48033460
0.20000001 280549.30074845 12687.84272599
0.20100001 276300.73867396 9209.10405525
0.20200001 272113.52192501 10771.61427451
0.20300001 267988.83900557 10660.59651951
0.20400001 263925.90597262 9738.86639070
0.20500001 259923.29045727 8031.63005476
0.20600001 255980.59824301 8743.01774625
0.20700001 252097.99350396 11798.18665367
0.20800001 248273.83460357 10118.40060757
0.20900001 244510.27522409 10012.69624374
0.21000001 240801.65149130 9907.78441897
0.21100001 237151.49165749 7541.41779122
0.21200001 233556.68179679 9700.77723703
0.21300001 230017.84457808 7383.57316002
0.21400001 226534.36984602 11689.17403668
0.21500001 223106.24079466 13011.55657830
0.21600001 219730.43823968 7867.44871313
0.21700001 216408.26537953 7076.55061249
0.21800001 213138.61502065 8401.92460136
0.21900001 209919.74272195 6927.35183736
0.22000001 206751.63248199 6853.81694084
0.22100001 203635.27182309 8137.26584681
0.22200001 200568.21601411 9392.61000007
0.22300001 197549.55291171 7301.43182087
0.22400001 194578.52870423 7880.43078516
0.22500001 191657.44554511 7146.90648233
0.22600001 188781.31207221 6428.00398003
0.22700001 185952.46542830 7631.48954206
0.22800001 183168.30675379 7550.19796144
0.22900001 180428.96629334 6847.27959465
0.23000001 177734.08483593 6774.33496389
0.23100001 175083.93387402 6702.21330566
0.23200001 172474.82459741 6630.79494524
0.23300001 169909.15742892 6560.19287859
0.23400001 167383.90092529 6490.31106534
0.23500001 164899.39848030 9923.64626989
0.23600001 162455.52455886 5775.29417122
0.23700001 160051.24942116 5713.82987459
0.23800001 157685.53477608 7914.23736474
0.23900001 155358.19277394 7830.05328616
0.24000001 153067.82736055 7193.42288706
0.24100001 150815.69227590 5474.60988857
0.24200001 148599.64929843 7583.04046239
0.24300001 146418.72806583 7502.49598098
0.24400001 144272.98058440 5832.23551601
0.24500001 142161.21027820 7344.04847038
0.24600001 140083.46553230 5709.10190784
0.24700001 138039.76701118 5135.07957574
0.24800001 136028.29944766 5588.72294719
0.24900001 134047.70144856 5026.78904213
0.25000001 132099.84259414 5470.91523986
0.25100001 130182.18680174 5412.97558330
0.25200001 128296.71757631 5842.63279484
0.25300001 126439.30004546 6262.53882753
0.25400001 124612.19510174 5243.05835696
0.25500001 122812.09096712 7545.57522602
0.25600001 121041.73670523 5599.39100491
0.25700001 119298.12684499 6001.88904554
0.25800001 117581.59541709 6395.26327732
0.25900001 115892.67710016 4519.81462076
0.26000001 114228.97338480 6708.09677942
0.26100001 112590.67441002 4867.29508505
0.26200001 110978.55211352 7442.77694966
0.26300001 109389.79118140 4765.01952933
0.26400001 107826.06209455 5143.30340528
0.26500001 106286.05608346 6785.30214144
0.26600001 104768.90511785 5035.19381823
0.26700001 103275.05699632 6642.65198034
0.26800001 101803.74291962 6983.22807602
0.26900001 100353.68074238 5690.05396736
0.27000001 98925.71707621  4423.46364839
0.27100001 97518.78138742  3978.76646889
0.27200001 96133.12438606  4723.98195589
0.27300001 94767.82906410  5452.94114240
0.27400001 93421.04941822  5395.06585922
0.27500001 92096.04206628  4194.05395418
0.27600001 90788.08625499  4903.91871115
0.27700001 89501.10999680  3732.19646350
0.27800001 88231.33557903  4430.97788248
0.27900001 86980.51466569  4383.81814663
0.28000001 85746.86068393  4337.07641866
0.28100001 84531.29791429  5363.51110651
0.28200001 83333.39685077  4598.75372287
0.28300001 82152.29454940  5249.53187017
0.28400001 80987.08970917  4154.63789872
0.28500001 79839.14867162  4110.11956815
0.28600001 78706.87492072  3388.33112571
0.28700001 77591.20239536  4357.52213278
0.28800001 76489.57362067  3978.98780808
0.28900001 75405.04726371  3608.13168235
0.29000001 74334.70793711  3569.18117054
0.29100001 73279.81277850  4814.48392744
0.29200001 72239.18135403  3492.40338787
0.29300001 71213.27403109  3768.60664012
0.29400001 70200.71736376  3106.38189039
0.29500001 69203.35592541  3379.89206339
0.29600001 68218.68292367  3039.14246812
0.29700001 67247.99936610  4508.97857094
0.29800001 66290.98932647  4162.41141685
0.29900001 65347.47205358  2940.63638162
0.30000001 64415.96185200  4653.40930448
0.30100001 63498.36943792  3739.41915322
0.30200001 62592.52747267  3413.79660997
0.30300001 61700.07149759  3938.93275088
0.30400001 60819.59146077  2782.49644106
0.30500001 59951.88019684  4402.86629010
0.30600001 59095.10329920  3265.59556292
0.30700001 58251.13005370  3229.44280307
0.30800001 57418.61081288  2927.48801089
0.30900001 56598.24895895  2895.00057131
0.31000001 55789.42147898  3123.09196226
0.31100001 54991.39749263  2830.95727695
0.31200001 54205.77255176  2799.45725598
0.31300001 53430.40502365  2768.22941534
0.31400001 52667.61922151  3732.81768906
0.31500001 51914.40204448  2706.81705076
0.31600002 51173.48349678  2676.62918103
0.31700002 50442.62460991  3368.55863094
0.31800002 49722.38577484  2855.05952637
0.31900002 49013.51829682  2352.64898964
0.32000002 48315.36681356  2559.02352445
0.32100002 47627.29892322  2760.47837630
0.32200002 46950.66936555  2502.23604232
0.32300002 46282.83717688  2474.28059264
0.32400002 45626.65995527  2446.72975596
0.32500002 44980.04881515  4179.09653330
0.32600002 44344.05309363  2610.09108868
0.32700002 43718.33210873  2366.03624576
0.32800002 43103.49336649  3403.45199738
0.32900002 42496.82411555  2524.31147200
0.33000002 41901.40906016  2496.48607002
0.33100002 41314.93697655  2263.23235475
0.33200002 40739.84186861  2441.94623724
0.33300002 40173.88130881  2817.79616844
0.33400002 39618.13887466  3185.29851636
0.33500002 39071.93877805  2166.14838844
0.33600002 38534.93092287  2142.73493544
0.33700002 38007.69444315  1926.99019952
0.33800002 37490.95854954  2287.69839903
0.33900002 36982.83084728  2263.34935504
0.34000002 36484.40133558  2052.79493836
0.34100002 35995.66402891  2769.86647820
0.34200002 35517.03179385  3106.49733297
0.34300002 35046.91281431  1808.42078686
0.34400002 34587.03120812  2505.83052970
0.34500002 34136.02677501  3188.98777235
0.34600002 33695.01877776  2279.97355358
0.34700002 33261.90850211  2257.15321785
0.34800002 32839.04572680  2234.86136278
0.34900002 32424.95787448  2042.77244284
0.35000002 32020.28656625  2023.04180107
0.35100002 31625.30612146  2003.77949076
0.35200002 31237.79519216  1654.04133376
0.35300002 30860.70594779  2130.31463247
0.35400002 30491.78602451  1623.68768271
0.35500002 30132.18600094  1609.05880866
0.35600002 29781.11013501  2232.68993257
0.35700002 29438.83420752  1738.95201900
0.35800002 29105.59700501  2351.00470943
0.35900002 28781.56142124  1709.62482940
0.36000002 28465.81395605  1849.70867848
0.36100002 28158.13806267  1834.78436307
0.36200002 27860.61303497  2578.91776774
0.36300002 27570.06869467  1956.92356864
0.36400002 27288.64582337  1494.05342960
0.36500002 27014.77997483  1631.42263996
0.36600002 26750.23006480  1619.86025830
0.36700002 26493.27858562  2047.40066608
0.36800002 26245.56693918  1597.96141879
0.36900002 26005.58351342  2309.29592538
0.37000002 25773.02315002  2438.25697061
0.37100002 25548.56263789  1568.17084900
0.37200002 25332.77795726  1984.31659139
0.37300002 25124.44791559  1550.42975432
0.37400002 24923.92182574  1822.56186984
0.37500002 24731.24337247  1534.32641151
0.37600002 24546.40906270  1665.71939790
0.37700002 24368.92871127  1381.71832338
0.37800002 24198.94025355  2063.56472788
0.37900002 24037.12982477  1781.15140439
0.38000002 23881.95254486  1501.33901786
0.38100002 23733.42867460  1767.90318572
0.38200002 23593.22213695  1355.43067598
0.38300002 23459.45518561  1756.64408752
0.38400002 23332.94711754  1347.47775987
0.38500002 23212.82076619  1747.22910184
0.38600002 23100.58292190  1475.08779236
0.38700002 22994.07121952  1605.90601005
0.38800002 22894.23297354  1870.22998021
0.38900002 22800.98483236  1467.24344347
0.39000002 22714.77147613  1998.33211529
0.39100002 22634.05457256  1863.23546069
0.39200002 22560.33924284  1728.91167978
0.39300002 22492.04189110  1595.13568649
0.39400002 22430.99292025  1329.03639349
0.39500002 22374.59833714  1461.95632461
0.39600002 22324.34719182  1728.23941974
0.39700002 22279.11751427  1596.07605434
0.39800002 22240.81747600  1464.22428791
0.39900002 22206.85801940  2265.09962530
0.40000002 22178.71603319  1734.26478238
0.40100002 22155.43329079  2271.15357424
0.40200002 22137.81391792  1605.87709769
0.40300002 22124.93898979  1877.07991283
0.40400002 22116.93290944  1612.32448549
0.40500002 22113.41711497  1885.39003255
0.40600002 22115.42575453  1890.20552880
0.40700002 22121.42685463  2030.74708147
0.40800002 22131.61760650  1493.55228494
0.40900002 22145.93302528  1498.17244015
0.41000002 22165.29406214  1366.49044368
0.41100002 22188.20613251  1508.35432436
0.41200002 22214.30799525  2064.26466827
0.41300002 22245.53504342  1519.59257082
0.41400002 22279.75998085  1941.68117433
0.41500002 22317.37594229  2088.90648718
0.41600002 22357.73584324  1538.32408759
0.41700002 22402.79193081  1404.65512062
0.41800002 22451.45347286  1975.50348468
0.41900002 22501.18741589  1559.33236181
0.42000002 22554.60421110  1994.05265279
0.42100002 22611.60197186  2003.84026170
0.42200002 22670.81564320  1726.15598487
0.42300002 22732.33804879  1734.93212209
0.42400002 22796.18151061  1598.58230418
0.42500002 22862.98476123  1607.03927502
0.42600002 22930.68812371  1909.32383710
0.42700002 23001.65900969  2067.38920976
0.42800002 23073.85711866  2227.20416392
0.42900002 23148.83691095  2090.34007211
0.43000002 23225.36836228  1651.67214935
0.43100002 23301.92617379  2264.94733142
0.43200002 23381.35300899  2277.92842485
0.43300002 23461.35883058  1527.33453225
0.43400002 23543.09967607  1689.80605933
0.43500002 23625.40851353  1545.10179000
0.43600002 23709.43152292  1554.15330998
0.43700002 23793.67664883  1875.89355589
0.43800002 23878.19625299  2673.04480621
0.43900002 23964.45053728  1897.98457250
0.44000002 24050.49033874  1909.12801356
0.44100002 24137.35888842  2240.42975820
0.44200002 24224.36218289  1609.70894334
0.44300002 24311.76526647  1781.08000783
0.44400002 24398.94340901  1791.49250471
0.44500002 24485.75186999  2129.52594105
0.44600002 24572.38514418  2141.85205260
0.44700002 24659.79153219  1988.56568340
0.44800002 24745.79424089  1833.29225322
0.44900002 24832.06681863  1843.78104866
0.45000002 24918.09756281  1685.70938001
0.45100002 25002.46381855  1695.16712724
0.45200002 25086.76031136  1875.10998834
0.45300002 25169.81715755  1714.06462966
0.45400002 25252.26774493  2412.85429738
0.45500002 25334.01689189  2945.83962380
0.45600002 25414.18008372  2787.42740369
0.45700002 25493.54259895  2101.68775146
0.45800002 25571.29372803  1936.64202228
0.45900002 25647.74352205  2300.60270296
0.46000002 25723.34586898  2312.40028649
0.46100002 25796.54804069  1966.47095034
0.46200002 25868.90326406  1976.25495852
0.46300002 25939.44579559  3069.15537200
0.46400002 26007.85890115  1814.04824433
0.46500002 26075.62401889  2369.49206690
0.46600002 26140.40876877  2014.24929314
0.46700002 26203.47487035  2023.43242539
0.46800002 26265.30167943  2402.09327894
0.46900002 26324.22928639  2041.44407792
0.47000002 26381.38816244  2982.15225923
0.47100002 26436.64570537  2433.22898605
0.47200002 26489.83668016  2255.34480185
0.47300002 26540.69822364  2075.74810646
0.47400002 26588.62526349  2652.21549574
0.47500002 26634.75530750  2091.89378100
0.47600002 26679.11455611  1908.89073697
0.47700002 26720.02394692  2107.40838858
