# SAXS profile: number of points = 501, q_min = 0, q_max = 0.5, delta_q = 0.001
#    q    intensity    error
0.00000000 1664650.74656090 299.63713438
0.00100000 1664569.15831799 649.18198716
0.00200000 1664324.31531373 973.62975529
0.00300000 1663916.46222111 998.34991290
0.00400000 1663345.46175124 1497.01097246
0.00500000 1662611.81177481 2094.89096575
0.00600000 1661715.42604008 2442.72177573
0.00700000 1660656.88099738 2192.06717402
0.00800000 1659435.96051096 2464.26250540
0.00900000 1658053.90150649 3233.20524615
0.01000000 1656510.16336921 3553.21445385
0.01100000 1654805.90652809 4765.84121830
0.01200000 1652941.11893072 3545.55885556
0.01300000 1650916.94855646 4160.31089385
0.01400000 1648733.45554177 3709.65043942
0.01500000 1646391.92837804 4741.60896487
0.01600000 1643891.90443640 5030.30945245
0.01700000 1641235.62472678 5760.73730121
0.01800000 1638422.96441859 6070.35735632
0.01900000 1635454.64393088 4906.36415318
0.02000000 1632331.81991499 9255.32183759
0.02100000 1629056.54713263 5913.47553420
0.02200000 1625627.26789086 6730.09719483
0.02300000 1622047.32651984 7591.18183365
0.02400000 1618316.21702592 9709.89774490
0.02500000 1614436.40317056 8814.82316389
0.02600000 1610408.02875590 7174.36809625
0.02700000 1606233.14806704 9444.65134321
0.02800000 1601911.53385798 9058.81013940
0.02900000 1597445.82255576 9345.05849102
0.03000000 1592837.36010426 8888.03287792
0.03100000 1588086.40611318 9909.65963012
0.03200000 1583194.54739713 9404.17604468
0.03300000 1578165.33713949 9658.37230855
0.03400000 1572997.20940041 8258.23573039
0.03500000 1567693.15649914 11851.76081042
0.03600000 1562254.67166791 9537.56521130
0.03700000 1556683.22942874 13309.64222715
0.03800000 1550980.54855594 9980.56029185
0.03900000 1545148.84495901 11125.07219891
0.04000000 1539187.52497320 10412.60408895
0.04100000 1533101.11863525 13521.95249333
0.04200000 1526890.07723239 11818.12974606
0.04300000 1520555.34973238 13046.36550629
0.04400000 1514100.53351740 13286.23279865
0.04500000 1507527.04584417 15602.90564947
0.04600000 1500834.93073796 12697.06410429
0.04700000 1494028.04432325 11832.70266135
0.04800000 1487107.41710325 16395.36003641
0.04900000 1480076.25889581 15540.80144179
0.05000000 1472934.44264619 12394.74391204
0.05100000 1465686.61775826 12575.59176619
0.05200000 1458330.81689036 15071.84969493
0.05300000 1450873.23942886 14102.48854468
0.05400000 1443313.76201283 16670.27472865
0.05500000 1435655.12870479 20501.15619427
0.05600000 1427898.13487765 13429.38258520
0.05700000 1420048.02879452 13589.86026992
0.05800000 1412103.78990646 12497.11912419
0.05900000 1404067.88315762 17691.25615407
0.06000000 1395944.39415545 16604.75934423
0.06100000 1387734.21837679 16777.70748422
0.06200000 1379439.89646837 16946.41992025
0.06300000 1371064.42090972 18427.10667859
0.06400000 1362606.57866563 13285.41476331
0.06500000 1354072.44917281 13405.31787388
0.06600000 1345463.21158751 16226.28709095
0.06700000 1336780.04244796 17725.70419240
0.06800000 1328026.57920238 13745.07573814
0.06900000 1319204.95661027 15236.81796222
0.07000000 1310316.28140689 15350.35595552
0.07100000 1301363.34291832 18271.14219035
0.07200000 1292348.76728108 18396.58556407
0.07300000 1283275.27202908 21366.53428043
0.07400000 1274145.12170050 18634.37327815
0.07500000 1264959.42876783 18746.69961304
0.07600000 1255720.12245738 17404.28171318
0.07700000 1246432.06673936 20416.55821049
0.07800000 1237095.46753363 14659.58197775
0.07900000 1227712.84731048 17679.06583049
0.08000000 1218287.67261173 22203.29387493
0.08100000 1208821.19176381 17842.20162756
0.08200000 1199315.27591958 17917.77106303
0.08300000 1189773.10727241 16490.25604072
0.08400000 1180196.70560385 18057.01044331
0.08500000 1170588.22581850 18120.70658635
0.08600000 1160949.41364214 16665.42961530
0.08700000 1151284.31360900 22795.43047988
0.08800000 1141592.48676316 19812.33853824
0.08900000 1131879.03761313 25976.62513334
0.09000000 1122143.75090489 15317.26291939
0.09100000 1112389.72974396 16886.07689084
0.09200000 1102619.01462443 15381.53597674
0.09300000 1092835.91980534 18490.78463203
0.09400000 1083037.76885959 18519.94671789
0.09500000 1073230.28470459 18545.42019138
0.09600000 1063414.34194686 17019.94734293
0.09700000 1053594.83863617 21682.98279851
0.09800000 1043770.87344682 20149.99765930
0.09900000 1033945.80287871 18611.02532695
0.10000000 1024120.25568001 18618.50712384
0.10100000 1014296.44866700 17070.61003393
0.10200000 1004477.70295202 18623.01748869
0.10300000 994664.86440847 17068.44987616
0.10400000 984861.28639308 20165.03578756
0.10500000 975069.50499733 20154.68761656
0.10600001 965286.56545090 23239.27515672
0.10700001 955520.20136756 23219.14198587
0.10800001 945768.91029916 23194.98361668
0.10900001 936036.63387478 26255.82881594
0.11000001 926323.05916967 21592.59152560
0.11100001 916631.10685920 21559.16464819
0.11200001 906962.50257372 16910.31665658
0.11300001 897318.64810742 15344.14960505
0.11400001 887702.06843119 16844.14754158
0.11500001 878114.40508630 19862.94877836
0.11600001 868556.33786627 24389.06311580
0.11700001 859030.92189546 15204.84803362
0.11800001 849537.48349506 15164.24479460
0.11900001 840078.61414260 16633.55734349
0.12000001 830655.73574079 16584.04254525
0.12100001 821273.09987175 18035.15812279
0.12200001 811928.62189110 23968.13404739
0.12300001 802626.07712637 19407.49945929
0.12400001 793364.55885549 17850.70341533
0.12500001 784146.57136075 19266.48216618
0.12600001 774975.23159594 16239.60674336
0.12700001 765849.52526977 22056.46736721
0.12800001 756771.06935781 20500.92923510
0.12900001 747742.46901840 20413.37036633
0.13000001 738764.13555793 20323.40232714
0.13100001 729836.28533968 15895.83504399
0.13200001 720961.61468741 20136.45884746
0.13300001 712140.88496642 15745.43570889
0.13400001 703374.26679684 18516.32844639
0.13500001 694664.13771236 15588.26398522
0.13600001 686011.06490903 16917.03365831
0.13700001 677416.22017728 18229.27134454
0.13800001 668878.66159077 19524.56905253
0.13900001 660402.35214813 15255.29505403
0.14000001 651985.92592895 22063.20477395
0.14100001 643632.23260727 19193.11408155
0.14200001 635340.54877984 21804.88866256
0.14300001 627112.91103148 16254.76742063
0.14400001 618946.61568408 18846.92533659
0.14500001 610847.74553639 16053.07950995
0.14600001 602813.76005796 18608.86165085
0.14700001 594847.18934822 14526.16904918
0.14800001 586944.80280973 15741.86035404
0.14900001 579111.42146055 18242.01063668
0.15000001 571345.35102896 19411.45921710
0.15100001 563647.98399825 14136.29210570
0.15200001 556020.85066383 17864.95077482
0.15300001 548463.09436609 15203.39769326
0.15400001 540973.62534114 15093.16485928
0.15500001 533556.26267526 21224.86913089
0.15600001 526208.02156219 13631.41944190
0.15700001 518933.73697557 19677.96823485
0.15800001 511727.97316185 14645.65528315
0.15900001 504596.23187785 13321.34115035
0.16000001 497534.20456711 15620.08708969
0.16100001 490546.93599158 13112.32021801
0.16200001 483631.54929813 13007.27113240
0.16300001 476788.68760555 14074.80272256
0.16400001 470019.15628071 18612.75946742
0.16500001 463321.82328502 12690.38533891
0.16600001 456698.40347306 13728.35465656
0.16700001 450147.17350596 14746.82210032
0.16800001 443669.80377078 12371.73306230
0.16900001 437266.64238487 17840.47985170
0.17000001 430935.29000050 12158.83978150
0.17100001 424677.86430392 16435.03412465
0.17200001 418493.52167270 14117.87962032
0.17300001 412382.11633156 13992.12586790
0.17400001 406344.69909535 17066.47816799
0.17500001 400378.94080111 12684.00544361
0.17600001 394485.00115118 14663.00818531
0.17700001 388666.39781388 11415.13264294
0.17800001 382918.31539483 11309.49297936
0.17900001 377242.14842657 12222.64618634
0.18000001 371639.39909475 16144.01625924
0.18100001 366108.22628324 9994.75504965
0.18200001 360646.79461683 11879.70597585
0.18300001 355257.02766221 12746.62275466
0.18400001 349938.07062048 13595.09468585
0.18500001 344689.93688147 11540.21963198
0.18600001 339512.13173445 10475.64731957
0.18700001 334403.25175799 10373.18935961
0.18800001 329362.52891965 10271.17094963
0.18900001 324394.11529692 11094.27926733
0.19000001 319489.94598575 10984.06486197
0.19100001 314656.74760018 9968.32623498
0.19200001 309889.30404826 8971.29577610
0.19300001 305191.04073886 10657.27164619
0.19400001 300557.60684095 8791.31041552
0.19500001 295990.96748037 10442.56182617
0.19600001 291488.98115582 8613.49980020
0.19700001 287053.93935824 9378.05264202
0.19800001 282682.06440568 9281.86602341
0.19900001 278374.83640845 12526.86823040
0.20000001 274129.33611544 8264.99987449
0.20100001 269948.69616646 9815.33505651
0.20200001 265828.88193300 8903.93882118
0.20300001 261771.32477472 8811.22320838
0.20400001 257775.35017688 10304.57011037
0.20500001 253838.91681816 8627.98519047
0.20600001 249962.26343738 7761.32864659
0.20700001 246145.22316622 9215.67759096
0.20800001 242386.15328107 7598.80626456
0.20900001 238687.41021150 7518.65377708
0.21000001 235043.14500459 7439.11589106
0.21100001 231456.95236720 8832.39771987
0.21200001 227925.70614730 9466.89465237
0.21300001 224449.89252345 7925.32607968
0.21400001 221029.09950451 9979.46431442
0.21500001 217663.33536793 7052.29239934
0.21600001 214349.18014198 9070.18598653
0.21700001 211088.50780831 6902.59453168
0.21800001 207879.75068982 9560.39018625
0.21900001 204721.66183127 8106.97819183
0.22000001 201613.56030444 8020.18780813
0.22100001 198556.90604025 7273.13981215
0.22200001 195549.04043174 7195.22728291
0.22300001 192589.12719473 7118.09447770
0.22400001 189676.59131373 8962.21936336
0.22500001 186813.33550124 9499.45855944
0.22600001 183994.62916357 8144.52264507
0.22700001 181222.74107169 8676.94525284
0.22800001 178495.28147268 9196.96981280
0.22900001 175811.85534446 6065.50929623
0.23000001 173172.73174042 6600.47898243
0.23100001 170577.67260502 11872.20657478
0.23200001 168023.26610794 6459.65477102
0.23300001 165511.84172664 5809.46591936
0.23400001 163040.46469599 7471.32964805
0.23500001 160609.24140994 6254.12415630
0.23600001 158218.15212621 7312.05224635
0.23700001 155866.43809014 6677.31852360
0.23800001 153552.61433309 6055.34763264
0.23900001 151276.79688380 5990.56143995
0.24000001 149037.40714535 6465.24302777
0.24100001 146835.74671137 6396.16542929
0.24200001 144669.84645327 5273.21615266
0.24300001 142538.45127111 6260.28907596
0.24400001 140441.94609313 6709.61429199
0.24500001 138378.83645906 5616.79723757
0.24600001 136349.40803182 6567.26954852
0.24700001 134353.26233525 4997.94159530
0.24800001 132389.11631526 6428.15384678
0.24900001 130455.31392639 5381.28195404
0.25000001 128553.81617461 5324.05654874
0.25100001 126682.03173923 6225.15533417
0.25200001 124841.79023147 6159.07001245
0.25300001 123029.40970084 6562.38902391
0.25400001 121246.79358200 5101.45908132
0.25500001 119490.82016322 5506.13725363
0.25600001 117763.94172309 4993.78018504
0.25700001 116063.30005912 5389.97990976
0.25800001 114389.51842355 4444.03300102
0.25900001 112742.59813921 4836.65768902
0.26000001 111120.65798586 5655.48615578
0.26100001 109523.40547808 6886.83206232
0.26200001 107952.22716983 4684.58711969
0.26300001 106403.66774658 6320.37816321
0.26400001 104879.86044956 4585.87211515
0.26500001 103379.23762274 4949.79813160
0.26600001 101901.03126832 4897.36379450
0.26700001 100445.66310529 5249.29060228
0.26800001 99012.30911286  3995.14686176
0.26900001 97599.91217893  4743.35595636
0.27000001 96209.15675854  5866.35361096
0.27100001 94838.85133109  5417.19544439
0.27200001 93489.56800334  6508.27658455
0.27300001 92159.94094871  6060.43800359
0.27400001 90848.65308883  4122.25782899
0.27500001 89558.55606165  5190.81415499
0.27600001 88285.02478523  3668.24295343
0.27700001 87032.08146179  3992.16176559
0.27800001 85795.98461511  4667.73076390
0.27900001 84578.38272571  4617.97991538
0.28000001 83377.56594233  3865.80102788
0.28100001 82194.35475476  4519.86778188
0.28200001 81028.37286707  4127.58550921
0.28300001 79878.75196847  5104.25249237
0.28400001 78744.75196189  3366.33830570
0.28500001 77627.42181289  3996.25986408
0.28600001 76525.46978013  3623.86379296
0.28700001 75439.67553569  3584.89355114
0.28800001 74367.50356014  3868.59771831
0.28900001 73311.98675423  3826.88588971
0.29000001 72270.35042908  3785.52113466
0.29100001 71243.79341347  4056.62178898
0.29200001 70230.95864634  3703.98093434
0.29300001 69232.57582746  3053.15673851
0.29400001 68247.08464847  4529.90045797
0.29500001 67276.55511405  3584.49502616
0.29600001 66318.12451419  3545.36710436
0.29700001 65373.47781198  4091.07243514
0.29800001 64441.95863822  3468.26637809
0.29900001 63523.66565119  3716.13461651
0.30000001 62617.01919722  3392.59026071
0.30100001 61723.91320755  3075.70274074
0.30200001 60842.19871074  3041.80586854
0.30300001 59973.42104146  3281.74575475
0.30400001 59116.39453405  3786.40524916
0.30500001 58271.76225909  3209.60881718
0.30600001 57437.65644061  4761.00756776
0.30700001 56616.12207294  3138.79795632
0.30800001 55805.70079047  3103.91322492
0.30900001 55006.93655120  2557.82267073
0.31000001 54219.31499014  2782.26428044
0.31100001 53442.40342206  3251.43597814
0.31200001 52677.44281836  2967.84726890
0.31300001 51922.50966793  2934.66038538
0.31400001 51179.83321892  2418.24723409
0.31500001 50446.34590001  3108.50398154
0.31600002 49724.90352432  2837.30312944
0.31700002 49013.11001716  2337.92545851
0.31800002 48311.71735626  3005.23052044
0.31900002 47621.37055607  3200.15625289
0.32000002 46941.45977419  2260.23139515
0.32100002 46271.29074186  3128.86482812
0.32200002 45612.32567366  2651.90074024
0.32300002 44961.72368448  2403.65386199
0.32400002 44322.52586934  3025.01253382
0.32500002 43692.89172233  2350.24075703
0.32600002 43073.45351890  2112.75299515
0.32700002 42463.87826607  2089.22290962
0.32800002 41865.06537808  2479.24928909
0.32900002 41274.04588668  2860.29151539
0.33000002 40694.19226395  2424.56008990
0.33100002 40122.93736059  2797.37132525
0.33200002 39562.76301720  2569.00813818
0.33300002 39011.51245959  2345.37224014
0.33400002 38470.27936970  2513.07111883
0.33500002 37938.30007062  2103.29945552
0.33600002 37415.26876836  2458.74450355
0.33700002 36901.80286926  2058.01364348
0.33800002 36398.63533694  2035.95776399
0.33900002 35903.78761645  2563.53055722
0.34000002 35418.46314558  2355.15081840
0.34100002 34942.52927456  2509.57257135
0.34200002 34476.60763277  1951.20370138
0.34300002 34018.99654778  2457.53242700
0.34400002 33571.38304305  2084.78298571
0.34500002 33132.40355218  2751.31492128
0.34600002 32703.13238585  2723.51699408
0.34700002 32281.79123573  2527.66437347
0.34800002 31870.30643703  1835.25168310
0.34900002 31467.54601785  1817.25086860
0.35000002 31073.94525114  1963.25195395
0.35100002 30689.87601081  1944.51063614
0.35200002 30313.13076068  2247.11248972
0.35300002 29946.59133860  2067.21329801
0.35400002 29588.16588783  1733.12689897
0.35500002 29238.82353779  2029.75922613
0.35600002 28897.74528651  1547.47433339
0.35700002 28565.35352526  1687.35551266
0.35800002 28241.92708199  2281.24176810
0.35900002 27927.48504987  1658.89269054
0.36000002 27621.12782962  1794.82097138
0.36100002 27322.82975371  1780.35567108
0.36200002 27034.42026065  2208.03637938
0.36300002 26752.89984110  2044.99176072
0.36400002 26480.40530521  1884.74293687
0.36500002 26215.30146292  1439.22011849
0.36600002 25959.32986059  1571.96729417
0.36700002 25710.92935764  1703.09204132
0.36800002 25471.53541118  1550.83450697
0.36900002 25239.84593144  1400.81151555
0.37000002 25015.48238633  2088.16749111
0.37100002 24799.10182757  1522.16894228
0.37200002 24591.19399581  1651.05284309
0.37300002 24390.71005463  2052.47834832
0.37400002 24197.83718677  1633.35408748
0.37500002 24012.80919007  1354.32250248
0.37600002 23835.55345036  1482.69067262
0.37700002 23665.41101016  1610.19464141
0.37800002 23502.87725318  1736.98022568
0.37900002 23348.29466386  1597.02343066
0.38000002 23200.29592995  1458.48667273
0.38100002 23058.82157665  1849.77875451
0.38200002 22925.64291649  1317.07824795
0.38300002 22798.72806379  1313.20679869
0.38400002 22679.05569722  2226.51639855
0.38500002 22565.71908104  1567.86623603
0.38600002 22460.16761411  1303.81279177
0.38700002 22360.22002304  1691.77432709
0.38800002 22267.01272702  1429.20827959
0.38900002 22180.26131547  1297.54534843
0.39000002 22100.47725373  1555.43166281
0.39100002 22026.13188330  1683.67760093
0.39200002 21958.63157917  1423.90753221
0.39300002 21896.66344413  1811.73001920
0.39400002 21841.84024415  1423.54200536
0.39500002 21791.62308327  1423.86471972
0.39600002 21747.46520911  1424.56777602
0.39700002 21708.31394061  1425.58504402
0.39800002 21675.95974151  1816.22875279
0.39900002 21648.00302842  1298.88024324
0.40000002 21625.81289876  1560.95124899
0.40100002 21608.45175496  1563.58764307
0.40200002 21596.72565206  1827.73097853
0.40300002 21589.66055407  1570.00018988
0.40400002 21587.47217553  1442.58289648
0.40500002 21589.64584789  1446.29044388
0.40600002 21597.44733558  1582.22906677
0.40700002 21609.08740928  1454.72383332
0.40800002 21625.05684419  1990.04595038
0.40900002 21644.98063302  1863.63292081
0.41000002 21669.87491517  1870.32699255
0.41100002 21698.42763568  1475.05918057
0.41200002 21730.09927380  1346.17971380
0.41300002 21766.92783498  1486.89891086
0.41400002 21806.66036962  1628.95760680
0.41500002 21849.90408808  1636.12089564
0.41600002 21895.72410284  1917.40865054
0.41700002 21946.30220789  1651.23985636
0.41800002 22000.34319871  2074.08245334
0.41900002 22055.68247888  1528.45886821
0.42000002 22114.57347862  1536.18891948
0.42100002 22176.89529656  1965.31655431
0.42200002 22241.65297942  1834.60283294
0.42300002 22308.56997218  2270.12018794
0.42400002 22377.85475601  1569.24713912
0.42500002 22450.05388158  1721.47021321
0.42600002 22523.12796121  1875.38833856
0.42700002 22599.58871140  2611.60859524
0.42800002 22677.19268214  2626.69935284
0.42900002 22757.55104179  1614.64832293
0.43000002 22839.41853817  1771.88217416
0.43100002 22921.36608806  1782.36551147
0.43200002 23006.21348873  1643.67900059
0.43300002 23091.55956567  1503.26059896
0.43400002 23178.73307269  1512.41240466
0.43500002 23266.34034509  1673.78060374
0.43600002 23355.79358908  1684.06957655
0.43700002 23445.45175453  1848.43950392
0.43800002 23535.25992537  2324.69540929
0.43900002 23626.97924564  1871.25684493
0.44000002 23718.39092668  1568.97163415
0.44100002 23810.66838740  1736.51212779
0.44200002 23903.04738447  1906.02908876
0.44300002 23995.85537736  1917.74885264
0.44400002 24088.46676158  1768.69575579
0.44500002 24180.62715355  1779.45243656
0.44600002 24272.70659597  2115.73057071
0.44700002 24365.47210390  2292.30372417
0.44800002 24456.92871829  2141.32649541
0.44900002 24548.48220242  2651.23620351
0.45000002 24639.91241122  2166.95719970
0.45100002 24729.68410938  1844.33992829
0.45200002 24819.33722776  2192.41625792
0.45300002 24907.85966219  2035.47038806
0.45400002 24995.70497816  1705.95694561
0.45500002 25082.83579590  2058.79925970
0.45600002 25168.37703235  1725.29232734
0.45700002 25253.15280402  2081.87001583
0.45800002 25336.31916069  2093.28678827
0.45900002 25418.17662714  1753.85427040
0.46000002 25499.18963187  2468.57666526
0.46100002 25577.76651704  1949.79323400
0.46200002 25655.53641673  1781.77708859
0.46300002 25731.45516636  3044.54591958
0.46400002 25805.23109962  2699.87243176
0.46500002 25878.39889872  2170.68020251
0.46600002 25948.57022114  2544.77640220
0.46700002 26017.02017462  2922.23184451
0.46800002 26084.18121291  2018.52445883
0.46900002 26148.51534639  2027.81746122
0.47000002 26211.01957136  2036.98948253
0.47100002 26271.58328135  2604.03945827
0.47200002 26330.13130661  2615.37206665
0.47300002 26386.30185558  2626.49261119
0.47400002 26439.52500781  2260.57949531
0.47500002 26491.01239938  2269.75004996
0.47600002 26540.74820126  2088.88968619
0.47700002 26586.86589165  2096.90621226
