# SAXS profile: number of points = 501, q_min = 0, q_max = 0.5, delta_q = 0.001
#    q    intensity    error
0.00000000 1664650.74656090 324.60689558
0.00100000 1664569.22739079 499.37078008
0.00200000 1664324.59592591 898.73531026
0.00300000 1663917.08890472 1397.69040447
0.00400000 1663346.58272764 1746.51397823
0.00500000 1662613.55206433 1945.25793291
0.00600000 1661717.94295645 2268.24508448
0.00700000 1660660.30217712 1992.79244543
0.00800000 1659440.42757952 3808.41594209
0.00900000 1658059.55706192 3233.21627448
0.01000000 1656517.13414200 2733.25338935
0.01100000 1654814.34394894 3574.39913856
0.01200000 1652951.14926824 3867.90585887
0.01300000 1650928.71165441 3813.64549212
0.01400000 1648747.09213256 4451.61734610
0.01500000 1646407.55179038 4346.51613027
0.01600000 1643909.65435840 5030.36376721
0.01700000 1641255.65978528 4874.52952823
0.01800000 1638445.44773864 7004.35460426
0.01900000 1635479.56668729 4906.43892145
0.02000000 1632359.46669256 6170.31906322
0.02100000 1629086.94413705 5375.98715939
0.02200000 1625660.61966482 6730.23527118
0.02300000 1622083.68900297 6423.45170084
0.02400000 1618355.74419091 8496.36804442
0.02500000 1614479.24773622 8185.41015986
0.02600000 1610454.33211005 8479.04244638
0.02700000 1606282.90971984 7421.02738280
0.02800000 1601964.96043005 8362.25747693
0.02900000 1597503.11538054 9345.39365406
0.03000000 1592898.53916736 11110.46782139
0.03100000 1588151.55659947 9910.06616917
0.03200000 1583263.80571001 7837.15619923
0.03300000 1578238.87026899 10463.72419227
0.03400000 1573075.09280653 13213.83138927
0.03500000 1567775.51565563 10159.18581058
0.03600000 1562341.49240694 10405.19482029
0.03700000 1556774.80506820 9760.97847920
0.03800000 1551076.88676196 11795.94026974
0.03900000 1545249.99889685 10198.65046502
0.04000000 1539293.68077248 13253.31920560
0.04100000 1533212.34113292 13522.93347580
0.04200000 1527006.48489530 16743.62688366
0.04300000 1520677.05199559 14051.05661266
0.04400000 1514227.57665328 14309.45126393
0.04500000 1507659.60485267 14563.99245959
0.04600000 1500972.99883774 13756.41817384
0.04700000 1494171.69928328 13985.44775573
0.04800000 1487256.68788040 15303.87203035
0.04900000 1480231.40247635 12211.90963886
0.05000000 1473095.39855729 20284.52458271
0.05100000 1465853.51217538 13720.38951311
0.05200000 1458503.66911723 12754.61518081
0.05300000 1451052.29109270 17630.28615866
0.05400000 1443498.95506831 17863.30040200
0.05500000 1435846.38564513 16885.55428289
0.05600000 1428095.82647566 15873.28585199
0.05700000 1420251.97542456 17298.66986815
0.05800000 1412314.03428137 14998.77574440
0.05900000 1404284.70747399 13902.41925332
0.06000000 1396167.65986203 17884.90855839
0.06100000 1387964.02418533 16780.48583658
0.06200000 1379676.36449792 14341.73647934
0.06300000 1371307.52013509 14481.00808969
0.06400000 1362856.41722706 13287.85068939
0.06500000 1354328.99075902 16089.42916285
0.06600000 1345726.51356129 17581.91772231
0.06700000 1337050.25974575 23184.45258900
0.06800000 1328303.46711180 17872.32398658
0.06900000 1319488.79507579 15240.09629665
0.07000000 1310606.96106424 15353.76126786
0.07100000 1301660.88457847 16869.52585427
0.07200000 1292653.36688311 19816.37704265
0.07300000 1283586.61471860 15672.59330006
0.07400000 1274463.53398096 18639.03005797
0.07500000 1265284.80580680 15866.67220853
0.07600000 1256052.54386831 14507.40756179
0.07700000 1246771.52057456 16045.95022217
0.07800000 1237442.04929154 19062.79566331
0.07900000 1228066.27517908 17684.15519203
0.08000000 1218648.02024280 16287.23155460
0.08100000 1209188.56271655 17847.62402307
0.08200000 1199689.59767754 17923.36343036
0.08300000 1190154.53348780 17995.13739088
0.08400000 1180585.00101100 25589.18109804
0.08500000 1170983.42934222 18126.82433718
0.08600000 1161351.56860204 24249.02189094
0.08700000 1151693.48210255 16722.59014538
0.08800000 1142008.39755033 15245.81282330
0.08900000 1132301.66756657 16814.68055314
0.09000000 1122573.57677573 21452.38205992
0.09100000 1112826.16234644 16892.70193806
0.09200000 1103062.05853055 24620.34630323
0.09300000 1093285.76312362 21581.46197822
0.09400000 1083494.11226898 18527.75019056
0.09500000 1073693.20577078 15461.18288982
0.09600000 1063884.05498328 15479.51372766
0.09700000 1054070.81556338 23242.26257586
0.09800000 1044253.34229373 17057.87914839
0.09900000 1034434.76815972 20171.47892763
0.10000000 1024615.46942890 18627.51011022
0.10100000 1014797.89827430 18631.69028860
0.10200000 1004985.46013324 21737.83652515
0.10300000 995178.74826077 21734.70488443
0.10400000 985381.21762618 15519.75490774
0.10500000 975595.39531750 17063.16426691
0.10600001 965818.36550856 15501.38549581
0.10700001 956057.87847455 20134.57986816
0.10800001 946312.28040082 18566.64781524
0.10900001 936585.67729887 21635.13016388
0.11000001 926877.96449651 20062.27448585
0.11100001 917191.20726078 20031.45690952
0.11200001 907528.13929766 16920.86295379
0.11300001 897889.63586640 23030.87024429
0.11400001 888278.31635279 16855.08184641
0.11500001 878695.65227761 21405.02709740
0.11600001 869142.57765387 22880.17943420
0.11700001 859622.24156591 21301.44014919
0.11800001 850133.41757368 16692.37044024
0.11900001 840679.54292123 21185.12547947
0.12000001 831261.02267949 16596.12709955
0.12100001 821882.80161346 15040.45597805
0.12200001 812542.71330541 19488.83789677
0.12300001 803244.45783396 16434.38238158
0.12400001 793987.13908923 17864.71147125
0.12500001 784772.84749610 16315.42826823
0.12600001 775605.59605160 22162.93095157
0.12700001 766483.61925642 22074.72927489
0.12800001 757408.90343672 17587.03556666
0.12900001 748383.64879209 20430.87457497
0.13000001 739408.74297546 17435.25898117
0.13100001 730484.02705066 24588.09350955
0.13200001 721612.56048491 17275.40551238
0.13300001 712794.67072307 17192.60826835
0.13400001 704030.97257345 15682.29065342
0.13500001 695323.66186620 15603.06370793
0.13600001 686673.08758822 15522.24587682
0.13700001 678080.64753920 16843.52407910
0.13800001 669545.29696899 15356.02211011
0.13900001 661071.16858522 16658.99423396
0.14000001 652656.70662535 22085.90399379
0.14100001 644304.89046708 15096.06429562
0.14200001 636014.78048693 17735.27299037
0.14300001 627788.74165931 13560.23745944
0.14400001 619623.75604847 17519.86252868
0.14500001 611526.20506214 18749.39433165
0.14600001 603493.18612743 18629.83553460
0.14700001 595527.45972644 18508.99432149
0.14800001 587626.06658232 14446.78752851
0.14900001 579793.05844041 14349.87887344
0.15000001 572027.58945639 14252.06806376
0.15100001 564330.50549187 21873.45142496
0.15200001 556703.45372624 16609.24832566
0.15300001 549145.67984074 20296.42528468
0.15400001 541655.91886971 13852.85077882
0.15500001 534238.42914597 12501.17983198
0.15600001 526889.55955461 17371.54959836
0.15700001 519614.59061203 16009.32629235
0.15800001 512408.05335283 19553.49223884
0.15900001 505275.34168193 16977.25228185
0.16000001 498212.18285851 13235.00726236
0.16100001 491223.58451878 14324.08040073
0.16200001 484306.78811521 16577.82213976
0.16300001 477462.15410357 14094.68345452
0.16400001 470690.86289509 13979.51928795
0.16500001 463991.53309305 16174.74560725
0.16600001 457366.14564808 13748.42698729
0.16700001 450812.57872138 14768.62077621
0.16800001 444332.65491018 14642.98333395
0.16900001 437926.98550596 12283.85252346
0.17000001 431592.65379776 11070.35209265
0.17100001 425332.50440562 14265.65287141
0.17200001 419144.97542405 14139.85641366
0.17300001 413030.37932895 10780.09340957
0.17400001 406989.42058280 16025.20919225
0.17500001 401020.30537164 10586.93656181
0.17600001 395122.50504327 10490.50300436
0.17700001 389300.13159091 11433.74540485
0.17800001 383547.88149899 12357.91332559
0.17900001 377867.59556516 12242.91067459
0.18000001 372260.37092883 12128.24345774
0.18100001 366724.76595122 12013.90390006
0.18200001 361258.62416518 13883.16958248
0.18300001 355864.11864865 10804.03515255
0.18400001 350540.25729586 11672.99111939
0.18500001 345286.96471770 11560.20812488
0.18600001 340103.90792642 11447.89808164
0.18700001 334989.59293404 12280.71905716
0.18800001 329943.30874916 11224.67189397
0.18900001 324969.21096700 10187.78524516
0.19000001 320059.21692499 12837.57579742
0.19100001 315219.98742930 9986.16967361
0.19200001 310446.59757317 9886.17236685
0.19300001 305741.96969151 13345.63760765
0.19400001 301102.05462817 14972.30037389
0.19500001 296529.03179729 9589.74934149
0.19600001 292020.35761699 10355.04237044
0.19700001 287578.52278021 10249.29903624
0.19800001 283199.76756785 10144.21615368
0.19900001 278885.44986568 9203.22028051
0.20000001 274632.77294737 9936.21419483
0.20100001 270444.87397937 10652.82408952
0.20200001 266317.68597943 8920.31131349
0.20300001 262252.57629829 12037.39382103
0.20400001 258249.01399554 8735.27331128
0.20500001 254304.84435881 8643.82206832
0.20600001 250420.19954522 11663.32134512
0.20700001 246595.11948263 9232.52170984
0.20800001 242828.01954091 8373.92464971
0.20900001 239121.04649946 8285.54465287
0.21000001 235468.44501201 8197.83430062
0.21100001 231873.90175177 8848.30850914
0.21200001 228334.14269043 10213.38668538
0.21300001 224849.68883807 7217.67535292
0.21400001 221420.23287528 12139.36484129
0.21500001 218045.62383827 8477.61425563
0.21600001 214722.71940552 9784.91478593
0.21700001 211452.90246242 7605.96126118
0.21800001 208235.22070177 8208.63278817
0.21900001 205067.96796099 7443.96758895
0.22000001 201950.65840057 10041.99696378
0.22100001 198884.82904267 8609.72465636
0.22200001 195867.53936196 6551.76950145
0.22300001 192898.25716057 9073.93444590
0.22400001 189976.23711929 8335.20779775
0.22500001 187103.43957513 8245.64897199
0.22600001 184275.11862593 6902.02489452
0.22700001 181493.55672669 8689.91190701
0.22800001 178756.42352192 6754.31178219
0.22900001 176063.21760735 7289.01755365
0.23000001 173414.22578442 6609.68352836
0.23100001 170809.34424795 8916.24819142
0.23200001 168245.06574592 7056.19839110
0.23300001 165723.66104939 5816.90077794
0.23400001 163242.28258557 6905.14887995
0.23500001 160801.06341495 6261.59370553
0.23600001 158400.02717201 7883.56972522
0.23700001 156038.15360991 9469.95599049
0.23800001 153714.14496259 8265.97853633
0.23900001 151428.24504306 5996.55878734
0.24000001 149178.71038537 5932.09169906
0.24100001 146966.92215668 9069.32919528
0.24200001 144790.86945649 6333.15292960
0.24300001 142649.24875601 6265.15530172
0.24400001 140542.54508476 6714.42040904
0.24500001 138469.24680542 5620.46699370
0.24600001 136429.63963929 7076.60574285
0.24700001 134423.35996494 7000.76891815
0.24800001 132449.04185541 6925.76072625
0.24900001 130505.10006910 4893.94148411
0.25000001 128593.55537288 5809.85710660
0.25100001 126711.47860328 5747.63294136
0.25200001 124861.20933027 8055.42130104
0.25300001 123038.73784386 6094.10897372
0.25400001 121246.08719885 4637.66305477
0.25500001 119480.00185649 5964.44197487
0.25600001 117743.14881163 5446.79832173
0.25700001 116032.54307509 5388.55155536
0.25800001 114348.77147268 6219.42997467
0.25900001 112692.10277079 5273.99065921
0.26000001 111060.24820472 6956.81427671
0.26100001 109453.21307184 5161.81377271
0.26200001 107872.26691757 4255.56113126
0.26300001 106314.04468956 5473.04727959
0.26400001 104780.53921959 6664.04260970
0.26500001 103270.40096711 6180.73379035
0.26600001 101782.64060876 6929.87141377
0.26700001 100317.84015383 6049.16604752
0.26800001 98875.19402244  4388.57569436
0.26900001 97453.43026778  4736.23693514
0.27000001 96053.34323312  5075.93916336
0.27100001 94673.91310216  5794.04375604
0.27200001 93315.49509798  4585.52364612
0.27300001 91976.93505374  4158.27743057
0.27400001 90656.67170868  4113.54667345
0.27500001 89357.78071374  4069.35352629
0.27600001 88075.59675779  5489.31182772
0.27700001 86813.87726497  5792.22216524
0.27800001 85569.27151209  5013.50385517
0.27900001 84343.15329132  4605.13638766
0.28000001 83134.07220454  5256.15196390
0.28100001 81942.55610231  4506.02137333
0.28200001 80768.42493649  5142.92970124
0.28300001 79610.72276963  3730.55864555
0.28400001 78468.77303011  4025.44824697
0.28500001 77343.69666511  4313.45816717
0.28600001 76234.01228628  3938.24926111
0.28700001 75140.64808831  3895.29138127
0.28800001 74061.09995822  3852.65860218
0.28900001 72998.07726108  4763.12476674
0.29000001 71949.27513346  4082.76181070
0.29100001 70915.56642051  3727.32234749
0.29200001 69895.81917374  3379.11353791
0.29300001 68890.51632971  4557.10787092
0.29400001 67898.37495977  3905.85420445
0.29500001 66921.26285488  4159.82589597
0.29600001 65956.38050532  2938.35689061
0.29700001 65005.46972048  3486.89356087
0.29800001 64067.79426826  4022.81699254
0.29900001 63143.45883293  3409.74693839
0.30000001 62230.96396398  4776.53786517
0.30100001 61332.06053744  3889.67946342
0.30200001 60444.74151023  4120.82044754
0.30300001 59570.49499107  2988.05617021
0.30400001 58708.14550397  3223.07734075
0.30500001 57858.45006674  2655.70298379
0.30600001 57019.24907883  2888.31019883
0.30700001 56192.92135199  3115.33570724
0.30800001 55377.68889180  3850.13400248
0.30900001 54574.42496920  2791.48196934
0.31000001 53782.41074500  2508.94958004
0.31100001 53001.37867017  3472.65049488
0.31200001 52232.25264304  2452.30437770
0.31300001 51473.41456047  3151.71732276
0.31400001 50726.97908784  3115.90483800
0.31500001 49989.92405104  2843.42701465
0.31600002 49265.01206833  3045.31686519
0.31700002 48549.93031228  2547.41496410
0.31800002 47845.37496438  2289.40130045
0.31900002 47152.09858913  2715.96100733
0.32000002 46469.37430044  3580.00076562
0.32100002 45796.59707437  2433.17331777
0.32200002 45135.16444559  2624.15858512
0.32300002 44482.37296825  2594.21211435
0.32400002 43841.00046961  2778.42353632
0.32500002 43209.38065554  2535.52657693
0.32600002 42588.14358408  2297.84339589
0.32700002 41976.94343730  2478.31885789
0.32800002 41376.66507851  3267.10162931
0.32900002 40784.34078813  2220.70746107
0.33000002 40203.33176942  2195.70506856
0.33100002 39631.06673976  2763.07810394
0.33200002 39070.18629284  2537.02266707
0.33300002 38518.19012625  2315.71370005
0.33400002 37976.54177523  2480.81770895
0.33500002 37444.21705396  1887.18862889
0.33600002 36921.04525606  3546.08195955
0.33700002 36407.63107428  2399.62707774
0.33800002 35904.54232321  1825.74606360
0.33900002 35410.14589164  1986.50927860
0.34000002 34925.24397932  2322.35420839
0.34100002 34449.92803623  2650.92208793
0.34200002 33984.85912667  2273.07741034
0.34300002 33528.24664918  1730.05760903
0.34400002 33081.76502287  2567.97213152
0.34500002 32644.04866974  3049.60717116
0.34600002 32216.23171037  2347.59691592
0.34700002 31796.50557291  2323.68873732
0.34800002 31386.82982918  1971.72074325
0.34900002 30985.90465803  1952.11208591
0.35000002 30594.41175181  2255.11419703
0.35100002 30212.58900581  2552.35964010
0.35200002 29838.14115413  2053.90854362
0.35300002 29474.07566765  1721.58084129
0.35400002 29118.34578223  1550.55198634
0.35500002 28771.87912123  2304.62762677
0.35600002 28433.72623207  2283.93916777
0.35700002 28104.41058968  1660.12761216
0.35800002 27784.17394721  1945.03118930
0.35900002 27473.15721990  1928.61572819
0.36000002 27170.33989896  1618.40137274
0.36100002 26875.68521007  2043.08968644
0.36200002 26591.02179221  1737.45744620
0.36300002 26313.36608796  1580.38084210
0.36400002 26044.95978179  2281.53858496
0.36500002 25783.99638482  1415.54146858
0.36600002 25532.34672700  1686.66690468
0.36700002 25288.35680141  1814.69257003
0.36800002 25053.51959121  1664.05485007
0.36900002 24826.44027475  1377.86750052
0.37000002 24606.89599187  1369.37382681
0.37100002 24395.39418394  1905.76828392
0.37200002 24192.51504587  1488.92840903
0.37300002 23997.22996993  1480.86913159
0.37400002 23809.49877302  1339.28436943
0.37500002 23629.89539695  1332.72616352
0.37600002 23458.03473704  1857.17269811
0.37700002 23293.50478966  1452.81596255
0.37800002 23136.50396899  1315.31031295
0.37900002 22987.77455026  1965.45481716
0.38000002 22845.58489896  2089.00038212
0.38100002 22710.00235593  1431.41151630
0.38200002 22582.84238701  1946.07653489
0.38300002 22462.09145525  1811.34314076
0.38400002 22348.61654607  1935.94900002
0.38500002 22241.55445815  1287.78606413
0.38600002 22142.37151198  2442.19298161
0.38700002 22048.92958277  1283.24776251
0.38800002 21962.18874660  1665.94190630
0.38900002 21882.07194697  1792.14177736
0.39000002 21808.86546949  1662.81702650
0.39100002 21741.32700009  1661.90711462
0.39200002 21680.62421211  1533.68742943
0.39300002 21625.48892399  1533.67974715
0.39400002 21577.50909348  1278.46747436
0.39500002 21534.40038890  1662.88647681
0.39600002 21497.22236079  1536.19158268
0.39700002 21465.16014835  1665.91115804
0.39800002 21439.95101364  2053.08980634
0.39900002 21419.17458780  1542.18064339
0.40000002 21404.21113605  1287.46336083
0.40100002 21394.07905665  1419.06933106
0.40200002 21389.64408570  1551.60485549
0.40300002 21389.92364960  1296.22943458
0.40400002 21395.09352454  1949.62798980
0.40500002 21404.67313357  1564.25358672
0.40600002 21419.97356679  1438.45839303
0.40700002 21439.01868786  1574.48160704
0.40800002 21462.42336245  1975.07960351
0.40900002 21489.81745586  1850.27337062
0.41000002 21522.25173444  1592.21625876
0.41100002 21558.30823467  1465.53386323
0.41200002 21597.54468167  1605.56154771
0.41300002 21641.88589359  1343.96117767
0.41400002 21689.12807437  1620.17794392
0.41500002 21739.93895354  1627.88670598
0.41600002 21793.29350018  1635.80468763
0.41700002 21851.42362577  1370.08432626
0.41800002 21912.99802915  1790.40158881
0.41900002 21975.79409037  1799.81762128
0.42000002 22042.16382505  2087.94406726
0.42100002 22112.05719750  1959.57060170
0.42200002 22184.30678437  2955.94809755
0.42300002 22258.61783219  1698.77779345
0.42400002 22335.40291293  1993.43480444
0.42500002 22415.03076029  2005.24874684
0.42600002 22495.48844486  1584.91971349
0.42700002 22579.28963853  2319.34474158
0.42800002 22664.17512253  1750.12768589
0.42900002 22751.89338226  1760.99663124
0.43000002 22840.98612206  2510.33869870
0.43100002 22930.24414998  1485.87989133
0.43200002 23022.17366628  1644.81927553
0.43300002 23114.72540004  2106.67617279
0.43400002 23208.95761224  1514.38455596
0.43500002 23303.59816459  1524.05539219
0.43600002 23400.03654909  1840.64696218
0.43700002 23496.58994706  1852.47123921
0.43800002 23593.36073781  1864.34745385
0.43900002 23691.86473642  2032.76209072
0.44000002 23790.10100646  1731.08678177
0.44100002 23888.99082483  1900.60820009
0.44200002 23988.05960511  1753.40729993
0.44300002 24087.46968395  1764.64811267
0.44400002 24186.51190170  2421.67461892
0.44500002 24285.16684734  2924.41993035
0.44600002 24383.58851169  1634.91968719
0.44700002 24482.61364440  2467.84757231
0.44800002 24580.28692705  2152.12712389
0.44900002 24678.01754827  1998.91951614
0.45000002 24775.52490056  2178.88364064
0.45100002 24871.26946312  2360.78100932
0.45200002 24966.83897377  1866.14646754
0.45300002 25061.21234714  2048.00237007
0.45400002 25154.67329172  1888.48718688
0.45500002 25247.50197266  2072.31506013
0.45600002 25338.59813800  1736.96098468
0.45700002 25428.89160319  2096.35792312
0.45800002 25517.37080948  2283.93238255
0.45900002 25604.53542205  1766.71302785
0.46000002 25690.73175071  1954.16560323
0.46100002 25774.41900944  2143.40078641
0.46200002 25857.20444475  1975.36122718
0.46300002 25938.00444673  2166.34223407
0.46400002 26016.59767471  2359.05510596
0.46500002 26094.45162333  2006.40248041
0.46600002 26169.16981685  2016.46547581
0.46700002 26242.15833454  1842.19960240
0.46800002 26313.69757401  2221.40245448
0.46900002 26382.40800184  3719.91970457
0.47000002 26449.01900233  1868.62328108
0.47100002 26513.71902455  2064.88853550
0.47200002 26576.22661333  3771.16673517
0.47300002 26636.26716758  2461.99029099
0.47400002 26693.24369278  2472.46181423
0.47500002 26748.33777522  3055.73025228
0.47600002 26801.62375702  2301.18752485
0.47700002 26851.22839511  2502.80311734
