# SAXS profile: number of points = 501, q_min = 0, q_max = 0.5, delta_q = 0.001
#    q    intensity    error
0.00000000 1682732.95097188 277.65093691
0.00100000 1682650.73167304 757.19284724
0.00200000 1682404.00415970 1135.62273877
0.00300000 1681993.00444573 1311.95459020
0.00400000 1681417.59528664 1387.16956882
0.00500000 1680678.28399073 2268.91577319
0.00600000 1679774.99180085 2469.26933848
0.00700000 1678708.27271970 2618.78501428
0.00800000 1677477.93989019 2491.05484591
0.00900000 1676085.21265735 3268.36630440
0.01000000 1674529.55821477 3039.27127939
0.01100000 1672812.13753919 3312.16817654
0.01200000 1670932.96344644 3909.98330589
0.01300000 1668893.13150111 5607.48116916
0.01400000 1666692.74316540 5250.08237371
0.01500000 1664333.15349647 5192.71967013
0.01600000 1661813.77199530 4661.38783883
0.01700000 1659136.94099486 4927.63693580
0.01800000 1656302.53210121 6136.60115757
0.01900000 1653311.18151149 7439.90065251
0.02000000 1650164.19406833 6757.42268039
0.02100000 1646863.53937468 5978.11491897
0.02200000 1643407.70977991 6236.73254196
0.02300000 1639799.95453529 8264.59214705
0.02400000 1636039.88553908 6135.14985052
0.02500000 1632129.98975322 7638.36870089
0.02600000 1628070.31404105 7912.42208814
0.02700000 1623862.96241171 10912.35960720
0.02800000 1619507.68814581 8453.83051981
0.02900000 1615007.35455621 7267.53342919
0.03000000 1610362.94534854 8237.00684407
0.03100000 1605574.88482646 8477.43578196
0.03200000 1600644.85931294 9507.83090223
0.03300000 1595576.54576596 8137.44075855
0.03400000 1590367.89043770 10854.26135306
0.03500000 1585022.49577194 9415.03405965
0.03600000 1579541.30054737 8766.45462317
0.03700000 1573926.37827101 13457.07115657
0.03800000 1568179.05999213 10091.23271807
0.03900000 1562301.40763502 11248.57065589
0.04000000 1556293.38255753 12442.56617012
0.04100000 1550159.11113542 14649.00427945
0.04200000 1543899.21625420 11949.78048819
0.04300000 1537514.66771578 13191.87646134
0.04400000 1531009.07061891 14468.03638927
0.04500000 1524383.65672660 18932.84589626
0.04600000 1517638.56960237 12839.22289569
0.04700000 1510777.94078268 13053.12201544
0.04800000 1503802.61871536 16579.42464275
0.04900000 1496715.83856036 11225.36931172
0.05000000 1489517.27139496 13673.76918814
0.05100000 1482211.84443855 11561.25292519
0.05200000 1474797.58266546 12897.10546143
0.05300000 1467280.76099465 14261.96966173
0.05400000 1459661.03864571 16859.08578256
0.05500000 1451941.23740824 13415.93765950
0.05600000 1444122.22939895 17286.14389255
0.05700000 1436209.41031247 14994.02694356
0.05800000 1428201.43538616 12639.58329334
0.05900000 1420101.09404366 14059.00148767
0.06000000 1411912.35360367 18086.59809465
0.06100000 1403636.33160331 18275.34589151
0.06200000 1395275.21659942 14503.88655451
0.06300000 1386831.96982388 15976.30503935
0.06400000 1378306.07650937 17470.03033677
0.06500000 1369702.76583102 16272.06961924
0.06600000 1361023.74156639 17781.77601555
0.06700000 1352270.38952836 17931.10620430
0.06800000 1343445.63542122 22247.46076396
0.06900000 1334552.27536911 14012.79954744
0.07000000 1325591.18451912 21176.32016435
0.07100000 1316565.23218607 15640.79569095
0.07200000 1307476.97381202 21475.31030091
0.07300000 1298328.92008625 18734.88719468
0.07400000 1289124.00902183 15952.91035926
0.07500000 1279862.89282993 23344.70025944
0.07600000 1270547.36639446 17609.78732378
0.07700000 1261182.77480531 17707.00698852
0.07800000 1251769.24386647 20766.85272963
0.07900000 1242308.75556964 20870.78807249
0.08000000 1232805.51769021 14978.58774260
0.08100000 1223260.34927173 16550.71330218
0.08200000 1213675.46273827 19643.33828619
0.08300000 1204053.64282330 16688.18427274
0.08400000 1194397.21145728 15228.56516089
0.08500000 1184708.24096125 19867.55813361
0.08600000 1174988.80147407 16866.96503709
0.08700000 1165242.50400550 19995.56230768
0.08800000 1155469.16704057 20053.16833576
0.08900000 1145673.68748607 20106.57415978
0.09000000 1135856.36285145 21706.21611375
0.09100000 1126019.64263524 17092.97897825
0.09200000 1116165.91196625 17127.56672389
0.09300000 1106299.54649708 29637.76624340
0.09400000 1096417.99783299 20311.14436443
0.09500000 1086526.54958024 23468.97457404
0.09600000 1076626.71439354 20364.39526004
0.09700000 1066723.00689957 18816.99472635
0.09800000 1056814.44872548 15693.69530145
0.09900000 1046904.93028969 18844.28963132
0.10000000 1036994.27733994 18852.55684862
0.10100000 1027085.62647581 20428.73407140
0.10200000 1017181.60870588 18858.54791244
0.10300000 1007283.51404153 20427.71062570
0.10400000 997394.56636869 20421.65470714
0.10500000 987517.11247955 23552.28424076
0.10600001 977648.40505350 17260.38340338
0.10700001 967796.38903011 17246.13246408
0.10800001 957959.14435733 21927.68584629
0.10900001 948140.89865843 15644.32556417
0.11000001 938341.57491921 26559.75952824
0.11100001 928563.70979924 20279.83237666
0.11200001 918809.17347893 15573.81622364
0.11300001 909079.32025854 17099.78281913
0.11400001 899376.80896721 17065.67575368
0.11500001 889703.19526293 17028.91995919
0.11600001 880059.32382284 23167.56279063
0.11700001 870448.24943750 18488.32168876
0.11800001 860868.94860752 18439.81374766
0.11900001 851324.37460476 24518.14314346
0.12000001 841815.82562642 21390.54113677
0.12100001 832347.78468279 16755.16169497
0.12200001 822918.29919630 18219.41200255
0.12300001 813530.42694428 19671.16665031
0.12400001 804183.82439606 18094.13690146
0.12500001 794880.93716676 18027.90050443
0.12600001 785625.01829745 22449.23595574
0.12700001 776414.67854164 20870.02754273
0.12800001 767251.85405789 20784.85370600
0.12900001 758139.18425509 17740.45774771
0.13000001 749076.99745389 16191.30006314
0.13100001 740065.37359739 14653.29508795
0.13200001 731107.47754608 14585.59486461
0.13300001 722203.62377345 14516.29352219
0.13400001 713354.13304895 17334.50625034
0.13500001 704561.50110540 14373.05530021
0.13600001 695825.95310270 22878.75841677
0.13700001 687149.06197074 19913.58075490
0.13800001 678529.54865336 22635.74681048
0.13900001 669972.16247190 19697.18250556
0.14000001 661474.50172702 15389.20500844
0.14100001 653040.16376673 15300.73175868
0.14200001 644667.92204884 20742.19137023
0.14300001 636360.58884290 16494.46724081
0.14400001 628114.33932006 16393.78502955
0.14500001 619936.39195690 14934.26838672
0.14600001 611823.29383099 17537.91554500
0.14700001 603778.17672882 14744.26377130
0.14800001 595797.78654952 18642.51362066
0.14900001 587886.61139397 18518.42913262
0.15000001 580043.17394550 17079.37206268
0.15100001 572269.08711273 19571.60370274
0.15200001 564565.40112041 12956.77656710
0.15300001 556931.77792294 15438.14961254
0.15400001 549366.49262650 16604.60302322
0.15500001 541874.08407674 15215.82499896
0.15600001 534451.14849200 13844.95765510
0.15700001 527102.78450864 18738.50487368
0.15800001 519823.10020930 12397.78152515
0.15900001 512618.21162789 17223.97272368
0.16000001 505483.39080111 13428.16691047
0.16100001 498423.68434767 12111.69610137
0.16200001 491436.63571893 14418.75157265
0.16300001 484522.33234394 16686.94991368
0.16400001 477681.95731267 13004.89190179
0.16500001 470914.44983348 15243.50146078
0.16600001 464221.40911238 13954.49621675
0.16700001 457600.74122616 11531.53922336
0.16800001 451054.41629700 17151.34498952
0.16900001 444583.17382407 11336.87146782
0.17000001 438184.05761471 12363.36376939
0.17100001 431859.44610902 16712.96135363
0.17200001 425608.27152253 14357.89571783
0.17300001 419430.98455271 14231.29397794
0.17400001 413327.82088673 13019.82697281
0.17500001 407297.06808084 16128.96465773
0.17600001 401338.57685734 11721.09369070
0.17700001 395456.08062235 13726.28120670
0.17800001 389644.55236288 11508.15239759
0.17900001 383905.43700958 18657.80511994
0.18000001 378240.43351335 11296.15108045
0.18100001 372647.68164767 11190.61040848
0.18200001 367124.81494016 12093.09197538
0.18300001 361674.51067680 10980.43866286
0.18400001 356295.30583396 9887.19520397
0.18500001 350987.75252560 9792.55875809
0.18600001 345750.91859484 13577.63921467
0.18700001 340583.54783453 12485.79345350
0.18800001 335484.78798851 12364.29244548
0.18900001 330459.04224533 9418.08314897
0.19000001 325498.10564471 10258.07328407
0.19100001 320608.63779414 10156.88212523
0.19200001 315785.58691869 10056.19249059
0.19300001 311032.27916542 9956.14372654
0.19400001 306344.13271660 11648.73619700
0.19500001 301723.64264141 9757.74306413
0.19600001 297168.07612301 10537.58047729
0.19700001 292680.13430853 9561.86043973
0.19800001 288255.86820035 11185.76949414
0.19900001 283896.72349940 12775.35316124
0.20000001 279600.05757060 8429.94213416
0.20100001 275368.67802017 10846.77273986
0.20200001 271198.55493199 9909.59566558
0.20300001 267091.44710669 12259.49800164
0.20400001 263046.24347801 10515.27408005
0.20500001 259061.14035731 10406.48650004
0.20600001 255136.53047257 9506.38757476
0.20700001 251271.82222713 12543.48995850
0.20800001 247465.71951268 7758.05067345
0.20900001 243720.46038385 9212.63383800
0.21000001 240030.20526534 10635.73889808
0.21100001 236398.55202193 10524.46403354
0.21200001 232822.35555776 11901.87937877
0.21300001 229302.05068987 8832.71541014
0.21400001 225837.17943907 8011.57431936
0.21500001 222427.97662747 7206.66678344
0.21600001 219070.89191224 9269.98522954
0.21700001 215767.66312921 8466.72350149
0.21800001 212516.98507388 7679.30161873
0.21900001 209317.27411473 8288.96444686
0.22000001 206168.05837978 8201.36575013
0.22100001 203070.85684352 9467.16379369
0.22200001 200022.89226783 7359.84266900
0.22300001 197023.39127802 7281.98488597
0.22400001 194071.52594184 8514.88860334
0.22500001 191169.60122516 7776.77974558
0.22600001 188312.59004066 9618.06599115
0.22700001 185502.85079588 6978.61757695
0.22800001 182737.99851821 10043.28087351
0.22900001 180017.59371337 9315.91091522
0.23000001 177341.91224666 9217.34632493
0.23100001 174710.77773472 6687.92888798
0.23200001 172120.67512845 7218.74145629
0.23300001 169573.97389668 6547.25144180
0.23400001 167067.56231180 9422.61096003
0.23500001 164602.02117282 6992.29419013
0.23600001 162176.85633586 8071.54252160
0.23700001 159791.35203685 6275.00669128
0.23800001 157444.22270284 5644.37565087
0.23900001 155135.53581478 7260.34341954
0.24000001 152863.52673595 7183.82177875
0.24100001 150629.78010813 5467.86127656
0.24200001 148432.08761429 7033.45480430
0.24300001 146269.30603029 9100.87665170
0.24400001 144141.55719514 5826.92272525
0.24500001 142047.68758109 7338.18388757
0.24600001 139987.81468603 7261.16829125
0.24700001 137961.78847813 7185.05028384
0.24800001 135967.76738757 6094.07562260
0.24900001 134004.44943887 5527.68380085
0.25000001 132073.96475597 4972.58500831
0.25100001 130173.41731083 6888.77756999
0.25200001 128304.77852140 5356.08323277
0.25300001 126464.11055574 6263.76769217
0.25400001 124653.70545323 8105.60758058
0.25500001 122870.00877814 7077.31284046
0.25600001 121115.90951507 5602.82223925
0.25700001 119388.39188427 6468.46337833
0.25800001 117687.71204752 5486.60139525
0.25900001 116014.46482815 6786.84651356
0.26000001 114366.23082246 4925.18196341
0.26100001 112743.12584533 4873.88556091
0.26200001 111146.07111079 5261.65525535
0.26300001 109572.24088562 5206.87313326
0.26400001 108023.16234260 5582.09717819
0.26500001 106497.62406979 5099.10648175
0.26600001 104994.64708816 5466.54655932
0.26700001 103514.71841489 4993.55025263
0.26800001 102057.18754254 6177.01156831
0.26900001 100620.68059282 6112.70663528
0.27000001 99206.05848173  4435.99911493
0.27100001 97812.14347997  4389.80920712
0.27200001 96439.32259040  5133.94758106
0.27300001 95086.64810780  4298.86756439
0.27400001 93752.18545585  4254.00561638
0.27500001 92439.24329818  4975.08030976
0.27600001 91143.17795130  4165.69914541
0.27700001 89867.65815590  4871.72597919
0.27800001 88609.31482088  4449.96000091
0.27900001 87369.43019662  4403.41949031
0.28000001 86146.65968212  3994.19006520
0.28100001 84941.63306828  3593.03124884
0.28200001 83753.95745203  3910.89122832
0.28300001 82582.80143322  4221.63300908
0.28400001 81427.46968471  3829.12694316
0.28500001 80288.91836624  3788.83423703
0.28600001 79165.86288193  4430.51772589
0.28700001 78059.18815841  6069.88275850
0.28800001 76966.13074008  4337.42650316
0.28900001 75890.08551454  4291.58453898
0.29000001 74827.80102696  4899.35050415
0.29100001 73780.77765972  3877.91785736
0.29200001 72747.54320306  4795.88201268
0.29300001 71729.00494833  3795.89912155
0.29400001 70723.49444107  3755.41773259
0.29500001 69732.96194327  4024.98675390
0.29600001 68754.63696379  4594.52883260
0.29700001 67790.16541722  3939.28669887
0.29800001 66838.96129642  3897.04582287
0.29900001 65901.09470786  4448.32410336
0.30000001 64974.91237418  3813.70266234
0.30100001 64062.47754144  3482.43644401
0.30200001 63161.42739706  3157.75571221
0.30300001 62273.42873729  4827.43642425
0.30400001 61397.25537591  3370.70947971
0.30500001 60533.56078980  3334.18868615
0.30600001 59680.39629723  3572.76709348
0.30700001 58839.94485552  3805.76781343
0.30800001 58010.68180255  4570.95188904
0.30900001 57193.20876296  3457.32963341
0.31000001 56386.88898607  2893.49334531
0.31100001 55591.28835950  3122.00690208
0.31200001 54807.72002850  3602.51160804
0.31300001 54034.21837481  5090.02361190
0.31400001 53273.11944578  4027.44802079
0.31500001 52521.11913382  3734.25174722
0.31600002 51781.42490126  3693.31030595
0.31700002 51051.36693434  3165.69541349
0.31800002 50331.71544691  2890.04723780
0.31900002 49623.16128242  2620.10303977
0.32000002 48925.19838988  2591.32325542
0.32100002 48236.90209613  2795.81097787
0.32200002 47559.94202229  2304.27930009
0.32300002 46891.48741490  2734.71167553
0.32400002 46234.40810152  4057.06950302
0.32500002 45586.83628606  3120.87495992
0.32600002 44949.52991020  2645.72945580
0.32700002 44322.20557828  3052.91366480
0.32800002 43705.63600953  2372.56056313
0.32900002 43096.99817293  2773.29196375
0.33000002 42499.42742530  2321.10633875
0.33100002 41910.55463445  2504.57486356
0.33200002 41332.90121690  2683.95206762
0.33300002 40764.09035144  4084.56204664
0.33400002 40205.35428465  2424.38297817
0.33500002 39655.96301114  3197.85700866
0.33600002 39115.61602062  2372.75338018
0.33700002 38584.76131949  2347.49698985
0.33800002 38064.28120643  2322.68254921
0.33900002 37552.20824412  2106.67898226
0.34000002 37049.72579397  2653.13098975
0.34100002 36556.63625952  2062.89108182
0.34200002 36073.58084257  1855.98582225
0.34300002 35598.82164248  2020.58921212
0.34400002 35134.13257699  2727.28717045
0.34500002 34678.21249753  2159.75917663
0.34600002 34232.07518935  1781.77959799
0.34700002 33793.85247594  2469.65485591
0.34800002 33365.56154260  2969.36829012
0.34900002 32945.93186377  2421.52610667
0.35000002 32535.60964948  1884.29992209
0.35100002 32134.86753366  1866.39319475
0.35200002 31741.48568518  2352.99644529
0.35300002 31358.33705965  2997.22999812
0.35400002 30983.24717764  2309.80118649
0.35500002 30617.45453525  2125.46379451
0.35600002 30260.04356632  2106.55303264
0.35700002 29911.21921639  1927.47905760
0.35800002 29571.43277579  2070.14824952
0.35900002 29240.75781456  2210.60139549
0.36000002 28918.29082685  2192.29573142
0.36100002 28603.82901762  1708.50678815
0.36200002 28299.29790713  2003.16589724
0.36300002 28001.79536183  1987.56752893
0.36400002 27713.24588379  1972.49036921
0.36500002 27432.33785324  1957.84604532
0.36600002 27160.50983398  1644.70475090
0.36700002 26896.34688412  1633.14626016
0.36800002 26641.28891034  1769.51449324
0.36900002 26393.87752170  1464.86027184
0.37000002 26153.97780721  2183.20340087
0.37100002 25922.12527851  1735.74559087
0.37200002 25698.82988525  1581.63456021
0.37300002 25482.99959700  1429.59634511
0.37400002 25274.92479426  1706.05750443
0.37500002 25074.67776193  1979.89664987
0.37600002 24882.33672695  1829.22507113
0.37700002 24697.17410088  2100.49475678
0.37800002 24519.55908819  2090.90550030
0.37900002 24350.22050358  1526.75889790
0.38000002 24187.41486918  2488.15948546
0.38100002 24031.22828841  2065.48416924
0.38200002 23883.46058530  1920.94682588
0.38300002 23742.06282930  1504.29717213
0.38400002 23607.96787476  1636.03225123
0.38500002 23480.26225848  1359.50724917
0.38600002 23360.43806428  1356.07349388
0.38700002 23246.41332854  1352.94131982
0.38800002 23139.04937494  1620.19631399
0.38900002 23038.41543676  1482.52210359
0.39000002 22944.74290884  1480.28015889
0.39100002 22856.58669821  2284.74451460
0.39200002 22775.52549181  1745.40247876
0.39300002 22699.90714260  1878.19040596
0.39400002 22631.67670952  1877.29767200
0.39500002 22567.99729463  1474.59301309
0.39600002 22510.57951070  2010.75761006
0.39700002 22458.35502229  1340.76385835
0.39800002 22412.96908413  1877.98276854
0.39900002 22372.02324399  1745.01789571
0.40000002 22337.00553409  1612.28513584
0.40100002 22306.93338507  1883.15140559
0.40200002 22282.53196354  1616.37494522
0.40300002 22263.01198117  1484.05244898
0.40400002 22248.44674968  1351.59320408
0.40500002 22238.36778720  1760.61166113
0.40600002 22234.02824726  2171.81998209
0.40700002 22233.62038553  1496.76739527
0.40800002 22237.62411488  1637.13396491
0.40900002 22245.79254357  2052.17445938
0.41000002 22259.00015583  1646.72090955
0.41100002 22275.99368111  1651.98776967
0.41200002 22296.23441237  1381.25178729
0.41300002 22321.79321972  1663.42010955
0.41400002 22350.25889573  1669.56441862
0.41500002 22382.39651878  1955.32625253
0.41600002 22417.22968946  1682.63734022
0.41700002 22456.88842080  1408.04697070
0.41800002 22500.27539551  1838.38508830
0.41900002 22544.96290630  1420.33273040
0.42000002 22593.41500435  1426.77422513
0.42100002 22645.48449565  1863.49700745
0.42200002 22699.90677708  2016.43281456
0.42300002 22756.76891890  1447.33057182
0.42400002 22816.02817171  2181.78279731
0.42500002 22878.44695236  1754.31939544
0.42600002 22941.82695856  2204.13612949
0.42700002 23008.58736409  1772.58165453
0.42800002 23076.75168890  2078.98465817
0.42900002 23147.71350379  2239.54138762
0.43000002 23220.43347498  2101.68153341
0.43100002 23293.23306081  2415.04251819
0.43200002 23369.06119719  2732.07707403
0.43300002 23445.58958932  1984.20034097
0.43400002 23524.03347484  1688.43758267
0.43500002 23603.06353960  1543.64042864
0.43600002 23684.08138019  1707.74076885
0.43700002 23765.31678516  1717.51952546
0.43800002 23847.00130934  1570.32511064
0.43900002 23930.59958414  1737.36161214
0.44000002 24014.00539505  1906.23183859
0.44100002 24098.42285319  1757.49806197
0.44200002 24183.05099017  1606.96381445
0.44300002 24268.21796892  1616.26339333
0.44400002 24353.39846792  2275.82519468
0.44500002 24438.19455468  1798.40682251
0.44600002 24522.96862776  2795.25071151
0.44700002 24608.69712204  1819.07497747
0.44800002 24693.02906778  2161.99826249
0.44900002 24777.73701080  2675.99572399
0.45000002 24862.40935501  1850.13627983
0.45100002 24945.55475233  2706.09390778
0.45200002 25028.67128815  1870.76812409
0.45300002 25110.71630344  1881.04384744
0.45400002 25192.24990753  1719.37113768
0.45500002 25273.19592683  1901.55535166
0.45600002 25352.67785594  2606.88922409
0.45700002 25431.48869719  2271.28636319
0.45800002 25508.82798288  1931.91117884
0.45900002 25584.86941033  1765.35607298
0.46000002 25660.18933844  1774.40217685
0.46100002 25733.20765202  1961.64251228
0.46200002 25805.57758289  2150.63693769
0.46300002 25876.21609298  2341.28014306
0.46400002 25944.78840116  2895.43852280
0.46500002 26012.80579647  2363.78377476
0.46600002 26078.00658212  1826.76444766
0.46700002 26141.39644449  2018.63872912
0.46800002 26203.80834834  2212.12560561
0.46900002 26263.40150957  1851.56989418
0.47000002 26321.28531186  2417.47856405
0.47100002 26377.30600368  2801.27003036
0.47200002 26431.40630661  2250.37003961
0.47300002 26483.22752982  1882.95756662
0.47400002 26532.21587742  1890.42047087
0.47500002 26579.50404726  2087.55434682
0.47600002 26625.15238777  1905.02974364
0.47700002 26667.32245078  2294.45653242
