# SAXS profile: number of points = 501, q_min = 0, q_max = 0.5, delta_q = 0.001
#    q    intensity    error
0.00000000 1700912.83420644 382.70538770
0.00100000 1700830.16853086 612.29887521
0.00200000 1700582.10610286 994.84056357
0.00300000 1700168.88998592 1428.14191846
0.00400000 1699590.35996399 1657.10066393
0.00500000 1698847.04874156 1987.65112570
0.00600000 1697938.86292003 2139.40305438
0.00700000 1696866.36334074 2443.48766476
0.00800000 1695629.35786706 3204.73962167
0.00900000 1694229.08939285 2541.34374273
0.01000000 1692664.97743843 2792.89733337
0.01100000 1690938.22600677 4869.90230293
0.01200000 1689048.86192731 3623.00996768
0.01300000 1686997.96656190 5314.04382904
0.01400000 1684785.59489050 4169.84453221
0.01500000 1682413.16256823 5249.12930095
0.01600000 1679880.03203368 7282.28026441
0.01700000 1677188.60678618 4981.25038561
0.01800000 1674338.74829755 7157.79847106
0.01900000 1671331.04895727 8022.38939699
0.02000000 1668166.84917341 5780.19839386
0.02100000 1664848.13783863 7142.19883514
0.02200000 1661373.41992821 6304.91241507
0.02300000 1657745.74865384 7161.46196016
0.02400000 1653965.05519425 6822.60616377
0.02500000 1650033.69353106 7722.15803840
0.02600000 1645951.63358058 8665.93574717
0.02700000 1641721.05489062 9653.32024489
0.02800000 1637341.68412878 7122.43665259
0.02900000 1632816.50051403 10286.74442555
0.03000000 1628146.32441183 9085.05690782
0.03100000 1623331.62652631 9350.39059903
0.03200000 1618374.27687969 8812.04834348
0.03300000 1613277.70586398 10696.03168297
0.03400000 1608039.92266170 9286.43098185
0.03500000 1602664.61218952 13847.02288875
0.03600000 1597152.71752609 15955.55638545
0.03700000 1591506.31227073 11793.06231933
0.03800000 1585726.64933753 12987.10185911
0.03900000 1579815.84268346 15166.23279211
0.04000000 1573773.82155912 10646.58039620
0.04100000 1567604.89999943 10863.50246070
0.04200000 1561309.44814341 11077.49104849
0.04300000 1554888.63731783 13340.94512745
0.04400000 1548345.89509577 12541.60233273
0.04500000 1541682.61680960 17020.17688042
0.04600000 1534898.87592408 11903.14133613
0.04700000 1527998.82168071 16502.38804164
0.04800000 1520983.23155255 13415.07272647
0.04900000 1513855.56251645 17030.87587105
0.05000000 1506615.35069443 16135.85115732
0.05100000 1499267.41659176 12863.71503360
0.05200000 1491809.98619979 15417.85692587
0.05300000 1484249.35086915 18033.63045375
0.05400000 1476584.90656323 15836.37386140
0.05500000 1468819.69891599 17273.32046504
0.05600000 1460954.78712418 13740.28041408
0.05700000 1452995.12023872 15169.26976337
0.05800000 1444939.53577209 16624.03013527
0.05900000 1436791.06379932 14224.23219597
0.06000000 1428553.40817672 16992.64358414
0.06100000 1420227.78822952 13208.11904777
0.06200000 1411816.52928056 14675.83350787
0.06300000 1403322.26980982 17513.46274607
0.06400000 1394744.77478815 20398.14328523
0.06500000 1386089.30480371 17838.97018729
0.06600000 1377357.25006142 17995.17331402
0.06700000 1368550.52042612 18146.98075011
0.06800000 1359671.54098191 14072.60110789
0.06900000 1350723.26958269 15600.85449410
0.07000000 1341706.76358423 18575.93101171
0.07100000 1332624.70214054 17270.81694867
0.07200000 1323479.68952255 14492.10327918
0.07300000 1314274.46200267 23341.51553885
0.07400000 1305011.67157984 23490.21118929
0.07500000 1295692.15399357 19202.15862224
0.07600000 1286317.35013299 20799.75252676
0.07700000 1276893.27155613 17927.58237325
0.07800000 1267419.52186832 18022.70644616
0.07900000 1257898.23251845 21132.69129751
0.08000000 1248333.77201782 21234.15845814
0.08100000 1238726.69083016 27425.41022173
0.08200000 1229079.47974064 21422.85633715
0.08300000 1219394.68782181 16900.81116640
0.08400000 1209674.94538445 18508.02753312
0.08500000 1199921.76991539 23218.48733786
0.08600000 1190137.93237726 23296.95112011
0.08700000 1180326.83108343 28044.56682345
0.08800000 1170488.03391245 21876.42238122
0.08900000 1160626.56811973 20368.99722723
0.09000000 1150742.87546437 20419.93328435
0.09100000 1140839.22058030 17317.94018203
0.09200000 1130918.25707173 22086.83459840
0.09300000 1120984.05113692 20547.63862292
0.09400000 1111034.24400271 18998.68646534
0.09500000 1101074.24219454 20612.11078271
0.09600000 1091105.35360125 20638.25873353
0.09700000 1081132.29441281 25428.23276004
0.09800000 1071153.87253534 19087.96290605
0.09900000 1061174.05751192 17509.37277228
0.10000000 1051192.85125105 20703.24417900
0.10100000 1041212.92526734 17523.61435642
0.10200000 1031237.47217835 17525.88166402
0.10300000 1021267.65416749 17524.95376990
0.10400000 1011306.62538340 17520.88810904
0.10500000 1001356.57407975 25474.51244315
0.10600001 991415.06622429 23868.31884244
0.10700001 981489.99604695 17490.15255260
0.10800001 971579.21220011 22239.44921389
0.10900001 961687.09991893 26975.32442234
0.11000001 951813.83171645 15847.70104402
0.11100001 941961.63521946 18989.94745994
0.11200001 932132.34619052 20539.53721525
0.11300001 922327.66424225 20503.34494142
0.11400001 912549.86103981 25186.37735058
0.11500001 902800.88814978 23563.10429025
0.11600001 893081.18172468 17240.93302510
0.11700001 883394.21185907 21890.50960080
0.11800001 873738.64136979 17155.85903131
0.11900001 864117.57040598 15554.11699993
0.12000001 854532.37652269 17060.73970092
0.12100001 844987.65494714 20102.25725817
0.12200001 835480.94325079 15414.62412918
0.12300001 826016.12706128 16900.29075592
0.12400001 816591.95133714 19904.42975169
0.12500001 807211.44565112 15256.29704169
0.12600001 797877.78296643 19759.44422630
0.12700001 788589.60344205 16655.01320959
0.12800001 779348.61042616 18096.47558697
0.12900001 770157.70040448 15018.07586572
0.13000001 761017.28404627 16449.38937000
0.13100001 751926.91006004 16376.96887308
0.13200001 742890.70708974 19266.87139662
0.13300001 733908.06995935 17701.86348194
0.13400001 724979.83470804 16148.92657947
0.13500001 716108.48021194 16069.47505360
0.13600001 707293.82292555 20348.84424503
0.13700001 698537.89707812 14459.73515134
0.13800001 689839.23565450 20136.40823830
0.13900001 681202.86966635 20027.36531264
0.14000001 672625.92249687 24184.26618392
0.14100001 664112.40736221 15560.15443836
0.14200001 655660.89560297 15470.31956141
0.14300001 647274.34811705 23767.91518393
0.14400001 638948.79490283 19455.99172253
0.14500001 630691.55313423 16574.57479823
0.14600001 622498.99864446 16471.32428116
0.14700001 614374.72717301 13639.11958669
0.14800001 606315.30276611 13551.14765615
0.14900001 598324.72048485 20193.46026911
0.15000001 590402.10276829 14709.86908453
0.15100001 582548.96973610 19923.17570505
0.15200001 574766.09714679 14509.97080715
0.15300001 567053.51956757 18338.51168819
0.15400001 559409.15911715 14306.88991958
0.15500001 551837.77052781 15495.60532770
0.15600001 544336.02767296 15382.93686803
0.15700001 536909.06901161 19087.11830421
0.15800001 529550.63726525 13892.76162437
0.15900001 522267.10119849 13787.85212243
0.16000001 515053.93289101 12438.55306645
0.16100001 507915.94402202 17279.30123129
0.16200001 500850.57935594 15919.53641633
0.16300001 493858.22306393 15793.58671917
0.16400001 486939.90270503 13256.93947700
0.16500001 480094.58551906 17931.53361571
0.16600001 473324.18712353 14228.12573669
0.16700001 466625.90275048 15286.66529586
0.16800001 460002.07617137 16325.47445415
0.16900001 453454.01156749 15032.00119324
0.17000001 446977.96432630 14904.48092425
0.17100001 440576.67593449 11366.87877587
0.17200001 434248.74966913 12395.63114466
0.17300001 427995.27181808 13404.81254638
0.17400001 421815.86399058 15501.73373374
0.17500001 415709.24453171 15364.61440353
0.17600001 409674.90446285 13052.24307263
0.17700001 403716.91901801 16168.86337034
0.17800001 397830.17820664 11749.91486831
0.17900001 392015.87226648 11642.87195625
0.18000001 386276.26828325 12584.88141512
0.18100001 380609.01687287 17664.06530746
0.18200001 375011.85464592 12352.89107556
0.18300001 369487.63241585 11217.64505006
0.18400001 364034.62409320 17173.33420288
0.18500001 358653.55144550 12007.72146967
0.18600001 353343.61673154 10902.41780932
0.18700001 348103.12413770 11779.81027735
0.18800001 342931.75892078 13610.96215463
0.18900001 337833.59831007 10591.08380742
0.19000001 332800.70262474 12395.16275491
0.19100001 327839.49412475 11330.13345230
0.19200001 322944.95643716 11219.10831674
0.19300001 318120.58315270 9257.30940718
0.19400001 313361.66590905 10998.99499315
0.19500001 308670.78503000 9074.92150872
0.19600001 304045.03858977 11679.89070938
0.19700001 299487.33396804 8894.77423920
0.19800001 294993.59590561 9686.11517931
0.19900001 290565.36329334 11332.04970399
0.20000001 286199.88409967 14669.17575281
0.20100001 281900.09301566 10249.88786648
0.20200001 277661.88341296 14373.16807420
0.20300001 273487.12194566 9205.57695979
0.20400001 269374.55898939 9111.59488848
0.20500001 265322.42050243 11477.84845346
0.20600001 261331.19152810 8925.76726855
0.20700001 257400.20774097 8833.97554724
0.20800001 253528.34966611 11922.17120661
0.20900001 249717.58544718 11012.54603880
0.21000001 245962.19082786 7784.70370770
0.21100001 242265.87716517 12326.48841288
0.21200001 238625.35834015 10673.71278315
0.21300001 235041.05368686 9808.26363404
0.21400001 231512.86878769 10452.80651994
0.21500001 228040.42254120 13299.31807136
0.21600001 224620.70302866 7311.40422926
0.21700001 221255.24647154 9405.56097220
0.21800001 217942.71486733 7159.41852189
0.21900001 214681.35297480 8501.38197976
0.22000001 211471.22034440 8412.32554306
0.22100001 208313.27989528 8324.19905821
0.22200001 205205.22844709 8236.93825935
0.22300001 202145.90912888 8829.73372827
0.22400001 199134.54294063 8064.94937046
0.22500001 196173.78207017 7315.32067932
0.22600001 193258.19200266 8554.57427353
0.22700001 190390.46643881 7813.62511215
0.22800001 187567.75064425 7087.24779325
0.22900001 184790.35375458 8287.84775783
0.23000001 182057.89439476 7569.96760693
0.23100001 179370.48682009 6242.09323654
0.23200001 176724.46968923 8647.12871085
0.23300001 174122.38765178 7334.03531475
0.23400001 171560.76108603 7257.02053716
0.23500001 169040.82266578 7779.25902701
0.23600001 166561.63448538 7697.64630182
0.23700001 164122.26284622 6445.08156681
0.23800001 161722.00326213 6957.28090941
0.23900001 159360.55791814 7458.07446333
0.24000001 157036.28532117 7379.92057774
0.24100001 154750.62036512 8426.17167745
0.24200001 152501.51120281 6114.54838091
0.24300001 150287.82586698 6050.58815561
0.24400001 148109.49131084 5443.02406315
0.24500001 145965.53426462 7001.96700990
0.24600001 143856.00240230 7461.81119759
0.24700001 141780.97558680 5274.25254133
0.24800001 139738.28613041 5741.14775726
0.24900001 137726.62712123 8263.59801820
0.25000001 135748.41808644 6133.11381929
0.25100001 133800.46219566 6069.18925232
0.25200001 131885.12069571 5005.04056719
0.25300001 129997.90112171 7429.38040059
0.25400001 128141.56240643 7352.12249091
0.25500001 126312.31391534 6305.51100898
0.25600001 124513.23471091 5759.98251025
0.25700001 122741.10679540 6650.11348081
0.25800001 120996.20288336 4700.70270443
0.25900001 119279.38107768 7443.03373141
0.26000001 117587.79927399 5524.27507128
0.26100001 115922.00525766 6378.02903106
0.26200001 114282.49263953 5410.13345755
0.26300001 112666.80236551 5800.08726022
0.26400001 111076.29273391 7505.98083666
0.26500001 109509.76315667 4806.38373238
0.26600001 107966.21604745 4756.45187304
0.26700001 106446.18420197 4707.05048815
0.26800001 104949.04259541 5081.63288294
0.26900001 103473.27046273 5028.80118246
0.27000001 102019.77110230 6635.36622649
0.27100001 100587.59314226 4924.76879330
0.27200001 99176.90050820  6091.94140201
0.27300001 97786.74095559  6430.45638956
0.27400001 96415.17954574  4374.83897893
0.27500001 95065.68619344  5510.00743253
0.27600001 93733.53917557  5063.01735818
0.27700001 92422.30164913  5395.61422563
0.27800001 91128.61226930  4195.10586436
0.27900001 89853.80632386  4528.63205305
0.28000001 88596.60166533  4481.21632432
0.28100001 87357.44563152  4064.74213761
0.28200001 86136.26678421  4022.13316785
0.28300001 84931.96268235  6512.58320672
0.28400001 83743.82155449  4296.05824908
0.28500001 82572.89480603  4959.32829678
0.28600001 81417.91034051  4907.05768848
0.28700001 80279.73361177  3468.08465618
0.28800001 79155.43445167  3774.52707049
0.28900001 78048.81253710  4753.17290849
0.29000001 76956.15792348  5710.53196902
0.29100001 75879.16821017  3323.50772492
0.29200001 74816.50653178  3945.82274126
0.29300001 73768.84186728  3578.52668837
0.29400001 72734.56615557  3540.35517521
0.29500001 71715.67288407  3502.59362946
0.29600001 70709.42968731  3465.11576586
0.29700001 69717.31785355  3739.63710669
0.29800001 68738.95845926  3391.23667612
0.29900001 67774.31066098  3659.81294895
0.30000001 66821.62456424  3318.69614109
0.30100001 65883.16981088  4775.21237395
0.30200001 64956.38040455  4133.17468081
0.30300001 64043.14131156  3504.44085847
0.30400001 63141.99456033  2888.74638789
0.30500001 62253.74123726  2857.44685807
0.30600001 61376.21516162  3956.92477880
0.30700001 60511.89380959  4193.47443954
0.30800001 59659.16952833  3594.76343012
0.30900001 58818.53202359  3555.58042916
0.31000001 57989.46397940  3516.77120953
0.31100001 57171.31882749  3210.74141737
0.31200001 56365.60507816  4234.18445394
0.31300001 55570.27963819  2879.09632437
0.31400001 54787.67304352  3624.20474342
0.31500001 54014.44162158  2816.31311949
0.31600002 53253.94844739  4051.56058971
0.31700002 52503.44048905  3005.29707589
0.31800002 51763.57548506  4210.70824720
0.31900002 51035.14390105  3674.53053486
0.32000002 50317.75668312  3391.92013861
0.32100002 49610.13127347  2875.40334476
0.32200002 48914.23751524  3554.84237974
0.32300002 48227.22241943  2578.22743262
0.32400002 47551.96038022  2549.97399613
0.32500002 46886.22305883  2751.28369937
0.32600002 46231.18012326  3174.69528939
0.32700002 45586.43075638  2467.13774936
0.32800002 44952.73183630  3993.15135811
0.32900002 44327.26804964  2194.19987236
0.33000002 43713.04017517  2170.35254747
0.33100002 43107.83478259  2790.80135598
0.33200002 42514.14444460  2335.93977713
0.33300002 41929.54955275  2310.73758528
0.33400002 41355.26110535  2493.72236274
0.33500002 40790.63363610  2672.60244240
0.33600002 40235.31009847  2440.67402616
0.33700002 39689.73007209  2615.95023293
0.33800002 39154.73317585  2588.32375917
0.33900002 38628.48542983  2167.05813524
0.34000002 38112.00040265  2144.37180421
0.34100002 37605.28014622  2700.81134801
0.34200002 37108.61020044  3245.70474489
0.34300002 36620.54877973  2456.50652848
0.34400002 36142.75447030  2992.62021187
0.34500002 35674.10281149  2221.78322832
0.34600002 35215.43869740  2382.85277231
0.34700002 34764.79529361  2177.66688033
0.34800002 34324.32806044  2335.94225679
0.34900002 33892.74921115  2491.11718500
0.35000002 33470.73866431  2467.12826379
0.35100002 33058.43709653  1920.03411750
0.35200002 32653.76526825  1729.01695284
0.35300002 32259.48678555  2398.17036122
0.35400002 31873.37991808  1866.98331713
0.35500002 31496.83409696  2018.31722453
0.35600002 31128.98904689  2167.04467514
0.35700002 30769.73215972  2313.26857334
0.35800002 30419.84278592  1638.10861161
0.35900002 30079.14040635  1949.12839065
0.36000002 29746.88301678  1771.87317082
0.36100002 29422.80370108  1917.18997997
0.36200002 29108.82336721  2060.46815965
0.36300002 28802.00075982  1729.84824757
0.36400002 28504.25311421  1872.72951831
0.36500002 28214.43605246  1858.76713518
0.36600002 27933.75474839  2152.85458043
0.36700002 27660.95063768  2290.32682129
0.36800002 27397.37282304  2123.02252062
0.36900002 27141.54291990  1506.35570341
0.37000002 26893.39850203  1646.27946728
0.37100002 26653.50123368  2230.89815894
0.37200002 26422.22642759  1921.82073025
0.37300002 26198.59511566  2204.61188342
0.37400002 25982.86145703  1607.68962881
0.37500002 25775.02037284  1889.82458326
0.37600002 25575.26568100  2169.42201416
0.37700002 25382.90697063  1870.97416144
0.37800002 25197.97756380  1719.00611084
0.37900002 25021.64572303  1996.72742329
0.38000002 24851.85676434  2272.45389018
0.38100002 24688.79885665  1414.66824150
0.38200002 24534.32422056  1550.44669257
0.38300002 24386.40014147  1404.65671469
0.38400002 24245.78938149  1820.25272405
0.38500002 24111.66691245  1675.27869644
0.38600002 23985.50601480  1531.59455913
0.38700002 23865.28933427  1666.75188607
0.38800002 23751.73743090  1524.50533923
0.38900002 23645.09055083  1798.20922158
0.39000002 23545.47430488  1795.22477343
0.39100002 23451.44088431  1792.62822613
0.39200002 23364.71970650  1377.35029195
0.39300002 23283.34036279  1513.65002870
0.39400002 23209.50970048  1650.19621789
0.39500002 23140.25630053  1511.98441831
0.39600002 23077.37751012  1923.96105417
0.39700002 23019.76857957  1649.13629917
0.39800002 22969.10527738  2062.05152397
0.39900002 22922.81457093  1787.97962124
0.40000002 22882.69047701  1789.31206663
0.40100002 22847.42016030  1377.69950094
0.40200002 22817.88818321  1931.07796844
0.40300002 22793.40060580  1519.40815637
0.40400002 22773.90672106  1936.92085840
0.40500002 22758.94932531  1524.62208754
0.40600002 22749.68986467  1805.52922166
0.40700002 22744.54772331  1391.96638662
0.40800002 22743.74598356  2372.05909975
0.40900002 22747.26004733  1538.85221512
0.41000002 22755.81426037  1823.76482031
0.41100002 22768.21862102  1407.07597745
0.41200002 22783.79532987  1693.74742508
0.41300002 22804.85170584  1982.65390125
0.41400002 22828.79538970  1705.31109641
0.41500002 22856.47282279  2567.23914910
0.41600002 22886.82840118  1861.04253962
0.41700002 22922.06905521  1580.93517765
0.41800002 22961.14319722  1587.41871016
0.41900002 23001.48410169  1738.91228048
0.42000002 23045.56338180  2037.45835513
0.42100002 23093.47813721  1607.99895889
0.42200002 23143.54850607  1615.30404452
0.42300002 23196.14344487  1622.80227230
0.42400002 23251.14839899  1630.48685874
0.42500002 23309.45063968  1638.42136310
0.42600002 23368.64968216  1646.43829138
0.42700002 23431.19965078  1654.71139775
0.42800002 23495.18156234  1663.10650570
0.42900002 23562.03961463  1975.67711531
0.43000002 23630.71874916  1527.72603953
0.43100002 23699.41015357  1689.29403580
0.43200002 23771.07589291  1852.71774289
0.43300002 23843.58024832  2483.54743635
0.43400002 23917.91739543  1872.77302081
0.43500002 23992.94946000  2353.70845357
0.43600002 24069.81260523  1735.55392015
0.43700002 24147.05061980  1586.46130090
0.43800002 24224.71680242  1754.71744474
0.43900002 24304.27045898  1764.49011894
0.44000002 24383.63145113  2096.87048601
0.44100002 24463.98772250  1784.15870915
0.44200002 24544.61254123  2609.58332905
0.44300002 24625.72848161  1804.08095406
0.44400002 24706.89132842  1979.02208919
0.44500002 24787.71434897  1989.95780224
0.44600002 24868.43349481  2167.65710830
0.44700002 24950.14850728  2514.97508872
0.44800002 25030.36845469  2022.95447438
0.44900002 25111.14532970  1864.50262909
0.45000002 25191.77167666  2385.91280857
0.45100002 25270.92087610  1884.70536826
0.45200002 25350.04062174  1722.53534188
0.45300002 25427.98491465  2251.13961118
0.45400002 25505.47247932  2088.89829506
0.45500002 25582.42091117  2624.75650988
0.45600002 25657.83422897  2638.26692963
0.45700002 25732.63990786  1944.61569000
0.45800002 25805.91804574  1954.41129582
0.45900002 25877.82978371  1964.12737367
0.46000002 25949.10789329  2153.25707504
0.46100002 26018.03022480  2163.65949604
0.46200002 26086.24372366  2355.19662622
0.46300002 26152.92573523  3094.41431965
0.46400002 26217.36286619  2194.39337590
0.46500002 26281.27432193  1837.06116217
0.46600002 26342.40857732  2583.40013162
0.46700002 26401.63696858  2224.07400364
0.46800002 26459.96838977  2233.75063734
0.46900002 26515.37701480  1869.33416814
0.47000002 26569.19227473  2252.53622781
0.47100002 26621.07840741  2261.72692869
0.47200002 26671.02046803  3216.92528622
0.47300002 26718.73732945  2279.64277700
0.47400002 26763.57256891  2288.28556310
0.47500002 26806.61082337  2488.18973456
0.47600002 26848.11632515  2305.17937694
0.47700002 26886.13336944  2120.50943936
