# SAXS profile: number of points = 501, q_min = 0, q_max = 0.5, delta_q = 0.001
#    q    intensity    error
0.00000000 1682732.95097188 252.40994265
0.00100000 1682650.73454685 656.23380206
0.00200000 1682404.01554619 832.79001407
0.00300000 1681993.03428690 1110.11544218
0.00400000 1681417.64642723 1639.38226756
0.00500000 1680678.35609774 1663.87163839
0.00600000 1679775.09561832 2292.89309887
0.00700000 1678708.41288489 2417.34021502
0.00800000 1677478.12761667 2717.51468147
0.00900000 1676085.46844621 3519.77963420
0.01000000 1674529.85013319 3591.86668363
0.01100000 1672812.48654967 3312.16886758
0.01200000 1670933.38381573 3909.98428956
0.01300000 1668893.63617646 4205.61214865
0.01400000 1666693.32852120 3750.06015542
0.01500000 1664333.82261076 3994.40135213
0.01600000 1661814.53777799 5932.67816508
0.01700000 1659137.78675026 5823.57389273
0.01800000 1656303.48485531 7080.69771637
0.01900000 1653312.23982149 5951.92433192
0.02000000 1650165.36029431 7277.22956809
0.02100000 1646864.81733311 9238.91204412
0.02200000 1643409.16865046 6803.71426732
0.02300000 1639801.49021786 5903.28563349
0.02400000 1636041.55688703 7975.70295350
0.02500000 1632131.80643200 9547.97150369
0.02600000 1628072.29425614 7253.06240265
0.02700000 1623865.08296917 7502.25702693
0.02800000 1619509.93258630 8453.84223579
0.02900000 1615009.78007115 7994.29877840
0.03000000 1610365.50285222 8985.83991895
0.03100000 1605577.64166978 11560.15955194
0.03200000 1600647.80376316 7923.20699356
0.03300000 1595579.63580775 9764.94782131
0.03400000 1590371.19344299 10854.28389607
0.03500000 1585025.93796115 9415.05450626
0.03600000 1579544.90607050 12273.06448735
0.03700000 1573930.21822420 11662.82345642
0.03800000 1568183.09868557 10091.25870706
0.03900000 1562305.63197245 9373.83422594
0.04000000 1556297.82679726 10528.35528616
0.04100000 1550163.73212701 12695.84155478
0.04200000 1543904.11060684 9958.18197540
0.04300000 1537519.77043028 11162.39405146
0.04400000 1531014.30620054 14468.08586552
0.04500000 1524389.21230006 10518.28605360
0.04600000 1517644.34275614 13909.21104796
0.04700000 1510783.90362512 10877.64461200
0.04800000 1503808.72236273 13263.59354837
0.04900000 1496722.16806140 16838.12517446
0.05000000 1489523.93659809 14813.31623927
0.05100000 1482218.68158963 13873.56750597
0.05200000 1474804.66853502 14069.63719349
0.05300000 1467288.16132239 19016.05545723
0.05400000 1459668.57378972 20471.85270208
0.05500000 1451948.96973592 12196.37191473
0.05600000 1444130.36113183 16051.50971301
0.05700000 1436217.72826104 14994.11378295
0.05800000 1428209.96849470 13903.62469249
0.05900000 1420109.85065724 15337.18710343
0.06000000 1411921.34763171 15502.89712127
0.06100000 1403645.52022882 13053.90394815
0.06200000 1395284.72022255 25052.33832263
0.06300000 1386841.68448151 13313.68079351
0.06400000 1378315.94698065 24189.44600077
0.06500000 1369713.00515600 21696.25501657
0.06600000 1361034.27521255 21885.43216941
0.06700000 1352281.11801544 16551.92165912
0.06800000 1343456.59745555 16685.73172144
0.06900000 1334563.48671291 15414.20899321
0.07000000 1325602.66642266 19764.73668191
0.07100000 1316576.85965750 15640.93382532
0.07200000 1307488.83728816 15748.70378291
0.07300000 1298341.07051313 18735.06252535
0.07400000 1289136.47631954 18853.62184973
0.07500000 1279875.56391672 18967.75674631
0.07600000 1270560.22542404 19077.46267910
0.07700000 1261195.87753692 17707.19095088
0.07800000 1251782.62742262 16316.98731366
0.07900000 1242322.38628397 17889.44320157
0.08000000 1232819.37486304 17974.50732871
0.08100000 1223274.37398787 16550.90305659
0.08200000 1213689.64832847 15110.43683075
0.08300000 1204068.08958406 19722.63623301
0.08400000 1194411.91169638 18274.50310674
0.08500000 1184723.05282977 16811.22090886
0.08600000 1175003.87793425 19933.94172508
0.08700000 1165257.80948419 21533.96533045
0.08800000 1155484.70732812 18510.86588074
0.08900000 1145689.37888625 21653.53027801
0.09000000 1135872.29108664 18605.58900201
0.09100000 1126035.64196578 20201.08036594
0.09200000 1116182.14519387 18684.88998849
0.09300000 1106316.09356299 20278.77494795
0.09400000 1096434.60015533 15624.19378651
0.09500000 1086543.36820403 25033.96038008
0.09600000 1076643.73063532 20364.71712227
0.09700000 1066740.12619250 26657.83700681
0.09800000 1056831.80665878 18832.74368013
0.09900000 1046922.45375310 21985.37256262
0.10000000 1037011.97520163 21995.02502839
0.10100000 1027103.34949261 22000.55478086
0.10200000 1017199.47230586 20430.45236224
0.10300000 1007301.59541891 15713.90562773
0.10400000 997412.68027875 20422.02558946
0.10500000 987535.29547895 18842.17432425
0.10600001 977666.82830835 18829.86399923
0.10700001 967814.88233858 18814.32219802
0.10800001 957977.73505628 18795.52404635
0.10900001 948159.58017180 20338.02395191
0.11000001 938360.50024710 15623.70306451
0.11100001 928582.63903682 17160.20797719
0.11200001 918828.23323386 18688.96714380
0.11300001 909098.42143081 17100.14211220
0.11400001 899395.96169948 18617.49728377
0.11500001 889722.41528540 15481.17075494
0.11600001 880078.62308695 15445.38056252
0.11700001 870467.68181601 15407.27869375
0.11800001 860888.33998463 16903.54335173
0.11900001 851343.76735502 26051.12050811
0.12000001 841835.30440211 19863.10494302
0.12100001 832367.35725212 21325.25269739
0.12200001 822937.86935347 15183.20440487
0.12300001 813549.94661838 18158.43566405
0.12400001 804203.39229306 19602.45861076
0.12500001 794900.41957350 18028.34236543
0.12600001 785644.50336573 14966.52849439
0.12700001 776434.18802125 16398.29082380
0.12800001 767271.44055174 17816.04368927
0.12900001 758158.69925049 17740.91439863
0.13000001 749096.48616103 14719.74664688
0.13100001 740084.71075631 16119.04576009
0.13200001 731126.74654578 26254.76270612
0.13300001 722222.83268633 18871.68350776
0.13400001 713373.28376913 17334.97161286
0.13500001 704580.73301221 17248.13715736
0.13600001 695845.03176187 15729.57768464
0.13700001 687167.95131324 19914.12816807
0.13800001 678548.44660509 15562.50935675
0.13900001 669990.99880665 16883.77396614
0.14000001 661493.17455232 15389.63943174
0.14100001 653058.79298883 16692.18353605
0.14200001 644686.41101568 16594.22900222
0.14300001 636378.84999264 16494.94056984
0.14400001 628132.54810052 16394.26027874
0.14500001 619954.42370188 13577.00251953
0.14600001 611841.11317101 16189.31661823
0.14700001 603795.82689615 20106.40198419
0.14800001 595815.43701191 15979.77077456
0.14900001 587903.98399238 18518.97636950
0.15000001 580060.48713902 14452.20771897
0.15100001 572286.07100088 18267.37224829
0.15200001 564582.24508809 15548.59576342
0.15300001 556948.44478929 19298.26452262
0.15400001 549383.08328990 17882.42020498
0.15500001 541890.40211873 16484.30681040
0.15600001 534467.19541054 15104.04365514
0.15700001 527118.58662319 12492.71109259
0.15800001 519838.77444453 14877.78642682
0.15900001 512633.53529094 17224.48759878
0.16000001 505498.65202233 13428.57232483
0.16100001 498438.67857307 15745.67859939
0.16200001 491451.29055074 13217.58308331
0.16300001 484536.80892448 14303.52727469
0.16400001 477696.18845731 15369.87558922
0.16500001 470928.34067521 18761.78597827
0.16600001 464235.12611493 17443.63568734
0.16700001 457614.19383578 12685.06605205
0.16800001 451067.45711224 12578.01663546
0.16900001 444595.94287808 11337.19707871
0.17000001 438196.53842426 12363.71591545
0.17100001 431871.68832665 12256.51909348
0.17200001 425620.16397234 12149.32815432
0.17300001 419442.63991582 14231.68944443
0.17400001 413339.14809018 10850.15314978
0.17500001 407308.22110986 10752.93754514
0.17600001 401349.25780754 12786.98795767
0.17700001 395466.43325003 10558.95426648
0.17800001 389654.62090670 16739.56330480
0.17900001 383915.15125685 11402.28053090
0.18000001 378249.75400375 15404.22195942
0.18100001 372656.64537492 14242.93765902
0.18200001 367133.55571598 13101.16155460
0.18300001 361682.90814025 11978.93848348
0.18400001 356303.48858494 10876.16450285
0.18500001 350995.42420016 12730.60463716
0.18600001 345758.30671431 13577.92934614
0.18700001 340590.49677342 10565.11770906
0.18800001 335491.50913690 10462.30320674
0.18900001 330465.34302833 11301.91526556
0.19000001 325504.06567908 10258.26111457
0.19100001 320614.24588231 10157.05978947
0.19200001 315790.81087273 9142.14440674
0.19300001 311037.10467557 10861.41620850
0.19400001 306348.63418661 11648.90736540
0.19500001 301727.88971303 9757.88041443
0.19600001 297171.88519073 10537.71554684
0.19700001 292683.52063621 9561.97107106
0.19800001 288258.93698539 9464.98264322
0.19900001 283899.44125900 18737.36400862
0.20000001 279602.35388129 10959.01477831
0.20100001 275370.58074491 9178.10189001
0.20200001 271200.18304858 10735.45975337
0.20300001 267092.67952597 13076.85820766
0.20400001 263047.15117685 10515.31036531
0.20500001 259061.63659968 9606.00593916
0.20600001 255136.58545602 10298.58875873
0.20700001 251271.52767272 9407.60644076
0.20800001 247465.14652482 8533.83598130
0.20900001 243719.42951655 11515.74358902
0.21000001 240028.78238740 10635.67585036
0.21100001 236396.73436027 8269.15815883
0.21200001 232820.17455190 8926.32591431
0.21300001 229299.51519223 8832.61774277
0.21400001 225834.31521274 8011.47271093
0.21500001 222424.78731682 8647.87613973
0.21600001 219067.32436293 7130.64174514
0.21700001 215763.72148900 7761.02142890
0.21800001 212512.75863292 7679.14889628
0.21900001 209312.62908691 12433.17075562
0.22000001 206163.20366673 8201.17262963
0.22100001 203065.52542049 8790.70701111
0.22200001 200017.25629016 8697.75080105
0.22300001 197017.39028252 7281.76308916
0.22400001 194065.21063831 6549.70116875
0.22500001 191162.95265439 7776.50928171
0.22600001 188305.66456713 7052.98899989
0.22700001 185495.47640738 8247.12927107
0.22800001 182730.34444176 7532.14515408
0.22900001 180009.65560087 7452.40009431
0.23000001 177333.67335697 6759.07327965
0.23100001 174702.19474350 6687.60033106
0.23200001 172111.81267453 10226.02383368
0.23300001 169564.78034412 5951.72407156
0.23400001 167058.04504940 6477.67600315
0.23500001 164592.26454608 6409.22308456
0.23600001 162166.81079707 7494.53951546
0.23700001 159781.07891434 11408.36957408
0.23800001 157433.59080470 7337.19284649
0.23900001 155124.64946020 7259.83393812
0.24000001 152852.39403289 7183.29859735
0.24100001 150618.37653920 7107.68152509
0.24200001 148420.41706277 9196.87157833
0.24300001 146257.40095096 5888.32324082
0.24400001 144129.43508067 5296.75698977
0.24500001 142035.26067394 7337.54191351
0.24600001 139975.17421936 6741.90458520
0.24700001 137948.92405957 5644.87023955
0.24800001 135954.73360665 5077.90954043
0.24900001 133991.20739849 5024.67051515
0.25000001 132060.58692582 5966.49759957
0.25100001 130159.74471952 5412.04244148
0.25200001 128290.93755901 6816.09783498
0.25300001 126450.11202938 6744.84929475
0.25400001 124639.52149068 5720.95430709
0.25500001 122855.60838515 5661.18670223
0.25600001 121101.36271689 5135.30352897
0.25700001 119373.61727442 6467.66288993
0.25800001 117672.81162669 4571.58894800
0.25900001 115999.46440268 5881.17312348
0.26000001 114351.13451097 4924.53184072
0.26100001 112727.83155506 4873.22438871
0.26200001 111130.68696823 6576.15871251
0.26300001 109556.78010564 4338.44869747
0.26400001 108007.53353945 5581.28955975
0.26500001 106481.91544862 5948.08007842
0.26600001 104978.85852504 5045.28417945
0.26700001 103498.81930850 6657.04437294
0.26800001 102041.28906262 4940.83945022
0.26900001 100604.68999306 4481.93915128
0.27000001 99189.93920187  4838.48546323
0.27100001 97796.02185897  4389.08566873
0.27200001 96423.15241511  3948.52827826
0.27300001 95070.38636656  5861.08959687
0.27400001 93735.86002005  5799.90661322
0.27500001 92422.93428817  4974.20255880
0.27600001 91126.81796729  4543.58335888
0.27700001 89851.27008840  4870.83758201
0.27800001 88592.93958863  4819.89910643
0.27900001 87353.04556194  5503.24213086
0.28000001 86130.34565044  5082.55193738
0.28100001 84925.28816469  4310.80783127
0.28200001 83737.62780502  4976.52745599
0.28300001 82566.56442528  4924.27013539
0.28400001 81411.23334417  3480.33039019
0.28500001 80272.72535363  4132.44009680
0.28600001 79149.72089192  4770.35390395
0.28700001 78043.11915725  4382.90177932
0.28800001 76950.16807409  3669.36893830
0.28900001 75874.13238018  3630.57740624
0.29000001 74811.94957181  5551.42098075
0.29100001 73764.98109838  4200.17822256
0.29200001 72731.91479939  3835.88136809
0.29300001 71713.44890004  3478.81957081
0.29400001 70708.06361488  4693.24794460
0.29500001 69717.65983054  3405.01066731
0.29600001 68739.41895513  3674.80951130
0.29700001 67775.11291079  3635.45722863
0.29800001 66823.99098512  4195.87859258
0.29900001 65886.33989225  3557.86252261
0.30000001 64960.26570290  3226.25174886
0.30100001 64047.96746398  3191.51036982
0.30200001 63147.06829751  2870.03438999
0.30300001 62259.29375778  3406.82871571
0.30400001 61383.24646295  2808.28365863
0.30500001 60519.76329086  3889.00017318
0.30600001 59666.71291737  2747.65225993
0.30700001 58826.51212484  3261.34198660
0.30800001 57997.37446242  3225.81412032
0.30900001 57180.13099794  3456.53908247
0.31000001 56373.96677420  3418.79937688
0.31100001 55578.71138108  4421.84248683
0.31200001 54795.32359149  3344.43273375
0.31300001 54022.04962790  2544.43865794
0.31400001 53261.19982455  3271.56935412
0.31500001 52509.42191268  3484.52540311
0.31600002 51769.95114177  3446.32581068
0.31700002 51040.13211675  2678.07585897
0.31800002 50320.70995453  3370.98451947
0.31900002 49612.43866384  2619.53688548
0.32000002 48914.69254605  2590.76681337
0.32100002 48226.66841496  2795.21783368
0.32200002 47549.93414157  3225.31218554
0.32300002 46881.78298641  3189.83666544
0.32400002 46224.96076844  3380.20041625
0.32500002 45577.65657761  2228.74751218
0.32600002 44940.66293981  2204.33962158
0.32700002 44313.57638639  3052.31928603
0.32800002 43697.33687345  2587.75641218
0.32900002 43089.02503803  2559.48820846
0.33000002 42491.68873349  2742.62617918
0.33100002 41903.14092018  3547.52007829
0.33200002 41325.78904142  2683.49023848
0.33300002 40757.23908983  2654.51910763
0.33400002 40198.82410427  3433.98471173
0.33500002 39649.75559769  2398.01733211
0.33600002 39109.65253818  2372.39163531
0.33700002 38579.19068835  1955.96506053
0.33800002 38058.98336176  1935.29939560
0.33900002 37547.26940612  2680.87516256
0.34000002 37045.04172037  2084.33937111
0.34100002 36552.25182960  2062.64366843
0.34200002 36069.50970490  2226.93163465
0.34300002 35595.08399572  2755.05963175
0.34400002 35130.70178287  1818.01390336
0.34500002 34675.08998563  2159.56470658
0.34600002 34229.28607125  2137.96130927
0.34700002 33791.40423460  2469.47593842
0.34800002 33363.39668448  1921.23128907
0.34900002 32944.08981486  1729.56479720
0.35000002 32534.10656282  1884.21287083
0.35100002 32133.67200260  1866.32375831
0.35200002 31740.60265106  2352.93098596
0.35300002 31357.77150824  1998.11729514
0.35400002 30983.00788925  2309.78334754
0.35500002 30617.55080789  1961.97274870
0.35600002 30260.45420098  2106.58161898
0.35700002 29911.93857665  1766.89829541
0.35800002 29572.46860822  1751.72526098
0.35900002 29242.12738260  2210.70493484
0.36000002 28919.92511412  1566.01401911
0.36100002 28605.81107183  1863.95473773
0.36200002 28301.56622504  1695.12238934
0.36300002 28004.33666018  1834.84422489
0.36400002 27716.16073386  1972.69783367
0.36500002 27435.51311511  1506.20974137
0.36600002 27163.96463645  1794.45158888
0.36700002 26900.13620712  1781.86510676
0.36800002 26645.39124049  1769.78697003
0.36900002 26398.21841232  2051.14166780
0.37000002 26158.65590370  2183.59390500
0.37100002 25927.04793088  1591.40227738
0.37200002 25704.03769234  1438.14097701
0.37300002 25488.53991882  1572.89787290
0.37400002 25280.71525806  1848.65239082
0.37500002 25080.74722727  1697.46505275
0.37600002 24888.65409384  1548.19880125
0.37700002 24703.80772692  1680.84715736
0.37800002 24526.39849668  1812.62356677
0.37900002 24357.32713653  1943.71479757
0.38000002 24194.80782545  1935.82666582
0.38100002 24038.82367963  1652.90959451
0.38200002 23891.30096045  2470.59954936
0.38300002 23750.19623709  1504.81250487
0.38400002 23616.31610421  1772.99501552
0.38500002 23488.83933822  1496.00424832
0.38600002 23369.25746737  1763.56109832
0.38700002 23255.44955657  1624.16067398
0.38800002 23148.28745256  2026.05395527
0.38900002 23047.88593400  1752.79180832
0.39000002 22954.39026028  2154.04008407
0.39100002 22866.47554215  2016.82323837
0.39200002 22785.61357930  1880.49677779
0.39300002 22710.16660186  1610.60509171
0.39400002 22642.10163327  1609.85350240
0.39500002 22578.74263172  2280.00153897
0.39600002 22521.41496175  1475.26535696
0.39700002 22469.40038562  1877.99257321
0.39800002 22424.19030746  1744.71420953
0.39900002 22383.37322527  1343.00245715
0.40000002 22348.56067059  1478.69258683
0.40100002 22318.65629550  1614.97804606
0.40200002 22294.33791625  1617.23134907
0.40300002 22275.00295351  1349.86524294
0.40400002 22260.53915150  1622.79338103
0.40500002 22250.58089645  1626.07252896
0.40600002 22246.44219301  1901.40350433
0.40700002 22246.11056764  1906.04684375
0.40800002 22250.22569704  1774.56683455
0.40900002 22258.50239661  1505.78775848
0.41000002 22271.84632016  1922.28314697
0.41100002 22288.92422825  1515.20114083
0.41200002 22309.22481029  1520.26219673
0.41300002 22334.87548525  1941.79416669
0.41400002 22363.41240969  1809.75923501
0.41500002 22395.66323276  1537.23839714
0.41600002 22430.56956954  2104.54828958
0.41700002 22470.27334310  1408.88620537
0.41800002 22513.75700559  1556.48866433
0.41900002 22558.48429107  1563.30303545
0.42000002 22606.95432350  1570.39215649
0.42100002 22659.07729480  2008.04752502
0.42200002 22713.58479445  1441.17702350
0.42300002 22770.38040983  1448.19626269
0.42400002 22829.67841200  1746.47048128
0.42500002 22892.13695597  2194.21143120
0.42600002 22955.52742530  2058.42224177
0.42700002 23022.35052737  1625.83847129
0.42800002 23090.48280122  2080.22169414
0.42900002 23161.42263908  1792.69419722
0.43000002 23234.13629150  1802.50437891
0.43100002 23306.98291411  1661.32182084
0.43200002 23382.74065126  1974.32180045
0.43300002 23459.25955196  1985.35722996
0.43400002 23537.70794727  1535.83551634
0.43500002 23616.64511689  1698.98153022
0.43600002 23697.59915601  1864.05323795
0.43700002 23778.84040513  1562.26988865
0.43800002 23860.48897840  2199.69858316
0.43900002 23944.01940005  1896.36642635
0.44000002 24027.38948883  2066.23545701
0.44100002 24111.72071973  2078.18930732
0.44200002 24196.27179237  2090.19503784
0.44300002 24281.41631884  2102.28512451
0.44400002 24366.44640826  2114.39848728
0.44500002 24451.18097763  2126.51931040
0.44600002 24535.88302245  2961.23586232
0.44700002 24621.45732890  1820.01821201
0.44800002 24705.73044319  1663.93102421
0.44900002 24790.36807373  1840.68491671
0.45000002 24874.94176581  2019.34786825
0.45100002 24957.96239926  2707.43988938
0.45200002 25040.99480170  1701.53567742
0.45300002 25122.90823457  2908.47922416
0.45400002 25204.27554340  1892.21107610
0.45500002 25285.15952186  1729.50499326
0.45600002 25364.48967751  1738.73584980
0.45700002 25443.19759444  2447.12686061
0.45800002 25520.36029706  2284.19995665
0.45900002 25596.27736084  2119.37186592
0.46000002 25671.50396235  1952.70304144
0.46100002 25744.37003508  2676.12739198
0.46200002 25816.59902219  2510.14804190
0.46300002 25887.07667191  1801.74062176
0.46400002 25955.49265732  2172.47483838
0.46500002 26023.35494311  2182.83911609
0.46600002 26088.40805791  2192.99168529
0.46700002 26151.65711689  1835.84641662
0.46800002 26213.88954580  2212.97666034
0.46900002 26273.34848106  2963.63384913
0.47000002 26331.06153911  2046.31854450
0.47100002 26386.91016144  2802.28999196
0.47200002 26440.85926399  2251.17486444
0.47300002 26492.52229656  2260.34210948
0.47400002 26541.30385185  2269.28158689
0.47500002 26588.39105146  2657.77569548
0.47600002 26633.92794150  2096.22339799
0.47700002 26675.87500065  2103.92636102
