# SAXS profile: number of points = 501, q_min = 0, q_max = 0.5, delta_q = 0.001
#    q    intensity    error
0.00000000 1700912.83420644 306.16431016
0.00100000 1700830.14442927 663.32377208
0.00200000 1700582.00767271 918.31431322
0.00300000 1700168.66542331 1428.14172983
0.00400000 1699589.96715744 2166.97729047
0.00500000 1698846.43778936 2293.44278179
0.00600000 1697937.97945144 2139.40194121
0.00700000 1696865.16280992 2647.10976400
0.00800000 1695627.78149631 2746.91712200
0.00900000 1694227.11211561 4066.14524290
0.01000000 1692662.51710670 3072.18260120
0.01100000 1690935.28751857 3348.05201506
0.01200000 1689045.34583635 4281.73013942
0.01300000 1686993.82897944 3896.95591682
0.01400000 1684780.81369894 4548.90839864
0.01500000 1682407.66910568 5249.11216135
0.01600000 1679873.80202995 5140.41406401
0.01700000 1677181.59831232 4528.39051858
0.01800000 1674330.83481197 5249.02740333
0.01900000 1671322.28193565 6518.15719367
0.02000000 1668157.17836595 6305.63441946
0.02100000 1664837.43007220 8240.94565249
0.02200000 1661361.62558243 6304.86765553
0.02300000 1657732.93586881 7758.19049301
0.02400000 1653951.11293258 6822.54865194
0.02500000 1650018.55592591 7722.08719441
0.02600000 1645935.30336606 7332.64211188
0.02700000 1641703.47884380 8274.18591234
0.02800000 1637322.80686949 7834.58999016
0.02900000 1632796.17944428 8082.34145934
0.03000000 1628124.64656001 9084.93594540
0.03100000 1623308.64800283 9350.25824273
0.03200000 1618349.73237628 12817.33047076
0.03300000 1613251.63028473 11518.61717125
0.03400000 1608012.26030589 12663.09713419
0.03500000 1602635.28109118 11250.50019279
0.03600000 1597121.86764104 9750.42945255
0.03700000 1591473.65193057 9978.54025909
0.03800000 1585692.22671544 10203.92995115
0.03900000 1579779.79859824 11374.41507666
0.04000000 1573735.89818225 11614.17146677
0.04100000 1567565.06460980 11850.79243793
0.04200000 1561267.75725737 13091.23075194
0.04300000 1554845.02083374 12314.37313661
0.04400000 1548300.34433095 14631.43893344
0.04500000 1541635.03379921 12764.73867297
0.04600000 1534849.25028097 17313.10034800
0.04700000 1527947.15105635 12101.34199917
0.04800000 1520929.32525081 13414.59727287
0.04900000 1513799.48408517 14759.54565685
0.05000000 1506557.19593746 13830.19570272
0.05100000 1499207.18710718 12863.19826460
0.05200000 1491747.42438714 15417.21034950
0.05300000 1484184.33706307 13224.08305971
0.05400000 1476517.68406017 13399.39860771
0.05500000 1468750.09376802 16038.75177214
0.05600000 1460882.82295557 12490.54871913
0.05700000 1452920.84847474 15168.49436612
0.05800000 1444862.79987413 14065.74001354
0.05900000 1436711.91267053 18102.57094514
0.06000000 1428471.79320193 15684.62102212
0.06100000 1420143.53939599 14528.06908694
0.06200000 1411729.67438459 16009.01525584
0.06300000 1403232.86155668 25594.96859149
0.06400000 1394652.62225599 14957.65007322
0.06500000 1385994.64265641 16465.61712498
0.06600000 1377259.94693539 20762.19467148
0.06700000 1368450.53894851 13958.19615050
0.06800000 1359568.78951806 14071.53763019
0.06900000 1350617.81244395 25526.67785032
0.07000000 1341598.53657110 15716.82759193
0.07100000 1332513.67164942 15830.26316065
0.07200000 1323365.90701912 20287.20030499
0.07300000 1314157.92184121 16045.86897752
0.07400000 1304892.25691597 16148.04243610
0.07500000 1295569.91452432 16246.44748965
0.07600000 1286192.38429488 16341.07500855
0.07700000 1276765.42195982 14938.15613736
0.07800000 1267288.60229704 18020.84476977
0.07900000 1257764.56932883 18111.81064785
0.08000000 1248197.01645678 21231.83224594
0.08100000 1238587.24573961 16758.08622112
0.08200000 1228937.00149659 18360.31966392
0.08300000 1219249.25503980 18435.04960140
0.08400000 1209526.56356846 18505.75729123
0.08500000 1199770.45156525 17024.74350694
0.08600000 1189983.50306633 15529.28544414
0.08700000 1180169.59417489 29598.65481179
0.08800000 1170327.71487800 17186.26330012
0.08900000 1160463.21253224 15666.25410502
0.09000000 1150576.49907105 21987.51793012
0.09100000 1140669.86171166 20463.61828051
0.09200000 1130745.99834181 22083.47038525
0.09300000 1120808.80428024 18964.08585959
0.09400000 1110855.89325525 23744.54583426
0.09500000 1100892.88140967 20608.71570865
0.09600000 1090921.05253541 26983.93350292
0.09700000 1080944.89365195 22245.84695720
0.09800000 1070963.65286328 28626.85978700
0.09900000 1060980.65003906 22280.59469851
0.10000000 1050996.59300757 17514.85904615
0.10100000 1041013.65804431 19113.01166061
0.10200000 1031035.16669804 20708.34229717
0.10300000 1021062.35507028 23892.86023258
0.10400000 1011098.28148400 17517.27855081
0.10500000 1001145.42312494 33428.24725092
0.10600001 991200.95106715 17499.65361451
0.10700001 981272.98076947 25434.59685844
0.10800001 971359.32462486 17469.89827554
0.10900001 961464.34999417 20623.41127803
0.11000001 951588.05033573 19012.73014063
0.11100001 941733.13446463 17403.22914413
0.11200001 931900.94858452 18954.86618655
0.11300001 922093.41074707 20498.13748598
0.11400001 912312.80266613 15737.39658698
0.11500001 902561.06415559 21986.38855812
0.11600001 892838.58671323 20370.11331512
0.11700001 883148.90703990 18758.08366894
0.11800001 873490.60846077 21828.53133352
0.11900001 863866.90905608 21769.44713359
0.12000001 854278.90939350 20156.71181662
0.12100001 844731.61798937 15458.58933743
0.12200001 835222.04400966 21573.78641314
0.12300001 825754.76732713 19966.75121469
0.12400001 816328.04105454 15306.15149096
0.12500001 806945.08341027 19826.64163363
0.12600001 797608.77811790 21272.22711483
0.12700001 788318.19306841 18162.85202425
0.12800001 779074.97127302 19597.63182599
0.12900001 769881.56193550 22519.03674798
0.13000001 760738.64723350 19433.06965955
0.13100001 751645.97263979 14882.59095980
0.13200001 742607.50047142 14815.02033279
0.13300001 733622.57800139 14745.81451299
0.13400001 724691.95900498 16142.51414788
0.13500001 715818.51140451 16062.96815326
0.13600001 707001.90798576 14528.88989416
0.13700001 698243.79361078 20235.10609299
0.13800001 689543.09983774 25878.55375723
0.13900001 680904.66728132 18588.69829339
0.14000001 672325.87947415 15641.66232364
0.14100001 663810.40468532 18380.91097263
0.14200001 655357.01555642 18274.63124072
0.14300001 646968.58094818 18166.87860991
0.14400001 638641.14533774 15279.49012294
0.14500001 630382.26284190 13805.37220747
0.14600001 622188.14863528 16463.09918953
0.14700001 614062.09673658 14995.39710974
0.14800001 606001.22904127 14898.54091887
0.14900001 598009.00884604 17491.76433402
0.15000001 590084.93565409 14701.96686550
0.15100001 582230.34514655 14602.33774529
0.15200001 574446.19498897 14501.89487680
0.15300001 566732.26294694 15709.81907022
0.15400001 559086.67301006 16898.39548918
0.15500001 551514.20761454 18067.60629412
0.15600001 544011.18869738 12811.46409846
0.15700001 536583.02223944 19075.52734092
0.15800001 529223.70851925 12621.98604393
0.15900001 521939.11101115 16284.50103219
0.16000001 514725.09722552 16159.79519018
0.16100001 507586.19308837 18501.51761142
0.16200001 500520.02296603 14685.25816706
0.16300001 493526.96084602 13354.84019095
0.16400001 486608.09971645 14452.26124386
0.16500001 479762.12247824 14335.29289644
0.16600001 472991.11673667 17772.64205048
0.16700001 466292.35640865 15275.73831719
0.16800001 459668.16197720 15148.36499321
0.16900001 453119.58671228 12710.00500742
0.17000001 446643.37694239 13747.68379145
0.17100001 440242.01122287 13629.89331108
0.17200001 433913.87228244 14638.08517270
0.17300001 427660.28282795 11161.93390893
0.17400001 421480.87377475 14383.03549682
0.17500001 415374.28770684 14255.64622736
0.17600001 409340.15815822 13041.57805486
0.17700001 403382.39339563 14001.40353606
0.17800001 397495.86837519 11740.04102697
0.17900001 391681.92666641 10575.41251951
0.18000001 385942.71310034 14669.68321787
0.18100001 380275.87360038 12457.83820761
0.18200001 374679.18927823 11313.43865468
0.18300001 369155.59790150 11207.56448173
0.18400001 363703.22748419 12111.31804737
0.18500001 358323.00967817 13996.09741923
0.18600001 353013.77828343 9902.03694866
0.18700001 347774.22137268 12749.40355787
0.18800001 342603.84229801 9712.81938804
0.18900001 337506.77577713 15390.30970259
0.19000001 332474.98337966 12383.03134106
0.19100001 327514.97484019 11318.91806530
0.19200001 322621.59522473 10273.88518539
0.19300001 317798.50863667 10172.73074215
0.19400001 313041.02597631 9156.45044248
0.19500001 308351.62035493 11785.19948688
0.19600001 303727.35742938 13462.71575426
0.19700001 299171.29382312 8885.38784645
0.19800001 294679.27127822 10555.41199602
0.19900001 290252.75560589 11319.85800361
0.20000001 285889.09031589 11205.42342451
0.20100001 281591.16302550 11945.09770009
0.20200001 277354.90589155 12668.18592534
0.20300001 273182.12225763 12539.06000428
0.20400001 269071.58729383 9101.34687040
0.20500001 265021.68835720 8189.17055731
0.20600001 261032.64569965 10536.58324171
0.20700001 257103.96106031 12834.63034281
0.20800001 253234.48958322 8732.79178608
0.20900001 249426.16400313 10999.69435251
0.21000001 245673.26497652 11663.33880611
0.21100001 241979.52639322 9233.93916369
0.21200001 238341.56233238 9899.51725947
0.21300001 234760.08652575 8289.37904711
0.21400001 231234.60291329 7457.31629651
0.21500001 227764.96122833 8117.54360196
0.21600001 224348.10664849 7302.53121666
0.21700001 220985.64285600 12284.59246718
0.21800001 217676.17057824 11441.06006653
0.21900001 214417.77237155 8490.94418738
0.22000001 211210.85319529 9102.13214882
0.22100001 208056.08011009 7621.09457478
0.22200001 204951.31190798 8226.74604898
0.22300001 201895.27913009 7462.04986949
0.22400001 198887.36263510 8054.93856761
0.22500001 195930.00244237 7306.23013657
0.22600001 193017.93901664 7886.71336117
0.22700001 190153.70528547 8454.23413679
0.22800001 187334.69876448 7721.93664824
0.22900001 184560.93861392 7004.08795163
0.23000001 181832.12801100 7560.58024025
0.23100001 179148.43880048 8728.11235114
0.23200001 176506.39262806 8019.56832833
0.23300001 173908.15509522 7325.01183904
0.23400001 171350.51298097 6644.11645507
0.23500001 168834.48737053 6574.41524915
0.23600001 166359.34356886 5914.07494359
0.23700001 163924.02302615 6437.29668871
0.23800001 161527.86363717 6948.92902235
0.23900001 159170.55904507 6303.15443632
0.24000001 156850.51181301 5670.14627024
0.24100001 154569.08290079 6171.94377217
0.24200001 152324.21158230 6107.43955229
0.24300001 150114.92679787 8241.30987104
0.24400001 147940.98885838 5436.83159773
0.24500001 145801.41321344 6994.09412270
0.24600001 143696.36618944 9050.71605259
0.24700001 141625.77626209 5268.47912618
0.24800001 139587.62588811 5734.95788091
0.24900001 137580.54223862 6191.12469362
0.25000001 135606.83509387 7147.83661595
0.25100001 133663.47761248 5557.72766206
0.25200001 131752.80591226 6500.02498720
0.25300001 129870.30180875 5937.67047961
0.25400001 128018.65444809 5876.05651717
0.25500001 126194.07838345 5815.02340703
0.25600001 124399.72950630 5754.73175923
0.25700001 122632.36019022 5695.04707669
0.25800001 120892.29484242 4696.66587685
0.25900001 119180.19894710 6042.43637251
0.26000001 117493.49252857 4599.87045014
0.26100001 115832.55801594 5007.44171996
0.26200001 114197.92783919 5406.13015971
0.26300001 112587.12738492 5350.14054649
0.26400001 111001.46925687 5736.00119527
0.26500001 109439.79568961 4366.64805464
0.26600001 107901.21885407 6050.02162743
0.26700001 106386.06909149 4276.72017985
0.26800001 104893.85246437 4655.71386194
0.26900001 103423.00902033 5026.35847624
0.27000001 101974.45427636 4974.31411500
0.27100001 100547.26588215 4512.56150634
0.27200001 99141.49791922  5277.79789149
0.27300001 97756.18576586  4419.55736763
0.27400001 96389.61751654  4771.28629287
0.27500001 95045.06474061  4721.83903978
0.27600001 93717.79005690  6230.35897784
0.27700001 92411.53314612  5009.62944894
0.27800001 91122.73031568  4957.53237745
0.27900001 89852.91032425  4905.96913589
0.28000001 88600.50504333  4107.96261076
0.28100001 87366.22606135  3695.59153730
0.28200001 86149.86478060  3657.06193302
0.28300001 84950.48968038  3618.89103167
0.28400001 83767.09488246  5013.46086601
0.28500001 82601.02141283  4606.65918223
0.28600001 81450.85374879  4207.75130382
0.28700001 80317.40166282  3469.71191606
0.28800001 79197.93725622  3433.23074256
0.28900001 78095.95564747  4416.32650091
0.29000001 77008.05232922  3697.54180761
0.29100001 75935.68323729  4988.97462484
0.29200001 74877.70758334  3290.87540406
0.29300001 73834.59514830  4232.93754022
0.29400001 72804.93918812  4188.10432505
0.29500001 71790.53670902  4462.49997307
0.29600001 70788.84187315  3784.37166568
0.29700001 69801.22412504  3432.12635270
0.29800001 68827.31429391  3395.59571143
0.29900001 67867.04107674  3359.41869233
0.30000001 66918.73783348  3323.51927183
0.30100001 65984.60230422  3885.83341365
0.30200001 65062.03997408  3252.77684249
0.30300001 64152.99972190  3510.45231097
0.30400001 63256.07538363  3183.36214439
0.30500001 62371.89338403  4008.01805861
0.30600001 61498.52571118  2832.00724308
0.30700001 60638.21582955  5042.67426712
0.30800001 59789.42722294  3602.61210788
0.30900001 58952.70105389  3289.56087455
0.31000001 58127.50191181  2711.64809257
0.31100001 57313.28876166  3486.94065335
0.31200001 56511.26496328  2918.52441721
0.31300001 55719.67385779  2886.83643925
0.31400001 54940.74478730  4672.71056540
0.31500001 54171.02100402  2824.47716888
0.31600002 53414.10820390  3301.79325496
0.31700002 52667.04599544  2763.44003422
0.31800002 51930.62959346  3478.83304118
0.31900002 51205.56726318  2703.65407951
0.32000002 50491.37447555  3160.50773495
0.32100002 49787.01543367  3126.12684710
0.32200002 49094.22943847  3092.20018760
0.32300002 48410.28369000  3293.83585823
0.32400002 47737.98356869  2792.67217101
0.32500002 47075.25302731  2532.17798024
0.32600002 46422.97100564  3643.27493704
0.32700002 45781.05770075  3378.64221830
0.32800002 45150.07940117  3342.23478594
0.32900002 44527.22875325  2424.50772042
0.33000002 43915.53354828  2398.44697832
0.33100002 43312.89798434  2372.68066394
0.33200002 42721.61140469  2987.52242700
0.33300002 42139.35404728  2533.41808529
0.33400002 41567.24764112  2924.25601003
0.33500002 41004.88238432  2273.31078704
0.33600002 40451.64729999  3271.72938856
0.33700002 39908.15280077  3035.01516423
0.33800002 39375.04353651  2002.22105865
0.33900002 38850.66075993  2179.52217185
0.34000002 38335.89918456  2353.05760338
0.34100002 37830.82519954  3687.37070683
0.34200002 37335.86527163  2689.30250288
0.34300002 36849.30855521  2091.56685265
0.34400002 36373.05442706  1882.30565575
0.34500002 35905.66548119  2236.20495208
0.34600002 35448.32182300  2952.13638123
0.34700002 34998.84404108  2740.40961820
0.34800002 34559.54378805  1990.11142329
0.34900002 34128.94713846  2150.12377156
0.35000002 33707.91651153  2129.66626606
0.35100002 33296.47229706  1933.85920261
0.35200002 32892.53215124  2612.48948985
0.35300002 32498.98725273  2243.40519631
0.35400002 32113.48329917  2565.06460001
0.35500002 31737.42897776  2033.73454522
0.35600002 31369.92715793  2351.80355042
0.35700002 31011.06974395  1998.35342895
0.35800002 30661.50263714  1981.34639426
0.35900002 30320.94563208  2292.26359836
0.36000002 29988.73126944  2273.44582522
0.36100002 29664.61354359  1771.86745089
0.36200002 29350.65304242  1598.14313386
0.36300002 29043.57768874  2061.51324199
0.36400002 28745.67475792  2360.73865132
0.36500002 28455.43468591  2187.08481356
0.36600002 28174.38534652  2016.29998283
0.36700002 27901.05894813  1694.15237958
0.36800002 27636.85161353  1529.69980927
0.36900002 27380.41712721  1823.53586705
0.37000002 27131.50484194  2113.81564237
0.37100002 26890.72776646  3001.00536089
0.37200002 26658.55385378  1789.85539053
0.37300002 26433.93584342  2076.12141949
0.37400002 26217.07070451  2359.53647518
0.37500002 26008.08097397  1466.85583642
0.37600002 25807.03467584  1751.26545606
0.37700002 25613.39343208  2468.87510987
0.37800002 25427.08687552  1879.18894456
0.37900002 25249.23883558  1439.20668181
0.38000002 25077.88715220  1719.84158237
0.38100002 24913.23822054  1570.28147943
0.38200002 24756.98888112  1991.20471004
0.38300002 24607.32912833  1984.33511491
0.38400002 24464.82112583  1836.69653303
0.38500002 24328.75715587  1690.36212727
0.38600002 24200.69232083  1545.33528136
0.38700002 24078.32490493  1821.76614861
0.38800002 23962.65394176  1538.04301612
0.38900002 23853.69570062  1674.52951752
0.39000002 23751.83872456  1393.04540719
0.39100002 23655.42836217  1808.22102967
0.39200002 23566.27586236  1806.00163627
0.39300002 23482.42722219  1804.15496896
0.39400002 23406.03526784  1802.84995192
0.39500002 23334.23137902  1524.65875054
0.39600002 23268.62588360  1662.77608442
0.39700002 23208.24314884  1385.53218163
0.39800002 23154.81712013  1524.39745733
0.39900002 23105.69463951  1663.61009286
0.40000002 23062.59557753  1664.65822766
0.40100002 23024.37066584  1527.20657862
0.40200002 22991.83501417  1806.81344019
0.40300002 22964.23256461  1669.95907122
0.40400002 22941.60206496  1951.18334807
0.40500002 22923.44538210  1535.64167891
0.40600002 22910.96911414  1678.45767683
0.40700002 22902.49550563  1962.28590790
0.40800002 22898.39448177  1545.29822482
0.40900002 22898.52422296  1549.08523708
0.41000002 22903.67796761  2400.42008313
0.41100002 22912.61106711  1415.99943104
0.41200002 22924.63480654  1420.18119356
0.41300002 22942.14750679  1709.64891321
0.41400002 22962.50141559  2144.12367128
0.41500002 22986.56310541  2294.97856919
0.41600002 23013.22367065  2159.21581321
0.41700002 23044.84471372  2022.87656482
0.41800002 23080.17125089  1740.70659822
0.41900002 23116.71299089  1893.25888366
0.42000002 23156.99212113  1901.07335827
0.42100002 23201.05298838  1615.48939613
0.42200002 23247.31006338  1622.54608276
0.42300002 23296.00524787  1926.11380516
0.42400002 23347.14812146  1934.89499225
0.42500002 23401.47689946  2243.03166710
0.42600002 23456.77511397  1953.12847242
0.42700002 23515.38168789  1811.62509108
0.42800002 23575.35218671  2123.90357915
0.42900002 23638.23117107  1677.13258106
0.43000002 23702.85487400  1838.86756826
0.43100002 23767.60699356  1848.16920740
0.43200002 23835.21286534  1857.71657876
0.43300002 23903.67764538  1867.35538615
0.43400002 23973.99046881  1877.16354266
0.43500002 24044.92443007  1729.79194547
0.43600002 24117.73523578  2371.37642944
0.43700002 24190.89018371  2225.07818454
0.43800002 24264.51223458  2716.29095082
0.43900002 24339.92929286  1606.43540946
0.44000002 24415.26955176  2745.61926756
0.44100002 24491.57437334  2110.92889527
0.44200002 24568.11750044  1632.55148527
0.44300002 24645.17700794  2297.91641312
0.44400002 24722.26499150  2475.31689958
0.44500002 24799.02928292  1990.86616518
0.44600002 24875.73507402  1834.70992733
0.44700002 24953.42309480  1844.55712258
0.44800002 25029.67981507  2022.89881852
0.44900002 25106.43344037  2203.08963880
0.45000002 25183.09559784  1874.00014773
0.45100002 25258.31295410  2055.01643934
0.45200002 25333.50057348  1721.41144555
0.45300002 25407.52014335  2249.32786489
0.45400002 25481.12431712  2434.72154389
0.45500002 25554.23276364  1922.70056426
0.45600002 25625.77581916  1932.31171722
0.45700002 25696.76751170  2824.58881875
0.45800002 25766.19531726  2306.20342117
0.45900002 25834.43930038  3386.89515280
0.46000002 25901.94183095  1970.23129875
0.46100002 25967.18887393  1979.47890168
0.46200002 26031.76482814  2169.48738360
0.46300002 26094.76210377  1816.19552850
0.46400002 26155.64275296  2736.53425273
0.46500002 26215.97825823  1832.49696710
0.46600002 26273.58855764  2392.60445540
0.46700002 26329.38895825  2587.65246946
0.46800002 26384.26473772  2041.74642350
0.46900002 26436.31114461  2422.88803124
0.47000002 26486.71677126  1871.28662858
0.47100002 26535.33591143  2442.31243305
0.47200002 26582.02232451  2074.59403065
0.47300002 26626.55563236  2271.77783423
0.47400002 26668.16075250  2280.12785241
0.47500002 26708.16801790  2669.74860161
0.47600002 26746.57213703  1913.71732711
0.47700002 26781.54363267  1920.23676948
