# SAXS profile: number of points = 501, q_min = 0, q_max = 0.5, delta_q = 0.001
#    q    intensity    error
0.00000000 1664650.74656090 274.66737318
0.00100000 1664569.03536354 499.37072247
0.00200000 1664323.82908757 823.84032149
0.00300000 1663915.37195282 1297.85403636
0.00400000 1663343.52889469 1621.76000230
0.00500000 1662608.77339874 1645.98275081
0.00600000 1661711.06271088 2791.67469901
0.00700000 1660650.93442860 2391.33744496
0.00800000 1659428.21059976 3136.31945045
0.00900000 1658044.11714153 2487.06628203
0.01000000 1656498.07011424 3826.51070719
0.01100000 1654791.27662544 4170.07419866
0.01200000 1652923.74519032 3867.84173333
0.01300000 1650896.56863636 5200.32442056
0.01400000 1648709.82593706 3709.59727281
0.01500000 1646364.87078744 4741.53103900
0.01600000 1643861.17021964 7126.13849147
0.01700000 1641200.95313272 6203.73988113
0.01800000 1638384.15444081 6070.21356535
0.01900000 1635411.37104882 4906.23433453
0.02000000 1632284.05389031 6684.20350305
0.02100000 1629003.96109689 7525.99864148
0.02200000 1625569.67445647 5608.21563167
0.02300000 1621984.46683623 7006.97321568
0.02400000 1618247.86298511 9709.48762064
0.02500000 1614362.42839824 8184.81788578
0.02600000 1610328.21803157 7826.19549759
0.02700000 1606147.28985255 11467.89217479
0.02800000 1601819.32838088 7664.70583780
0.02900000 1597347.27150713 8625.67566218
0.03000000 1592732.09999287 9628.06598701
0.03100000 1587974.23992437 11433.41505354
0.03200000 1583075.26131923 10187.08977579
0.03300000 1578038.96948530 10462.39885001
0.03400000 1572863.43586146 10734.79344506
0.03500000 1567551.87866500 13543.64885709
0.03600000 1562105.44253778 13004.52841011
0.03700000 1556526.18628895 13308.29950825
0.03800000 1550815.48004980 9979.49807597
0.03900000 1544975.34305604 12050.80823391
0.04000000 1539005.70851920 10411.37410058
0.04100000 1532910.70523546 9657.33789076
0.04200000 1526690.98201162 12801.30447806
0.04300000 1520347.45490069 15051.44050217
0.04400000 1513883.65691914 11240.58667466
0.04500000 1507301.10451894 12480.45372532
0.04600000 1500599.59061610 10579.22760564
0.04700000 1493783.34146713 11830.76461464
0.04800000 1486853.21826302 10928.37166271
0.04900000 1479812.41830313 11098.59365389
0.05000000 1472660.85392330 13519.02726854
0.05100000 1465403.15839059 16002.20323507
0.05200000 1458037.35822571 11591.39753807
0.05300000 1450569.91190518 11749.61683417
0.05400000 1443000.24897591 13095.22787014
0.05500000 1435331.26129115 14468.13978874
0.05600000 1427564.05764032 12205.67326239
0.05700000 1419703.53887795 16056.84777422
0.05800000 1411748.83005148 17491.56882106
0.05900000 1403702.33522062 18949.98241055
0.06000000 1395568.21777692 15323.33974708
0.06100000 1387347.41087406 15482.79782889
0.06200000 1379042.46276206 14335.14707049
0.06300000 1370656.18655628 14474.13000678
0.06400000 1362187.58787120 17265.72848373
0.06500000 1353642.54560391 17421.38037686
0.06600000 1345022.53079126 16220.97248030
0.06700000 1336328.56907748 14993.60724673
0.06800000 1327563.94234316 17862.37368035
0.06900000 1318731.59984529 18000.68718066
0.07000000 1309831.95790727 15344.68210545
0.07100000 1300868.10141720 19669.12661469
0.07200000 1291842.54542361 19803.94714910
0.07300000 1282757.98217513 21357.92140395
0.07400000 1273617.05690852 21492.28884255
0.07500000 1264420.55496638 15855.83450248
0.07600000 1255170.30310385 17396.66121659
0.07700000 1245871.37748261 18949.70454003
0.07800000 1236524.22260055 21979.21908747
0.07900000 1227130.57428149 16198.12434027
0.08000000 1217694.81359341 16274.49194713
0.08100000 1208217.51729733 19319.39900802
0.08200000 1198700.93333839 16416.21005240
0.08300000 1189148.30478989 17979.92321226
0.08400000 1179561.19090345 24063.04942392
0.08500000 1169942.23464877 27166.05996386
0.08600000 1160293.21369335 21198.55800948
0.08700000 1150617.88775888 18225.78819794
0.08800000 1140915.83903926 16754.34988314
0.08900000 1131192.24202350 16798.20558306
0.09000000 1121447.25240366 21430.85800016
0.09100000 1111683.15784572 23011.84244853
0.09200000 1101902.38674097 19983.00072248
0.09300000 1092109.80970545 23098.12356070
0.09400000 1082301.95466183 18507.36429452
0.09500000 1072484.95745167 18532.54093584
0.09600000 1062659.81869278 17007.87119768
0.09700000 1052830.83131081 18571.93673744
0.09800000 1042997.85034404 18586.22256701
0.09900000 1033164.05480882 18596.95386103
0.10000000 1023329.50660023 17053.78702948
0.10100000 1013497.12269974 15506.50670660
0.10200000 1003669.82286773 20158.70934049
0.10300000 993848.68388781 20155.25225736
0.10400000 984036.96158268 20148.15773628
0.10500000 974237.07072703 26333.62926073
0.10600001 964446.36964659 21671.11094566
0.10700001 954672.25936284 20105.39872829
0.10800001 944913.37257768 16994.26780559
0.10900001 935173.72519720 24688.58750719
0.11000001 925453.11099892 18490.55402810
0.11100001 915754.07474001 16923.13609782
0.11200001 906078.76041430 19965.44642564
0.11300001 896428.25446017 18394.70864756
0.11400001 886805.22942542 24475.82548457
0.11500001 877211.28655197 18316.17252568
0.11600001 867647.28903769 18272.65276762
0.11700001 858116.23027398 15188.65799116
0.11800001 848616.96223045 19692.15753602
0.11900001 839152.87096582 21146.65334438
0.12000001 829724.60535717 22589.25344491
0.12100001 820337.04069102 16513.38540702
0.12200001 810988.06260249 19451.54959791
0.12300001 801680.69601337 23858.01863741
0.12400001 792414.96407220 20800.89378698
0.12500001 783192.67344471 16282.57644816
0.12600001 774017.64829906 17694.04427392
0.12700001 764888.20303310 22028.78128549
0.12800001 755806.47248725 16087.34152508
0.12900001 746774.47410972 20386.94410407
0.13000001 737793.40465821 17397.16930185
0.13100001 728862.75755661 20204.07659184
0.13200001 719985.51524917 18672.82521823
0.13300001 711162.50286580 17153.24037778
0.13400001 702394.00510963 15645.82720145
0.13500001 693682.43874995 14151.12241770
0.13600001 685027.48423809 16892.77855782
0.13700001 676431.26680696 15402.34067147
0.13800001 667892.74205279 18103.23362701
0.13900001 659415.80493188 22156.37209057
0.14000001 650998.60042420 16522.34525797
0.14100001 642644.72002162 20532.49977306
0.14200001 634352.80387737 19049.61559892
0.14300001 626125.53843707 16229.17472178
0.14400001 617959.61200282 20160.93329258
0.14500001 609861.31447199 14691.55975866
0.14600001 601828.17194401 14597.34299912
0.14700001 593862.58706262 15820.50006570
0.14800001 585961.78671553 17025.12051624
0.14900001 578129.88018592 15609.50750149
0.15000001 570365.85048189 14210.66583526
0.15100001 562670.46511669 14111.77593099
0.15200001 555045.66768433 14012.12854188
0.15300001 547490.41846449 12647.02926333
0.15400001 540003.79055089 16321.61533963
0.15500001 532589.48174191 14955.11335309
0.15600001 525244.38119933 16080.35748933
0.15700001 517973.70249269 22096.75919124
0.15800001 510771.67144768 17054.66691460
0.15900001 503643.92546905 12087.45478179
0.16000001 496586.14767068 11992.55603232
0.16100001 489603.34586185 14276.83423926
0.16200001 482692.68929389 16522.57153450
0.16300001 475854.60510179 14047.22860574
0.16400001 469090.12135712 15092.97536720
0.16500001 462398.17805179 18421.94428331
0.16600001 455780.36087044 15984.21801039
0.16700001 449234.95209017 11320.72132718
0.16800001 442763.30099538 14591.26527325
0.16900001 436366.27367479 12240.07455453
0.17000001 430041.27668631 11030.55926786
0.17100001 423790.49103873 14213.93374064
0.17200001 417612.79414919 11920.75777192
0.17300001 411508.49466132 10740.37221787
0.17400001 405478.27883097 10643.80532198
0.17500001 399520.03108141 10547.32931867
0.17600001 393633.36797003 18811.73954375
0.17700001 387822.55235120 10354.86263684
0.17800001 382082.32809620 17440.14868969
0.17900001 376414.31337178 12195.82432930
0.18000001 370819.68292302 14094.85681368
0.18100001 365297.12460895 12964.39556476
0.18200001 359844.26297623 13828.81567942
0.18300001 354463.27327688 12718.14284597
0.18400001 349153.39692528 12595.70938911
0.18500001 343914.33837047 12473.77364198
0.18600001 338745.79624967 13302.54804718
0.18700001 333646.27630146 15995.00324157
0.18800001 328615.11327793 18632.47780317
0.18900001 323656.27139704 11069.04500476
0.19000001 318761.95366276 9132.53040394
0.19100001 313938.69100715 9041.43472821
0.19200001 309181.44174382 13426.20474213
0.19300001 304493.35443596 14177.21125245
0.19400001 299870.13010501 11402.56223606
0.19500001 295314.13085383 13023.35378607
0.19600001 290822.75274035 11171.95657447
0.19700001 286398.33713929 9356.63411651
0.19800001 282037.20313674 10102.57309379
0.19900001 277740.81973800 9165.44748451
0.20000001 273506.33634583 9070.83807361
0.20100001 269336.74039787 9793.08434371
0.20200001 265228.03365705 11306.67160919
0.20300001 261181.73681814 12787.45843901
0.20400001 257197.21626531 10281.45920617
0.20500001 253272.11546314 8608.71961150
0.20600001 249406.79619837 9292.89766561
0.20700001 245601.33212982 12260.41907946
0.20800001 241853.83301230 14406.02424435
0.20900001 238166.75093938 8252.47831015
0.21000001 234534.11645185 8907.60616392
0.21100001 230959.69735662 7344.51872314
0.21200001 227440.11050958 8720.05424917
0.21300001 223976.12176543 8627.56061828
0.21400001 220567.14361888 7113.29071800
0.21500001 217213.28979672 8445.25310657
0.21600001 213911.00283738 6962.80347155
0.21700001 210662.18923198 10332.98087037
0.21800001 207465.48554798 8178.28982698
0.21900001 204319.29871950 8765.29832950
0.22000001 201223.12638612 7337.60165061
0.22100001 198178.42833132 7919.21037057
0.22200001 195182.42402396 7834.62287078
0.22300001 192234.41770629 7750.89208842
0.22400001 189333.76631460 7029.01640681
0.22500001 186482.43297012 7586.10573195
0.22600001 183675.64455402 6254.15599281
0.22700001 180915.43543276 6806.03900283
0.22800001 178199.91671192 7345.40091423
0.22900001 175528.16854815 6055.72210129
0.23000001 172900.76996945 7189.21435532
0.23100001 170317.47084129 7705.16274526
0.23200001 167774.74592222 7622.84594149
0.23300001 165274.85255425 5801.14759902
0.23400001 162814.97111832 6887.07360403
0.23500001 160395.38382570 5677.99685598
0.23600001 158015.61089566 6179.20075633
0.23700001 155675.25984741 7780.64985518
0.23800001 153372.69118201 8247.61685841
0.23900001 151108.09411285 5983.88080990
0.24000001 148879.78537956 6996.60584485
0.24100001 146689.12644022 6389.77864998
0.24200001 144534.15479775 6321.92422989
0.24300001 142413.70506718 6254.81022242
0.24400001 140327.94952791 6704.16810583
0.24500001 138275.41852626 6122.83582198
0.24600001 136256.66808535 5553.14077051
0.24700001 134271.02954490 6992.83554950
0.24800001 132317.10511965 5436.24852101
0.24900001 130393.61439563 5867.71292539
0.25000001 128502.37856009 5321.92625984
0.25100001 126640.46068863 6223.11253265
0.25200001 124810.23282361 7104.82283961
0.25300001 123007.63086660 5623.90914929
0.25400001 121234.72494334 4637.22844848
0.25500001 119488.21587862 5047.18247750
0.25600001 117770.79442057 4994.07077369
0.25700001 116079.42331310 5390.72867371
0.25800001 114414.78267942 4445.01451741
0.25900001 112776.85680737 5277.95714831
0.26000001 111163.81883893 5657.68282750
0.26100001 109575.17346179 6459.45678121
0.26200001 108012.59789864 5965.53606421
0.26300001 106472.53904231 5059.57529470
0.26400001 104957.06169671 5423.65641982
0.26500001 103464.53612330 4953.88222400
0.26600001 101994.31044581 4493.35955931
0.26700001 100546.62293223 4850.36931977
0.26800001 99121.12350541  5199.39877952
0.26900001 97716.20743619  5540.50922382
0.27000001 96332.74947665  7048.66761276
0.27100001 94969.69235617  5037.19272095
0.27200001 93627.43741110  4217.44811777
0.27300001 92304.70467584  5690.58531257
0.27400001 91000.07271428  6006.00508338
0.27500001 89716.61988445  5199.97553459
0.27600001 88449.49326979  4042.58428122
0.27700001 87202.66837401  4727.25687628
0.27800001 85972.65344252  4317.54686022
0.27900001 84760.88759062  4627.94468148
0.28000001 83565.88584933  4578.99293183
0.28100001 82388.15861361  4182.02312916
0.28200001 81227.50803286  3448.10787919
0.28300001 80083.17831839  5458.46969253
0.28400001 78954.20808140  4387.88032181
0.28500001 77841.68506841  4007.29013699
0.28600001 76744.45642079  4625.38860741
0.28700001 75663.22189696  3595.51647473
0.28800001 74595.42114042  3880.45399140
0.28900001 73544.08814753  3519.08478443
0.29000001 72506.50786588  4114.38198360
0.29100001 71483.79825385  3757.18861407
0.29200001 70474.66358782  3407.09777243
0.29300001 69479.68180038  4596.08116865
0.29400001 68497.60677897  3637.22309214
0.29500001 67530.40849959  3298.18530725
0.29600001 66574.88652337  5042.04926953
0.29700001 65633.14663852  2933.80179362
0.29800001 64704.25087431  3772.58152582
0.29900001 63788.50076138  3157.53093716
0.30000001 62884.22748711  2839.22300545
0.30100001 61993.33290724  3089.12792501
0.30200001 61113.65885129  2777.61592629
0.30300001 60246.84553313  4395.61005819
0.30400001 59391.47305502  2988.87602299
0.30500001 58548.50557518  2687.37653313
0.30600001 57715.66913881  2657.80668967
0.30700001 56895.50356837  2628.57238930
0.30800001 56086.16055495  3639.43113072
0.30900001 55288.40934720  4113.45785018
0.31000001 54501.52533056  3050.99553245
0.31100001 53725.38276129  3520.08724518
0.31200001 52960.90536212  2735.16608693
0.31300001 52206.37395976  2458.92032993
0.31400001 51464.01946741  3161.17754546
0.31500001 50730.59191242  2885.55620460
0.31600002 50009.22067170  3091.32012219
0.31700002 49297.19797360  2586.62410015
0.31800002 48595.54035292  2325.29671599
0.31900002 47904.73600861  2989.25566848
0.32000002 47224.30249618  3183.39038200
0.32100002 46553.46609583  3372.79877834
0.32200002 45893.71778409  2223.55073193
0.32300002 45242.24971455  2638.52812829
0.32400002 44601.99821837  3261.52127416
0.32500002 43971.30183729  2365.21643782
0.32600002 43350.60838186  2338.98218600
0.32700002 42739.65613587  2102.79118146
0.32800002 42139.42136710  2495.49665153
0.32900002 41546.82442311  2879.19506886
0.33000002 40965.25601290  2644.10257456
0.33100002 40392.29768739  2212.69017210
0.33200002 39830.37576682  2984.29104565
0.33300002 39277.05535511  2164.55862312
0.33400002 38733.80657033  2141.01125956
0.33500002 38199.71568258  2310.31891389
0.33600002 37674.48709508  2285.33449541
0.33700002 37158.80305632  2637.53196584
0.33800002 36653.15827376  2050.19450513
0.33900002 36155.96872099  2028.34994131
0.34000002 35668.12925878  2371.75236738
0.34100002 35189.53328219  1805.22314287
0.34200002 34721.03011614  1786.39708408
0.34300002 34260.71907767  1944.63850695
0.34400002 33810.30699555  2274.58851085
0.34500002 33368.49952405  2251.37276951
0.34600002 32936.40074151  2571.50960968
0.34700002 32512.15641962  1697.13464548
0.34800002 32097.73583612  2352.44317084
0.34900002 31691.87824633  2162.97079275
0.35000002 31295.24522018  2636.31158221
0.35100002 30908.08209419  1958.33617424
0.35200002 30528.18690377  1778.11433043
0.35300002 30158.45158128  1761.55524030
0.35400002 29796.83027024  1904.01754445
0.35500002 29444.35778766  2358.49317050
0.35600002 29100.04378610  1869.96890226
0.35700002 28764.36592861  1699.11117588
0.35800002 28437.58863744  1684.50064273
0.35900002 28119.89732500  2429.55924396
0.36000002 27810.30532491  1807.11372561
0.36100002 27508.74315377  1792.46978880
0.36200002 27216.88616064  1926.54737814
0.36300002 26932.09035365  1617.54142326
0.36400002 26656.27780589  1459.43127900
0.36500002 26387.86493665  1593.56323901
0.36600002 26128.54960355  1582.21439619
0.36700002 25876.86834219  1571.24352016
0.36800002 25634.13946593  1986.38956131
0.36900002 25399.08880229  1691.57939436
0.37000002 25171.56525806  1821.03697486
0.37100002 24951.94682854  1531.55056889
0.37200002 24740.80515723  1522.67292553
0.37300002 24537.14534940  2064.80087896
0.37400002 24341.08729232  1779.94209257
0.37500002 24152.93587594  1498.44821273
0.37600002 23972.52512518  1491.21099605
0.37700002 23799.31547814  1619.30550184
0.37800002 23633.67149067  1343.57428789
0.37900002 23476.14547940  1471.95439129
0.38000002 23325.15840738  1866.24601258
0.38100002 23180.73856047  1461.08202068
0.38200002 23044.70935705  1456.31047681
0.38300002 22914.92658941  1979.84975112
0.38400002 22792.48094904  2106.02533946
0.38500002 22676.39588076  1575.55606044
0.38600002 22568.14079271  1310.08063508
0.38700002 22465.63262284  1699.74984477
0.38800002 22369.76307126  1566.33088445
0.38900002 22280.56281752  1694.43688255
0.39000002 22198.32406219  1822.70447510
0.39100002 22121.58176371  1560.89888320
0.39200002 22051.72264455  1429.94402263
0.39300002 21987.45254935  1429.40435795
0.39400002 21930.40647493  1689.18963876
0.39500002 21878.13843574  1949.34222698
0.39600002 21831.85346977  1300.08693572
0.39700002 21790.77233519  1691.18192106
0.39800002 21756.47450655  1953.18759136
0.39900002 21726.61374760  1433.95657528
0.40000002 21702.70359324  1435.95945128
0.40100002 21683.62914644  1830.53205927
0.40200002 21670.18691678  1571.95543342
0.40300002 21661.60219421  1706.50110171
0.40400002 21657.91316318  1315.71828700
0.40500002 21658.66672829  1714.71672612
0.40600002 21665.24323238  1719.46211061
0.40700002 21675.59829066  1459.20134607
0.40800002 21690.42875945  1729.92022768
0.40900002 21709.25513571  1735.65503034
0.41000002 21733.14239637  1875.78760911
0.41100002 21760.76989450  1613.77877184
0.41200002 21791.57957666  1754.98494436
0.41300002 21827.73493293  1491.05264392
0.41400002 21866.69627624  1633.44228923
0.41500002 21909.39759410  1503.86112212
0.41600002 21954.71964953  2334.55522455
0.41700002 22004.83952899  1793.61455500
0.41800002 22058.55177355  1386.38004466
0.41900002 22113.59316320  2089.73465294
0.42000002 22172.29170723  2100.27043149
0.42100002 22234.57608793  1548.19360636
0.42200002 22299.34785310  2122.34053249
0.42300002 22366.24030349  1564.74224578
0.42400002 22435.68185031  1859.35722145
0.42500002 22508.11094879  1582.09519356
0.42600002 22581.55202423  1590.98332326
0.42700002 22658.37053130  1745.60094845
0.42800002 22736.48578248  1463.09292943
0.42900002 22817.36058316  1766.06379282
0.43000002 22899.82121595  2072.66291647
0.43100002 22982.53492137  1936.04883352
0.43200002 23068.07008099  2247.40683414
0.43300002 23154.28604716  2411.75054896
0.43400002 23242.43300014  1516.56882513
0.43500002 23330.97400012  1678.43034911
0.43600002 23421.49811482  1842.33512902
0.43700002 23512.26794317  2008.18290019
0.43800002 23603.41528446  2486.85595222
0.43900002 23696.38682926  1876.75392582
0.44000002 23789.14631964  1731.01731398
0.44100002 23882.80343764  1900.11593154
0.44200002 23976.68482006  1752.57585998
0.44300002 24071.04043997  1603.13136928
0.44400002 24165.27358624  1774.33529716
0.44500002 24259.10088768  1622.93392630
0.44600002 24352.89638688  1796.14795814
0.44700002 24447.49113215  1642.87148194
0.44800002 24540.72762348  1818.09989215
0.44900002 24634.18079257  1662.80728230
0.45000002 24727.61954483  1672.82354149
0.45100002 24819.38370229  2355.85601267
0.45200002 24911.10206770  1861.98041229
0.45300002 25001.69585296  1872.87712511
0.45400002 25091.64726704  2568.75751070
0.45500002 25181.02123683  2411.33470792
0.45600002 25268.76098244  2078.60837693
0.45700002 25355.86801774  2612.92232306
0.45800002 25441.29231966  2277.12297699
0.45900002 25525.53823105  2113.51466570
0.46000002 25608.88718371  2125.02555922
0.46100002 25689.91818160  1958.34255580
0.46200002 25770.15111003  2147.68449530
0.46300002 25848.59025352  2158.87436029
0.46400002 25924.84789397  2531.56151683
0.46500002 26000.55292974  2362.67035671
0.46600002 26073.32930562  1826.43680442
0.46700002 26144.29391792  2202.39542403
0.46800002 26214.06411162  2766.23924649
0.46900002 26281.10099626  2593.94479127
0.47000002 26346.21414448  2419.76815279
0.47100002 26409.39821292  2991.65677135
0.47200002 26470.61592319  2065.89931764
0.47300002 26529.42126167  1886.24194111
0.47400002 26585.31737161  2083.62434776
0.47500002 26639.46198608  2282.46921115
0.47600002 26691.94041050  2864.71264034
0.47700002 26740.72922782  2109.04141416
