# SAXS profile: number of points = 501, q_min = 0, q_max = 0.5, delta_q = 0.001
#    q    intensity    error
0.00000000 1664650.74656091 374.54641798
0.00100000 1664569.03237571 499.37072157
0.00200000 1664323.81707916 898.73488968
0.00300000 1663915.33986115 1297.85401133
0.00400000 1663343.47351398 1497.00918305
0.00500000 1662608.69505769 2094.88703869
0.00600000 1661710.94949139 1919.27622480
0.00700000 1660650.78103061 2989.17153009
0.00800000 1659428.00469016 2240.22790091
0.00900000 1658043.84208620 2487.06586945
0.01000000 1656497.75030808 3553.18782784
0.01100000 1654790.89608672 3276.48611691
0.01200000 1652923.28898990 3545.52061033
0.01300000 1650896.02722068 5200.32271510
0.01400000 1648709.18651211 4451.51500092
0.01500000 1646364.14624316 4741.52895232
0.01600000 1643860.34579858 5030.21288301
0.01700000 1641200.03459829 4874.36432141
0.01800000 1638383.11597952 7004.08813598
0.01900000 1635410.22985229 6378.10018422
0.02000000 1632282.79725905 5141.69104395
0.02100000 1629002.56764517 6988.42133204
0.02200000 1625568.09929172 6169.03121709
0.02300000 1621982.78995419 5839.13830962
0.02400000 1618246.04881188 9102.63443962
0.02500000 1614360.45501759 6296.00606211
0.02600000 1610326.07117758 9782.73132985
0.02700000 1606144.98072692 6745.80922802
0.02800000 1601816.89990014 13239.01728481
0.02900000 1597344.62968622 9344.46651271
0.03000000 1592729.32823460 7406.19171672
0.03100000 1587971.24370496 12195.61971281
0.03200000 1583072.06157422 9403.44847886
0.03300000 1578035.61816290 8047.98202365
0.03400000 1572859.83790032 10734.76888898
0.03500000 1567548.12634422 11004.18835509
0.03600000 1562101.52430107 8669.66386053
0.03700000 1556522.00335466 12421.04616121
0.03800000 1550811.08047959 10886.69428880
0.03900000 1544970.76007682 11123.78998770
0.04000000 1539000.86481261 13250.79806006
0.04100000 1532905.66473024 10623.03674913
0.04200000 1526685.65954583 12801.25984918
0.04300000 1520341.87818787 11037.68254799
0.04400000 1513877.95062390 11240.54430542
0.04500000 1507295.05611489 14560.47091862
0.04600000 1500593.30606498 11637.10162951
0.04700000 1493776.84808075 12906.23256766
0.04800000 1486846.55111000 10928.32265913
0.04900000 1479805.49528248 14428.10425060
0.05000000 1472653.57699342 13518.96046633
0.05100000 1465395.69996969 14859.11308989
0.05200000 1458029.63027917 15068.73693116
0.05300000 1450561.84985946 12924.50668476
0.05400000 1442992.00496143 14285.62151531
0.05500000 1435322.80171818 12056.71209687
0.05600000 1427555.17302493 13426.15702882
0.05700000 1419694.43530336 13586.47638005
0.05800000 1411739.48171956 19990.23199454
0.05900000 1403692.75717621 12633.23540463
0.06000000 1395558.36151584 19154.03940666
0.06100000 1387337.35106044 16772.90935814
0.06200000 1379032.01569127 14335.03847318
0.06300000 1370645.53429307 14474.01751887
0.06400000 1362176.76192361 15937.46885985
0.06500000 1353631.30006085 16081.14059696
0.06600000 1345010.97047298 14869.09697428
0.06700000 1336316.76329713 14993.47478587
0.06800000 1327551.89780634 13740.16278546
0.06900000 1318719.26035765 16615.86345844
0.07000000 1309819.33451880 18134.44953562
0.07100000 1300855.28389299 18264.00904130
0.07200000 1291829.49949397 18389.19378677
0.07300000 1282744.58344759 19933.85176079
0.07400000 1273603.29586430 17193.64529993
0.07500000 1264406.56918039 15855.65912072
0.07600000 1255156.10724273 15946.75909011
0.07700000 1245856.93028916 26237.74818214
0.07800000 1236509.42943168 17583.16491110
0.07900000 1227115.53539982 25033.15809630
0.08000000 1217679.46354948 28110.13173472
0.08100000 1208201.97536213 20805.23899188
0.08200000 1198685.21163973 16415.99474373
0.08300000 1189132.27001321 16481.37403589
0.08400000 1179544.89494152 22558.79717464
0.08500000 1169925.78560997 15092.04334287
0.08600000 1160276.43589563 15141.60819936
0.08700000 1150600.84786142 19744.31147645
0.08800000 1140898.54266128 18277.19551180
0.08900000 1131174.72437812 16797.94544601
0.09000000 1121429.51574175 22961.27041343
0.09100000 1111665.32450868 18409.17863875
0.09200000 1101884.26405045 16908.41482633
0.09300000 1092091.31853755 18478.18597799
0.09400000 1082283.41154811 15422.53933938
0.09500000 1072466.13610676 16987.86439441
0.09600000 1062640.75288434 24738.27789004
0.09700000 1052811.63626234 17023.96495871
0.09800000 1042978.40167831 18585.87599177
0.09900000 1033144.40528646 18596.60016961
0.10000000 1023309.62465535 20154.08400538
0.10100000 1013477.19916900 17056.82206423
0.10200000 1003649.65812711 20158.30433166
0.10300000 993828.31815997 15503.72249260
0.10400000 984016.48894624 17048.08647302
0.10500000 974216.49278887 20137.05585338
0.10600001 964425.48789822 18574.83577093
0.10700001 954651.30310062 24744.56294079
0.10800001 944892.27801039 24718.38315604
0.10900001 935152.48763580 29317.03186721
0.11000001 925431.59336841 16949.28043034
0.11100001 915732.50675816 15384.30683773
0.11200001 906057.05958254 18429.20145950
0.11300001 896406.40826437 16861.40533330
0.11400001 886783.35324422 18356.41627646
0.11500001 877189.25937105 18315.71259812
0.11600001 867625.13176366 16749.50395746
0.11700001 858093.97254931 18225.91683530
0.11800001 848594.68527241 22721.12376830
0.11900001 839130.49652807 18125.21957873
0.12000001 829702.09162669 21082.73114133
0.12100001 820314.43005403 22517.63216575
0.12200001 810965.40137513 16458.54359629
0.12300001 801658.08784337 20875.17759096
0.12400001 792392.25486702 16343.09102668
0.12500001 783169.97555837 19242.48720618
0.12600001 773994.89774908 19167.98454602
0.12700001 764865.42392028 20559.58356388
0.12800001 755783.56824290 17549.29528169
0.12900001 746751.59951550 26210.98237837
0.13000001 737770.53240966 20296.06830324
0.13100001 728839.96234415 18760.34151506
0.13200001 719962.78185344 15799.58399257
0.13300001 711139.76230651 21440.86484433
0.13400001 702371.30683494 21334.52945094
0.13500001 693659.59977082 15565.72215275
0.13600001 685004.81855193 18299.90459047
0.13700001 676408.70495818 15401.82693814
0.13800001 667870.11717313 15317.60185968
0.13900001 659393.18477739 15231.98328667
0.14000001 650976.11130563 15144.95994377
0.14100001 642622.24227156 15056.63984654
0.14200001 634330.46512908 21770.22259003
0.14300001 626103.37165960 20285.75019860
0.14400001 617937.43920925 14784.15393045
0.14500001 609839.33831461 14691.03035301
0.14600001 601806.33374904 14596.81331368
0.14700001 593840.84338860 17138.24754872
0.14800001 585940.06446784 14405.33716457
0.14900001 578108.29936873 15608.92481940
0.15000001 570344.30601096 19377.44871101
0.15100001 562649.24076029 15394.08395357
0.15200001 555024.48151156 12737.81245175
0.15300001 547469.45934021 17705.16315055
0.15400001 539982.84570401 13810.06193059
0.15500001 532568.78524149 14954.53219533
0.15600001 525223.93628322 14842.82913987
0.15700001 517953.40518132 18413.24442324
0.15800001 510751.49128612 12181.42364212
0.15900001 503624.05235554 12086.97782705
0.16000001 496566.31193979 16788.90779916
0.16100001 489583.75242035 16655.64004356
0.16200001 482673.39523392 14161.63808468
0.16300001 475835.46866586 11705.55308177
0.16400001 469071.19264161 12770.46382256
0.16500001 462379.52554086 14967.22594838
0.16600001 455761.86381428 15983.56931860
0.16700001 449216.66257934 15848.36460408
0.16800001 442745.38835584 14590.67496219
0.16900001 436348.64371449 17803.02550418
0.17000001 430023.81393764 13236.13361801
0.17100001 423773.28952228 12026.68652456
0.17200001 417595.92094725 14087.59905841
0.17300001 411491.77635027 11813.92945692
0.17400001 405461.87056908 13836.38698661
0.17500001 399503.77956384 13710.97036217
0.17600001 393617.56491061 15675.82026292
0.17700001 387807.02173960 12425.33756339
0.17800001 382067.07209931 13336.05178152
0.17900001 376399.36006774 15244.17480278
0.18000001 370805.07824010 16107.77335960
0.18100001 365282.87856283 12963.88997256
0.18200001 359830.15506392 12840.53969002
0.18300001 354449.52552585 11739.36883998
0.18400001 349139.85589722 15501.81033415
0.18500001 343901.24574271 9594.84520950
0.18600001 338732.95121068 11401.75167641
0.18700001 333633.84527777 14112.71232200
0.18800001 328602.86504549 11179.06999702
0.18900001 323644.42708720 12913.41325091
0.19000001 318750.40067672 16437.95893957
0.19100001 313927.45244254 9041.11105754
0.19200001 309170.61897012 9845.53882632
0.19300001 304482.87041747 10632.54233739
0.19400001 299859.90872546 12279.26384255
0.19500001 295304.23170380 11286.52826907
0.19600001 290813.21931401 9452.88414051
0.19700001 286389.19147233 9356.33532756
0.19800001 282028.33125141 9260.40069428
0.19900001 277732.26129918 8331.96823274
0.20000001 273498.20033177 10719.76246863
0.20100001 269328.94103438 8976.73402894
0.20200001 265220.52443004 10498.75495577
0.20300001 261174.62105245 11188.72129472
0.20400001 257190.37223824 8699.46475215
0.20500001 253265.66793841 11738.86426380
0.20600001 249400.74880047 7743.89361629
0.20700001 245595.58753741 11493.87404006
0.20800001 241848.40260353 8340.14255802
0.20900001 238161.72772574 9002.51373359
0.21000001 234529.45193451 8165.14325509
0.21100001 230955.36045565 8078.81889065
0.21200001 227436.21959076 7266.58755945
0.21300001 223972.53686673 7189.51877331
0.21400001 220563.88045823 7824.50402917
0.21500001 217210.26902734 7741.37435413
0.21600001 213908.39422605 8355.26227349
0.21700001 210659.90397608 10332.86877856
0.21800001 207463.49856728 10222.76437524
0.21900001 204317.69945066 9439.47816093
0.22000001 201221.75339444 8004.60172851
0.22100001 198177.56906054 7259.24469793
0.22200001 195181.75320315 10446.12792537
0.22300001 192234.16394337 8396.78867809
0.22400001 189333.79844773 8307.02079970
0.22500001 186482.75064442 10114.82487326
0.22600001 183676.22520650 6879.59334043
0.22700001 180916.48269084 8662.28160087
0.22800001 178201.20739616 9181.81764530
0.22900001 175529.75000139 9083.66499215
0.23000001 172902.59863524 7189.29039125
0.23100001 170319.65956484 6519.83687648
0.23200001 167777.25899177 7622.96012281
0.23300001 165277.60568550 9281.99077428
0.23400001 162818.02996463 5739.33582770
0.23500001 160398.68997337 5678.11389361
0.23600001 158019.23215266 7864.61755621
0.23700001 155679.10293431 6669.29308515
0.23800001 153376.82730378 6598.27142270
0.23900001 151112.48272213 6528.05956237
0.24000001 148884.46099206 6996.82557527
0.24100001 146694.04600394 6922.49235837
0.24200001 144539.39272559 8956.38389390
0.24300001 142419.11109143 6255.04765502
0.24400001 140333.57236807 5672.98493133
0.24500001 138281.34585143 5612.84009362
0.24600001 136262.76503731 7067.94995684
0.24700001 134277.40567738 5494.63170025
0.24800001 132323.66994798 6424.97609827
0.24900001 130400.33686718 4890.01286385
0.25000001 128509.25635959 5322.21110392
0.25100001 126647.65649034 6223.46613436
0.25200001 124817.59105665 5684.19336564
0.25300001 123015.12618057 5155.56418214
0.25400001 121242.43900311 5101.27586240
0.25500001 119496.13821903 5965.24750212
0.25600001 117778.84317894 4994.41208130
0.25700001 116087.71703587 5391.11383422
0.25800001 114423.18955246 5334.40934933
0.25900001 112785.40672285 4838.49417734
0.26000001 111172.46167626 5222.88249667
0.26100001 109584.01975818 5167.98261632
0.26200001 108021.52352604 4687.59423521
0.26300001 106481.53641137 4216.66904141
0.26400001 104966.15192156 4172.40473631
0.26500001 103473.81195263 4541.46582150
0.26600001 102003.66381553 4493.77162204
0.26700001 100556.17397808 5255.06590077
0.26800001 99130.61285675  4399.91245985
0.26900001 97725.80984146  4353.68503446
0.27000001 96342.52701621  4699.58869025
0.27100001 94979.48649056  6975.29381796
0.27200001 93637.26706930  5368.22477513
0.27300001 92314.62290633  5311.78365341
0.27400001 91010.07921202  4129.58253968
0.27500001 89726.61353918  5200.55476685
0.27600001 88459.51029475  3675.49282669
0.27700001 87212.75338614  4364.12638598
0.27800001 85982.79583228  4677.89422865
0.27900001 84770.99369443  4984.53466514
0.28000001 83575.96374031  3522.72703838
0.28100001 82398.27593743  4182.53668454
0.28200001 81237.66756559  4138.24698165
0.28300001 80093.24051371  3753.16942811
0.28400001 78964.26405982  4726.01142767
0.28500001 77851.71939502  4675.77448818
0.28600001 76754.45392730  3304.27939797
0.28700001 75673.19108175  3922.89841136
0.28800001 74605.33409589  4204.38380198
0.28900001 73553.99077728  3519.55862529
0.29000001 72516.31641339  4114.93856966
0.29100001 71493.54673221  3757.70099411
0.29200001 70484.29384361  3407.56334717
0.29300001 69489.32303698  4290.27100739
0.29400001 68507.13719033  4244.01734984
0.29500001 67539.77687615  3898.39610583
0.29600001 66584.21327560  3262.95952603
0.29700001 65642.33587367  3521.05506294
0.29800001 64713.38367913  3192.63493494
0.29900001 63797.48542188  3157.97567788
0.30000001 62893.09304487  4259.43492810
0.30100001 62002.09848387  3932.17327200
0.30200001 61122.29959580  2778.00864814
0.30300001 60255.28281568  3297.16923177
0.30400001 59399.84369108  4076.31446628
0.30500001 58556.69676339  3494.07826129
0.30600001 57723.74558914  2923.99647125
0.30700001 56903.36064245  4206.29661783
0.30800001 56093.92068490  2599.95334684
0.30900001 55295.96118401  3599.76724351
0.31000001 54508.94750591  3559.97953016
0.31100001 53732.54529850  3017.61988683
0.31200001 52967.91477657  3481.58120310
0.31300001 52213.19433150  3934.78651112
0.31400001 51470.61833636  3161.58288100
0.31500001 50737.01023988  2885.92127908
0.31600002 50015.41416047  3805.17288949
0.31700002 49303.23039495  2351.76420119
0.31800002 48601.33211964  3255.80339285
0.31900002 47910.32998018  3679.51351670
0.32000002 47229.69080062  2956.34263565
0.32100002 46558.61997430  3148.29403173
0.32200002 45898.66287172  2446.16935358
0.32300002 45246.98555461  2638.80432249
0.32400002 44606.49061365  3479.30643261
0.32500002 43975.52958375  2580.48419816
0.32600002 43354.59108758  2339.19707290
0.32700002 42743.45365532  2944.16922719
0.32800002 42142.97189299  2495.70691368
0.32900002 41550.07685806  2879.42046261
0.33000002 40968.31486554  2847.70770115
0.33100002 40395.04803904  3017.51023141
0.33200002 39832.86049619  2387.58177121
0.33300002 39279.31391397  3542.20869650
0.33400002 38735.86440436  2141.12500635
0.33500002 38201.46107550  2502.95984820
0.33600002 37675.98319280  2666.32945682
0.33700002 37159.99599917  1884.01188638
0.33800002 36654.14590636  1863.86340761
0.33900002 36156.65465750  2397.18631732
0.34000002 35668.60438182  2006.89412059
0.34100002 35189.71147737  2166.27874114
0.34200002 34720.90906449  2143.66902716
0.34300002 34260.33157099  2474.96646990
0.34400002 33809.71179150  1924.61793488
0.34500002 33367.61967104  2078.13545153
0.34600002 32935.21828820  2571.41728964
0.34700002 32510.74367217  1866.76699007
0.34800002 32096.04216838  2016.27346451
0.34900002 31689.92241504  2162.83730726
0.35000002 31292.98694316  1812.33342465
0.35100002 30905.61746934  1958.18001560
0.35200002 30525.46157495  1777.95559364
0.35300002 30155.42766248  2882.25591249
0.35400002 29793.55031179  1586.50662925
0.35500002 29440.78885770  2043.77965930
0.35600002 29096.22679579  1713.91332058
0.35700002 28760.28762469  2007.75577418
0.35800002 28433.27296189  1684.24500367
0.35900002 28115.31814306  1670.04997680
0.36000002 27805.47391283  1806.79978044
0.36100002 27503.60409190  2240.16865939
0.36200002 27211.54582696  2074.33623664
0.36300002 26926.51677895  1764.22546292
0.36400002 26650.42223426  1605.02175508
0.36500002 26381.74414695  2317.37251564
0.36600002 26122.22960136  1725.63456921
0.36700002 25870.27605828  1713.64716727
0.36800002 25627.32775060  1702.16718982
0.36900002 25392.08742256  1550.18701058
0.37000002 25164.30149606  1960.55082243
0.37100002 24944.43838246  1531.08970044
0.37200002 24733.04754620  1798.95829849
0.37300002 24529.18300778  1651.30467831
0.37400002 24332.92483201  1779.34521263
0.37500002 24144.56158497  1770.27933927
0.37600002 23963.94070520  1626.19309329
0.37700002 23790.48622687  1888.48888615
0.37800002 23624.66907342  1611.67500054
0.37900002 23466.95424181  2006.42468272
0.38000002 23315.78496863  1598.99660890
0.38100002 23171.18264320  1726.02147686
0.38200002 23034.97447855  1588.03121578
0.38300002 22904.98001031  1451.25960220
0.38400002 22782.37465527  1578.81863841
0.38500002 22666.13431766  1443.60616308
0.38600002 22557.70596354  1440.42238254
0.38700002 22455.01817564  1698.94675566
0.38800002 22359.01613655  1696.04324939
0.38900002 22269.65827425  1823.88509907
0.39000002 22187.24022738  1821.79438138
0.39100002 22110.36276853  1690.11621010
0.39200002 22040.40972956  1559.13865814
0.39300002 21975.98810466  1688.41524607
0.39400002 21918.86109655  1818.16961410
0.39500002 21866.36855243  1558.63482426
0.39600002 21820.01554325  1559.25838460
0.39700002 21778.79596149  1300.19418050
0.39800002 21744.37969766  1561.68142388
0.39900002 21714.47975140  1433.15573149
0.40000002 21690.39390571  1304.67725524
0.40100002 21671.28273156  1437.45625169
0.40200002 21657.81820277  1832.90124134
0.40300002 21649.07932317  1705.51454989
0.40400002 21645.38212496  1314.95702639
0.40500002 21646.04172886  1318.24400375
0.40600002 21652.52738993  1982.83028968
0.40700002 21662.85131361  1458.34321953
0.40800002 21677.64672886  1462.91605881
0.40900002 21696.41847569  1734.62873932
0.41000002 21720.24959124  2276.39086627
0.41100002 21747.84366101  2016.02520290
0.41200002 21778.68131928  1619.02724599
0.41300002 21814.79390132  1625.63851855
0.41400002 21853.75426818  1496.43589442
0.41500002 21896.40940658  1502.96961288
0.41600002 21941.73945264  1646.94704135
0.41700002 21991.89692406  1930.44880347
0.41800002 22045.56073221  1385.56355767
0.41900002 22100.64652534  1531.57487678
0.42000002 22159.37582047  1679.23757925
0.42100002 22221.66982259  1687.95811971
0.42200002 22286.41025241  1555.48007727
0.42300002 22353.44860327  1848.18321810
0.42400002 22422.92184282  1429.46133522
0.42500002 22495.39464260  1581.20136436
0.42600002 22568.85810992  1879.19605957
0.42700002 22645.73382350  1890.01303447
0.42800002 22723.87308961  2778.33447496
0.42900002 22804.83772317  1618.00331313
0.43000002 22887.44476037  1775.60804865
0.43100002 22970.17053829  1786.16054570
0.43200002 23055.82952832  1647.22381871
0.43300002 23142.15866235  1958.52098041
0.43400002 23230.32945804  2273.66860345
0.43500002 23319.05983997  2440.10653729
0.43600002 23409.72786310  1687.95850756
0.43700002 23500.55581924  1698.38524954
0.43800002 23591.79314988  2019.57554830
0.43900002 23684.87369581  1563.20173800
0.44000002 23777.73808847  1572.89744909
0.44100002 23871.56833651  1899.22206686
0.44200002 23965.59387160  1751.76516706
0.44300002 24060.06422538  2243.36049469
0.44400002 24154.49949581  1934.77550130
0.44500002 24248.42566460  2271.10765538
0.44600002 24342.38429322  2448.23541632
0.44700002 24437.13181691  2627.48053747
0.44800002 24530.58536972  2478.20250442
0.44900002 24624.19247422  2493.19960617
0.45000002 24717.71759774  2006.58440968
0.45100002 24809.66653279  2691.35275303
0.45200002 24901.56305082  2876.50419214
0.45300002 24992.37827606  1701.98104126
0.45400002 25082.52314166  2054.25874266
0.45500002 25172.05575198  2066.12243404
0.45600002 25260.04031490  1731.57584565
0.45700002 25347.28769367  2612.03812063
0.45800002 25432.94889654  2101.27033742
0.45900002 25517.39816976  2112.84066859
0.46000002 25600.96108685  1947.33719736
0.46100002 25682.18263710  2135.73040932
0.46200002 25762.64722327  2147.05912135
0.46300002 25841.27215562  2158.26315273
0.46400002 25917.76796274  2169.31728130
0.46500002 25993.67651886  1816.95807478
0.46600002 26066.63027427  2008.56429098
0.46700002 26137.84883618  1834.87707527
0.46800002 26207.83184932  1843.72105799
0.46900002 26275.08006695  1852.39323252
0.47000002 26340.42668274  2605.33172667
0.47100002 26403.86848349  2430.21217040
0.47200002 26465.28108688  2065.48296032
0.47300002 26524.32253527  2828.81913246
0.47400002 26580.49733369  2272.63262975
0.47500002 26634.89684746  2282.07807006
0.47600002 26687.52327473  2100.44161889
0.47700002 26736.60184689  1917.01444328
