# SAXS profile: number of points = 501, q_min = 0, q_max = 0.5, delta_q = 0.001
#    q    intensity    error
0.00000000 1682732.95097188 252.40994265
0.00100000 1682650.78437706 605.75429676
0.00200000 1682404.21686130 984.20649803
0.00300000 1681993.48565221 1110.11574008
0.00400000 1681418.45375091 1387.17027705
0.00500000 1680679.61607618 2268.91757151
0.00600000 1679776.90868093 2822.02532147
0.00700000 1678710.88219431 2417.34377083
0.00800000 1677481.33335697 2943.97986434
0.00900000 1676089.52872237 2765.54784061
0.01000000 1674534.85319538 4144.47394061
0.01100000 1672818.56463070 4215.50296641
0.01200000 1670940.60002790 4235.83460679
0.01300000 1668902.08642848 4205.63344329
0.01400000 1666703.12413878 5250.11507378
0.01500000 1664345.04653211 6790.52809223
0.01600000 1661827.29525577 4661.42577157
0.01700000 1659152.20471617 6719.56673053
0.01800000 1656319.60703347 4720.51109246
0.01900000 1653330.13605834 5455.98969518
0.02000000 1650185.26483069 7797.12572903
0.02100000 1646886.68590617 7065.14420286
0.02200000 1643433.05305791 6803.81314877
0.02300000 1639827.60780183 7084.05558816
0.02400000 1636069.92356189 8589.36749035
0.02500000 1632162.55610557 6365.43425953
0.02600000 1628105.50233909 9231.35862049
0.02700000 1623900.81364593 8184.46047563
0.02800000 1619548.29628789 7749.53895313
0.02900000 1615050.82738140 10174.82067967
0.03000000 1610409.38244760 7488.40397259
0.03100000 1605624.38995246 8477.69716903
0.03200000 1600697.46824954 9508.14339933
0.03300000 1595632.33345973 8137.72527580
0.03400000 1590427.00154073 9184.71635768
0.03500000 1585084.93812490 9415.40496725
0.03600000 1579607.20901396 9643.50245669
0.03700000 1573995.77830873 10766.13162154
0.03800000 1568252.01824636 11926.55715072
0.03900000 1562378.11707222 14061.40370483
0.04000000 1556373.80655941 9571.69935388
0.04100000 1550243.33342263 9766.53345340
0.04200000 1543987.34288544 10954.59070599
0.04300000 1537606.83739302 16237.12895656
0.04400000 1531105.22119434 11368.45679534
0.04500000 1524483.94393296 10518.93970190
0.04600000 1517743.02162641 10700.08879988
0.04700000 1510886.58264697 11966.22229109
0.04800000 1503915.40761219 14369.91238834
0.04900000 1496832.93964748 14594.12184088
0.05000000 1489638.80512208 18233.17982374
0.05100000 1482337.90275545 12718.45979812
0.05200000 1474928.03742363 22278.78904350
0.05300000 1467415.77828385 16640.49570148
0.05400000 1459800.69389774 20473.70568668
0.05500000 1452085.35996084 14637.02111121
0.05600000 1444271.27441964 13583.37196977
0.05700000 1436363.06189838 14995.63106619
0.05800000 1428359.82447140 13905.08354049
0.05900000 1420264.33295065 15338.85551228
0.06000000 1412080.40435209 15504.64356414
0.06100000 1403809.10718443 19583.13796037
0.06200000 1395452.91656606 13187.03067796
0.06300000 1387014.66033111 15978.40963409
0.06400000 1378493.61083547 13440.31333421
0.06500000 1369895.39015052 17630.55449596
0.06600000 1361221.31704927 21888.43980228
0.06700000 1352473.02567508 20692.83826123
0.06800000 1343653.13960659 15297.49171048
0.06900000 1334764.91833688 15416.53552858
0.07000000 1325808.80458995 19767.81020213
0.07100000 1316787.86560735 14221.30961465
0.07200000 1307704.69885248 15751.30383558
0.07300000 1298561.78769198 14414.03651876
0.07400000 1289361.90571683 15955.85433100
0.07500000 1280105.96479078 24808.45476048
0.07600000 1270795.58321296 16145.45864163
0.07700000 1261436.03797713 14758.80233635
0.07800000 1252027.56504571 17803.83280988
0.07900000 1242572.15495485 17893.03987060
0.08000000 1233073.87382045 17978.21792368
0.08100000 1223533.83896810 19564.30700302
0.08200000 1213953.93724541 16625.09995071
0.08300000 1204337.17257682 19727.04381264
0.08400000 1194685.70421158 19801.91647678
0.08500000 1185001.66797353 21401.13112828
0.08600000 1175287.10569217 15337.49744940
0.08700000 1165545.95647532 20000.76955231
0.08800000 1155777.32488689 15429.62801187
0.08900000 1145986.65272189 17017.90259225
0.09000000 1136174.37406680 27915.80568218
0.09100000 1126342.36476072 17097.87790035
0.09200000 1116493.26968470 15575.08184392
0.09300000 1106631.76546585 26525.96466473
0.09400000 1096754.64479802 23443.13163433
0.09500000 1086867.90827256 21911.25806066
0.09600000 1076972.84787824 23504.93350986
0.09700000 1067073.40377080 17254.57775016
0.09800000 1057169.53753636 23548.45255582
0.09900000 1047264.38583805 21992.55313674
0.10000000 1037358.25600358 20430.77181279
0.10100000 1027453.70239721 20436.05510182
0.10200000 1017553.92533577 17293.32977450
0.10300000 1007660.03383054 20435.34644738
0.10400000 997775.23615654 20429.44892141
0.10500000 987901.85788786 17278.40430740
0.10600001 978037.27298723 17267.24886707
0.10700001 968189.14473245 17253.13137102
0.10800001 958355.80894833 23503.67732058
0.10900001 948541.35678497 18781.11974829
0.11000001 938745.79624780 17193.13006755
0.11100001 928971.51173902 21849.41098463
0.11200001 919220.51191159 20255.02493352
0.11300001 909494.28733571 17107.58835022
0.11400001 899795.07566184 18625.75894318
0.11500001 890124.84950933 15488.17311077
0.11600001 880484.19963528 15452.49843128
0.11700001 870876.34892724 15414.51210196
0.11800001 861299.98543761 18449.04655699
0.11900001 851758.61416878 19931.15251034
0.12000001 842252.75308018 18344.26582619
0.12100001 832787.59647441 15240.01373341
0.12200001 823360.56711491 19748.30413262
0.12300001 813975.48513727 18167.93368424
0.12400001 804631.39884399 21121.57521485
0.12500001 795330.76100333 22547.62813690
0.12600001 786077.19642994 17969.72555718
0.12700001 776869.10653397 16407.47630322
0.12800001 767708.61989788 20797.22749319
0.12900001 758597.66119288 26626.77916285
0.13000001 749537.44733065 17674.09384112
0.13100001 740527.56236347 16128.69106854
0.13200001 731571.39237623 17513.81995909
0.13300001 722669.05192168 15978.21349125
0.13400001 713820.98966318 14454.87572216
0.13500001 705029.95268549 18697.39522677
0.13600001 696295.49639285 20032.42237577
0.13700001 687619.68336792 24197.33779870
0.13800001 679001.35830950 18404.33268485
0.13900001 670444.87160667 18303.14585801
0.14000001 661948.00836752 18200.26134840
0.14100001 653514.32433149 15311.84134124
0.14200001 645142.64165558 13838.31031620
0.14300001 636835.68456631 13755.65143545
0.14400001 628589.82253802 15039.01221361
0.14500001 620412.03648307 19021.83393587
0.14600001 612298.99066758 17551.55139547
0.14700001 604253.86612170 16097.32375290
0.14800001 596273.52344941 18657.39942896
0.14900001 588361.87433114 15885.77135644
0.15000001 580518.21204618 18408.23337254
0.15100001 572743.61099920 16976.12143103
0.15200001 565039.35194701 18154.71523472
0.15300001 557404.87516317 20601.68515820
0.15400001 549838.77793901 14062.12740940
0.15500001 542345.49992551 19036.32794577
0.15600001 534921.29727779 15116.87657451
0.15700001 527571.69510297 13753.79474047
0.15800001 520290.72036171 13649.82769294
0.15900001 513084.34241961 13545.42727923
0.16000001 505948.03607187 13440.51021267
0.16100001 498886.70718150 14547.53706812
0.16200001 491897.76800787 14432.28119464
0.16300001 484981.52429950 14316.65527318
0.16400001 478139.14950592 14200.73341074
0.16500001 471369.26435445 11737.09523655
0.16600001 464674.13795770 13968.10524648
0.16700001 458051.01386167 11542.88609431
0.16800001 451502.11699590 11445.57920627
0.16900001 445028.19662573 14752.68541474
0.17000001 438626.30456846 16876.14786516
0.17100001 432299.01990668 15614.64133637
0.17200001 426044.66471123 11055.85957135
0.17300001 419864.36278513 14245.99850206
0.17400001 413758.04848880 11947.26421434
0.17500001 407724.04460998 11840.30681466
0.17600001 401761.98459700 16000.17179225
0.17700001 395875.96678495 15854.83321857
0.17800001 390060.76212954 11520.44515363
0.17900001 384317.87082942 16602.53280403
0.18000001 378648.95709236 10280.31967065
0.18100001 373052.21535563 11202.75855631
0.18200001 367525.27135522 15132.85376290
0.18300001 362070.85209095 11991.78718774
0.18400001 356687.45931744 12867.50070275
0.18500001 351375.44926171 9803.37549753
0.18600001 346134.18823973 11650.87732658
0.18700001 340962.08628522 12499.67067376
0.18800001 335858.69739786 11425.91342531
0.18900001 330828.01206716 9428.59878939
0.19000001 325862.34045960 10269.55214481
0.19100001 320967.88045850 11092.65047277
0.19200001 316139.76570816 13728.36997456
0.19300001 311381.29645608 10873.43538604
0.19400001 306687.85853803 9867.68231475
0.19500001 302062.15270324 9768.69048004
0.19600001 297501.20030102 8791.16088433
0.19700001 293007.78652571 11313.03117238
0.19800001 288577.86271875 9475.45457017
0.19900001 284213.13189449 9379.03379577
0.20000001 279910.65271177 9283.23723592
0.20100001 275673.45557145 9188.19670845
0.20200001 271497.47934097 12400.64795500
0.20300001 267384.32904468 10636.54911213
0.20400001 263333.21556606 8907.24643753
0.20500001 259342.00481007 11219.13565838
0.20600001 255411.10999868 10309.66994241
0.20700001 251540.15992306 8632.85869663
0.20800001 247727.84438223 9319.52194620
0.20900001 243976.16098364 8453.77437770
0.21000001 240279.39581920 11407.26485576
0.21100001 236641.31814849 8277.71370015
0.21200001 233058.55798735 10424.70979160
0.21300001 229531.57400057 10315.14942324
0.21400001 226060.14831137 7290.44012771
0.21500001 222644.17846258 9377.77324020
0.21600001 219280.38670232 8565.09230954
0.21700001 215970.36625799 8474.67757264
0.21800001 212712.92993188 8385.14409437
0.21900001 209506.29268208 9679.19117956
0.22000001 206350.21047600 7524.56078079
0.22100001 203246.05092406 8121.71257895
0.22200001 200191.08494344 8035.67052959
0.22300001 197184.57109114 9275.56266273
0.22400001 194225.64218153 7866.13888031
0.22500001 191316.65237493 7134.19830442
0.22600001 188452.53629696 7700.17099722
0.22700001 185635.65671413 8253.36168780
0.22800001 182863.67678877 8793.91463264
0.22900001 180136.10588751 10564.98310993
0.23000001 177453.26101771 8608.25809907
0.23100001 174814.84846256 6691.91271563
0.23200001 172217.72207841 6019.00967130
0.23300001 169663.73387057 7146.23680861
0.23400001 167150.04681288 9427.26308611
0.23500001 164677.38188259 7578.45347267
0.23600001 162245.00260444 6344.59112693
0.23700001 159852.16723871 6277.39490437
0.23800001 157497.81839134 8469.44558459
0.23900001 155181.95605714 8379.82602345
0.24000001 152902.73404893 7185.66432651
0.24100001 150661.71405641 6015.92252683
0.24200001 148456.79815863 6493.50065861
0.24300001 146286.85504848 7495.73880725
0.24400001 144151.98724579 7416.62009463
0.24500001 142050.89595281 8386.68529378
0.24600001 139983.94389902 5186.40536680
0.24700001 137950.79231127 6671.30063177
0.24800001 135949.76505980 5077.72396519
0.24900001 133979.31484018 7033.91436187
0.25000001 132041.85612759 4971.37611839
0.25100001 130134.22761866 7870.51845872
0.25200001 128258.71074497 5354.16013335
0.25300001 126411.06272930 4816.26171785
0.25400001 124593.77551628 6671.99699456
0.25500001 122803.21500713 7073.46551907
0.25600001 121042.39305834 5132.80292049
0.25700001 119308.04171958 6464.11000621
0.25800001 117600.69695135 5482.54475127
0.25900001 115920.77167457 4973.00134014
0.26000001 114265.86869901 6262.91255973
0.26100001 112636.18317935 4426.60220840
0.26200001 111032.70091342 6132.33636161
0.26300001 109452.42013479 5201.17925091
0.26400001 107896.87150793 5575.57109900
0.26500001 106365.00684024 5092.75676849
0.26600001 104855.76631157 5879.26309529
0.26700001 103369.65464049 5402.09840714
0.26800001 101906.01706156 4934.28957962
0.26900001 100463.39805358 4882.52137645
0.27000001 99042.70653156  4428.69483213
0.27100001 97642.91373023  5975.74660308
0.27200001 96264.30945169  4730.42839032
0.27300001 94905.68307770  4290.68613500
0.27400001 93565.53588537  3859.57853793
0.27500001 92246.96878003  4582.82962588
0.27600001 90945.30067776  4156.65516419
0.27700001 89664.31419426  4486.80249463
0.27800001 88400.54572640  4069.51931511
0.27900001 87155.36743204  5124.73584755
0.28000001 85927.39917521  3621.84004665
0.28100001 84717.13487811  3941.88847244
0.28200001 83524.37846616  4254.73204044
0.28300001 82348.38026239  4560.45351478
0.28400001 81188.11105294  3470.79191179
0.28500001 80044.75626360  5150.88030936
0.28600001 78917.06901371  4416.59397640
0.28700001 77805.75606037  3697.32970299
0.28800001 76708.25437497  3657.83328301
0.28900001 75627.74379161  4276.74911385
0.29000001 74561.16498295  4556.43300778
0.29100001 73509.93632060  4185.65597222
0.29200001 72472.69773974  4459.24530301
0.29300001 71450.07471208  3781.13813275
0.29400001 70440.63932051  4675.49765622
0.29500001 69446.41446368  3700.10513778
0.29600001 68464.40752899  3965.11634974
0.29700001 67496.29054644  4223.91806235
0.29800001 66541.60536492  3581.26937027
0.29900001 65600.42547200  3542.42314318
0.30000001 64670.90416759  3795.85889981
0.30100001 63755.29121408  4043.36076021
0.30200001 62851.21468904  3142.24662713
0.30300001 61960.25163990  4238.08141281
0.30400001 61081.20601597  3353.35836903
0.30500001 60214.92674884  3040.25179548
0.30600001 59358.98334732  3006.82944381
0.30700001 58516.13615806  3244.13474219
0.30800001 57684.48024529  4545.24883612
0.30900001 56864.72765259  2644.20996103
0.31000001 56056.20258458  2876.52417182
0.31100001 55258.71744357  2586.10809880
0.31200001 54473.06448097  3324.76364801
0.31300001 53697.85511338  4299.58746250
0.31400001 52935.07861759  2751.30084141
0.31500001 52181.40875314  2968.07867041
0.31600002 51440.29538157  2690.58477733
0.31700002 50708.80668857  3870.09630971
0.31800002 49987.91374575  3587.88267898
0.31900002 49278.19123636  2601.88862048
0.32000002 48579.24103515  2572.99962326
0.32100002 47890.00139692  3007.01333009
0.32200002 47212.23071067  2516.17595487
0.32300002 46543.10864895  2940.59374368
0.32400002 45885.48313062  3355.37611281
0.32500002 45237.45609281  3096.95639076
0.32600002 44599.76973383  2625.14257084
0.32700002 43972.24888467  2596.12169708
0.32800002 43355.63593045  2353.56080793
0.32900002 42746.91997365  2539.16716667
0.33000002 42149.43552969  2720.53544509
0.33100002 41560.80825948  2069.72834933
0.33200002 40983.48582414  2661.26277801
0.33300002 40415.01303742  2429.75069887
0.33400002 39856.79125226  2403.36462632
0.33500002 39308.21098224  2971.70089099
0.33600002 38768.51326519  2547.67296987
0.33700002 38238.62131063  2520.30764994
0.33800002 37719.00584251  2109.81269172
0.33900002 37208.05907409  2087.37221291
0.34000002 36706.71014954  2065.30314437
0.34100002 36214.83769115  2229.38551385
0.34200002 35733.19305354  2206.16744361
0.34300002 35259.89762309  2365.23404457
0.34400002 34796.85086470  1980.81082928
0.34500002 34342.51808639  2138.85212772
0.34600002 33898.19144528  2646.60142243
0.34700002 33461.89555186  1921.38213359
0.34800002 33035.54400804  3285.88054038
0.34900002 32617.95297627  2226.17539607
0.35000002 32209.79906390  1695.84600103
0.35100002 31811.31530578  2519.45629155
0.35200002 31420.25661417  1663.70266652
0.35300002 31039.50452180  1977.83732181
0.35400002 30666.96732185  1959.61930468
0.35500002 30303.81015622  1780.04589289
0.35600002 29949.07399670  1764.15028733
0.35700002 29603.00843967  2384.52244276
0.35800002 29266.13210697  1575.98128861
0.35900002 28938.38994139  1875.20775702
0.36000002 28618.87408166  1704.68331542
0.36100002 28307.61991827  1998.23498468
0.36200002 28006.22770600  1524.93917082
0.36300002 27711.88130340  2118.29630717
0.36400002 27426.73228427  1651.77503006
0.36500002 27149.15753258  2086.68434680
0.36600002 26880.81748278  1775.74688703
0.36700002 26620.23319047  2204.15541258
0.36800002 26368.74777113  2481.16743905
0.36900002 26124.95904728  1739.92235497
0.37000002 25888.85900938  1728.85808654
0.37100002 25660.83670368  1861.43718266
0.37200002 25441.32153173  1708.13040855
0.37300002 25229.54188361  1981.52831340
0.37400002 25025.31778683  2111.51128829
0.37500002 24829.18939374  1400.36634814
0.37600002 24640.83431341  1393.43924643
0.37700002 24459.90552680  1525.56437998
0.37800002 24286.47374232  2485.23497578
0.37900002 24121.37769602  2337.36160947
0.38000002 23962.88285850  1780.32246631
0.38100002 23810.98870790  1364.36971760
0.38200002 23667.60864944  1495.67459946
0.38300002 23530.67587761  1626.44039371
0.38400002 23401.00105653  2567.67496257
0.38500002 23277.77013468  1752.11784104
0.38600002 23162.53448051  1613.50222835
0.38700002 23053.04826438  1341.68747255
0.38800002 22950.28207824  1473.06392498
0.38900002 22854.29588055  1470.67400959
0.39000002 22765.20672818  1468.69738165
0.39100002 22681.77343327  1467.05717517
0.39200002 22605.47281595  1465.85195420
0.39300002 22534.56015628  1864.50959567
0.39400002 22471.06274187  1730.83368969
0.39500002 22412.34537981  1730.68139222
0.39600002 22359.58860246  2130.42170298
0.39700002 22312.20306134  1332.03858587
0.39800002 22271.65749942  1732.84639384
0.39900002 22235.54199111  1867.78561575
0.40000002 22205.39961775  1602.78582035
0.40100002 22180.14886075  1872.44825554
0.40200002 22160.60258099  1473.56933844
0.40300002 22146.00064937  1610.45724353
0.40400002 22136.31405047  1748.21548497
0.40500002 22131.05547779  1347.78134246
0.40600002 22131.69058168  1486.25375143
0.40700002 22136.04091605  1490.19834508
0.40800002 22145.00787047  1630.31555667
0.40900002 22158.01767903  1498.98996701
0.41000002 22176.07852897  1503.87083670
0.41100002 22197.98624920  1783.38629976
0.41200002 22222.94608458  2202.73852027
0.41300002 22253.44162271  3040.26533855
0.41400002 22286.65464158  2219.75090748
0.41500002 22323.67478295  1671.59684695
0.41600002 22363.26932188  1818.46933107
0.41700002 22407.70205795  1545.45928417
0.41800002 22455.85649012  1834.75584146
0.41900002 22505.28705316  1984.96641214
0.42000002 22558.38291579  2849.12389727
0.42100002 22615.15377294  1861.00109216
0.42200002 22674.26416364  1438.68212935
0.42300002 22735.64794252  1590.58600543
0.42400002 22799.51272014  1889.50970622
0.42500002 22866.52789537  2045.63968245
0.42600002 22934.43566434  1615.84574130
0.42700002 23005.73768463  1772.36211521
0.42800002 23078.30277237  2079.12439529
0.42900002 23153.67185244  1642.75309578
0.43000002 23230.75490154  1802.24205067
0.43100002 23308.01647327  1510.35953904
0.43200002 23388.06236510  1519.05472260
0.43300002 23468.85751834  2138.95177558
0.43400002 23551.58546842  2305.11153696
0.43500002 23634.69965945  2163.99320337
0.43600002 23719.85775409  1710.32042441
0.43700002 23805.17052694  2189.59968883
0.43800002 23890.87920291  1573.21447007
0.43900002 23978.47158759  2373.86879967
0.44000002 24065.79960827  1751.14799148
0.44100002 24154.06110657  1921.69719271
0.44200002 24242.58767939  2255.28803869
0.44300002 24331.51435562  1620.47893288
0.44400002 24420.39131058  2119.07955640
0.44500002 24508.80222458  1803.60284118
0.44600002 24597.22835604  1979.09308732
0.44700002 24686.45438965  1990.71577632
0.44800002 24774.31368438  2836.53517972
0.44900002 24862.42329240  1846.03501695
0.45000002 24950.47072054  1856.68936666
0.45100002 25036.88398744  2376.50114072
0.45200002 25123.26679044  2219.26387711
0.45300002 25208.46262009  2746.71421726
0.45400002 25293.06354611  1898.87683572
0.45500002 25377.18617630  1735.79961672
0.45600002 25459.54809510  2268.82773602
0.45700002 25541.30958319  2281.09446698
0.45800002 25621.42773986  2293.24599854
0.45900002 25700.29735472  3014.64502259
0.46000002 25778.37283160  2139.08947895
0.46100002 25854.03947063  2866.69603237
0.46200002 25928.95330373  4321.83814150
0.46300002 26002.10900689  2714.62030898
0.46400002 26073.08316122  2364.17692769
0.46500002 26143.49334529  2375.65935288
0.46600002 26210.96561714  2570.50951990
0.46700002 26276.66745270  2766.93321391
0.46800002 26341.17925285  2779.65307240
0.46900002 26402.91847715  2047.54642495
0.47000002 26462.75604107  2430.47194379
0.47100002 26520.73305789  3943.10277794
0.47200002 26576.72846244  2828.42846067
0.47300002 26630.35033100  2082.75979810
0.47400002 26680.98045953  2471.32593220
0.47500002 26729.93081858  3244.47915654
0.47600002 26777.21497551  1915.90982231
0.47700002 26820.82083072  2307.66353365
