# SAXS profile: number of points = 501, q_min = 0, q_max = 0.5, delta_q = 0.001
#    q    intensity    error
0.00000000 1664650.74656091 299.63713438
0.00100000 1664569.01897134 549.30778931
0.00200000 1664323.75310420 898.73485513
0.00300000 1663915.20591426 1098.18407502
0.00400000 1663343.22484029 1746.51045245
0.00500000 1662608.31118658 1645.98229322
0.00600000 1661710.37444450 2268.23475346
0.00700000 1660650.00767055 1992.78009203
0.00800000 1659427.00126864 3584.36247407
0.00900000 1658042.58428668 2735.77038102
0.01000000 1656496.18254482 3006.54070114
0.01100000 1654789.01066973 2978.62034889
0.01200000 1652921.05011800 5157.11390248
0.01300000 1650893.39092895 3466.87627386
0.01400000 1648706.17026649 4451.50685706
0.01500000 1646360.63835950 5531.77199121
0.01600000 1643856.34760334 4191.83387378
0.01700000 1641195.53899750 6646.84223111
0.01800000 1638378.08660575 6070.19108402
0.01900000 1635404.67057209 6868.69992634
0.02000000 1632276.56206009 7198.33996431
0.02100000 1628995.69903767 6450.82326066
0.02200000 1625560.64707611 6729.82138465
0.02300000 1621974.60208202 7590.84148327
0.02400000 1618237.16343758 8495.74549543
0.02500000 1614350.80895970 8814.35581948
0.02600000 1610315.64975653 11739.20162366
0.02700000 1606133.74264921 8094.91443371
0.02800000 1601804.84184439 6967.85138157
0.02900000 1597331.65353701 7187.99277095
0.03000000 1592715.38176710 10368.57761190
0.03100000 1587956.55843044 8384.41101431
0.03200000 1583056.40050323 7836.12954341
0.03300000 1578018.81010448 12071.84445382
0.03400000 1572842.14198245 15689.10109018
0.03500000 1567529.20061894 10157.58968907
0.03600000 1562081.66108032 11270.41970554
0.03700000 1556501.06211779 9759.26211082
0.03800000 1550789.02329435 11793.75106796
0.03900000 1544947.57493290 9269.68587888
0.04000000 1538976.60844543 14197.05987079
0.04100000 1532880.15112656 13520.00355981
0.04200000 1526658.90469686 9846.95039212
0.04300000 1520313.92364737 11037.47959802
0.04400000 1513848.51015567 10218.47791812
0.04500000 1507264.39615670 14560.17474341
0.04600000 1500561.40721238 12694.75009516
0.04700000 1493743.58250794 11830.44972367
0.04800000 1486811.72283895 13113.68000559
0.04900000 1479769.32597122 12208.09750752
0.05000000 1472616.13306047 11265.51394250
0.05100000 1465356.70986349 12572.76115632
0.05200000 1457989.29291812 16227.42158640
0.05300000 1450519.88901574 14099.05397850
0.05400000 1442948.46761572 15475.62303687
0.05500000 1435277.79975043 14467.60089639
0.05600000 1427508.64138457 14646.23934406
0.05700000 1419646.28663254 16056.20025129
0.05800000 1411689.68030775 13742.79967948
0.05900000 1403641.38540922 15159.32767045
0.06000000 1395505.37118194 21707.08706286
0.06100000 1387282.54344664 15482.07390836
0.06200000 1378975.58449447 13031.31988260
0.06300000 1370587.31845042 14473.40275954
0.06400000 1362116.71987230 13280.63863985
0.06500000 1353569.68475956 14740.37455655
0.06600000 1344947.63144132 20275.08649262
0.06700000 1336251.40385205 23170.60042715
0.06800000 1327484.93597484 15113.41670352
0.06900000 1318650.29989843 15230.41167690
0.07000000 1309748.64999555 13948.82377565
0.07100000 1300782.65018130 18262.98926394
0.07200000 1291754.99104519 16973.66137750
0.07300000 1282668.45334990 22780.19279887
0.07400000 1273525.18832161 25788.88627209
0.07500000 1264326.42863863 14413.32196207
0.07600000 1255073.98981919 15945.71578820
0.07700000 1245772.90200764 16033.09800061
0.07800000 1236423.39134218 19047.10323686
0.07900000 1227027.50729104 19141.63001155
0.08000000 1217589.42752943 16273.08346232
0.08100000 1208110.04800135 14859.75428761
0.08200000 1198591.18447190 23875.93751506
0.08300000 1189036.36326001 16480.04476823
0.08400000 1179446.93286092 21053.12873977
0.08500000 1169825.74790255 21127.05399893
0.08600000 1160174.36913722 16654.30385091
0.08700000 1150496.75021058 25817.14828704
0.08800000 1140792.36883339 18275.49460700
0.08900000 1131066.57919385 18323.27944358
0.09000000 1121318.90781735 18367.20457286
0.09100000 1111552.65425209 16873.37008428
0.09200000 1101769.76916622 21517.56460286
0.09300000 1091974.89497491 15396.84674268
0.09400000 1082164.61072857 20047.10035591
0.09500000 1072345.39868748 18530.12936029
0.09600000 1062517.83985920 18551.56235601
0.09700000 1052686.75460151 20116.84482618
0.09800000 1042851.48084491 20132.24878428
0.09900000 1033015.07887979 21693.31767655
0.10000000 1023178.47800084 23251.73200603
0.10100000 1013343.61618561 17054.57386251
0.10200000 1003514.21112285 17054.72482022
0.10300000 993690.80641484 17051.73504020
0.10400000 983876.63570308 17045.66351547
0.10500000 974074.38452801 17036.56178695
0.10600001 964281.60860381 18572.06465559
0.10700001 954505.22462518 17009.28390324
0.10800001 944744.23140685 21625.19647462
0.10900001 935002.35689252 20055.80149928
0.11000001 925279.36409091 16946.49235099
0.11100001 915578.14774779 18458.05632748
0.11200001 905900.62345488 16890.51791947
0.11300001 896248.00557712 18391.00994031
0.11400001 886622.82810983 19882.51785652
0.11500001 877026.65509836 15260.26451729
0.11600001 867460.72192338 16746.33002534
0.11700001 857927.31511295 16703.84561192
0.11800001 848426.20595506 16658.84933853
0.11900001 838959.87881871 21141.78994204
0.12000001 829529.75846259 19572.75557290
0.12100001 820140.14058733 21011.99139168
0.12200001 810788.88717646 17950.86680778
0.12300001 801479.68734306 17889.02746433
0.12400001 792211.97869966 19310.16789065
0.12500001 782987.91200989 17758.16668116
0.12600001 773810.81963641 23585.75489396
0.12700001 764679.57777883 14681.84858526
0.12800001 755595.89989769 16082.85948730
0.12900001 746562.20601971 16013.76007388
0.13000001 737579.22335955 15942.77566438
0.13100001 728646.86105783 15869.92938191
0.13200001 719767.93466551 15795.30807083
0.13300001 710943.06330389 17147.94749530
0.13400001 702172.84418835 22750.40122428
0.13500001 693459.48828839 19805.20391930
0.13600001 684803.10273235 14072.70442469
0.13700001 676205.41064493 13997.45266038
0.13800001 667665.45479379 19489.15554446
0.13900001 659186.65215311 15227.21238282
0.14000001 650768.11077106 15140.12081111
0.14100001 642412.66747403 19156.74664756
0.14200001 634119.47864079 16322.23615006
0.14300001 625890.52437552 16223.08315702
0.14400001 617723.39793199 18809.67835428
0.14500001 609623.73519787 17355.98855980
0.14600001 601589.32161244 19897.56775099
0.14700001 593622.64240395 15814.10793970
0.14800001 585720.58269821 14399.94120501
0.14900001 577887.64506202 16903.21441557
0.15000001 570122.28348302 18078.57846225
0.15100001 562425.97131154 14105.64402607
0.15200001 554800.01755343 19098.99150550
0.15300001 547243.85938772 12641.33374839
0.15400001 539756.20597412 18823.99857167
0.15500001 532341.07469982 12456.78173585
0.15600001 524995.21737866 18545.45692915
0.15700001 517723.65590937 17178.07171382
0.15800001 510520.91967004 14611.10941058
0.15900001 503392.33815866 14497.70002327
0.16000001 496333.92323071 16781.05073654
0.16100001 489350.52432356 11891.21830238
0.16200001 482439.15322163 12975.20163840
0.16300001 475600.67407472 12869.75484802
0.16400001 468835.75363711 12764.05399536
0.16500001 462143.16405220 13808.83839381
0.16600001 455524.95533667 18257.44107188
0.16700001 448979.14987303 14708.55764430
0.16800001 442507.48157447 12339.32170632
0.16900001 436110.20086708 12232.89171193
0.17000001 429784.94833004 15433.57822330
0.17100001 423533.91023859 15298.04556021
0.17200001 417356.31288329 16245.59524615
0.17300001 411251.81915178 15027.14218146
0.17400001 405221.69710602 10637.07005138
0.17500001 399263.36745436 15810.83009790
0.17600001 393376.92818288 12532.98952383
0.17700001 387566.24589072 14487.22695564
0.17800001 381826.36322552 10252.03833683
0.17900001 376158.52451559 10156.28064164
0.18000001 370564.17225015 11066.89952700
0.18100001 365041.94144081 13951.90366091
0.18200001 359589.46618847 9870.73131315
0.18300001 354209.07846414 14664.25654114
0.18400001 348899.65911947 10650.16259774
0.18500001 343661.06300898 11505.77293310
0.18600001 338493.25261098 12343.15703959
0.18700001 333394.44117088 10341.89605372
0.18800001 328363.99916818 11170.94377949
0.18900001 323405.93349952 12903.89735631
0.19000001 318512.41839877 10037.91934012
0.19100001 313690.21236563 9034.27854300
0.19200001 308933.83093354 11626.72527656
0.19300001 304246.59452490 10624.29158284
0.19400001 299624.57869669 14022.43094562
0.19500001 295069.50389340 10410.05258929
0.19600001 290579.30347505 9445.28070581
0.19700001 286155.99335602 11898.36676603
0.19800001 281796.21960786 9252.77930810
0.19900001 277501.30410247 11655.05532312
0.20000001 273268.06842652 8239.03265245
0.20100001 269099.81786157 8969.09735323
0.20200001 264992.64928053 9682.83186235
0.20300001 260947.87605898 9582.00646178
0.20400001 256964.73882370 10272.16592000
0.20500001 253041.28134535 7818.97596315
0.20600001 249177.71799424 11605.45276415
0.20700001 245373.83624278 9952.36326845
0.20800001 241628.22030137 9847.55858388
0.20900001 237942.87533511 8244.72102010
0.21000001 234312.12425651 8157.57699162
0.21100001 230739.50821880 7337.51670823
0.21200001 227222.01311906 7985.71802859
0.21300001 223759.89777439 12928.84750462
0.21400001 220353.06224039 7817.02525254
0.21500001 217001.15020883 8437.00511900
0.21600001 213701.06309287 9738.35790556
0.21700001 210454.53759237 7570.05007511
0.21800001 207259.85922981 8851.03270689
0.21900001 204115.96883270 10777.32366394
0.22000001 201022.17181929 8663.05090416
0.22100001 197979.74900682 6592.72595365
0.22200001 194986.22318545 9131.20526354
0.22300001 192040.61497888 8388.33445892
0.22400001 189142.45979603 6383.55831997
0.22500001 186293.53556374 8209.95650052
0.22600001 183489.27447797 7497.37210971
0.22700001 180731.73399488 8035.33327340
0.22800001 178018.63234968 9172.41046558
0.22900001 175349.75315184 6654.52344681
0.23000001 172724.99505834 7780.39777035
0.23100001 170144.38256037 7697.33223106
0.23200001 167604.37211621 6443.55039075
0.23300001 165107.27893566 8692.89864709
0.23400001 162650.29187163 6306.76536560
0.23500001 160233.47396664 7941.17134537
0.23600001 157856.57995910 6734.16201956
0.23700001 155519.15882337 7217.64450237
0.23800001 153219.55032239 5492.92113887
0.23900001 150957.93182280 7064.83154347
0.24000001 148732.66403247 6452.02327091
0.24100001 146545.03889229 5851.54367975
0.24200001 144393.17541030 8421.01038826
0.24300001 142275.77528270 5728.02298383
0.24400001 140193.09741787 5152.09657382
0.24500001 138143.78337247 6117.00701709
0.24600001 136128.04744100 7565.31659441
0.24700001 134145.57844948 5988.25890527
0.24800001 132194.97282834 6418.72720933
0.24900001 130274.66864638 6350.89039696
0.25000001 128386.58839806 4833.75528186
0.25100001 126528.00331671 5739.31050197
0.25200001 124701.03358705 5205.64489337
0.25300001 122901.70448166 8428.59929211
0.25400001 121131.95233219 7876.60557305
0.25500001 119388.85506053 6418.34515172
0.25600001 117674.77730061 5443.63545548
0.25700001 115986.67599472 4488.68457337
0.25800001 114325.40556571 4885.69643801
0.25900001 112690.91908119 6592.41907817
0.26000001 111081.19383177 5653.47762756
0.26100001 109495.95088352 5594.14839533
0.26200001 107936.74168400 5109.72559310
0.26300001 106400.00680395 4634.78451569
0.26400001 104887.85530874 6253.93866871
0.26500001 103398.81151460 4950.73532958
0.26600001 101931.95019839 6940.03715766
0.26700001 100487.73076175 5251.48905811
0.26800001 99065.51165261  4796.75230121
0.26900001 97664.02233428  4746.47171006
0.27000001 96284.03184828  6262.31372776
0.27100001 94924.29301633  5034.78473985
0.27200001 93585.52828059  5365.25859023
0.27300001 92266.09050651  4929.77744906
0.27400001 90964.92826069  3752.30346833
0.27500001 89684.72195885  3712.94766481
0.27600001 88420.90995186  4041.27788061
0.27700001 87177.52437975  3998.83323255
0.27800001 85950.85284706  4676.15637045
0.27900001 84742.36145337  3915.09728444
0.28000001 83550.71998606  4578.16191831
0.28100001 82376.28663985  4181.42050774
0.28200001 81219.03824395  4137.29800396
0.28300001 80077.87810365  3752.44954554
0.28400001 78952.16800477  4050.24641035
0.28500001 77842.92074178  3673.40760367
0.28600001 76748.90096905  3634.44437741
0.28700001 75670.85073410  3268.98090644
0.28800001 74606.24137294  3881.01685992
0.28900001 73558.12009155  3199.77837544
0.29000001 72523.67719130  4115.35625702
0.29100001 71504.06921050  4071.44189357
0.29200001 70498.11099537  3408.23133740
0.29300001 69506.25739550  4597.83914436
0.29400001 68527.13389922  3335.55840044
0.29500001 67562.99890525  3599.75675207
0.29600001 66610.53042866  3264.24919818
0.29700001 65671.55056442  2935.51844919
0.29800001 64745.78440740  3484.61828176
0.29900001 63832.97342006  3734.22912185
0.30000001 62931.52729706  3977.90202876
0.30100001 62043.44474570  3091.62499804
0.30200001 61166.65514659  3614.03199043
0.30300001 60302.57999270  2749.79777785
0.30400001 59449.99766242  3263.80502618
0.30500001 58609.77006028  4573.32057432
0.30600001 57779.65019393  2926.82831914
0.30700001 56962.07578993  3421.14243391
0.30800001 56155.45072924  2863.08579098
0.30900001 55360.19391883  2574.24913910
0.31000001 54575.96894353  3309.75979328
0.31100001 53802.24004187  2769.73944849
0.31200001 53040.27192779  3735.36132737
0.31300001 52288.16023666  2709.04971012
0.31400001 51548.14158960  2679.21478597
0.31500001 50817.17016171  2890.48077565
0.31600002 50097.99144934  2382.15960621
0.31700002 49388.34901139  2826.98923126
0.31800002 48688.86885750  3727.61997623
0.31900002 48000.20346593  2764.81185055
0.32000002 47321.92763911  2962.11620082
0.32100002 46653.23853305  2478.68668063
0.32200002 45995.48713790  2674.17774882
0.32300002 45346.05162075  3085.34549837
0.32400002 44707.88174704  2397.46027221
0.32500002 44078.95392293  2371.00704379
0.32600002 43460.14034775  2344.89198350
0.32700002 42851.08643739  2108.27355255
0.32800002 42252.59237798  2502.19863911
0.32900002 41661.78953532  2474.71041558
0.33000002 41081.97235256  2651.63603106
0.33100002 40510.58073445  2219.16971772
0.33200002 39950.15498493  2594.16343679
0.33300002 39398.42883970  1973.86137834
0.33400002 38856.78081731  2343.06399424
0.33500002 38324.18724701  2897.30869308
0.33600002 37800.27857443  2101.88458967
0.33700002 37285.91094569  2457.51450681
0.33800002 36781.63631348  2057.38092463
0.33900002 36285.67547274  2035.62649042
0.34000002 35799.02915430  2563.56859915
0.34100002 35321.74542880  2355.60731420
0.34200002 34854.22520096  1972.57496867
0.34300002 34395.06620749  1774.78550036
0.34400002 33945.65604780  2108.02534040
0.34500002 33504.83288265  2260.57118165
0.34600002 33073.65904468  1721.48403481
0.34700002 32650.26819766  1874.77848870
0.34800002 32236.67645811  2362.62612951
0.34900002 31831.60714632  1671.15945433
0.35000002 31435.66728329  1820.59675694
0.35100002 31049.21665728  1803.33858887
0.35200002 30669.98953209  1786.37362490
0.35300002 30300.87957361  1930.77213788
0.35400002 29939.78065559  1594.29339542
0.35500002 29587.80429391  1579.98882413
0.35600002 29243.92250901  1722.61333698
0.35700002 28908.68023498  1862.87544258
0.35800002 28582.23622343  1846.98419224
0.35900002 28264.82148188  1984.19056201
0.36000002 27955.47608023  1513.78910145
0.36100002 27654.12080507  2402.59012935
0.36200002 27362.50384612  1638.87724549
0.36300002 27077.79924166  1774.13749035
0.36400002 26802.06558918  1614.15447657
0.36500002 26533.65475954  1893.70702989
0.36600002 26274.39120665  1735.68636533
0.36700002 26022.66280539  1436.45105490
0.36800002 25779.88246155  1712.29987421
0.36900002 25544.73658644  1701.27953725
0.37000002 25316.98335823  1972.44626687
0.37100002 25097.11451946  2100.62858478
0.37200002 24885.64928333  1531.58735769
0.37300002 24681.76228179  1523.11162256
0.37400002 24485.37835924  1652.76311754
0.37500002 24296.83918593  1918.47851300
0.37600002 24115.93953475  1500.13208982
0.37700002 23942.35356250  1900.54411582
0.37800002 23776.26814610  1486.84899895
0.37900002 23618.12271653  1615.47967034
0.38000002 23466.60279582  1341.11641331
0.38100002 23321.57483586  1469.95893154
0.38200002 23184.94088314  1331.97491684
0.38300002 23054.46962443  2124.70002124
0.38400002 22931.33463715  1721.57002944
0.38500002 22814.51363811  1585.15248267
0.38600002 22705.42013372  1581.65964145
0.38700002 22602.09388949  1446.98611936
0.38800002 22505.51100910  1707.15561847
0.38900002 22415.39346628  1311.30057990
0.39000002 22332.20415457  1571.74060286
0.39100002 22254.60464376  2224.57038558
0.39200002 22183.77789216  1961.60065305
0.39300002 22118.52052356  1830.08647482
0.39400002 22060.45390758  1568.49834714
0.39500002 22007.19646284  1437.95028501
0.39600002 21959.82537805  1961.56149483
0.39700002 21917.65654972  1570.18098961
0.39800002 21882.24362128  1309.65234278
0.39900002 21851.25958525  1573.29076468
0.40000002 21826.15199891  1706.69603642
0.40100002 21805.87550591  2498.29927508
0.40200002 21791.28735866  1449.01172157
0.40300002 21781.46497668  1451.95252414
0.40400002 21776.60707558  1587.51473103
0.40500002 21776.07543133  1989.24458490
0.40600002 21781.28235946  1595.69682126
0.40700002 21790.36054992  1466.92714173
0.40800002 21803.88880164  2006.50296204
0.40900002 21821.42144748  1476.21923087
0.41000002 21843.92700296  1750.68161260
0.41100002 21870.19046782  1621.89340194
0.41200002 21899.60621671  1628.01680329
0.41300002 21934.33611951  2179.39574010
0.41400002 21971.95075741  1367.75399946
0.41500002 22013.22316683  1510.98770977
0.41600002 22057.20141316  1793.58141790
0.41700002 22105.84105601  2217.65807982
0.41800002 22158.14966030  1392.63977214
0.41900002 22211.75611706  1679.20884202
0.42000002 22268.97128346  1546.91416351
0.42100002 22329.80125194  1978.86708072
0.42200002 22393.05660893  1705.00741100
0.42300002 22458.52270923  1428.36211199
0.42400002 22526.47707215  1723.27557768
0.42500002 22597.45801809  1443.97763578
0.42600002 22669.29689861  1451.96853516
0.42700002 22744.73671665  1606.23338304
0.42800002 22821.29002802  1615.40509118
0.42900002 22900.67470892  2067.93102421
0.43000002 22981.67095794  2080.07113697
0.43100002 23062.89912989  1942.81871477
0.43200002 23146.95045085  1804.07340363
0.43300002 23231.65042297  1663.61856562
0.43400002 23318.33222982  1977.97762513
0.43500002 23405.46457430  1530.71745570
0.43600002 23494.47146164  2772.11281913
0.43700002 23583.81248347  2169.23917503
0.43800002 23673.36652534  1714.78038552
0.43900002 23764.86298928  2195.87344427
0.44000002 23856.15550871  1578.08476169
0.44100002 23948.41521682  2064.11400536
0.44200002 24040.88351248  1757.26846362
0.44300002 24133.81034772  1928.77421440
0.44400002 24226.54759148  1778.83434121
0.44500002 24318.96768328  2277.71462116
0.44600002 24411.37032600  1800.46070372
0.44700002 24504.51532076  1811.37385835
0.44800002 24596.44601659  1987.88486127
0.44900002 24688.54127730  2666.36258431
0.45000002 24780.56846186  1676.40553589
0.45100002 24870.92521480  2023.49857137
0.45200002 24961.30926955  2544.18156787
0.45300002 25050.56287463  1705.94341261
0.45400002 25139.18060048  2573.62373595
0.45500002 25227.29827528  2415.76619733
0.45600002 25313.74935242  2255.83488045
0.45700002 25399.55147898  2791.91883089
0.45800002 25483.72855351  2456.37671169
0.45900002 25566.71545883  2469.74483037
0.46000002 25648.89979172  1773.62150466
0.46100002 25728.73592905  2139.60178127
0.46200002 25807.70610458  2150.81432869
0.46300002 25884.98006802  2522.23257737
0.46400002 25960.06844764  2172.85783205
0.46500002 26034.58646591  2365.76298428
0.46600002 26106.24063345  1828.74224305
0.46700002 26176.18125737  2388.83841477
0.46800002 26244.81603969  2400.21976467
0.46900002 26310.69927690  2040.39482563
0.47000002 26374.83202388  2795.07295621
0.47100002 26436.98281332  2058.91231909
0.47200002 26497.18747580  2631.96575672
0.47300002 26554.98674128  2076.86561147
0.47400002 26609.92085247  2275.14834072
0.47500002 26663.09958459  2094.11994063
0.47600002 26714.59165388  2867.14368515
0.47700002 26762.44525996  2110.75415770
