# SAXS profile: number of points = 501, q_min = 0, q_max = 0.5, delta_q = 0.001
#    q    intensity    error
0.00000000 1682732.95097188 277.65093691
0.00100000 1682650.77181281 504.79524353
0.00200000 1682404.16116255 984.20646544
0.00300000 1681993.36445244 1412.87447647
0.00400000 1681418.23349607 1387.17009534
0.00500000 1680679.28243730 1512.61141406
0.00600000 1679776.40976227 1763.76530206
0.00700000 1678710.19624148 2618.78801497
0.00800000 1677480.45062976 2491.05857436
0.00900000 1676088.40103974 2765.54597994
0.01000000 1674533.47668927 3591.87446259
0.01100000 1672816.87406602 3914.39165574
0.01200000 1670938.60865359 4887.49564460
0.01300000 1668899.77227864 3855.15864399
0.01400000 1666700.45296758 4875.09904105
0.01500000 1664341.95016651 5592.18920157
0.01600000 1661823.74985015 5508.94597702
0.01700000 1659148.20070719 5823.61044572
0.01800000 1656315.14255462 5664.59804243
0.01900000 1653325.22690388 5455.97349497
0.02000000 1650179.71101493 5717.87295732
0.02100000 1646880.61251357 7608.58877477
0.02200000 1643426.42695746 9071.71428895
0.02300000 1639820.36218490 7674.35964435
0.02400000 1636062.06400703 6135.23301978
0.02500000 1632154.00731010 7638.48110307
0.02600000 1628096.23249811 9231.30606049
0.02700000 1623890.85651996 8184.41029172
0.02800000 1619537.65737916 7749.48804595
0.02900000 1615039.30868334 11628.28355642
0.03000000 1610397.06110685 8986.01601402
0.03100000 1605611.35072990 11560.40225719
0.03200000 1600683.56653067 10300.39922504
0.03300000 1595617.46246675 9765.17932048
0.03400000 1590411.31893016 10019.59177157
0.03500000 1585068.25325147 10271.24275538
0.03600000 1579589.73067955 10520.06809250
0.03700000 1573977.30324233 9868.83814774
0.03800000 1568232.56756704 11926.40922830
0.03900000 1562357.69750522 12186.39060489
0.04000000 1556352.37542018 10528.72430761
0.04100000 1550220.92379884 10743.03150004
0.04200000 1543963.76142783 12946.13674018
0.04300000 1537582.15697863 12177.65124853
0.04400000 1531079.34359424 10334.78604923
0.04500000 1524456.92279478 13674.37923285
0.04600000 1517714.88865181 14979.84664736
0.04700000 1510857.31804046 11965.99051539
0.04800000 1503884.88469913 11053.55441684
0.04900000 1496801.23444401 12348.61075896
0.05000000 1489605.94816141 17093.22905112
0.05100000 1482303.68973457 13874.36318224
0.05200000 1474892.64176229 12897.93675327
0.05300000 1467378.97168287 11885.77022472
0.05400000 1459762.54040361 15655.95397593
0.05500000 1452046.08280486 12197.18766455
0.05600000 1444230.44312576 13582.98795144
0.05700000 1436320.89811444 17494.38935565
0.05800000 1428316.26787891 12640.59956095
0.05900000 1420219.44911511 14060.17320293
0.06000000 1412034.10296527 18088.15770404
0.06100000 1403761.35288463 16971.47554948
0.06200000 1395403.72754744 14505.22242588
0.06300000 1386964.02647668 14646.34080439
0.06400000 1378441.37432454 14783.78443102
0.06500000 1369841.70337010 16273.72019729
0.06600000 1361166.13043964 17783.63632626
0.06700000 1352416.20323013 24830.36265334
0.06800000 1343595.05875623 18078.07236178
0.06900000 1334705.02967116 15415.84381445
0.07000000 1325747.53151547 14119.21187182
0.07100000 1316725.03513707 19908.88346376
0.07200000 1307640.18022707 15750.52670870
0.07300000 1298495.89260805 15854.63559162
0.07400000 1289294.25692863 14504.56107019
0.07500000 1280036.65943645 16051.66046171
0.07600000 1270724.60155130 19079.93078677
0.07700000 1261363.46379550 16233.74854022
0.07800000 1251953.28012749 22253.47059787
0.07900000 1242496.25015523 19382.94241155
0.08000000 1232996.33725603 16478.99682047
0.08100000 1223454.70699259 16553.34296226
0.08200000 1213873.08747363 16623.99271304
0.08300000 1204254.75805582 16690.97172999
0.08400000 1194601.60454038 16754.28829010
0.08500000 1184915.86339434 16813.95689090
0.08600000 1175199.53283997 18403.62554835
0.08700000 1165456.62231002 24614.44501903
0.08800000 1155686.40837882 18514.09713172
0.08900000 1145894.11919424 17016.52846930
0.09000000 1136079.72003328 15507.48890693
0.09100000 1126246.15933641 18650.63727484
0.09200000 1116395.59574691 21803.20700940
0.09300000 1106532.30533664 18722.52748611
0.09400000 1096653.45416689 23440.96868448
0.09500000 1086765.10777725 17214.36011631
0.09600000 1076868.16003875 18802.11895812
0.09700000 1066967.33185994 17252.86256728
0.09800000 1057061.71114534 21976.31400799
0.09900000 1047154.58457125 23560.97926075
0.10000000 1037246.87540737 18857.14908170
0.10100000 1027340.56687277 22005.63597738
0.10200000 1017439.28415757 22007.21275147
0.10300000 1007543.70489504 22004.75555003
0.10400000 997656.98966961 21998.33765713
0.10500000 987781.96085070 17276.30730812
0.10600001 977915.75657144 17265.10349465
0.10700001 968066.05517156 17250.93791495
0.10800001 958231.06131585 18800.49430780
0.10900001 948414.98381042 20343.50236021
0.11000001 938617.58792457 20316.37864691
0.11100001 928841.82831489 15604.54345025
0.11200001 919089.07604769 20252.12874412
0.11300001 909361.21270376 20215.10071015
0.11400001 899660.45019162 18622.97219582
0.11500001 889988.68628173 15485.80387050
0.11600001 880346.43023018 16995.08863592
0.11700001 870736.85532172 20035.65598453
0.11800001 861159.18623745 18446.03063798
0.11900001 851616.06080167 16861.99879810
0.12000001 842108.88532623 16812.70468750
0.12100001 832642.19720710 15237.35292669
0.12200001 823213.44656982 18225.94656570
0.12300001 813826.93919878 18164.61813873
0.12400001 804481.45299214 22626.04193149
0.12500001 795179.47803232 16531.78212728
0.12600001 785924.33548597 23954.97487445
0.12700001 776714.89466842 14912.92668043
0.12800001 767552.80502884 19307.79172046
0.12900001 758440.69502292 16268.55367501
0.13000001 749379.07954227 16197.82956779
0.13100001 740367.87693491 16125.21311975
0.13200001 731410.37311024 20428.29268397
0.13300001 722506.63352369 15974.62242030
0.13400001 713657.19090427 23122.49407542
0.13500001 704864.82716604 17255.09178257
0.13600001 696129.22148868 15736.00179372
0.13700001 687452.32981403 21345.39584723
0.13800001 678832.89893700 16984.39993232
0.13900001 670274.91971749 21113.66096678
0.14000001 661777.01059739 15396.24287764
0.14100001 653342.19346554 16699.42725257
0.14200001 644969.53278243 17984.97626990
0.14300001 636661.30076714 16502.26169426
0.14400001 628414.49342907 17768.42063984
0.14500001 620235.49178819 19016.42107527
0.14600001 612121.56708431 16196.73742912
0.14700001 604075.51024435 14751.52465609
0.14800001 596094.13711352 14654.97505234
0.14900001 588181.77932266 15880.90879099
0.15000001 580337.05220654 19716.95227902
0.15100001 572561.62742155 18276.16800966
0.15200001 564856.39105695 14259.80026511
0.15300001 557221.21860173 14158.99183282
0.15400001 549654.34034142 14057.41041762
0.15500001 542160.22248820 13955.20478543
0.15600001 534735.48458575 16370.92763322
0.15700001 527385.06643292 16248.73466369
0.15800001 520103.53352647 12404.46986008
0.15900001 512896.38892013 16002.36808963
0.16000001 505759.45284573 18321.13704414
0.16100001 498697.65450840 18177.53036489
0.16200001 491708.14724322 18033.39715143
0.16300001 484791.41873543 13118.45641027
0.16400001 477948.58740318 16560.91933535
0.16500001 471178.25309045 11732.33905585
0.16600001 464482.53441768 12798.81684015
0.16700001 457859.05600962 17307.07313431
0.16800001 451309.95580558 14872.92029582
0.16900001 444835.74831262 12477.64332934
0.17000001 438433.57186415 17993.31463894
0.17100001 432105.92079561 14492.83326786
0.17200001 425851.57109449 14366.10342928
0.17300001 419670.92093794 18620.79964137
0.17400001 413564.44528838 11941.67392166
0.17500001 407530.25873495 11834.67927259
0.17600001 401568.19155731 14926.29038514
0.17700001 395682.17786978 19016.48636658
0.17800001 389867.04217427 11514.72363448
0.17900001 384124.04926857 13482.75476617
0.18000001 378455.22788752 15412.58988373
0.18100001 372858.54693872 12214.84657470
0.18200001 367331.71177386 12099.90715741
0.18300001 361877.46028487 15980.50940109
0.18400001 356494.19297579 11871.25718690
0.18500001 351182.38635259 12737.38575475
0.18600001 345941.41578557 12614.75432259
0.18700001 340769.67044921 12492.61670888
0.18800001 335666.58688157 13322.60746277
0.18900001 330636.38919477 12250.07879845
0.19000001 325670.91512239 12129.61380684
0.19100001 320777.06158200 17552.92163914
0.19200001 315949.34005351 12805.42735744
0.19300001 311191.23076913 14489.06438926
0.19400001 306498.49578796 10758.09771052
0.19500001 301873.12113844 8875.07018086
0.19600001 297312.77327346 14056.94858465
0.19700001 292819.94691113 11305.77868452
0.19800001 288390.84096694 8608.46700969
0.19900001 284026.87988962 12781.21019907
0.20000001 279725.01060024 10963.82230864
0.20100001 275488.55344077 9182.03392015
0.20200001 271313.31299253 9087.63984820
0.20300001 267201.08207721 8176.35349801
0.20400001 263150.55798448 8901.06804454
0.20500001 259160.33863073 11211.27677909
0.20600001 255230.42143438 10302.37644817
0.20700001 251360.38662397 10195.17776338
0.20800001 247549.05356974 7760.66319626
0.20900001 243798.38394845 9215.57934888
0.21000001 240102.64396266 9119.09884878
0.21100001 236465.60083598 8271.56710827
0.21200001 232883.93182257 7440.64197348
0.21300001 229358.08415549 9571.11330429
0.21400001 225887.86125415 10927.32580478
0.21500001 222472.97924171 9370.56232868
0.21600001 219110.32828709 8558.44982752
0.21700001 215801.69165113 8468.05878076
0.21800001 212545.40709347 6982.11695314
0.21900001 209339.98537417 7599.04182838
0.22000001 206185.29572727 9569.06002715
0.22100001 203082.42883026 8115.17423977
0.22200001 200028.84599765 8029.15825800
0.22300001 197023.70481314 9929.99519213
0.22400001 194066.20267624 7204.70811504
0.22500001 191158.55359880 6480.27527343
0.22600001 188295.89526706 6411.47553703
0.22700001 185480.63464033 7612.12560561
0.22800001 182709.89946881 7531.30241226
0.22900001 179984.04874243 8072.28496784
0.23000001 177302.62605362 8600.95079662
0.23100001 174665.78072296 7294.04334795
0.23200001 172070.18353159 9622.16511815
0.23300001 169517.77155852 9520.11850098
0.23400001 167005.82076574 8241.73764458
0.23500001 164534.68071175 8736.79195901
0.23600001 162103.91451328 5762.79443351
0.23700001 159712.81970481 5701.74793314
0.23800001 157360.13770380 10718.58628667
0.23900001 155045.97459766 7256.15195438
0.24000001 152768.42017274 7731.61011065
0.24100001 150529.16890128 8742.73454333
0.24200001 148325.95789514 6487.77770522
0.24300001 146157.82438250 6419.25195053
0.24400001 144024.69924779 5292.90794773
0.24500001 141925.45161856 7331.86917744
0.24600001 139860.20440745 5700.00290027
0.24700001 137828.83432718 5127.23287952
0.24800001 135829.62030457 5073.23655837
0.24900001 133861.07580395 6525.72775416
0.25000001 131925.28127883 7450.48061269
0.25100001 130019.60530267 5897.68957554
0.25200001 128145.91434411 6322.07898326
0.25300001 126300.17399962 5774.44422845
0.25400001 124484.60612178 6189.99733226
0.25500001 122696.00281358 7067.29009643
0.25600001 120936.95542242 5594.54382253
0.25700001 119204.47416591 7381.14138958
0.25800001 117499.03863680 5021.32165372
0.25900001 115820.96566373 4968.71966207
0.26000001 114168.01055791 5363.61338979
0.26100001 112540.22011288 4865.11394568
0.26200001 110938.60742994 6127.13957827
0.26300001 109360.16222976 4763.72889214
0.26400001 107806.54158029 4713.84125365
0.26500001 106276.61439817 4664.48082665
0.26600001 104769.20145657 5454.80873196
0.26700001 103284.95142735 5812.87734140
0.26800001 101823.16808531 4930.27803200
0.26900001 100382.43242291 4472.03757606
0.27000001 98963.67527643  4425.16094939
0.27100001 97565.73072212  5572.95480258
0.27200001 96189.05158622  4726.73021863
0.27300001 94832.19760889  4287.36385679
0.27400001 93494.06365270  3856.63030819
0.27500001 92177.29024103  4197.75399624
0.27600001 90877.34857514  4153.54941320
0.27700001 89598.29127355  4109.87381522
0.27800001 88336.29953558  4805.93660368
0.27900001 87093.02567733  4755.27942704
0.28000001 85866.81285623  5067.00086646
0.28100001 84658.41792371  5729.68199626
0.28200001 83467.50008275  4960.47376470
0.28300001 82293.21587254  4907.96762693
0.28400001 81134.70550471  3815.35970694
0.28500001 79993.15365499  4461.21839049
0.28600001 78867.17321956  4413.80155815
0.28700001 77757.59916792  3359.12844305
0.28800001 76661.78777079  4320.27525431
0.28900001 75583.06662968  4603.00897562
0.29000001 74518.27319267  4553.81189036
0.29100001 73468.63260206  4183.30413838
0.29200001 72433.11368183  4456.80969581
0.29300001 71412.15750683  4408.98681318
0.29400001 70404.30621058  4050.00790648
0.29500001 69411.70853132  3698.25600561
0.29600001 68431.33652287  4268.06266097
0.29700001 67464.64257475  4825.07146536
0.29800001 66511.67642806  3579.65859481
0.29900001 65572.00187277  3540.88826875
0.30000001 64644.15128206  3502.42028227
0.30100001 63729.94156857  3175.66313870
0.30200001 62827.44199259  3141.05811112
0.30300001 61937.96943770  3389.24584808
0.30400001 61060.39148189  3072.86434680
0.30500001 60195.47557407  3591.86419755
0.30600001 59341.08443274  3005.92277425
0.30700001 58499.59134846  3243.21749790
0.30800001 57669.39606420  3207.57196095
0.30900001 56850.92093916  2907.92474371
0.31000001 56043.82722188  2875.88913005
0.31100001 55247.55156825  3361.26119655
0.31200001 54463.32375958  2812.75848874
0.31300001 53689.36066550  3034.52280849
0.31400001 52927.81424299  3501.17507794
0.31500001 52175.41295359  3709.67203664
0.31600002 51435.46580758  2690.33216645
0.31700002 50705.23436977  2660.50377335
0.31800002 49985.60863950  3109.35493264
0.31900002 49277.03336594  4021.00611305
0.32000002 48579.17839841  3040.81381583
0.32100002 47891.09514027  2775.76800576
0.32200002 47214.41315894  2973.79995363
0.32300002 46546.30944516  2488.36582076
0.32400002 45889.81457142  3131.97999280
0.32500002 45242.79067255  2876.08433924
0.32600002 44606.09730876  2406.72209426
0.32700002 43979.59852144  3894.83342949
0.32800002 43363.84918729  2568.00727047
0.32900002 42756.18066372  3174.64656461
0.33000002 42159.63625804  2511.87124720
0.33100002 41571.90517770  2277.30907348
0.33200002 40995.35156642  2457.26148925
0.33300002 40427.84290600  2633.06553316
0.33400002 39870.49005820  2404.19066436
0.33500002 39322.71453349  2576.42437824
0.33600002 38783.81410456  2352.62627500
0.33700002 38254.64140712  3297.16769902
0.33800002 37735.87827884  2686.41730189
0.33900002 37225.57531986  2468.05576059
0.34000002 36724.99334894  2442.02854839
0.34100002 36233.88432210  2602.31769526
0.34200002 35752.86428966  1839.48495482
0.34300002 35280.25806844  2366.59982331
0.34400002 34817.85147542  2882.91823870
0.34500002 34364.15376780  2496.89953102
0.34600002 33920.44825888  2118.67129859
0.34700002 33484.68407064  2097.48070952
0.34800002 33058.90630932  2422.88735816
0.34900002 32641.86027860  1885.06752037
0.35000002 32234.24428441  2885.12617132
0.35100002 31836.24156841  2017.14436131
0.35200002 31445.73470503  1998.06207779
0.35300002 31065.55987154  2474.37196096
0.35400002 30693.38875347  2451.63454280
0.35500002 30330.70529482  2105.55766129
0.35600002 29976.35676249  1765.75737873
0.35700002 29630.70306243  1750.28571280
0.35800002 29294.24002270  2366.24234991
0.35900002 28966.83210616  2346.31351173
0.36000002 28647.76122217  2016.65924676
0.36100002 28336.77043432  2154.16139045
0.36200002 28035.85864728  1526.55257565
0.36300002 27741.81252435  1514.70303558
0.36400002 27457.01036829  1503.27138887
0.36500002 27179.68283142  2089.03052138
0.36600002 26911.74089531  1777.78968775
0.36700002 26651.32592483  2206.72989111
0.36800002 26400.19021436  2045.75083662
0.36900002 26156.74261084  2032.37899713
0.37000002 25920.84985317  1442.49536266
0.37100002 25693.02327279  1720.40491984
0.37200002 25473.74629432  1567.78178995
0.37300002 25262.11315511  1558.92507665
0.37400002 25058.28298581  2114.29272708
0.37500002 24862.27832535  2383.79535876
0.37600002 24674.09435647  2232.51216313
0.37700002 24493.40157709  1944.28630929
0.37800002 24320.17996642  1520.86252625
0.37900002 24155.24030464  1376.84876259
0.38000002 23996.93529871  1508.56740902
0.38100002 23845.23632057  1776.23173766
0.38200002 23702.03048929  1497.84988773
0.38300002 23565.27888175  1628.83215347
0.38400002 23435.78187777  1894.78305458
0.38500002 23312.72853640  1889.72986469
0.38600002 23197.63732640  1615.94749271
0.38700002 23088.23878363  1478.10911695
0.38800002 22985.75318880  1877.70626695
0.38900002 22889.84132638  1874.67809344
0.39000002 22800.97745430  1471.00513015
0.39100002 22717.70117398  1469.38098155
0.39200002 22641.53899420  1334.71878694
0.39300002 22570.76687700  1600.71886275
0.39400002 22507.47690586  1866.99529779
0.39500002 22448.84972119  1466.80791028
0.39600002 22396.29548930  1867.17924341
0.39700002 22349.04650024  2001.35720892
0.39800002 22308.67977048  2136.27927603
0.39900002 22272.73668647  1336.36426450
0.40000002 22242.73018451  1739.27036918
0.40100002 22217.71110205  1607.67365152
0.40200002 22198.38836209  1476.08190407
0.40300002 22183.89501217  2150.95056229
0.40400002 22174.49071136  1347.10037454
0.40500002 22169.41908851  1620.14122375
0.40600002 22170.16959657  1894.88448520
0.40700002 22174.78654556  1899.93580124
0.40800002 22183.95740432  1769.28160661
0.40900002 22197.22796276  2457.23325190
0.41000002 22215.50252322  1643.50295454
0.41100002 22237.59511250  1786.56847599
0.41200002 22262.83756008  1655.01942264
0.41300002 22293.48877357  1799.75343397
0.41400002 22327.07737664  1528.84669581
0.41500002 22364.30890515  2093.29941271
0.41600002 22404.23498387  1401.38496464
0.41700002 22448.95254936  1829.81420900
0.41800002 22497.41659068  2262.34031956
0.41900002 22547.15705225  1562.51805776
0.42000002 22600.59999425  1569.95075299
0.42100002 22657.61628414  2151.34076812
0.42200002 22717.12807992  1873.82239846
0.42300002 22778.87629752  1448.73660117
0.42400002 22843.08008107  2038.74499384
0.42500002 22910.50165846  1756.77735042
0.42600002 22978.71885388  1471.78701233
0.42700002 23050.49446529  2219.76272219
0.42800002 23123.45145736  2231.99125769
0.42900002 23199.21355990  1645.98428007
0.43000002 23276.79563897  2257.26736405
0.43100002 23354.43207865  1967.37745153
0.43200002 23434.95174419  2587.57031945
0.43300002 23516.22477454  1837.08756644
0.43400002 23599.46388519  1847.83810978
0.43500002 23683.09515215  2013.53684525
0.43600002 23768.72749269  2181.25622537
0.43700002 23854.59092915  1567.24669832
0.43800002 23940.76907353  1734.14969002
0.43900002 24028.85268547  2378.85652859
0.44000002 24116.78707087  1754.85809437
0.44100002 24205.65077302  1925.80166677
0.44200002 24294.73267483  2421.57759412
0.44300002 24384.25350249  2598.38617636
0.44400002 24473.71491190  1633.62054779
0.44500002 24562.76078617  2793.52291660
0.44600002 24651.80297486  1652.90346780
0.44700002 24741.67329080  1828.90457633
0.44800002 24830.23043787  2341.24253894
0.44900002 24918.98417219  1850.23466247
0.45000002 25007.68737040  2030.12415694
0.45100002 25094.79516698  1871.56991225
0.45200002 25181.83783663  2224.43775072
0.45300002 25267.72056339  1720.73185192
0.45400002 25353.11855570  1903.38546578
0.45500002 25437.89260131  2087.94232367
0.45600002 25521.00994289  1924.41184595
0.45700002 25603.54674539  2462.54924268
0.45800002 25684.42506855  2298.88457471
0.45900002 25764.05677089  2488.80800202
0.46000002 25842.88290804  2144.44252534
0.46100002 25919.35369082  1796.21129590
0.46200002 25995.05387673  1985.89223503
0.46300002 26068.99758979  2540.16324554
0.46400002 26140.81177497  2917.31473235
0.46500002 26211.99818034  3114.77189140
0.46600002 26280.34766250  1840.93844101
0.46700002 26346.87640258  2034.50589223
0.46800002 26412.19623607  2043.90790260
0.46900002 26474.71322147  2613.05431881
0.47000002 26535.49511466  2249.67938245
0.47100002 26594.28097258  3012.60029136
0.47200002 26651.16919915  1890.90054430
0.47300002 26705.65438217  2278.52653988
0.47400002 26757.17400969  2097.09361241
0.47500002 26807.02756506  2296.82623064
0.47600002 26855.14659349  2497.93157879
0.47700002 26899.58440019  2121.57032220
