# SAXS profile: number of points = 501, q_min = 0, q_max = 0.5, delta_q = 0.001
#    q    intensity    error
0.00000000 1664650.74656091 299.63713438
0.00100000 1664569.01600852 649.18193166
0.00200000 1664323.74170303 748.94570748
0.00300000 1663915.17517715 1297.85388287
0.00400000 1663343.17412149 1497.00891359
0.00500000 1662608.23162555 2394.15594830
0.00600000 1661710.26670989 1744.79585108
0.00700000 1660649.86323895 1992.77991871
0.00800000 1659426.80941978 2688.27154476
0.00900000 1658042.31923288 2984.47630220
0.01000000 1656495.88039890 3553.18381688
0.01100000 1654788.64832124 2978.61969667
0.01200000 1652920.61825160 3867.83441629
0.01300000 1650892.88072643 4506.93776316
0.01400000 1648705.56948961 5193.42277412
0.01500000 1646359.94323657 5531.76965560
0.01600000 1643855.54971245 5868.56457482
0.01700000 1641194.66690399 6203.71611919
0.01800000 1638377.09839562 5603.24992865
0.01900000 1635403.57223336 6868.69531331
0.02000000 1632275.36766658 6170.00116888
0.02100000 1628994.37974693 8601.09071502
0.02200000 1625559.13405074 5608.17926727
0.02300000 1621973.02499605 8174.74441808
0.02400000 1618235.42645815 6675.22143851
0.02500000 1614348.93176610 6925.55723357
0.02600000 1610313.60577480 7173.94744185
0.02700000 1606131.55811374 8094.90342365
0.02800000 1601802.52008118 6967.84128190
0.02900000 1597329.13291265 9344.37585658
0.03000000 1592712.73516601 8887.33747074
0.03100000 1587953.71501086 9908.83163760
0.03200000 1583053.37161133 10186.94891551
0.03300000 1578015.60079732 9657.45592209
0.03400000 1572838.73031714 8257.40371516
0.03500000 1567525.63810988 9311.10272034
0.03600000 1562077.94002852 10403.43956137
0.03700000 1556497.10351357 14195.25424054
0.03800000 1550784.83652301 9072.09171351
0.03900000 1544943.20815979 10196.62564606
0.04000000 1538971.98415447 16089.95283993
0.04100000 1532875.35437912 11588.53821643
0.04200000 1526653.83759057 9846.91770929
0.04300000 1520308.63259723 12040.84492908
0.04400000 1513843.08744569 13283.97370927
0.04500000 1507258.65029329 11440.09368729
0.04600000 1500555.41145937 10578.91614257
0.04700000 1493737.41854258 10754.90991370
0.04800000 1486805.36588412 10928.01994771
0.04900000 1479762.77874052 15537.50990001
0.05000000 1472609.22697243 12392.00722202
0.05100000 1465349.62969290 12572.70040845
0.05200000 1457981.92285515 12750.05250954
0.05300000 1450512.21465537 11749.14948643
0.05400000 1442940.65856939 19046.81758134
0.05500000 1435269.77002740 14467.51995678
0.05600000 1427500.23435872 13425.64033064
0.05700000 1419637.63701831 14821.01762229
0.05800000 1411680.85449890 18740.06421849
0.05900000 1403632.26486369 15159.22916855
0.06000000 1395496.06269199 14045.66852719
0.06100000 1387273.04977951 15481.96795903
0.06200000 1378965.71932681 15637.47198812
0.06300000 1370577.22803883 15789.05040523
0.06400000 1362106.42201602 15936.64588289
0.06500000 1353559.02619300 20100.35247922
0.06600000 1344936.68531855 16219.93718385
0.06700000 1336240.25999094 19081.51180567
0.06800000 1327473.58531996 17861.15792654
0.06900000 1318638.59829616 17999.41770946
0.07000000 1309736.71838371 18133.30571518
0.07100000 1300770.56217924 18262.81954839
0.07200000 1291742.62527906 18387.95713226
0.07300000 1282655.77858338 22779.96769501
0.07400000 1273512.22538971 15759.71452776
0.07500000 1264313.21272586 20178.43982092
0.07600000 1255060.61859157 15945.54590674
0.07700000 1245759.25647478 18947.99917942
0.07800000 1236409.46860013 19046.88875701
0.07900000 1227013.35510580 17668.99314227
0.08000000 1217575.00189214 17752.24436036
0.08100000 1208095.39755192 16345.53149578
0.08200000 1198576.38563231 19398.95971176
0.08300000 1189021.23424546 16479.83508007
0.08400000 1179431.64750658 18045.30505387
0.08500000 1169810.29949864 18108.66428635
0.08600000 1160158.58670241 16654.07729405
0.08700000 1150480.74027859 19742.25043023
0.08800000 1140776.15011094 15229.36231921
0.08900000 1131050.13298492 19849.93076623
0.09000000 1121302.28467608 18366.93228579
0.09100000 1111535.92052897 19940.95535114
0.09200000 1101752.77881662 16906.39718532
0.09300000 1091957.50962357 20015.58209198
0.09400000 1082147.21135682 23130.89772985
0.09500000 1072327.73234863 16985.67207877
0.09600000 1062500.08197327 17005.31461136
0.09700000 1052668.82536384 21663.92544447
0.09800000 1042833.27656226 18583.28986208
0.09900000 1032996.73642702 26341.41801753
0.10000000 1023159.89242950 17050.96040920
0.10100000 1013325.00234713 17054.26059159
0.10200000 1003495.43513294 21705.60728288
0.10300000 993671.76975654 17051.40837113
0.10400000 983857.55286412 21694.06006125
0.10500000 974055.26871513 23231.21925187
0.10600001 964262.18801615 20119.33149964
0.10700001 954485.67593709 18555.20241338
0.10800001 944724.60345655 16990.87279279
0.10900001 934982.66291972 18512.65759712
0.11000001 925259.41074693 30811.13982814
0.11100001 915558.15313927 16919.51546647
0.11200001 905880.43846934 19961.07640138
0.11300001 896227.77412113 15325.49565901
0.11400001 886602.57807244 18352.67423022
0.11500001 877006.32770963 18311.89298485
0.11600001 867440.23134987 16745.93445480
0.11700001 857906.75667614 18221.94036996
0.11800001 848405.64237022 16658.44557252
0.11900001 838939.33229195 15100.90869253
0.12000001 829509.03788273 18066.70769612
0.12100001 820119.34914839 19510.64023535
0.12200001 810768.07937903 17950.40612312
0.12300001 801458.86654655 17888.56274413
0.12400001 792191.12830832 17824.30122677
0.12500001 782967.09466697 22197.11817975
0.12600001 773789.99497641 20636.98013851
0.12700001 764658.68193710 16149.59212358
0.12800001 755575.01631867 17544.45270578
0.12900001 746541.33589244 17469.06808324
0.13000001 737558.35719199 15942.32464214
0.13100001 728626.08190874 18754.83623239
0.13200001 719747.19779513 14358.95727290
0.13300001 710922.40588557 15718.49513515
0.13400001 702152.12933383 18484.15567616
0.13500001 693438.81322462 19804.61343945
0.13600001 684782.49489366 21108.42140038
0.13700001 676184.94319394 16796.43478094
0.13800001 667644.95655192 16704.47760064
0.13900001 659166.22219953 13842.49131898
0.14000001 650747.91569311 19268.64669239
0.14100001 642392.51927477 21892.73808941
0.14200001 634099.38011278 16321.71881392
0.14300001 625870.61457250 18926.32827738
0.14400001 617703.47251599 14778.55627705
0.14500001 609604.05656577 17355.42830912
0.14600001 601569.86158600 14591.07768109
0.14700001 593603.29399241 14495.79312316
0.14800001 585701.18866892 15708.50662121
0.14900001 577868.53303038 14302.24686729
0.15000001 570103.33473731 14204.12525517
0.15100001 562407.16721375 14105.17241927
0.15200001 554781.34926538 12732.23256644
0.15300001 547225.40117500 16433.17957275
0.15400001 539737.84552968 20078.24880122
0.15500001 532322.89502284 14947.62759766
0.15600001 524977.31926093 13599.53809728
0.15700001 517706.00021187 14723.55934093
0.15800001 510503.34100689 14610.60630922
0.15900001 503375.14254227 16913.40558774
0.16000001 496316.76215036 15581.86548321
0.16100001 489333.58192208 13079.88726220
0.16200001 482422.53390879 15333.80096414
0.16300001 475584.22884935 15209.18435659
0.16400001 468819.54983735 12763.61284689
0.16500001 462127.27119339 12657.66655557
0.16600001 455509.25271282 12551.55805110
0.16700001 448963.72223792 11313.88633458
0.16800001 442492.28284289 15704.05185958
0.16900001 436095.32940391 12232.47456737
0.17000001 429770.38105641 16535.41619194
0.17100001 423519.58373095 16390.20866435
0.17200001 417342.33222496 11913.03743593
0.17300001 411238.05671052 15026.63930183
0.17400001 405208.22955296 11700.38818090
0.17500001 399250.06138055 12648.24254188
0.17600001 393364.12365330 12532.58157150
0.17700001 387553.69053929 11382.45242874
0.17800001 381814.06600963 12302.04978788
0.17900001 376146.58602411 12187.14996282
0.18000001 370552.67471742 11066.55615316
0.18100001 365030.70625719 11958.40650186
0.18200001 359578.48842129 11844.51596811
0.18300001 354198.43699229 12708.64051963
0.18400001 348889.25741691 13554.34829096
0.18500001 343651.14233468 11505.44078891
0.18600001 338483.55754969 12342.80350917
0.18700001 333385.16085678 12221.90057443
0.18800001 328354.92824325 12101.52145216
0.18900001 323397.26355773 10138.50469155
0.19000001 318504.10205629 10037.65725057
0.19100001 313682.16625009 14454.47490378
0.19200001 308926.26700019 9837.75743747
0.19300001 304239.41877639 11509.37775616
0.19400001 299617.71386919 10516.58225376
0.19500001 295062.80134030 10409.81612320
0.19600001 290573.03776033 9445.07703874
0.19700001 286150.15631632 8498.66004422
0.19800001 281790.67851678 12617.17822686
0.19900001 277496.05702924 9157.37031474
0.20000001 273263.30917262 10710.55590921
0.20100001 269095.41239957 8153.59138106
0.20200001 264988.50203589 8875.79029519
0.20300001 260944.11038578 11178.84621729
0.20400001 256961.36608844 9481.87485683
0.20500001 253038.21447782 7818.88119694
0.20600001 249175.11990482 10057.95419038
0.20700001 245371.55211294 9952.27062414
0.20800001 241626.22985633 8332.48093047
0.20900001 237941.33551945 9743.69815012
0.21000001 234310.93715247 7415.94151144
0.21100001 230738.68705124 10272.48683314
0.21200001 227221.56602246 9437.64819090
0.21300001 223759.82334169 10055.76693637
0.21400001 220353.28919717 8527.67269509
0.21500001 217001.75205378 7733.94280884
0.21600001 213701.92304436 11129.59667834
0.21700001 210455.71767321 8258.28275194
0.21800001 207261.44187507 8170.24642501
0.21900001 204117.85810985 7409.47859972
0.22000001 201024.32446451 10662.33067374
0.22100001 197982.30240950 7252.09208016
0.22200001 194989.09801733 7174.62420080
0.22300001 192043.92115975 7743.21126730
0.22400001 189146.07724450 8298.78453152
0.22500001 186297.48040556 7578.58186127
0.22600001 183493.44285718 7497.54242969
0.22700001 180736.30317039 6799.30004680
0.22800001 178023.57391020 9784.17608480
0.22900001 175354.95169759 7259.69534360
0.23000001 172730.48734468 7780.64517040
0.23100001 170150.17086598 8289.71671663
0.23200001 167610.45108211 7029.58265084
0.23300001 165113.67169602 8113.68621087
0.23400001 162657.01761483 8027.12419894
0.23500001 160240.47510035 9076.02093894
0.23600001 157863.87709433 6734.47331536
0.23700001 155526.64794818 7217.99207267
0.23800001 153227.28386215 5493.19838628
0.23900001 150965.97232512 5978.25278684
0.24000001 148740.96648991 6452.38343153
0.24100001 146553.62524411 5851.88653280
0.24200001 144402.04083491 6842.49102863
0.24300001 142284.82823346 6249.14995162
0.24400001 140202.36642429 5667.68093080
0.24500001 138153.33549401 8156.57331341
0.24600001 136137.86334004 7061.47130549
0.24700001 134155.61291511 5489.64794018
0.24800001 132205.16066529 5925.43558133
0.24900001 130285.07776115 5374.25971189
0.25000001 128397.21771844 4834.15547579
0.25100001 126538.81983279 6696.43466235
0.25200001 124712.01533810 5679.38544719
0.25300001 122912.87978488 6087.87522377
0.25400001 121143.36660097 4633.73399171
0.25500001 119400.42198279 6418.96698949
0.25600001 117686.43088735 4990.49333789
0.25700001 115998.57656635 5835.88866317
0.25800001 114337.39880347 7107.21304589
0.25900001 112703.09979870 4395.42110012
0.26000001 111093.49773507 4784.24170633
0.26100001 109508.38544073 4303.67975145
0.26200001 107949.28851214 5536.17952330
0.26300001 106412.68433222 5056.73099874
0.26400001 104900.63226766 4586.78036294
0.26500001 103411.72061528 4126.12784779
0.26600001 101944.95543093 4491.18522403
0.26700001 100500.77030177 4040.13115731
0.26800001 99078.64186383  3997.82338839
0.26900001 97677.20601119  5142.70513985
0.27000001 96297.32465244  5480.28100531
0.27100001 94937.63672922  4648.14691423
0.27200001 93598.93335868  4982.73945315
0.27300001 92279.50887668  3792.68799432
0.27400001 90978.43754516  5629.29108951
0.27500001 89698.28315583  5198.91273775
0.27600001 88434.50775500  4776.79016245
0.27700001 87191.11163596  4363.04343275
0.27800001 85964.51767674  3957.37675854
0.27900001 84755.97009939  4627.67618644
0.28000001 83564.31587274  4931.13051303
0.28100001 82389.90204146  5227.63953195
0.28200001 81232.64285945  3793.15843785
0.28300001 80091.37786354  4435.46071601
0.28400001 78965.68519551  3375.78320189
0.28500001 77856.38299319  3674.04288735
0.28600001 76762.35519530  4626.46736660
0.28700001 75684.27842495  3269.56098271
0.28800001 74619.64949657  3558.23815467
0.28900001 73571.47042955  4160.46684972
0.29000001 72536.93860401  4116.10877592
0.29100001 71517.21005969  6264.90789778
0.29200001 70511.15138585  5268.24092517
0.29300001 69519.19042319  4598.69466418
0.29400001 68540.03244418  3639.47589507
0.29500001 67575.71159628  4500.54260535
0.29600001 66623.17970863  3264.86907617
0.29700001 65684.08164961  5578.54931858
0.29800001 64758.23768578  4066.16993678
0.29900001 63845.20426243  3447.64119338
0.30000001 62943.67900761  2841.90724173
0.30100001 62055.46947875  3373.33548056
0.30200001 61178.54542002  3614.73452727
0.30300001 60314.20585857  4125.49187603
0.30400001 59461.55829450  2720.36642076
0.30500001 58621.11714932  3228.85128545
0.30600001 57790.85722934  2927.39601154
0.30700001 56973.14571602  2632.15945669
0.30800001 56166.34165422  2863.64106482
0.30900001 55370.86889040  3089.69463036
0.31000001 54586.44250453  5092.91532680
0.31100001 53812.56137612  2770.27079080
0.31200001 53050.27476192  3736.06577699
0.31300001 52298.03288275  3202.20870502
0.31400001 51557.81950778  2679.71779579
0.31500001 50826.54785851  2891.01417907
0.31600002 50107.19535479  3097.37642751
0.31700002 49397.36116154  3298.75593456
0.31800002 48697.67673498  3262.25751894
0.31900002 48008.79677327  2534.86458965
0.32000002 47330.24403993  2734.74163012
0.32100002 46661.30453107  2479.11522712
0.32200002 46003.33355939  2897.52010144
0.32300002 45353.60780212  2865.44107662
0.32400002 44715.22643664  3269.80108801
0.32500002 44086.10778947  3018.13508218
0.32600002 43466.94867751  2345.25932695
0.32700002 42857.63071149  2952.03374319
0.32800002 42258.86585682  2085.47512879
0.32900002 41667.80460604  2062.55642567
0.33000002 41087.76065859  2652.00963729
0.33100002 40516.06447245  2623.01013816
0.33200002 39955.36198220  1995.77042552
0.33300002 39403.42749962  2368.93417346
0.33400002 38861.40762334  2343.34299066
0.33500002 38328.58944555  3090.81759926
0.33600002 37804.40809123  2675.41808732
0.33700002 37289.73784848  2079.64877830
0.33800002 36785.21340077  2431.68664702
0.33900002 36288.91931910  2591.02896209
0.34000002 35802.05900775  2014.40294547
0.34100002 35324.41414149  2899.42805005
0.34200002 34856.67288459  2331.38867630
0.34300002 34397.19843850  1952.38507583
0.34400002 33947.49415793  2459.49606822
0.34500002 33506.37565443  2260.67527247
0.34600002 33074.89169512  1893.70301369
0.34700002 32651.27466198  2897.47425073
0.34800002 32237.40165659  2025.15366798
0.34900002 31832.03130551  2506.77258403
0.35000002 31435.77133632  2151.62147102
0.35100002 31049.05517902  2131.20724843
0.35200002 30669.51774811  1786.34614585
0.35300002 30300.13547077  2574.29963152
0.35400002 29938.75122248  2072.51015154
0.35500002 29586.47967615  2685.86075221
0.35600002 29242.29734466  1565.92509698
0.35700002 28906.72430944  1862.74940273
0.35800002 28580.07471970  1846.84451586
0.35900002 28262.39520460  1678.78635467
0.36000002 27952.79479143  2270.46586448
0.36100002 27651.12742591  1951.89317745
0.36200002 27359.26675446  1936.62578895
0.36300002 27074.24981644  1626.07952100
0.36400002 26798.22498172  1907.36375342
0.36500002 26529.57657674  2039.06335227
0.36600002 26270.07104477  1880.01772337
0.36700002 26018.04457333  1867.05496702
0.36800002 25774.99856092  1854.64010930
0.36900002 25539.60368095  1700.93768572
0.37000002 25311.59904005  1831.16771929
0.37100002 25091.50092039  1680.12698122
0.37200002 24879.82649259  1392.02635820
0.37300002 24675.63063946  1661.16353334
0.37400002 24479.01912848  1927.72284769
0.37500002 24290.26651621  1643.96531569
0.37600002 24109.16413252  1772.38528516
0.37700002 23935.29966638  1628.55786645
0.37800002 23768.97695420  2026.89960579
0.37900002 23610.64830399  1480.38771879
0.38000002 23458.92081176  1608.81286548
0.38100002 23313.65127357  1603.04673751
0.38200002 23176.78332405  1730.95814456
0.38300002 23046.16543045  1991.18878752
0.38400002 22922.84331887  1720.93254369
0.38500002 22805.77384163  2376.81786238
0.38600002 22696.54587660  1712.79491572
0.38700002 22593.02115859  1446.40528310
0.38800002 22496.24811340  1312.65613960
0.38900002 22405.96314540  1703.97357793
0.39000002 22322.59163962  1571.06407403
0.39100002 22244.83524719  1438.79601195
0.39200002 22173.86987588  1960.72453667
0.39300002 22108.44612956  1437.27015098
0.39400002 22050.25774146  1698.42118300
0.39500002 21996.78082087  1437.26972693
0.39600002 21949.32226643  1437.79042318
0.39700002 21907.02343199  1830.98910519
0.39800002 21871.48803726  1701.71120736
0.39900002 21840.36903905  1441.46442487
0.40000002 21815.11168527  1837.05064205
0.40100002 21794.76737378  1445.64698840
0.40200002 21780.07859190  1711.58755724
0.40300002 21770.16700841  1978.90827483
0.40400002 21765.23095568  1322.23784321
0.40500002 21764.61487451  1590.55813039
0.40600002 21769.75322801  2392.27829557
0.40700002 21778.72097400  1332.85778676
0.40800002 21792.17445847  1336.94996637
0.40900002 21809.63042505  1877.80926857
0.41000002 21832.09444882  1615.13842385
0.41100002 21858.31430716  1621.01266583
0.41200002 21887.71017850  1627.13245177
0.41300002 21922.40189545  1497.51934443
0.41400002 21959.99415203  1777.11261096
0.41500002 22001.23509806  1510.16484869
0.41600002 22045.14473069  1654.70864189
0.41700002 22093.80252055  1662.33778041
0.41800002 22146.04779435  1670.25500379
0.41900002 22199.66837998  1538.43709163
0.42000002 22256.90791127  1686.62856144
0.42100002 22317.72187096  2401.61016433
0.42200002 22381.03161689  1704.09182806
0.42300002 22446.51146700  1427.59819695
0.42400002 22514.50248865  1578.82956183
0.42500002 22585.54533228  1731.85969814
0.42600002 22657.42807233  1886.57083784
0.42700002 22732.84627551  1459.44880005
0.42800002 22809.47748328  2642.02190209
0.42900002 22888.92656540  1771.60300011
0.43000002 22969.97742379  1633.51002190
0.43100002 23051.23175655  1941.83585519
0.43200002 23135.36549937  2103.69888455
0.43300002 23220.17503619  2116.28685309
0.43400002 23306.91117024  1977.00883370
0.43500002 23394.11800302  1988.96800687
0.43600002 23483.26087570  1693.26060568
0.43700002 23572.64282875  2013.33951941
0.43800002 23662.30780013  2025.61195522
0.43900002 23753.94441674  2508.41664928
0.44000002 23845.35308696  2050.58123589
0.44100002 23937.73220396  2221.90040847
0.44200002 24030.32064233  2395.22232353
0.44300002 24123.35538918  2088.60020858
0.44400002 24216.26178563  1939.72266095
0.44500002 24308.81303674  1951.51160307
0.44600002 24401.34623051  2126.94344498
0.44700002 24494.66409013  1975.24980584
0.44800002 24586.70995533  2318.28099156
0.44900002 24678.93314614  1998.99367957
0.45000002 24771.14738466  2010.92183999
0.45100002 24861.68041336  2191.30861549
0.45200002 24952.20082956  1695.50212672
0.45300002 25041.63632087  1875.86906570
0.45400002 25130.47279914  2058.18581979
0.45500002 25218.69881291  2069.95089667
0.45600002 25305.36015687  1908.15077306
0.45700002 25391.36887876  2093.26454957
0.45800002 25475.73751655  2631.00691672
0.45900002 25558.91109072  2116.27793861
0.46000002 25641.21117000  2659.63475466
0.46100002 25721.25481947  2851.97286955
0.46200002 25800.47522641  2150.21170728
0.46300002 25877.93427830  2701.65646670
0.46400002 25953.28272732  2172.28986723
0.46500002 26027.99178448  2365.16372555
0.46600002 26099.86748284  1828.29580383
0.46700002 26169.97505574  2388.27203678
0.46800002 26238.82435902  2215.08165737
0.46900002 26304.95509346  2225.39930638
0.47000002 26369.29638578  2049.28996575
0.47100002 26431.67369287  2058.49884477
0.47200002 26492.08392218  2443.49747638
0.47300002 26550.10229702  2076.48359907
0.47400002 26605.25925430  2274.74977406
0.47500002 26658.70442904  2284.11790374
0.47600002 26710.43407677  2102.24481365
0.47700002 26758.50048828  1918.58457595
