# SAXS profile: number of points = 501, q_min = 0, q_max = 0.5, delta_q = 0.001
#    q    intensity    error
0.00000000 1700912.83420644 280.65061764
0.00100000 1700830.13345759 663.32376780
0.00200000 1700581.96570456 1147.89286320
0.00300000 1700168.56021370 1020.10117247
0.00400000 1699589.78236767 1402.16162373
0.00500000 1698846.14609718 2293.44238801
0.00600000 1697937.55321624 2495.96830484
0.00700000 1696864.59682824 2647.10888107
0.00800000 1695627.04135011 3433.64490370
0.00900000 1694226.16834508 2795.47329727
0.01000000 1692661.37221369 4189.33707712
0.01100000 1690933.90780277 3043.68116656
0.01200000 1689043.71223646 3622.99892159
0.01300000 1686991.88028264 4605.48803630
0.01400000 1684778.60401269 6065.20324332
0.01500000 1682405.07952186 4845.32684478
0.01600000 1679870.86842838 5568.77217778
0.01700000 1677178.30123606 4981.21977812
0.01800000 1674327.17448227 6680.56572679
0.01900000 1671318.19476955 5013.95481055
0.02000000 1668152.62398512 6305.61720390
0.02100000 1664832.44189670 8790.31569175
0.02200000 1661356.16836828 7451.18275366
0.02300000 1657726.98203747 8354.94436977
0.02400000 1653944.63677674 8683.20973901
0.02500000 1650011.58350358 9009.06365738
0.02600000 1645927.76744478 8665.81009196
0.02700000 1641695.28618032 8274.14462131
0.02800000 1637314.08143986 7122.31658089
0.02900000 1632786.84962509 9551.80350887
0.03000000 1628114.62773707 8327.80670367
0.03100000 1623297.99768489 8571.01382216
0.03200000 1618338.42098219 8811.85310811
0.03300000 1613239.58825369 8227.52227939
0.03400000 1607999.58710358 8441.99822181
0.03500000 1602621.88821469 16442.90133238
0.03600000 1597107.67616071 10636.73761479
0.03700000 1591458.76274102 9978.44690386
0.03800000 1585676.58884643 9276.20847405
0.03900000 1579763.24718178 12322.15389866
0.04000000 1573718.66366231 11614.04427601
0.04100000 1567546.99326508 15800.87442474
0.04200000 1561248.85541170 14098.07781842
0.04300000 1554825.23398393 13340.40112682
0.04400000 1548279.67619487 11495.97712964
0.04500000 1541613.52663954 14891.98735929
0.04600000 1534826.87935539 11902.58300271
0.04700000 1527923.94015465 12101.15816882
0.04800000 1520905.14942249 17885.84538940
0.04900000 1513774.43929114 15894.63235241
0.05000000 1506531.20360076 14982.45351748
0.05100000 1499180.23231479 22217.85207790
0.05200000 1491719.56711459 15416.92244458
0.05300000 1484155.50562882 15628.15820282
0.05400000 1476487.92915731 15835.33377867
0.05500000 1468719.39664341 14804.69220879
0.05600000 1460851.13925791 13739.30560585
0.05700000 1452888.01540374 18960.18948605
0.05800000 1444828.94409747 15344.08410277
0.05900000 1436677.10546623 14223.10400842
0.06000000 1428435.99435690 18298.26594258
0.06100000 1420106.73077930 14527.69253477
0.06200000 1411691.88101406 20010.73334875
0.06300000 1403193.93452303 18858.92736174
0.06400000 1394612.73214439 17676.71720661
0.06500000 1385953.75383932 16465.13136581
0.06600000 1377217.98104778 20761.56203570
0.06700000 1368407.42094677 18145.08325093
0.06800000 1359524.73994427 15478.18988879
0.06900000 1350572.71926086 21271.52132427
0.07000000 1341552.37665742 17145.04017656
0.07100000 1332466.49373197 23025.02209013
0.07200000 1323317.67609471 24633.55969451
0.07300000 1314108.69580345 21879.91081032
0.07400000 1304841.89340954 23487.15518208
0.07500000 1295518.43589693 16245.80194763
0.07600000 1286139.91067332 14854.91666468
0.07700000 1276711.82302916 28381.30515670
0.07800000 1267234.23345909 15016.72637072
0.07900000 1257708.97542327 21129.51177816
0.08000000 1248140.35799077 18197.88727319
0.08100000 1238529.59647189 19804.08917676
0.08200000 1228878.33711243 18359.44321798
0.08300000 1219189.64654731 16897.96929420
0.08400000 1209465.81737279 16962.75888486
0.08500000 1199708.78606151 17023.86847340
0.08600000 1189920.93291825 20187.00957477
0.08700000 1180105.86807445 17135.13800907
0.08800000 1170262.99731332 21872.21644699
0.08900000 1160397.47882832 18798.44003998
0.09000000 1150509.84569115 26697.58222340
0.09100000 1140602.30368557 17314.34378340
0.09200000 1130677.43820240 18927.54120485
0.09300000 1120739.35365681 17382.66819207
0.09400000 1110785.31022019 18994.42969746
0.09500000 1100821.51981263 17437.01369342
0.09600000 1090848.89993690 17459.03746420
0.09700000 1080871.68027571 19066.57733644
0.09800000 1070889.51328667 15902.71002002
0.09900000 1060905.60304294 15913.58479394
0.10000000 1050920.71668191 15921.44960647
0.10100000 1040936.89080517 25482.13628538
0.10200000 1030957.70289880 22299.61616259
0.10300000 1020983.98672360 20705.55622476
0.10400000 1011019.04862076 22292.97107086
0.10500000 1001065.37059056 17508.63415540
0.10600001 991120.09488601 20679.72175285
0.10700001 981191.46738814 27022.01428346
0.10800001 971277.00877303 23820.56976119
0.10900001 961381.29374376 20621.62972137
0.11000001 951504.38301915 20595.31333986
0.11100001 941648.47604937 15819.69514232
0.11200001 931815.65904525 17373.70378080
0.11300001 922007.57985381 23649.49553669
0.11400001 912226.29736286 17309.49480747
0.11500001 902473.80879640 18843.65401498
0.11600001 892750.79882543 18801.33270865
0.11700001 883060.53064507 18756.20655422
0.11800001 873401.58184035 17149.24086714
0.11900001 863777.33384913 26431.58766075
0.12000001 854188.89242654 15503.52912783
0.12100001 844641.04516249 17002.62504008
0.12200001 835130.91850097 21571.43264114
0.12300001 825663.13049709 23036.00242620
0.12400001 816235.89367280 16834.86610022
0.12500001 806852.39966305 18299.41328664
0.12600001 797515.74884835 18231.21087779
0.12700001 788224.62715467 18160.69626549
0.12800001 778981.13789459 21102.60002011
0.12900001 769787.25244679 18013.02255625
0.13000001 760644.03307507 19430.65274076
0.13100001 751551.00574792 17856.85273830
0.13200001 742512.22389006 17775.74347788
0.13300001 733526.95804590 14743.89255179
0.13400001 724595.99156972 19074.99037737
0.13500001 715722.27833664 17520.88219976
0.13600001 706905.46260051 14526.90794140
0.13700001 698147.19085157 24567.80080452
0.13800001 689446.31586861 14374.95636372
0.13900001 680807.67366415 14296.96182117
0.14000001 672228.68107540 17061.16473031
0.14100001 663713.15328550 16964.50899807
0.14200001 655259.55521309 14055.31812224
0.14300001 646871.03216769 15369.65644925
0.14400001 638543.57686750 15277.15579718
0.14500001 630284.56385440 23465.49541922
0.14600001 622090.38641486 17832.22176781
0.14700001 613964.42458884 16356.01304267
0.14800001 605903.47960228 14896.13774880
0.14900001 597911.37901654 20179.50999389
0.15000001 589987.20341302 13363.21078782
0.15100001 582132.70738643 13272.62635468
0.15200001 574348.55671828 15817.55999840
0.15300001 566634.77497020 15707.11670338
0.15400001 558989.29822080 16895.45233604
0.15500001 551416.98306925 15483.78961531
0.15600001 543914.18061542 15371.01546963
0.15700001 536486.11911935 19072.08243483
0.15800001 529127.01835301 13881.64798169
0.15900001 521842.67869209 13776.64736774
0.16000001 514628.87010978 18642.43169969
0.16100001 507490.20439617 13565.21380385
0.16200001 500424.21896962 12235.37273139
0.16300001 493431.43824284 15779.93813994
0.16400001 486512.88810577 13245.31400399
0.16500001 479667.23966558 14332.45779786
0.16600001 472896.59839608 18953.69655858
0.16700001 466198.20269437 14097.83431510
0.16800001 459574.32805481 11650.20976627
0.16900001 453026.16797873 21949.11887496
0.17000001 446550.33919314 11454.01674116
0.17100001 440149.21767383 14762.60545789
0.17200001 433821.61497880 13509.20572838
0.17300001 427568.50189217 12275.49226903
0.17400001 421389.44674714 12167.62084945
0.17500001 415283.34409310 14252.52504239
0.17600001 409249.73592122 11952.13910207
0.17700001 403292.44650902 15075.07236251
0.17800001 397406.34537135 11737.39696492
0.17900001 391592.78852230 11630.30636845
0.18000001 385854.25954169 13618.72673380
0.18100001 380187.89009679 11417.04287891
0.18200001 374591.72344873 15423.81494159
0.18300001 369068.76304426 10186.29834122
0.18400001 363617.03858143 11099.41062704
0.18500001 358237.20361026 13992.74583406
0.18600001 352928.67007056 10889.61462949
0.18700001 347689.69844912 13726.78994329
0.18800001 342519.86456537 14565.65792881
0.18900001 337423.32314223 12501.53471309
0.19000001 332392.19276860 11427.64412733
0.19100001 327432.83452095 10373.07268775
0.19200001 322540.09832977 16807.56531814
0.19300001 317717.62075096 10170.14152080
0.19400001 312960.81821048 10069.51480175
0.19500001 308271.93471978 11782.15390176
0.19600001 303648.36622423 10767.37157514
0.19700001 299092.86505180 10659.67021420
0.19800001 294601.56969603 10552.62872522
0.19900001 290175.70230181 9575.79862851
0.20000001 285812.67654196 9478.97786550
0.20100001 281515.45731272 15353.85376749
0.20200001 277279.84590761 10976.12321902
0.20300001 273107.70600717 13371.35391810
0.20400001 268997.82789609 9926.02031853
0.20500001 264948.59219153 10642.98545139
0.20600001 260960.22224747 10533.65986892
0.20700001 257032.16498421 13632.98667518
0.20800001 253163.38002032 8730.33957269
0.20900001 249355.75582072 10211.11868355
0.21000001 245603.50458948 12437.36206035
0.21100001 241910.43194515 9231.30251942
0.21200001 238273.10011941 9135.39109045
0.21300001 234692.19502471 8286.98179809
0.21400001 231167.42965360 9691.69494642
0.21500001 227698.42203045 11066.14383386
0.21600001 224282.19494567 8760.46294876
0.21700001 220920.29889200 10836.14117298
0.21800001 217611.47961258 7863.39118759
0.21900001 214353.72822326 9903.14271215
0.22000001 211147.33319258 7699.48786892
0.22100001 207993.21839735 9004.02685016
0.22200001 204889.10575386 8224.24909384
0.22300001 201833.68184522 6781.61203067
0.22400001 198826.31312909 7381.42722396
0.22500001 195869.53296193 9295.96847395
0.22600001 192957.94700337 7227.24024677
0.22700001 190094.31407678 8451.59360352
0.22800001 187275.83632559 14152.43562039
0.22900001 184502.63134705 8911.47751549
0.23000001 181774.41352787 9447.72558991
0.23100001 179091.20076965 7478.84889784
0.23200001 176449.67171334 6166.91631804
0.23300001 173851.84654606 10373.74017402
0.23400001 171294.74202514 6038.13994196
0.23500001 168779.18880901 5974.78356642
0.23600001 166304.47281632 7685.76157472
0.23700001 163869.60183915 7605.18858106
0.23800001 161473.77879498 6367.71876796
0.23900001 159116.98054264 6873.85388457
0.24000001 156797.37375590 7368.69292820
0.24100001 154516.32226207 8413.41414513
0.24200001 152271.87242468 6660.37201490
0.24300001 150062.82951549 6041.52980207
0.24400001 147889.28222212 5978.42451663
0.24500001 145750.00047672 7529.44538080
0.24600001 143645.25049024 6386.46813891
0.24700001 141574.96903668 7373.22473623
0.24800001 139537.14456131 6775.22637469
0.24900001 137530.36314485 8251.82217906
0.25000001 135556.91007798 7145.20506824
0.25100001 133613.81226748 5050.60234265
0.25200001 131703.32092194 5997.76951854
0.25300001 129821.01783135 8408.50772275
0.25400001 127969.48104569 6363.28274605
0.25500001 126145.08150325 5328.36849479
0.25600001 124350.94226759 5752.47486146
0.25700001 122583.70602380 6641.58550661
0.25800001 120843.76149567 7511.64856998
0.25900001 119131.85660288 6969.21394102
0.26000001 117445.24871175 4597.98170462
0.26100001 115784.31961408 5005.35637375
0.26200001 114149.76112670 5854.17077638
0.26300001 112538.97401726 5347.85229835
0.26400001 110953.31394484 5292.47332560
0.26500001 109391.68036115 5237.67390353
0.26600001 107853.05421815 5183.41803100
0.26700001 106337.85688807 5557.21666394
0.26800001 104845.62092313 6345.78150666
0.26900001 103374.75699938 5861.34899923
0.27000001 101926.08962165 4971.95488703
0.27100001 100498.76718796 5330.45486390
0.27200001 99092.95791457  6898.35659168
0.27300001 97707.54889669  4818.93653964
0.27400001 96340.73619714  4371.46111182
0.27500001 94996.08331346  4326.12183883
0.27600001 93668.68880676  4281.12762452
0.27700001 92362.19515952  4236.65409247
0.27800001 91073.19938422  3811.41357461
0.27900001 89803.10163022  4903.24958107
0.28000001 88550.56464036  3732.40647624
0.28100001 87315.95568378  5170.85114032
0.28200001 86099.28762446  3654.91493264
0.28300001 84899.60442868  4701.74031579
0.28400001 83715.92361147  3578.85590378
0.28500001 82549.58815769  4249.65299950
0.28600001 81399.06374796  3854.65284623
0.28700001 80265.26849680  3814.20573950
0.28800001 79145.52161003  5146.43778629
0.28900001 78043.12445177  4413.33889665
0.29000001 76954.80188453  4366.80043964
0.29100001 75882.11841145  4320.72802687
0.29200001 74823.68969185  3617.35144938
0.29300001 73780.15732261  4555.18712872
0.29400001 72750.02605585  3863.02656643
0.29500001 71735.33242248  3822.05869239
0.29600001 70733.11188623  4411.62439718
0.29700001 69745.02909045  5299.92501147
0.29800001 68770.69704359  3392.80249926
0.29900001 67809.96990046  3356.59366897
0.30000001 66861.14637263  4830.04944261
0.30100001 65926.39599068  2986.46587976
0.30200001 65003.43095889  3545.28729233
0.30300001 64093.81070565  4676.28465047
0.30400001 63196.37155508  3469.48096262
0.30500001 62311.74043155  3718.14172758
0.30600001 61437.79232125  4243.81570550
0.30700001 60576.95936707  3918.11791736
0.30800001 59727.67082986  3045.21544143
0.30900001 58890.35565559  6024.48366879
0.31000001 58064.65869547  3792.20303894
0.31100001 57249.85586306  4018.94007186
0.31200001 56447.20843276  3180.23587367
0.31300001 55655.06106185  3669.89490017
0.31400001 54875.63330087  2852.16117585
0.31500001 54105.38114946  2564.59518791
0.31600002 53347.80627196  2536.68830834
0.31700002 52600.20369621  3261.73878564
0.31800002 51863.17302957  2481.65294697
0.31900002 51137.53416449  2700.06193173
0.32000002 50422.77843562  3641.78534495
0.32100002 49717.87228089  2401.37334487
0.32200002 49024.50516160  3087.80860381
0.32300002 48340.00279654  2584.25667187
0.32400002 47667.21540032  2788.53223296
0.32500002 47003.85287735  2988.03506890
0.32600002 46351.00262787  3182.92350117
0.32700002 45708.54815642  2698.63281094
0.32800002 45077.00505680  2447.00533538
0.32900002 44453.64816228  2200.45568823
0.33000002 43841.48199798  3700.44046327
0.33100002 43238.20159472  2799.24130380
0.33200002 42646.45329690  2343.20948736
0.33300002 42063.63770809  2739.60485366
0.33400002 41491.07369222  2918.89717247
0.33500002 40928.18423582  2475.33669980
0.33600002 40374.49124001  2040.93062883
0.33700002 39830.49406887  2827.16860289
0.33800002 39296.84098381  2597.71779626
0.33900002 38772.10292978  1977.37734306
0.34000002 38256.81498069  2543.88703261
0.34100002 37751.43157080  2323.97823756
0.34200002 37256.01426413  2300.18642960
0.34300002 36769.12126088  2087.01542161
0.34400002 36292.33792995  2065.94143450
0.34500002 35824.60113940  2603.01564207
0.34600002 35366.88841497  2209.01595502
0.34700002 34917.03677338  1822.66940589
0.34800002 34477.49863010  1985.38685265
0.34900002 34046.54582438  2144.93248852
0.35000002 33625.17258694  1947.40196261
0.35100002 33213.51385867  1929.04097628
0.35200002 32809.21308126  2084.69749792
0.35300002 32415.41797681  2409.76228653
0.35400002 32029.71176636  2387.81512528
0.35500002 31653.43458746  1859.32283573
0.35600002 31285.78934263  2345.49573811
0.35700002 30926.68189122  2158.99176509
0.35800002 30576.96957093  2140.54085620
0.35900002 30236.30501961  1632.76054840
0.36000002 29903.98314777  1619.30076415
0.36100002 29579.76506937  2088.03571515
0.36200002 29265.70021574  2071.57268789
0.36300002 28958.57027739  1581.13801204
0.36400002 28660.62569511  1883.00319736
0.36500002 28370.45906287  2180.55358686
0.36600002 28089.37266463  1546.32003843
0.36700002 27816.12643832  1688.99527734
0.36800002 27551.96990563  2287.50240977
0.36900002 27295.57044735  1817.88507790
0.37000002 27046.76894368  1956.69859192
0.37100002 26806.13406100  2094.09529204
0.37200002 26574.12005149  1784.18650477
0.37300002 26349.70000096  1773.86188809
0.37400002 26132.99352432  1616.97905091
0.37500002 25924.27334248  1462.12908578
0.37600002 25723.48516445  1745.59578595
0.37700002 25530.12273575  1447.55802769
0.37800002 25344.16729486  1873.06077266
0.37900002 25166.62673708  1721.39735036
0.38000002 24995.63679145  1999.90099442
0.38100002 24831.34017139  2134.25378884
0.38200002 24675.52405451  1701.13070891
0.38300002 24526.31230115  1412.71565547
0.38400002 24384.31119733  1408.19403836
0.38500002 24248.68982822  1544.39912832
0.38600002 24121.08403243  1400.22899442
0.38700002 23999.32347758  1955.46496959
0.38800002 23884.22545218  2090.46693174
0.38900002 23775.85514919  1669.06511055
0.39000002 23674.59936198  1527.36685020
0.39100002 23578.84874184  1386.43637170
0.39200002 23490.37817741  1661.70943100
0.39300002 23407.23136736  1936.71441509
0.39400002 23331.54570404  1520.63356330
0.39500002 23260.55045074  1381.67676223
0.39600002 23195.69686709  1519.43419527
0.39700002 23136.16646284  2071.84380491
0.39800002 23083.52739811  1519.70409826
0.39900002 23035.30601879  1382.11842661
0.40000002 22993.06165993  2212.85235899
0.40100002 22955.68401550  1937.91893641
0.40200002 22924.09324328  2355.79455376
0.40300002 22897.46753240  1942.62123749
0.40400002 22875.88250643  1528.68092092
0.40500002 22858.70818826  1531.30493409
0.40600002 22847.25658022  1534.30758834
0.40700002 22839.83912148  1817.13768660
0.40800002 22836.80220745  1541.14166999
0.40900002 22838.07434860  2106.81245848
0.41000002 22844.26284683  2112.52330686
0.41100002 22854.43532026  1553.64458669
0.41200002 22867.59989189  1558.31266847
0.41300002 22886.32294877  1847.61293920
0.41400002 22907.85463444  1568.61542042
0.41500002 22933.17594052  1860.33932044
0.41600002 22961.10766917  1723.46082331
0.41700002 22994.00029035  1730.06866382
0.41800002 23030.61679070  1881.71663405
0.41900002 23068.48198641  1598.64587741
0.42000002 23110.04807060  1459.39960481
0.42100002 23155.53294085  1905.46889599
0.42200002 23203.14193422  1766.68731059
0.42300002 23253.24029807  2218.35922955
0.42400002 23305.79573947  1931.46791343
0.42500002 23361.56424898  1642.08442887
0.42600002 23418.27691314  1949.92291957
0.42700002 23478.32288532  1658.03924073
0.42800002 23539.77422527  1514.78454318
0.42900002 23604.20791161  1979.21292718
0.43000002 23670.23928106  1836.33725044
0.43100002 23736.54255693  1691.94083364
0.43200002 23805.65511158  1700.79511004
0.43300002 23875.65667629  2020.59692027
0.43400002 23947.56207159  1718.83634914
0.43500002 24020.03560397  2199.27456412
0.43600002 24094.43450294  1737.32928216
0.43700002 24169.15238977  2540.66141961
0.43800002 24244.34004246  1596.48986745
0.43900002 24321.41610370  1765.73489281
0.44000002 24398.35097766  2420.92649049
0.44100002 24476.25552593  3245.55163655
0.44200002 24554.46771531  1957.97334841
0.44300002 24633.12506063  1968.67944814
0.44400002 24711.78480301  1649.51171377
0.44500002 24790.23878533  1824.31375867
0.44600002 24868.57078078  1834.18152486
0.44700002 24947.92756117  1844.15089272
0.44800002 25025.84804985  3202.43279747
0.44900002 25104.19220683  1863.98635970
0.45000002 25182.59435973  2555.40388376
0.45100002 25259.42584882  1712.58915371
0.45200002 25336.24952273  1893.75806033
0.45300002 25411.93389746  1903.60805848
0.45400002 25487.18271819  2261.35039384
0.45500002 25561.94968572  1923.28118550
0.45600002 25635.11353156  2284.47325063
0.45700002 25707.75254154  2649.18402496
0.45800002 25778.82766483  1952.35960573
0.45900002 25848.70385831  2140.27278090
0.46000002 25917.81305928  1792.21685799
0.46100002 25984.72160541  2340.96368038
0.46200002 26050.87903999  2532.92708911
0.46300002 26115.45147699  1999.39905984
0.46400002 26177.93700052  2008.50231156
0.46500002 26239.89776671  2017.58583491
0.46600002 26299.03637596  2026.47234400
0.46700002 26356.47690963  2035.24724342
0.46800002 26412.89693415  1858.14738739
0.46900002 26466.50309111  2985.42169018
0.47000002 26518.37346067  2060.87549117
0.47100002 26568.52515816  2257.26200442
0.47200002 26616.71197888  3399.22044794
0.47300002 26662.74678726  2274.86566371
0.47400002 26705.82107891  2473.62679468
0.47500002 26747.28892907  2673.65912808
0.47600002 26787.14227180  2108.28213243
0.47700002 26823.56193368  2692.54927452
