# SAXS profile: number of points = 501, q_min = 0, q_max = 0.5, delta_q = 0.001
#    q    intensity    error
0.00000000 1664650.74656090 424.48594037
0.00100000 1664569.00568799 848.93021306
0.00200000 1664323.70727951 973.62939959
0.00300000 1663915.08598132 1198.01890458
0.00400000 1663343.02584836 1621.75951183
0.00500000 1662607.99469074 1945.25143078
0.00600000 1661709.94076142 1744.79550883
0.00700000 1660649.40706094 2391.33524555
0.00800000 1659426.20749010 2688.27056963
0.00900000 1658041.57144336 2735.76870983
0.01000000 1656494.96019156 3006.53848257
0.01100000 1654787.52732874 3574.34121465
0.01200000 1652919.27521189 4834.78909197
0.01300000 1650891.30409549 4160.24626981
0.01400000 1648703.75410474 5564.37541678
0.01500000 1646357.85679944 4741.51083872
0.01600000 1643853.21290801 4611.00846834
0.01700000 1641192.01876455 4431.21864944
0.01800000 1638374.13189328 5136.30313461
0.01900000 1635400.24855364 5396.82106375
0.02000000 1632271.73396608 6169.98743350
0.02100000 1628990.37627254 7525.93587959
0.02200000 1625554.70447869 7290.61318082
0.02300000 1621968.21361312 6422.99441827
0.02400000 1618230.20355821 9709.38166407
0.02500000 1614343.29074981 7555.12694576
0.02600000 1610307.53096744 7826.09495845
0.02700000 1606124.98106313 9444.01532120
0.02800000 1601795.47568902 8361.37276655
0.02900000 1597321.62380132 10063.12669199
0.03000000 1592704.74238760 8887.29287103
0.03100000 1587945.13262727 8384.35068606
0.03200000 1583044.26032835 8619.67639449
0.03300000 1578006.02537729 10462.18043056
0.03400000 1572828.56195533 9908.82039752
0.03500000 1567515.00760989 11850.41400476
0.03600000 1562066.61072719 9536.41709920
0.03700000 1556485.16407058 17743.93169102
0.03800000 1550772.33648833 11793.62416480
0.03900000 1544930.01762599 10196.53858853
0.04000000 1538958.13533602 11357.51156508
0.04100000 1532860.86503142 11588.42867695
0.04200000 1526638.77350325 12800.86670969
0.04300000 1520292.87814108 12040.72015378
0.04400000 1513826.72943580 13283.83016773
0.04500000 1507241.62443860 11439.96446105
0.04600000 1500537.63471853 13752.42806150
0.04700000 1493718.95254798 11830.25465438
0.04800000 1486786.23288078 12020.66725214
0.04900000 1479742.89079931 13317.68663710
0.05000000 1472588.61201457 14644.89442844
0.05100000 1465328.37364793 12572.51803158
0.05200000 1457959.80973398 13908.93723304
0.05300000 1450489.48268794 14098.75842898
0.05400000 1442917.21517523 20236.91488656
0.05500000 1435245.51089145 16878.48799545
0.05600000 1427475.31770663 12204.91453592
0.05700000 1419611.89155567 16055.81124296
0.05800000 1411654.32251653 12493.14133761
0.05900000 1403604.98350893 16422.17907407
0.06000000 1395468.03019485 14045.38638009
0.06100000 1387244.25010587 14191.50934177
0.06200000 1378936.15468418 15637.13672505
0.06300000 1370546.94713794 13157.25130770
0.06400000 1362075.33384332 13280.23512605
0.06500000 1353527.21388502 21439.87207085
0.06600000 1344904.01956564 18922.80044066
0.06700000 1336206.91226622 13629.31114295
0.06800000 1327439.36875359 20608.49716456
0.06900000 1318603.80963443 19383.47690914
0.07000000 1309700.97563126 13948.31604365
0.07100000 1300734.18067451 18262.30875204
0.07200000 1291705.42951673 15558.59262740
0.07300000 1282617.76030412 21355.58670969
0.07400000 1273473.47303144 17191.89269161
0.07500000 1264273.73687306 14412.72127591
0.07600000 1255020.46642495 20293.68189347
0.07700000 1245718.35164333 20404.86755667
0.07800000 1236367.95676985 20511.34536472
0.07900000 1226971.05686610 19140.74938488
0.08000000 1217531.99783595 16272.31591443
0.08100000 1208051.69416664 14859.03653541
0.08200000 1198531.97587691 20890.41331982
0.08300000 1188976.08973331 20973.53920723
0.08400000 1179385.74811752 18044.60279319
0.08500000 1169763.80278453 21125.93527005
0.08600000 1160111.45857460 18167.34629426
0.08700000 1150432.90484259 16704.28656271
0.08800000 1140727.59651131 21320.19978007
0.08900000 1131000.86479289 22902.76858779
0.09000000 1121252.67646080 18366.11970319
0.09100000 1111485.67385740 15338.50301985
0.09200000 1101701.78024428 18442.48866784
0.09300000 1091905.92339187 18475.04909197
0.09400000 1082095.05105708 24671.76832361
0.09500000 1072274.99171193 16984.83666705
0.09600000 1062446.90534032 17004.46351931
0.09700000 1052614.88613661 20115.47141975
0.09800000 1042778.82076508 17033.79283809
0.09900000 1032941.89565858 21691.78082883
0.10000000 1023104.51541808 18600.04096501
0.10100000 1013269.18154421 18603.62304811
0.10200000 1003439.01771525 17053.44690820
0.10300000 993614.95482850 21700.55163426
0.10400000 983800.38692872 17044.34250539
0.10500000 973997.77757624 17035.22193130
0.10600001 964204.07170104 17023.02368688
0.10700001 954427.33221771 18554.06821142
0.10800001 944665.68876620 16989.81321203
0.10900001 934923.43188730 18511.48482262
0.11000001 925199.93932132 21566.41160070
0.11100001 915498.29496927 23070.55811923
0.11200001 905820.33258315 15353.65536009
0.11300001 896167.32842963 16856.90824140
0.11400001 886541.91490179 16822.13362732
0.11500001 876945.39330472 18310.62067441
0.11600001 867379.00143594 18267.00263046
0.11700001 857845.42733136 18220.63773462
0.11800001 848343.97558274 18171.52881283
0.11900001 838877.55668905 21139.71542428
0.12000001 829447.04439993 22581.69684750
0.12100001 820057.29122104 16507.75404993
0.12200001 810705.87674444 23932.03860896
0.12300001 801396.60436139 14905.97754341
0.12400001 792128.72291393 19308.13853078
0.12500001 782904.52234511 16276.58578652
0.12600001 773727.44383874 19161.36104962
0.12700001 764596.09624394 19084.31946162
0.12800001 755512.49720489 23390.66801585
0.12900001 746478.73773029 14556.33607181
0.13000001 737495.85515960 21737.69135543
0.13100001 728563.60575092 20195.78410340
0.13200001 719684.77174504 17229.25424777
0.13300001 710860.09643357 20003.60405667
0.13400001 702089.94309654 17060.78642159
0.13500001 693376.79335322 18388.35342671
0.13600001 684720.66763251 15478.11142164
0.13700001 676123.11264671 20993.62363760
0.13800001 667583.27859267 20878.66802253
0.13900001 659104.82496112 16609.44237229
0.14000001 650686.72756707 17890.63241819
0.14100001 642331.65379850 16417.99784541
0.14200001 634038.69086834 14960.14361664
0.14300001 625810.36095927 13517.50443431
0.14400001 617643.58240421 18807.24797134
0.14500001 609544.48271102 21358.43968172
0.14600001 601510.57284898 15915.97050841
0.14700001 593544.29111415 18447.35743811
0.14800001 585642.66616055 17015.84846808
0.14900001 577810.24791300 13000.73119143
0.15000001 570045.52480530 12911.53174604
0.15100001 562349.70564185 12821.57389362
0.15200001 554724.42044122 15277.11125983
0.15300001 547168.91897507 13903.56288725
0.15400001 539681.88503067 16311.88574483
0.15500001 532267.40765585 13700.56371963
0.15600001 524922.30732961 16070.49719734
0.15700001 517651.58652993 13495.17749776
0.15800001 510449.35825153 14609.06132269
0.15900001 503321.84250520 14495.66974835
0.16000001 496263.94569560 14381.72982511
0.16100001 489281.46698676 16645.35629262
0.16200001 482370.99944583 12973.36864252
0.16300001 475533.30339921 15207.55576062
0.16400001 468769.26020907 12762.24371169
0.16500001 462077.72436313 14957.45664380
0.16600001 455460.29694226 11409.28097707
0.16700001 448915.49559388 16969.00653464
0.16800001 442444.69489954 14580.76560887
0.16900001 436048.43981322 14455.00646235
0.17000001 429724.25871550 12124.67053218
0.17100001 423474.21072105 13110.76218303
0.17200001 417297.60234045 12994.64795053
0.17300001 411194.09634043 12878.59970557
0.17400001 405165.03742028 13826.25755493
0.17500001 399207.72121745 10539.08433788
0.17600001 393322.50778630 14619.79830490
0.17700001 387512.88370531 12415.91338033
0.17800001 381773.95030257 11275.69415476
0.17900001 376107.36564985 11170.38928742
0.18000001 370514.26426618 12071.35529998
0.18100001 364993.19667197 9964.31473982
0.18200001 359541.77490952 13817.19106247
0.18300001 354162.55768914 9774.88705398
0.18400001 348854.27093802 12584.91841861
0.18500001 343617.02969084 10545.60713941
0.18600001 338450.35276343 14240.29926528
0.18700001 333352.72310761 13160.76613007
0.18800001 328323.36596714 12100.35822441
0.18900001 323366.60111473 11059.13828064
0.19000001 318474.44057526 9124.29315359
0.19100001 313653.24282139 9936.53520208
0.19200001 308898.22045496 8942.60390472
0.19300001 304212.37288291 11508.35460996
0.19400001 299591.50998704 10515.66249745
0.19500001 295037.59882522 11276.33755996
0.19600001 290548.69878075 9444.28590017
0.19700001 286126.73243745 15296.33583897
0.19800001 281768.11211870 11775.08996192
0.19900001 277474.31487252 12486.34475937
0.20000001 273242.55989177 9885.91628410
0.20100001 269075.59331048 8968.28994890
0.20200001 264969.54922846 13716.14936408
0.20300001 260926.09244343 11976.50820922
0.20400001 256944.22859262 9481.24248321
0.20500001 253022.08468310 9382.05934351
0.20600001 249159.78504042 9283.69402943
0.20700001 245357.15606008 12248.22980948
0.20800001 241612.62696818 8332.01183485
0.20900001 237928.73026694 10492.65750077
0.21000001 234299.10061913 9640.23695069
0.21100001 230727.84790716 8804.57509236
0.21200001 227211.57980685 9437.23341342
0.21300001 223750.72356576 7182.39856601
0.21400001 220344.98901905 10659.18934773
0.21500001 216994.28984200 7030.61532327
0.21600001 213695.41712019 9738.10061857
0.21700001 210449.89115866 8946.22529613
0.21800001 207256.51696300 11574.24073704
0.21900001 204113.81258266 7409.33174708
0.22000001 201021.01627784 7330.23170516
0.22100001 197979.94078640 7911.27880790
0.22200001 194987.37127954 9131.25902879
0.22300001 192043.07837807 10324.23638179
0.22400001 189145.92107083 6383.67513800
0.22500001 186298.21119557 8210.16255563
0.22600001 183494.86391630 8122.40053535
0.22700001 180738.48182075 8035.63328175
0.22800001 178026.52812554 6726.73268333
0.22900001 175358.52880880 7259.84343601
0.23000001 172734.85525658 6583.78931946
0.23100001 170155.31538728 7105.68630662
0.23200001 167616.32751357 5858.19092365
0.23300001 165120.12592657 6375.28836354
0.23400001 162664.04630013 8027.47106457
0.23500001 160248.21345408 7941.90183441
0.23600001 157872.35467400 5612.36247411
0.23700001 155535.72163899 7773.67573519
0.23800001 153236.98975836 8240.31951401
0.23900001 150976.15900331 6522.17037744
0.24000001 148751.80512634 6990.59141257
0.24100001 146564.94622495 5852.33857958
0.24200001 144413.89884234 7369.44160651
0.24300001 142297.22557218 6770.50231299
0.24400001 140215.31139982 6698.78681900
0.24500001 138166.78422261 5608.19003689
0.24600001 136151.74385813 5044.42234857
0.24700001 134170.01509762 5989.34975729
0.24800001 132220.03055046 4938.41837468
0.24900001 130300.39433950 5374.89152078
0.25000001 128412.91324920 5318.22105381
0.25100001 126554.93444626 5262.15442322
0.25200001 124728.50979099 5680.13660461
0.25300001 122929.68825139 5620.34561275
0.25400001 121160.56071743 4634.39166670
0.25500001 119417.99636001 5044.21640490
0.25600001 117704.31849842 4991.25186207
0.25700001 116016.85021714 5387.82277900
0.25800001 114355.93438379 6664.09239152
0.25900001 112721.78926357 4835.76498821
0.26000001 111112.43454090 4350.05201810
0.26100001 109527.56557574 5595.76359003
0.26200001 107968.70420957 4685.30214087
0.26300001 106432.25762580 4214.71760141
0.26400001 104920.37574002 5421.76067291
0.26500001 103431.58810619 4539.61261679
0.26600001 101965.02426050 5308.80923933
0.26700001 100520.98072152 6061.41542434
0.26800001 99098.93057250  4798.37044538
0.26900001 97697.60530506  3956.75320209
0.27000001 96317.76059337  5089.91229942
0.27100001 94958.15023367  6198.86834060
0.27200001 93619.41695979  4217.08683652
0.27300001 92300.11880198  4552.24207474
0.27400001 90998.91393930  4504.44645317
0.27500001 89718.90138456  4828.67150104
0.27600001 88455.00847363  6248.01981923
0.27700001 87211.52660327  5091.40916406
0.27800001 85984.87596974  3598.46722964
0.27900001 84776.24883815  4272.72314366
0.28000001 83584.49416495  3523.08659579
0.28100001 82409.87959469  4531.71949339
0.28200001 81252.48868086  4483.91880008
0.28300001 80111.05992476  5119.09697148
0.28400001 78985.21511867  5402.58896983
0.28500001 77875.77475935  3674.95798483
0.28600001 76781.54487888  4297.07936254
0.28700001 75703.21519084  3270.37905104
0.28800001 74638.32163035  4206.24281457
0.28900001 73589.88968682  4801.74052935
0.29000001 72555.09961085  4433.84234709
0.29100001 71535.11544534  3759.88584578
0.29200001 70528.69374819  3099.73623696
0.29300001 69536.45011099  4293.18063307
0.29400001 68556.97518758  3337.01092522
0.29500001 67592.32804252  4201.53931001
0.29600001 66639.38639757  2968.78480455
0.29700001 65700.10272717  3524.15367711
0.29800001 64773.72488860  3195.61186865
0.29900001 63860.33318898  4597.94420727
0.30000001 62958.33805262  4548.11055623
0.30100001 62069.79622531  3655.29047275
0.30200001 61192.38887220  3059.31362650
0.30300001 60327.67654790  2750.94218082
0.30400001 59474.53076889  2993.05590264
0.30500001 58633.66252240  2691.28523719
0.30600001 57802.89093842  2661.82325373
0.30700001 56984.67763711  3159.23067777
0.30800001 56177.37954977  2864.20383195
0.30900001 55381.44719422  3090.28489974
0.31000001 54596.44623216  3311.00163851
0.31100001 53822.09654770  3274.53650900
0.31200001 53059.27023427  2989.35942653
0.31300001 52306.48585761  3202.72628070
0.31400001 51565.73948751  2680.12943676
0.31500001 50833.90047253  2650.47969613
0.31600002 50113.99105140  2382.92038732
0.31700002 49403.52858984  3534.82263797
0.31800002 48703.24796842  2330.45052563
0.31900002 48013.84850184  4148.39670698
0.32000002 47334.79131527  2735.00437170
0.32100002 46665.15656436  2479.31988566
0.32200002 46006.62515656  2451.92320382
0.32300002 45356.32646119  3086.04459855
0.32400002 44717.20498138  2615.95661528
0.32500002 44087.53172577  2587.05648417
0.32600002 43467.76704804  2345.30348213
0.32700002 42857.86017324  3584.63159463
0.32800002 42258.44322274  2502.54512615
0.32900002 41666.71591144  2062.50253528
0.33000002 41086.06171663  2039.92306083
0.33100002 40513.77470534  2421.10329104
0.33200002 39952.50948846  2394.75353214
0.33300002 39399.87497849  2368.72059588
0.33400002 38857.21794756  2538.34788263
0.33500002 38323.67968082  2510.96761160
0.33600002 37798.94735692  1910.73687938
0.33700002 37283.61411289  2268.33519005
0.33800002 36778.50064662  2244.22421574
0.33900002 36281.60907214  2220.43458037
0.34000002 35794.12464070  2013.95651829
0.34100002 35315.76224838  2717.54803371
0.34200002 34847.44154484  2151.48114287
0.34300002 34387.34560858  1774.38711744
0.34400002 33937.07228006  1931.86793103
0.34500002 33495.30409950  1912.24700160
0.34600002 33063.20023951  2581.40948096
0.34700002 32639.02576219  2385.26011567
0.34800002 32224.52863222  1855.64956917
0.34900002 31818.56153634  2004.56947173
0.35000002 31421.73568817  1985.22535480
0.35100002 31034.42038722  2130.20271627
0.35200002 30654.31830892  1623.14623133
0.35300002 30284.25398536  2733.75973674
0.35400002 29922.37820069  2708.72341491
0.35500002 29569.50114575  1736.91257957
0.35600002 29224.87806415  1877.99075335
0.35700002 28888.70409960  2016.72052871
0.35800002 28561.56232848  1999.45226551
0.35900002 28243.34452715  2745.25321807
0.36000002 27933.18435825  1663.84020511
0.36100002 27631.05115538  2400.58583809
0.36200002 27338.62294096  1637.44689861
0.36300002 27053.20014954  2067.94671738
0.36400002 26776.62146378  1759.22411350
0.36500002 26507.59144985  1600.79352348
0.36600002 26247.52579426  1589.41899976
0.36700002 25995.07772714  2582.87104532
0.36800002 25751.57117542  1567.88448528
0.36900002 25515.74960606  1557.73658724
0.37000002 25287.37879147  1407.24269641
0.37100002 25066.81890004  2098.09284132
0.37200002 24854.79284283  1946.87601560
0.37300002 24650.20325959  1382.87646837
0.37400002 24453.19443000  1513.04147703
0.37500002 24264.09975394  1779.04387823
0.37600002 24082.63230661  2042.80938218
0.37700002 23908.41237887  1626.72845532
0.37800002 23741.76126916  2159.55070735
0.37900002 23583.16926690  1478.66478308
0.38000002 23431.14665921  1472.99910451
0.38100002 23285.60713403  1867.97149278
0.38200002 23148.45947075  1329.87905960
0.38300002 23017.57788272  1590.97505862
0.38400002 22893.97164308  1586.55231003
0.38500002 22776.73166349  1582.52739095
0.38600002 22667.27637683  1579.00254721
0.38700002 22563.53191351  1575.83714350
0.38800002 22466.48985393  1704.19566861
0.38900002 22376.08373506  1309.00096052
0.39000002 22292.55747651  1699.69612532
0.39100002 22214.64243283  1436.84314063
0.39200002 22143.57293370  1696.97279217
0.39300002 22078.01013219  1435.29150669
0.39400002 22019.76494712  1957.00670239
0.39500002 21966.09218642  1435.26453146
0.39600002 21918.61901210  1305.25382401
0.39700002 21876.21023861  1697.81275706
0.39800002 21840.61214853  1437.87676892
0.39900002 21809.54966293  1308.57304177
0.40000002 21784.21696290  1441.35278364
0.40100002 21763.87824262  1312.36192021
0.40200002 21749.22370143  1446.21469855
0.40300002 21739.31113924  1580.88278095
0.40400002 21734.38138437  1716.47285116
0.40500002 21733.80283623  1455.94752098
0.40600002 21739.01173280  1858.03342084
0.40700002 21748.09100814  1464.08155604
0.40800002 21761.63327986  1869.10677097
0.40900002 21779.18183412  1473.36172089
0.41000002 21801.77377767  1881.71118391
0.41100002 21828.13799614  1888.57058891
0.41200002 21857.70258443  1624.90168712
0.41300002 21892.58267380  1767.38828300
0.41400002 21930.29323608  1638.19298236
0.41500002 21971.72549754  1782.34645681
0.41600002 22015.78699924  1927.92255888
0.41700002 22064.70618371  1521.80285760
0.41800002 22117.12034765  1946.08551160
0.41900002 22171.04161011  1676.13082515
0.42000002 22228.53301597  2105.59788971
0.42100002 22289.60353464  2398.58435002
0.42200002 22353.15782049  1701.96951710
0.42300002 22418.97771280  2138.77057515
0.42400002 22487.25191216  2006.98732826
0.42500002 22558.54705350  1441.49122503
0.42600002 22630.79225535  2464.15393149
0.42700002 22706.51382554  1895.08573368
0.42800002 22783.51683014  1466.11937749
0.42900002 22863.33505427  1769.62221706
0.43000002 22944.74966856  1631.71595000
0.43100002 23026.36839729  1492.10874285
0.43200002 23110.92017110  1801.26520349
0.43300002 23196.12599283  2265.10181054
0.43400002 23283.22622425  1671.15364144
0.43500002 23370.85642665  1681.29949101
0.43600002 23460.43000159  2614.31314112
0.43700002 23550.25884518  1856.70249534
0.43800002 23640.36502582  2179.40535501
0.43900002 23732.46830380  2036.24587696
0.44000002 23824.31803082  1575.97871242
0.44100002 23917.16587161  1902.84980692
0.44200002 24010.21343869  1914.57451033
0.44300002 24103.67703468  1765.83546324
0.44400002 24197.14375325  2261.22319090
0.44500002 24290.16110060  1625.01185464
0.44600002 24383.20831936  2125.36245388
0.44700002 24477.04474248  2138.31473004
0.44800002 24569.61638627  1985.71649044
0.44900002 24662.35101333  2830.00491290
0.45000002 24755.03209415  1674.67800054
0.45100002 24846.12348421  2189.93742768
0.45200002 24937.17624038  1863.92932642
0.45300002 25027.18528239  2215.65681806
0.45400002 25116.55346320  1885.62534062
0.45500002 25205.34424921  2241.25931686
0.45600002 25292.55514767  2427.32663256
0.45700002 25379.09760771  1743.54408828
0.45800002 25464.06440555  1753.20091741
0.45900002 25547.77436132  2291.63546882
0.46000002 25630.65672134  1949.59599591
0.46100002 25711.25768373  2316.32731451
0.46200002 25791.05768523  1970.30794525
0.46300002 25869.06062433  1980.53537527
0.46400002 25944.96848602  2171.59396520
0.46500002 26020.32307007  2182.58480256
0.46600002 26092.71104257  2558.91229323
0.46700002 26163.38413753  2020.33661886
0.46800002 26232.83222588  2399.12378493
0.46900002 26299.56912330  2224.94365329
0.47000002 26364.44001238  2235.17733019
0.47100002 26427.39598977  2432.37764219
0.47200002 26488.35112656  2255.21832181
0.47300002 26546.98241268  1887.49053900
0.47400002 26602.71563142  1895.44357858
0.47500002 26656.73242725  2093.61986407
0.47600002 26708.99776290  3057.64620882
0.47700002 26757.69983043  2302.23260253
