# SAXS profile: number of points = 501, q_min = 0, q_max = 0.5, delta_q = 0.001
#    q    intensity    error
0.00000000 1664650.74656090 299.63713438
0.00100000 1664569.00847388 599.24485728
0.00200000 1664323.71910500 898.73483678
0.00300000 1663915.11666030 1198.01892667
0.00400000 1663343.07968338 1497.00882860
0.00500000 1662608.07676272 1645.98206115
0.00600000 1661710.05357146 1919.27519001
0.00700000 1660649.55845630 2789.89137416
0.00800000 1659426.40722956 2240.22574434
0.00900000 1658041.84208639 2735.76915639
0.01000000 1656495.27339817 3279.86078295
0.01100000 1654787.90050381 3872.20385577
0.01200000 1652919.72960063 3223.19361404
0.01300000 1650891.83617612 4160.24761065
0.01400000 1648704.37856951 4822.46052110
0.01500000 1646358.57560940 4741.51290889
0.01600000 1643854.03571486 5449.37637200
0.01700000 1641192.92237458 4874.34319811
0.01800000 1638375.16641350 6537.11720814
0.01900000 1635401.37756843 6378.06566031
0.02000000 1632272.97232446 6169.99211449
0.02100000 1628991.74822281 5913.24031415
0.02200000 1625556.27048273 6168.98632675
0.02300000 1621969.85919218 7006.91011065
0.02400000 1618231.99055543 8495.71833780
0.02500000 1614345.24202845 8814.32542403
0.02600000 1610309.64002473 9130.45607655
0.02700000 1606127.25563104 7420.30826087
0.02800000 1601797.88711043 7664.60324132
0.02900000 1597324.23935850 7906.75534786
0.03000000 1592707.48444295 7406.09014308
0.03100000 1587948.08731694 9146.58140381
0.03200000 1583047.40307383 8619.69350674
0.03300000 1578009.33912971 9657.41760069
0.03400000 1572832.10067873 13211.79025530
0.03500000 1567518.71250543 11850.44201377
0.03600000 1562070.47957942 13004.23734347
0.03700000 1556489.28397507 15082.38185924
0.03800000 1550776.69754942 9072.04410051
0.03900000 1544934.55058359 11123.52927933
0.04000000 1538962.92303175 12304.00913979
0.04100000 1532865.85801789 10622.76088860
0.04200000 1526644.02732669 11816.22531970
0.04300000 1520298.37457453 15050.95460692
0.04400000 1513832.34841725 11240.20570902
0.04500000 1507247.57904883 12480.01053441
0.04600000 1500543.84590681 11636.71806596
0.04700000 1493725.35458194 11830.30535849
0.04800000 1486792.84554921 13113.51350789
0.04900000 1479749.72166442 14427.56045779
0.05000000 1472595.79497190 13518.43002734
0.05100000 1465335.72034904 16001.46681162
0.05200000 1457967.47044245 13909.01031620
0.05300000 1450497.43539716 11749.02977443
0.05400000 1442925.35325380 15475.37513532
0.05500000 1435253.85749260 16878.58615149
0.05600000 1427484.05925979 15866.48605907
0.05700000 1419620.87408676 16055.91283539
0.05800000 1411663.53435482 16241.18972109
0.05900000 1403614.44798201 13895.78368404
0.06000000 1395477.75015382 15322.34641253
0.06100000 1387254.13333867 14191.61044725
0.06200000 1378946.45427967 14334.14906227
0.06300000 1370557.44626900 13157.35209936
0.06400000 1362086.07353153 14608.37382181
0.06500000 1353538.34696077 20100.04539260
0.06600000 1344915.42623142 16219.68079925
0.06700000 1336218.55782681 14992.37292044
0.06800000 1327451.19264373 15113.03253568
0.06900000 1318615.99840128 16614.56235773
0.07000000 1309713.43163538 20922.67305015
0.07100000 1300746.79811764 15452.87268542
0.07200000 1291718.32415725 21216.47446821
0.07300000 1282630.98722707 18508.36601291
0.07400000 1273487.04385139 17192.07589769
0.07500000 1264287.56186221 18736.74254504
0.07600000 1255034.47043723 17394.77857574
0.07700000 1245732.60825178 14575.07219995
0.07800000 1236382.52451251 19046.47368332
0.07900000 1226985.82890531 23558.12901995
0.08000000 1217547.10774569 19231.15746900
0.08100000 1208067.01161268 19316.99242201
0.08200000 1198547.49650808 17906.30043809
0.08300000 1188991.89844968 23970.07779771
0.08400000 1179401.80200124 21052.32315389
0.08500000 1169780.01836371 15090.16294530
0.08600000 1160128.01419262 22709.50694407
0.08700000 1150449.68587388 22778.90484995
0.08800000 1140744.63850137 16751.83580312
0.08900000 1131018.15782652 16795.62043261
0.09000000 1121270.12001512 22958.00678577
0.09100000 1111503.24875218 16872.62010875
0.09200000 1101719.60790386 21516.58495336
0.09300000 1091924.18403187 16935.74489018
0.09400000 1082113.31565775 20046.15011468
0.09500000 1072293.55785692 20073.33634658
0.09600000 1062465.58399156 17004.76247114
0.09700000 1052633.74134653 23210.57508788
0.09800000 1042797.99961229 17034.10612457
0.09900000 1032961.17885954 23241.62761722
0.10000000 1023124.09365383 20150.42997213
0.10100000 1013288.79447617 15503.31928463
0.10200000 1003458.86947576 15503.44026263
0.10300000 993635.02644484 18600.84857005
0.10400000 983820.50910182 17044.69112206
0.10500000 974017.98770579 17035.57540649
0.10600001 964224.64004551 17023.38682101
0.10700001 954447.98959228 24739.29305440
0.10800001 944686.48026842 16990.18714721
0.10900001 934944.31377726 18511.89828406
0.11000001 925221.10301614 16945.42529935
0.11100001 915519.48623396 21533.01932985
0.11200001 905841.68846138 24566.42774759
0.11300001 896188.79471984 18389.79493346
0.11400001 886563.42234960 18351.86370672
0.11500001 876966.98436627 16785.14887115
0.11600001 867400.75146686 15222.88390511
0.11700001 857867.29043493 27331.65316044
0.11800001 848365.84901072 15143.33111807
0.11900001 838899.53238070 19630.24998233
0.12000001 829469.15266181 22582.29874495
0.12100001 820079.43587198 19509.69069846
0.12200001 810728.10086182 22436.90124838
0.12300001 801418.81748186 14906.39070747
0.12400001 792151.04972477 19308.68274682
0.12500001 782926.79761751 16277.04888945
0.12600001 773749.77746827 17687.92074644
0.12700001 764618.46952798 17616.81036814
0.12800001 755534.89495394 17543.52108764
0.12900001 746501.11380630 16012.44964585
0.13000001 737518.26917557 20289.12854135
0.13100001 728585.98603804 18753.80416463
0.13200001 719707.08931574 15793.97281957
0.13300001 710882.37323604 17146.48365079
0.13400001 702112.25147321 21326.66064396
0.13500001 693399.10711136 18388.94518760
0.13600001 684742.93967816 16885.76168864
0.13700001 676145.25455124 18195.06965793
0.13800001 667605.46299032 16703.48947168
0.13900001 659127.03304555 17994.16885072
0.14000001 650708.71271040 24772.48186117
0.14100001 642353.55391746 13682.13134373
0.14200001 634060.57769222 16320.72003957
0.14300001 625832.09040768 21628.75806467
0.14400001 617665.26889681 16121.06427864
0.14500001 609565.90893278 14684.44343889
0.14600001 601531.88326870 17242.91224732
0.14700001 593565.52724667 19765.73298979
0.14800001 585663.92000581 19634.38384452
0.14900001 577831.29517922 13001.20475494
0.15000001 570066.48905569 16785.60856224
0.15100001 562370.46389388 16668.66133632
0.15200001 554745.08011908 15277.68022739
0.15300001 547189.36885779 21488.12752905
0.15400001 539702.28061614 12548.07861648
0.15500001 532287.62981556 14946.63735060
0.15600001 524942.22905979 14834.86809336
0.15700001 517671.28971595 14722.57217438
0.15800001 510469.05073464 13392.15617812
0.15900001 503341.13746896 12080.18786945
0.16000001 496283.25674667 13183.76533778
0.16100001 489300.52451841 16646.00462988
0.16200001 482389.80726674 14153.31761333
0.16300001 475551.91056922 17547.86632840
0.16400001 468787.62780073 15083.24263656
0.16500001 462095.82745463 12656.80531153
0.16600001 455478.29110289 20537.51711547
0.16700001 448933.23803545 16969.67719896
0.16800001 442462.12958776 12338.05706611
0.16900001 436065.53838920 11119.67175397
0.17000001 429741.09375435 14329.71744788
0.17100001 423490.87745730 12018.67166978
0.17200001 417313.92902787 12995.15636360
0.17300001 411210.27273560 15025.62407534
0.17400001 405180.91463524 13826.79936491
0.17500001 399223.42912091 12647.39883186
0.17600001 393337.72213592 15664.67552389
0.17700001 387527.86744939 13451.09291447
0.17800001 381788.71731006 13326.33580714
0.17900001 376121.76443872 10155.28811952
0.18000001 370528.25830182 15089.76403211
0.18100001 365006.95484172 11957.62840545
0.18200001 359555.30283830 10856.77288205
0.18300001 354175.70314002 13685.34981582
0.18400001 348867.28872280 10649.17449134
0.18500001 343629.50838842 11504.71648435
0.18600001 338462.62167560 10443.26468518
0.18700001 333364.64012410 14101.32494346
0.18800001 328335.03885701 9308.29879138
0.18900001 323377.88970834 10137.89732135
0.19000001 318485.36650758 10949.52741788
0.19100001 313663.97283960 9936.87512908
0.19200001 308908.54755330 9837.19316166
0.19300001 304222.28117878 8852.86880062
0.19400001 299601.11947995 12268.66642245
0.19500001 295046.97861136 9541.81973919
0.19600001 290557.67714834 9444.57774202
0.19700001 286135.33364476 10197.86377303
0.19800001 281776.47537180 9252.13100608
0.19900001 277482.34517173 13319.15319771
0.20000001 273250.13424972 13181.58709918
0.20100001 269082.82898524 11414.49414503
0.20200001 264976.55404348 9682.24374237
0.20300001 260932.68595856 11976.81085158
0.20400001 256950.49477841 10271.59651426
0.20500001 253027.99807003 9382.27861191
0.20600001 249165.26863762 8510.24015258
0.20700001 245362.32753941 10717.42697352
0.20800001 241617.58665707 8332.18286973
0.20900001 237933.20931977 10492.85502701
0.21000001 234303.28486224 11865.11890632
0.21100001 230731.72135938 9538.44981191
0.21200001 227214.90035042 10889.27461408
0.21300001 223753.76581110 9337.24508872
0.21400001 220347.74642200 9238.07970549
0.21500001 216996.79505607 9842.97508910
0.21600001 213697.51391566 9738.19616954
0.21700001 210451.79068290 10322.66082105
0.21800001 207258.01024717 8850.95374608
0.21900001 204114.97125192 7409.37380677
0.22000001 201021.90168192 6663.87635584
0.22100001 197980.38073951 7252.02168939
0.22200001 194987.61421278 7826.80320459
0.22300001 192042.83174584 10324.22312284
0.22400001 189145.42637838 7660.39013056
0.22500001 186297.37678834 10736.31833200
0.22600001 183493.82244091 9996.74391931
0.22700001 180737.01332194 6799.32676271
0.22800001 178024.79337264 7949.69752400
0.22900001 175356.48831828 9679.67861293
0.23000001 172732.53103348 7182.21898003
0.23100001 170152.63956559 6513.44335061
0.23200001 167613.37220471 8201.32268985
0.23300001 165116.94110742 9272.96785115
0.23400001 162660.60519153 8600.67990627
0.23500001 160244.46722822 7374.45073063
0.23600001 157868.31025596 9540.77178157
0.23700001 155531.43113489 6107.71958955
0.23800001 153232.45733979 6592.06062655
0.23900001 150971.42098030 8695.95425978
0.24000001 148746.71622595 7528.07166428
0.24100001 146559.63980113 6384.13821171
0.24200001 144408.29225426 7369.15550231
0.24300001 142291.46065751 6770.22801834
0.24400001 140209.33594962 6698.50134186
0.24500001 138160.52120597 6117.74816840
0.24600001 136145.32609572 6053.02148455
0.24700001 134163.31827464 5489.96324351
0.24800001 132213.16495470 6913.42672253
0.24900001 130293.25831072 8306.19561025
0.25000001 128405.68704105 5317.92178039
0.25100001 126547.44674075 4783.49371310
0.25200001 124720.84541649 5679.78756898
0.25300001 122921.88570051 5619.98888011
0.25400001 121152.57239665 6024.31194744
0.25500001 119409.79541062 5960.93726892
0.25600001 117695.99982622 4990.89910876
0.25700001 116008.27287091 4938.47240977
0.25800001 114347.26137204 4886.63044594
0.25900001 112712.98330472 4835.38721256
0.26000001 111103.48321606 4349.70157372
0.26100001 109518.50365538 4304.07739731
0.26200001 107959.55101396 5962.60628463
0.26300001 106422.98649625 4214.35046466
0.26400001 104911.05956329 5004.25777796
0.26500001 103422.14001469 4126.54358185
0.26600001 101955.40624607 4899.97705605
0.26700001 100511.27712538 5656.77494430
0.26800001 99089.21585559  4398.07505387
0.26900001 97687.79555328  6330.16945141
0.27000001 96307.86272778  5480.88072721
0.27100001 94948.20655272  5810.83051601
0.27200001 93609.44631708  4216.63770890
0.27300001 92290.02756072  4551.74437470
0.27400001 90988.84039790  3753.28984404
0.27500001 89708.67776187  4828.12126564
0.27600001 88444.83402100  3674.88302749
0.27700001 87201.33034864  3999.92521240
0.27800001 85974.63007312  3598.03843885
0.27900001 84766.03537855  6052.29521247
0.28000001 83574.28008284  3874.92167943
0.28100001 82399.69669925  4531.15953595
0.28200001 81242.26482559  3793.60773558
0.28300001 80100.99131460  4435.99310896
0.28400001 78975.10679876  4726.66036562
0.28500001 77865.65982012  4008.52435727
0.28600001 76771.48080399  4296.51612656
0.28700001 75693.23484301  3923.93747999
0.28800001 74628.33115026  3558.65213934
0.28900001 73579.95218904  3840.87368607
0.29000001 72545.27574419  4749.90215418
0.29100001 71525.35980204  4385.93527067
0.29200001 70519.05788032  4958.90038488
0.29300001 69526.87778949  3372.74900122
0.29400001 68547.45606070  5459.80513368
0.29500001 67582.96254681  3000.68367912
0.29600001 66630.12890239  4155.72133636
0.29700001 65690.89383019  4110.93633050
0.29800001 64764.65485449  3776.10338005
0.29900001 63851.41610098  3160.64524662
0.30000001 62949.59243707  3979.04392631
0.30100001 62061.09821231  3092.50467032
0.30200001 61183.86156275  3058.88730364
0.30300001 60319.34841159  3575.73114312
0.30400001 59466.26933743  4897.04751177
0.30500001 58625.58411275  3229.09732580
0.30600001 57794.96878771  3193.75012641
0.30700001 56976.97016817  4211.73783423
0.30800001 56169.79202336  2863.81698189
0.30900001 55374.08756089  3604.85327088
0.31000001 54589.22736291  3310.56385016
0.31100001 53815.06760810  2518.54528330
0.31200001 53052.48037677  3238.05829310
0.31300001 52299.83894501  3202.31929022
0.31400001 51559.33143552  2923.41423081
0.31500001 50827.72171824  3613.85118527
0.31600002 50108.02435180  3097.42767196
0.31700002 49397.72829058  3063.15327633
0.31800002 48697.73430837  3728.29871518
0.31900002 48008.51269629  2765.29046224
0.32000002 47329.62288824  3190.49002996
0.32100002 46660.26170093  2479.05982155
0.32200002 46001.98363615  2674.55545525
0.32300002 45351.86740569  2865.33111837
0.32400002 44713.02310900  3487.61596765
0.32500002 44083.60888519  3449.10172250
0.32600002 43464.12549666  2771.49009353
0.32700002 42854.40492796  2740.96786898
0.32800002 42255.29853509  2085.29908145
0.32900002 41663.83264022  2062.35981335
0.33000002 41083.33780732  2447.74538247
0.33100002 40511.36690481  2219.21278414
0.33200002 39950.37758158  2195.07360017
0.33300002 39397.97132297  2565.98999378
0.33400002 38855.61128668  2342.99347154
0.33500002 38322.33739339  2124.59048570
0.33600002 37797.85697652  2483.88628884
0.33700002 37282.89187411  2268.29124904
0.33800002 36777.91547860  1870.15709065
0.33900002 36281.33604619  2405.45269378
0.34000002 35794.10140081  2013.95521069
0.34100002 35316.07288643  1992.88608736
0.34200002 34848.01273036  1972.22337388
0.34300002 34388.19483179  1774.43093736
0.34400002 33938.15150286  2283.18925049
0.34500002 33496.68613099  1738.47809253
0.34600002 33064.87471867  2065.23217274
0.34700002 32640.91717416  2555.78393578
0.34800002 32226.68787070  1855.77390893
0.34900002 31821.02537571  1837.66430248
0.35000002 31424.51432736  1819.95083347
0.35100002 31037.42503991  2294.28656761
0.35200002 30657.60282584  2597.31223442
0.35300002 30287.86729553  1769.11441252
0.35400002 29926.22948269  1752.92897497
0.35500002 29573.66075151  1737.15691482
0.35600002 29229.22392854  2191.31502171
0.35700002 28893.37677675  1551.57440640
0.35800002 28566.43249209  1538.30246256
0.35900002 28248.51283753  1677.96174203
0.36000002 27938.61883669  2269.31442250
0.36100002 27636.75241974  1800.81087297
0.36200002 27344.57616669  1786.69469136
0.36300002 27059.38571378  1625.18678295
0.36400002 26783.14132391  2052.92787972
0.36500002 26514.30368186  1601.19887519
0.36600002 26254.50778503  2167.96608304
0.36700002 26002.30617322  1435.32736875
0.36800002 25759.02197597  1996.06670747
0.36900002 25523.42127721  1841.51493238
0.37000002 25295.28043275  1970.75539187
0.37100002 25074.99157869  1818.93997528
0.37200002 24863.21026607  1669.31601634
0.37300002 24658.86585504  1521.69868400
0.37400002 24462.01806528  1513.58743949
0.37500002 24273.13354575  1642.80575620
0.37600002 24091.89138432  1907.35513125
0.37700002 23917.93848216  1627.37661142
0.37800002 23751.46658473  1485.29803324
0.37900002 23593.09199373  1479.28693808
0.38000002 23441.20514602  1473.63143131
0.38100002 23295.86878613  2135.76535149
0.38200002 23158.93893498  1995.72165727
0.38300002 23028.19500196  1459.06650445
0.38400002 22904.80398690  1719.57824078
0.38500002 22787.70948414  1847.17181829
0.38600002 22678.44778519  1974.72593445
0.38700002 22574.86997842  1313.85749499
0.38800002 22478.02027006  1573.91105387
0.38900002 22387.74613385  2226.46145849
0.39000002 22304.40632464  1831.41489008
0.39100002 22226.60131920  1306.92421949
0.39200002 22155.62299440  1567.28884488
0.39300002 22090.24197273  1697.19337117
0.39400002 22032.06248141  1697.01969303
0.39500002 21978.64171113  2219.40334514
0.39600002 21931.19124508  1959.00375078
0.39700002 21888.93935287  1829.47763779
0.39800002 21853.48267082  1831.10339974
0.39900002 21822.46280553  1964.02174555
0.40000002 21797.31763829  1573.33046167
0.40100002 21776.98364412  1707.09782874
0.40200002 21762.37316735  1315.53552030
0.40300002 21752.57035727  1713.66757394
0.40400002 21747.69762101  1717.52450100
0.40500002 21747.22049712  1986.60868654
0.40600002 21752.50558915  1593.58863497
0.40700002 21761.61355447  1598.17297516
0.40800002 21775.23397588  1870.27493480
0.40900002 21792.82363034  2010.38807515
0.41000002 21815.43244737  1479.41362152
0.41100002 21841.84185028  1889.75624643
0.41200002 21871.37497232  1761.41126686
0.41300002 21906.28687425  1360.38047935
0.41400002 21944.02036036  1639.21839859
0.41500002 21985.49601316  2057.84252434
0.41600002 22029.54475260  1653.53770748
0.41700002 22078.45488594  1661.18302433
0.41800002 22130.90719938  1530.02034173
0.41900002 22184.77761955  1956.69747876
0.42000002 22242.21460770  1685.51510284
0.42100002 22303.28751509  1835.33761658
0.42200002 22366.85085399  1419.17675393
0.42300002 22432.54571186  1712.05196986
0.42400002 22500.78835675  2295.08052114
0.42500002 22572.03990088  1586.58875981
0.42600002 22644.24968741  2320.58281793
0.42700002 22719.92001463  1604.48082746
0.42800002 22796.86066555  1760.37366401
0.42900002 22876.59820074  1770.64878464
0.43000002 22957.89496949  1929.49637414
0.43100002 23039.48412333  2388.73382710
0.43200002 23123.90773410  1952.46724205
0.43300002 23208.98878690  1510.90524163
0.43400002 23296.07121727  1520.06871896
0.43500002 23383.51104175  2140.99437244
0.43600002 23472.96350920  1692.51811404
0.43700002 23562.69264727  2012.48967437
0.43800002 23652.71230609  2336.29676875
0.43900002 23744.67452082  2194.00802970
0.44000002 23836.43082863  1576.77997404
0.44100002 23929.09670081  1745.14910509
0.44200002 24022.00899772  2075.14134561
0.44300002 24115.37279085  3051.55941757
0.44400002 24208.61758989  1777.51783078
0.44500002 24301.53893631  2276.08224464
0.44600002 24394.39967177  1962.77349061
0.44700002 24488.09140862  1810.15980271
0.44800002 24580.43889250  2152.14042923
0.44900002 24672.99852516  1998.51297525
0.45000002 24765.55118716  2178.00650237
0.45100002 24856.49481470  2359.37859963
0.45200002 24947.35949018  2203.72510501
0.45300002 25037.16119902  2557.54613769
0.45400002 25126.31814172  1886.35842389
0.45500002 25214.93338852  1724.70152551
0.45600002 25301.90303778  1734.44553544
0.45700002 25388.27782714  2267.42720020
0.45800002 25472.99690979  2455.34228850
0.45900002 25556.50737850  2292.41882050
0.46000002 25639.19039194  2482.13013948
0.46100002 25719.56731604  2138.83931937
0.46200002 25799.14482809  2329.27590120
0.46300002 25876.94251618  1981.13881293
0.46400002 25952.59558965  1991.21299099
0.46500002 26027.72384957  2183.20557998
0.46600002 26099.92090929  2376.78941025
0.46700002 26170.35830370  2572.02293599
0.46800002 26239.59236541  2215.14649248
0.46900002 26306.09910620  2410.95409735
0.47000002 26370.71200758  2049.39998080
0.47100002 26433.39968578  1871.48478646
0.47200002 26494.17971533  2067.73835389
0.47300002 26552.54482169  2076.67462893
0.47400002 26607.98472107  3033.31040197
0.47500002 26661.73643256  2474.74249297
0.47600002 26713.83895339  3249.33795511
0.47700002 26762.23513829  2302.62282044
