# SAXS profile: number of points = 501, q_min = 0, q_max = 0.5, delta_q = 0.001
#    q    intensity    error
0.00000000 1682732.95097188 252.40994265
0.00100000 1682650.91745964 656.23387339
0.00200000 1682404.75458872 908.49859625
0.00300000 1681994.68690919 1311.95590253
0.00400000 1681420.58799574 1513.27858670
0.00500000 1680682.96186512 2571.44503343
0.00600000 1679781.72039730 2116.52505387
0.00700000 1678717.42257634 2215.90708989
0.00800000 1677489.88798315 3170.45602214
0.00900000 1676100.32732211 4022.64095753
0.01000000 1674548.20547761 3591.90605585
0.01100000 1672834.66141030 4516.65378246
0.01200000 1670959.77150622 3584.20886703
0.01300000 1668924.57504915 4205.69011461
0.01400000 1666729.18495574 4125.15491564
0.01500000 1664374.94457506 3994.50004485
0.01600000 1661861.24701515 5932.84491706
0.01700000 1659190.46095929 6719.72166832
0.01800000 1656362.45501048 5664.75985104
0.01900000 1653377.86203524 5952.16057190
0.02000000 1650237.98825088 6757.72486758
0.02100000 1646944.77488902 6521.90160425
0.02200000 1643496.73729347 7371.08320165
0.02300000 1639897.06915428 8855.44457652
0.02400000 1636145.45144813 7362.65486724
0.02500000 1632244.39568731 7002.32877730
0.02600000 1628193.79271984 7913.02219455
0.02700000 1623995.82770833 10231.17418316
0.02800000 1619650.34677072 8454.57519787
0.02900000 1615159.99057950 7995.04232045
0.03000000 1610525.97559890 9735.62997000
0.03100000 1605748.56695309 8478.35282363
0.03200000 1600829.51131492 11886.15966897
0.03300000 1595772.45595146 10579.97187070
0.03400000 1590575.35316736 12525.78148414
0.03500000 1585241.73150901 9416.33631999
0.03600000 1579772.69787946 10521.28665411
0.03700000 1574170.11001438 11664.60105467
0.03800000 1568435.44909662 10092.88258203
0.03900000 1562570.69477341 11250.50952338
0.04000000 1556575.90332286 12444.82492375
0.04100000 1550455.00497252 15628.58717477
0.04200000 1544208.83386888 11952.17692864
0.04300000 1537838.11812096 15224.59807609
0.04400000 1531346.66236146 12403.90854119
0.04500000 1524735.66009952 11572.74419788
0.04600000 1518005.20818831 12842.32465827
0.04700000 1511159.37655126 10880.34801719
0.04800000 1504199.00224420 16583.79477135
0.04900000 1497127.35876195 14596.99242738
0.05000000 1489944.30652055 12537.88192321
0.05100000 1482654.37869136 18503.52750804
0.05200000 1475256.01041248 12901.11441227
0.05300000 1467755.07301739 13077.69831024
0.05400000 1460151.40630760 13250.87463018
0.05500000 1452447.88358976 14640.67534956
0.05600000 1444645.45986022 16057.23503564
0.05700000 1436749.12219960 17499.60512525
0.05800000 1428757.86797125 13908.95849414
0.05900000 1420674.33659649 12786.06962655
0.06000000 1412502.59509425 18094.15908849
0.06100000 1404243.55747985 13059.46569485
0.06200000 1395899.75376060 14510.37861861
0.06300000 1387473.83832652 14651.72441777
0.06400000 1378965.23978545 18822.87640336
0.06500000 1370379.48851363 21706.81211345
0.06600000 1361717.99759391 13685.26651613
0.06700000 1352982.31381068 16560.50429606
0.06800000 1344175.22892031 18085.87855171
0.06900000 1335299.68615742 15422.71209719
0.07000000 1326356.41054821 19775.97500735
0.07100000 1317348.21688231 21341.04211306
0.07200000 1308277.85384929 14325.64317076
0.07300000 1299147.79577083 15862.59532961
0.07400000 1289960.65371260 14512.05803436
0.07500000 1280717.57303875 16060.19911869
0.07600000 1271419.91914270 20558.86105635
0.07700000 1262073.19889405 14766.25711943
0.07800000 1252677.63798368 19297.49991812
0.07900000 1243234.99844811 16410.70274924
0.08000000 1233749.64180429 14990.05885112
0.08100000 1224222.29101317 22586.90232893
0.08200000 1214655.15732221 19659.19464377
0.08300000 1205051.11531896 19738.73819530
0.08400000 1195412.30275322 16765.65833307
0.08500000 1185740.82153673 16825.66304749
0.08600000 1176038.92192703 18416.77038207
0.08700000 1166310.10637877 20013.88236527
0.08800000 1156554.04377619 16983.99693049
0.08900000 1146775.66938811 17029.61949029
0.09000000 1136975.65430380 18623.66209235
0.09100000 1127155.90711750 21776.65314860
0.09200000 1117319.02299250 20262.58143404
0.09300000 1107469.47732717 23422.98054617
0.09400000 1097604.43658641 17204.95035208
0.09500000 1087729.57582342 17229.63729088
0.09600000 1077845.99143553 18819.19189511
0.09700000 1067958.45158383 18838.78797160
0.09800000 1058065.97865419 21997.19273048
0.09900000 1048172.23534540 15722.58426950
0.10000000 1038277.19574322 20448.87033182
0.10100000 1028383.90542752 18881.12939166
0.10200000 1018495.24157818 26750.77877831
0.10300000 1008612.20944249 18881.22144895
0.10400000 998737.94700657 18876.14808645
0.10500000 988875.18141654 25156.98579886
0.10600001 979020.96228604 20427.27333927
0.10700001 969183.11663487 21981.07411966
0.10800001 959359.91202069 17254.08882970
0.10900001 949555.21649307 21934.72653336
0.11000001 939769.40691518 20341.30977014
0.11100001 930004.75304361 20311.30476259
0.11200001 920263.06954980 23397.68964480
0.11300001 910546.01240294 17127.37129967
0.11400001 900855.83487411 17093.74027159
0.11500001 891194.49231766 17057.46338616
0.11600001 881562.46118620 23207.13288359
0.11700001 871962.92303587 16977.11891104
0.11800001 862394.82367042 18472.49799304
0.11900001 852861.29086664 18421.80475042
0.12000001 843363.43629215 18368.45650769
0.12100001 833905.71752037 18312.57041942
0.12200001 824486.22905131 18254.12597117
0.12300001 815108.24825053 27289.82543717
0.12400001 805771.05016995 16619.02869280
0.12500001 796477.09573710 16558.75960063
0.12600001 787230.02770884 14996.73273455
0.12700001 778028.18572564 20913.39861788
0.12800001 768873.41174808 16365.47134035
0.12900001 759768.37172458 20741.67752568
0.13000001 750713.66693373 19176.98152573
0.13100001 741709.01443344 23497.34268486
0.13200001 732757.88566122 20465.92871129
0.13300001 723860.30767091 20369.43001814
0.13400001 715016.77139710 15926.99933376
0.13500001 706229.82372682 15847.79799163
0.13600001 697499.51166242 21500.42346076
0.13700001 688827.38553298 15684.60030817
0.13800001 680212.41425804 22691.88720970
0.13900001 671659.27984874 15515.33009618
0.14000001 663165.33652468 14025.94752897
0.14100001 654734.32908633 16735.01024072
0.14200001 646365.18372117 15250.98722922
0.14300001 638060.33542000 19294.94545320
0.14400001 629816.41832816 16438.20929375
0.14500001 621640.18286187 17698.09684093
0.14600001 613528.48610870 14881.13413257
0.14700001 605484.52804800 14785.93287248
0.14800001 597505.02834143 20031.35702020
0.14900001 589593.86381312 14592.44881786
0.15000001 581750.44707442 17129.64272233
0.15100001 573975.89951559 13086.65112645
0.15200001 566271.24303931 15595.11076919
0.15300001 558636.46622276 14194.95327657
0.15400001 551069.46517266 14093.60223688
0.15500001 543575.00321331 13991.62124302
0.15600001 536149.62859393 12626.32434929
0.15700001 528798.34743374 13785.77356824
0.15800001 521515.44086023 14925.77262190
0.15900001 514306.79173223 12343.36358419
0.16000001 507168.05785170 13472.92009278
0.16100001 500103.94989805 12152.52655617
0.16200001 493112.03233637 14467.90771172
0.16300001 486192.60444589 19136.54181438
0.16400001 479346.76033252 15422.98274181
0.16500001 472573.17235417 12943.77980187
0.16600001 465873.89922459 14004.17007187
0.16700001 459246.53553755 12730.31456616
0.16800001 452692.98306565 13770.92119507
0.16900001 446214.34663812 15929.85292716
0.17000001 439807.30526032 14665.37528640
0.17100001 433474.58943168 15657.10290962
0.17200001 427214.77227020 12194.84625033
0.17300001 421028.55752076 14285.49963130
0.17400001 414916.08828243 11980.70261496
0.17500001 408875.69826852 18350.34220493
0.17600001 402907.17351138 14976.06034672
0.17700001 397014.20353902 13780.36365569
0.17800001 391191.99002504 11553.85597110
0.17900001 385441.68277571 13529.00370445
0.18000001 379765.22887368 10310.62645094
0.18100001 374160.75507330 10214.58909600
0.18200001 368625.87379828 11130.65878513
0.18300001 363163.05462136 13030.29101536
0.18400001 357771.22057639 13899.41257601
0.18500001 352450.35940130 9833.36549185
0.18600001 347200.31209936 9738.96921449
0.18700001 342019.10807662 10609.43323378
0.18800001 336906.31733288 11461.55345718
0.18900001 331866.20674167 12295.64354072
0.19000001 326890.59045525 13111.58220267
0.19100001 321986.18097562 11127.84294031
0.19200001 317147.94749901 11935.86356811
0.19300001 312379.09446529 9090.23207848
0.19400001 307675.19228942 11699.34973964
0.19500001 303038.63283007 10691.20347146
0.19600001 298466.73671342 11465.60023267
0.19700001 293962.05061683 8730.67331591
0.19800001 289521.00854633 9506.42276488
0.19900001 285144.76945313 10265.21218545
0.20000001 280830.71064565 9313.75095874
0.20100001 276581.63681717 12570.63598746
0.20200001 272393.81843135 8294.39216326
0.20300001 268268.61279066 9850.82392727
0.20400001 264205.07165545 9749.16760489
0.20500001 260201.49473415 8844.24922405
0.20600001 256258.07584989 7956.81363124
0.20700001 252374.38119601 7874.08106552
0.20800001 248549.28984389 11688.03090740
0.20900001 244784.72499971 10023.93496258
0.21000001 241074.91518984 12208.03428232
0.21100001 237423.58475401 9060.08442251
0.21200001 233827.65317308 8964.95264647
0.21300001 230287.11162526 11088.32494896
0.21400001 226802.30099634 8777.24946352
0.21500001 223372.65787953 13027.09402342
0.21600001 219995.13829991 7160.84209022
0.21700001 216671.28515984 8502.18163165
0.21800001 213399.92894500 9113.24439648
0.21900001 210179.35725906 9016.69485274
0.22000001 207009.16153674 8234.82483529
0.22100001 203890.93227117 8147.48203880
0.22200001 200821.74674470 8060.98529549
0.22300001 197800.93455020 7310.72288667
0.22400001 194827.77362832 9863.15650633
0.22500001 191904.34027363 7156.11318720
0.22600001 189025.80741945 7079.96195169
0.22700001 186194.50186726 7004.63749149
0.22800001 183407.92143214 6300.06239912
0.22900001 180665.87333195 7479.56750966
0.23000001 177968.47331624 8016.59025965
0.23100001 175315.51947387 7321.17643947
0.23200001 172703.67401519 7846.79179998
0.23300001 170135.12354189 8360.44036625
0.23400001 167606.80300824 7089.76810256
0.23500001 165119.38600192 5845.22654092
0.23600001 162672.47477307 6939.60810204
0.23700001 160264.97126963 6293.60571943
0.23800001 157895.95764012 6226.62738405
0.23900001 155565.43371988 7280.46264245
0.24000001 153271.67974339 6648.92578176
0.24100001 151016.12434122 6030.07413017
0.24200001 148796.74609040 6508.36998185
0.24300001 146612.24641645 7512.41186174
0.24400001 144462.80734959 9556.21515822
0.24500001 142347.37134067 6303.14190113
0.24600001 140265.94780151 5196.85361188
0.24700001 138218.55459019 6170.07656879
0.24800001 136203.19514167 6104.62749504
0.24900001 134218.61513793 7046.47762809
0.25000001 132267.01424420 4979.85332188
0.25100001 130345.32489128 4927.05351398
0.25200001 128455.78407742 7799.83557819
0.25300001 126594.10315715 5787.88267017
0.25400001 124763.03418218 4772.18628325
0.25500001 122958.71791482 5193.77649045
0.25600001 121184.12611901 7474.63725267
0.25700001 119436.20057165 4622.18118081
0.25800001 117715.32685035 5030.56473097
0.25900001 116022.18211798 5429.83838003
0.26000001 114353.89860255 5372.34641054
0.26100001 112711.06263163 5315.45396521
0.26200001 111094.43803874 5259.21094560
0.26300001 109501.18194551 5203.49641227
0.26400001 107932.87411782 5577.43153395
0.26500001 106388.32327223 4244.89429943
0.26600001 104866.50171269 4619.89395156
0.26700001 103367.90981365 7064.16329094
0.26800001 101891.93037693 5344.74146084
0.26900001 100437.10622966 4881.24359375
0.27000001 99004.49359171  4024.53285495
0.27100001 97592.72048195  4379.96150250
0.27200001 96202.36590111  4333.43577709
0.27300001 94832.18187873  5456.64400353
0.27400001 93480.64958304  5012.90007112
0.27500001 92150.68855635  4196.54255546
0.27600001 90837.97409928  4151.74980269
0.27700001 89545.95563211  4854.28648455
0.27800001 88271.41203011  4802.40639878
0.27900001 87015.52568578  5116.51315248
0.28000001 85777.14225243  3615.50671706
0.28100001 84556.55585568  4292.09097837
0.28200001 83353.77744432  4246.04162398
0.28300001 82167.66022503  3500.34249126
0.28400001 80997.63170026  5540.23827052
0.28500001 79844.72458085  4452.94050064
0.28600001 78707.56556596  3727.19694379
0.28700001 77587.07854844  5027.64292791
0.28800001 76480.44504944  3978.51293979
0.28900001 75391.11084188  3935.41617222
0.29000001 74315.81762021  3892.66271120
0.29100001 73256.04152534  4171.19920190
0.29200001 72210.54514160  4760.48041380
0.29300001 71179.84037264  3766.83733083
0.29400001 70162.49160875  3415.15944072
0.29500001 69160.42990795  3991.94020325
0.29600001 68170.88899606  6681.42914679
0.29700001 67195.46620406  3604.36497781
0.29800001 66233.67594841  4455.87076036
0.29900001 65285.50369634  4700.55648866
0.30000001 64349.29957044  3776.98231709
0.30100001 63427.09501348  2873.24754013
0.30200001 62516.69205036  3409.66054584
0.30300001 61619.56404736  3090.83747894
0.30400001 60734.65357777  3334.33263927
0.30500001 59862.51966233  3022.45876084
0.30600001 59001.17565331  3532.10554771
0.30700001 58152.85172906  2686.66187708
0.30800001 57316.12555399  3187.92305424
0.30900001 56491.41087171  4202.96116784
0.31000001 55678.19003952  2857.12645715
0.31100001 54876.04906728  4109.11874870
0.31200001 54086.17089850  3047.21501269
0.31300001 53306.73092053  2761.82185975
0.31400001 52539.95229073  2979.01543593
0.31500001 51782.70111254  3190.85019363
0.31600002 51037.90744195  2426.85261377
0.31700002 50303.18267286  2879.35431253
0.31800002 49579.07847297  3795.77442761
0.31900002 48866.46420991  2345.59039314
0.32000002 48164.74435647  3014.87231575
0.32100002 47472.96156730  3210.12181318
0.32200002 46792.85518450  2947.24812335
0.32300002 46121.53936492  2689.80830313
0.32400002 45461.96576442  2437.89802955
0.32500002 44812.06541472  3286.96515381
0.32600002 44172.81974509  3250.01536664
0.32700002 43543.85807185  3213.53687787
0.32800002 42925.94001500  2753.91381207
0.32900002 42316.24011951  3351.44637617
0.33000002 41717.92664184  2278.42467144
0.33100002 41128.55114485  2048.20194400
0.33200002 40550.72752843  2025.50893596
0.33300002 39981.97405808  2403.71639420
0.33400002 39423.72139590  2179.14630335
0.33500002 38874.98482160  2743.01905891
0.33600002 38335.53230904  2131.64737499
0.33700002 37805.94923502  1916.76171699
0.33800002 37286.89865228  2085.64277489
0.33900002 36776.64505086  2625.85258099
0.34000002 36276.14979059  2226.63017960
0.34100002 35785.42077114  2202.95060700
0.34200002 35304.88129334  2361.36709714
0.34300002 34832.98283542  2516.33479920
0.34400002 34371.34762963  1956.58905648
0.34500002 33918.74337079  2640.57429647
0.34600002 33476.18163832  2090.92240416
0.34700002 33041.74039232  1897.25682318
0.34800002 32617.55428210  2732.04647606
0.34900002 32202.10053407  2197.79346554
0.35000002 31796.33278002  1674.07700016
0.35100002 31400.34808509  2652.70153187
0.35200002 31011.94939745  2463.12419755
0.35300002 30633.96448574  2114.66266861
0.35400002 30264.29546998  1933.88857213
0.35500002 29904.16438992  2235.63543568
0.35600002 29552.54674249  1899.04674362
0.35700002 29209.75658524  1882.27680351
0.35800002 28876.16347922  2643.46851091
0.35900002 28551.91883045  1695.98405886
0.36000002 28236.13304296  2446.37868272
0.36100002 27928.42261085  1668.16476156
0.36200002 27630.92419144  1805.40467218
0.36300002 27340.52099642  1642.07176883
0.36400002 27059.33964798  1777.79869908
0.36500002 26785.87832118  1617.59926844
0.36600002 26521.72692412  2044.02959086
0.36700002 26265.39663090  1594.83495897
0.36800002 26018.27072182  2016.15589374
0.36900002 25779.05533326  1430.73763877
0.37000002 25547.37874235  1421.71169436
0.37100002 25323.94119667  1836.99878142
0.37200002 25109.12665325  2107.28355420
0.37300002 24902.05736490  1676.40658122
0.37400002 24702.72925602  1389.52858647
0.37500002 24511.42214914  1658.93312964
0.37600002 24328.07218156  1650.90305645
0.37700002 24152.16084881  1643.31310200
0.37800002 23983.71539110  2045.21142686
0.37900002 23823.75244118  2308.52172091
0.38000002 23670.37400408  1488.03813226
0.38100002 23523.72863475  1617.49165755
0.38200002 23385.57908105  1612.20189822
0.38300002 23253.89971355  1607.30962435
0.38400002 23129.59771105  1602.88119731
0.38500002 23011.78653567  1465.62075389
0.38600002 22901.84180014  1595.34237538
0.38700002 22797.80254810  1459.51538827
0.38800002 22700.50986476  1589.48977603
0.38900002 22609.98470564  1454.95258474
0.39000002 22526.43131501  1321.17525922
0.39100002 22448.50037174  1583.96626127
0.39200002 22377.65811936  1582.99561036
0.39300002 22312.26684146  1450.52053608
0.39400002 22254.28211749  1318.56627793
0.39500002 22201.02034124  1450.61473782
0.39600002 22153.90229971  2110.82391112
0.39700002 22112.02193642  1584.10532658
0.39800002 22077.00613236  1453.43976759
0.39900002 22046.40108626  1587.34095342
0.40000002 22021.79947159  2119.37808156
0.40100002 22002.05400433  1857.41348705
0.40200002 21988.01620018  1462.09320650
0.40300002 21978.81842878  1864.68304385
0.40400002 21974.65790501  1468.45658408
0.40500002 21974.87191169  1605.92371540
0.40600002 21980.81084072  1476.12142195
0.40700002 21990.69116376  1480.41339929
0.40800002 22004.91654249  1890.00237139
0.40900002 22023.25880360  2302.53181701
0.41000002 22046.62518701  1766.92685933
0.41100002 22073.73444571  1500.57253872
0.41200002 22104.00766180  1506.27767348
0.41300002 22139.52350380  1787.32381715
0.41400002 22177.98025493  1518.63726991
0.41500002 22220.07746216  1941.14605907
0.41600002 22264.69060909  1531.92210995
0.41700002 22314.12583435  1818.82448294
0.41800002 22367.19003104  1546.35575607
0.41900002 22421.49242267  1695.06490747
0.42000002 22479.47236670  1703.49449667
0.42100002 22541.05931954  1854.90385930
0.42200002 22604.84873001  1721.13326386
0.42300002 22670.91677044  1730.24444991
0.42400002 22739.46445195  1594.60502025
0.42500002 22811.01096705  2186.43550480
0.42600002 22883.37071569  1465.67996379
0.42700002 22959.11010108  1473.97493834
0.42800002 23036.01982055  2075.31512398
0.42900002 23115.74871793  2087.35220814
0.43000002 23197.04623324  1799.62693205
0.43100002 23278.40879621  1960.97324992
0.43200002 23362.56425427  1517.39862022
0.43300002 23447.40708105  1679.06890064
0.43400002 23533.99732790  1689.15273826
0.43500002 23621.08186365  1699.30070980
0.43600002 23709.96481116  1709.60709372
0.43700002 23798.97696507  2032.67071891
0.43800002 23888.36286150  1573.04876898
0.43900002 23979.46052976  1899.17336396
0.44000002 24070.35616450  1910.70496289
0.44100002 24161.98778426  1922.32783921
0.44200002 24253.81397541  2095.16581956
0.44300002 24346.00688669  2107.87737614
0.44400002 24438.00211254  1957.48406198
0.44500002 24529.60811835  2297.44320524
0.44600002 24620.95965649  1815.91896552
0.44700002 24713.14718180  2491.08535398
0.44800002 24803.80295034  2004.64344945
0.44900002 24894.79238502  1848.43842219
0.45000002 24985.42302465  2197.34313204
0.45100002 25074.52181969  2210.06845793
0.45200002 25163.42046901  1709.85450190
0.45300002 25251.03933174  2063.51503199
0.45400002 25337.94779965  1902.24652121
0.45500002 25424.27735445  1912.92271881
0.45600002 25508.91131163  2448.09033460
0.45700002 25592.80848535  1934.04862890
0.45800002 25674.98084461  2298.03926941
0.45900002 25755.73145613  2665.71833205
0.46000002 25835.63323872  1965.18753544
0.46100002 25913.10722035  2154.93409858
0.46200002 25989.71812143  2346.48181180
0.46300002 26064.55744039  2721.13992575
0.46400002 26137.07882439  2005.36746785
0.46500002 26208.87140483  2748.00029704
0.46600002 26277.77557187  2208.90991926
0.46700002 26344.74754037  2959.04218398
0.46800002 26410.51126316  2043.77751097
0.46900002 26473.36821233  2053.00980217
0.47000002 26534.35975542  2062.11786613
0.47100002 26593.36513463  2071.09137485
0.47200002 26650.25380105  2269.00271617
0.47300002 26704.73744363  2468.31899891
0.47400002 26756.24781845  3050.21239588
0.47500002 26805.86168164  2105.33247626
0.47600002 26853.72507109  2497.79935588
0.47700002 26897.97398257  1928.58482596
