# SAXS profile: number of points = 501, q_min = 0, q_max = 0.5, delta_q = 0.001
#    q    intensity    error
0.00000000 1664650.74656090 274.66737318
0.00100000 1664569.16237449 599.24491269
0.00200000 1664324.33839532 973.62976879
0.00300000 1663916.50793366 1297.85492242
0.00400000 1663345.54124193 1746.51288467
0.00500000 1662611.93267652 1496.35079864
0.00600000 1661715.60115645 2791.68232360
0.00700000 1660657.11866554 2192.06748774
0.00800000 1659436.28688931 2464.26299007
0.00900000 1658054.33160793 3233.20608485
0.01000000 1656510.68359414 4099.86411893
0.01100000 1654806.51352759 2978.65185404
0.01200000 1652941.87237935 3545.56047170
0.01300000 1650917.80310385 5547.08406308
0.01400000 1648734.44909447 5193.51374488
0.01500000 1646393.11944515 4741.61239514
0.01600000 1643893.25175848 6287.89196907
0.01700000 1641237.10693657 6647.01058127
0.01800000 1638424.61397194 6537.31450391
0.01900000 1635456.48530957 5887.64361278
0.02000000 1632333.89420359 5656.03719927
0.02100000 1629058.82498088 5913.48380279
0.02200000 1625629.82186999 6169.26545428
0.02300000 1622050.09688562 6423.31867605
0.02400000 1618319.20081480 6675.56700775
0.02500000 1614439.74480246 7555.57835074
0.02600000 1610411.65119158 7174.38423420
0.02700000 1606237.01235058 8770.05448911
0.02800000 1601915.71863964 9755.66717391
0.02900000 1597450.35823474 7907.37963632
0.03000000 1592842.19507196 8147.38820229
0.03100000 1588091.53963580 9147.40768920
0.03200000 1583199.98439642 9404.20834045
0.03300000 1578171.25623192 9658.40853340
0.03400000 1573003.49720040 13213.22998615
0.03500000 1567699.84548853 11005.25342353
0.03600000 1562261.63951772 9537.60775002
0.03700000 1556690.73611850 9760.45136686
0.03800000 1550988.54218178 10887.94007001
0.03900000 1545157.06503682 11125.13138347
0.04000000 1539196.41446500 9466.05838761
0.04100000 1533110.32096650 12556.17411090
0.04200000 1526899.88947658 10833.35521843
0.04300000 1520565.58652654 14050.02667168
0.04400000 1514111.36504110 13286.32784528
0.04500000 1507538.45465056 11442.21740246
0.04600000 1500846.82538043 10580.97061081
0.04700000 1494040.54330130 12908.51089447
0.04800000 1487120.52337813 10930.33635540
0.04900000 1480089.88891693 13320.80962030
0.05000000 1472948.74877833 11268.05845286
0.05100000 1465701.42382911 13718.96596613
0.05200000 1458346.41174676 17390.78177051
0.05300000 1450889.54228777 12927.42642443
0.05400000 1443330.63846940 16670.46965173
0.05500000 1435672.67504444 16883.51144613
0.05600000 1427916.49311460 13429.55524442
0.05700000 1420067.03699689 17296.41731799
0.05800000 1412123.55935658 19995.67053414
0.05900000 1404088.27532315 17691.51309537
0.06000000 1395965.58878530 14050.39430754
0.06100000 1387756.33032838 16777.97481773
0.06200000 1379462.78483747 14339.51631866
0.06300000 1371088.08188307 17111.18006194
0.06400000 1362631.18564971 19928.48202212
0.06500000 1354097.81313345 13405.56897710
0.06600000 1345489.57069750 17578.82206365
0.06700000 1336807.31120859 20453.15281868
0.06800000 1328054.67104966 15119.90313765
0.06900000 1319234.11504865 15237.15474220
0.07000000 1310346.43023432 15350.70914905
0.07100000 1301394.43103142 14055.06051345
0.07200000 1292380.91419296 19812.20034272
0.07300000 1283308.24212892 15669.19437058
0.07400000 1274179.17757935 17201.41970345
0.07500000 1264994.60454935 15863.03308459
0.07600000 1255756.30883452 14503.98604699
0.07700000 1246469.22457288 18958.79779470
0.07800000 1237134.01052894 20524.05419718
0.07900000 1227752.30633490 16206.33120376
0.08000000 1218328.35490893 20723.76628917
0.08100000 1208862.89506441 14869.01430692
0.08200000 1199358.16208232 19411.61276420
0.08300000 1189817.16611548 14991.69699665
0.08400000 1180241.91847944 21067.31923373
0.08500000 1170634.52523055 18121.42330128
0.08600000 1160997.15561285 19696.31766974
0.08700000 1151333.24584456 18237.11947055
0.08800000 1141642.78483367 21337.30465062
0.08900000 1131930.43630590 16809.16776866
0.09000000 1122196.78600879 19913.38290317
0.09100000 1112443.98395505 23027.59154973
0.09200000 1102674.39316106 15382.30850736
0.09300000 1092892.91132039 21573.70708326
0.09400000 1083096.05829762 18520.94346733
0.09500000 1073289.85983571 20091.98712050
0.09600000 1063475.32462527 18568.28004081
0.09700000 1053657.22871383 20135.39058734
0.09800000 1043834.65902729 18601.13449845
0.09900000 1034011.21057268 21714.23644308
0.10000000 1024186.85605236 15516.43159889
0.10100000 1014364.71412416 23279.67128403
0.10200000 1004547.36271420 20176.33472913
0.10300000 994736.11266802 15517.88408759
0.10400000 984933.88074550 20166.52215700
0.10500000 975143.57035569 23257.17524722
0.10600001 965362.25296159 17043.47137799
0.10700001 955597.42561800 21672.95063289
0.10800001 945847.61215537 17011.07010518
0.10900001 936116.74763012 21624.29788802
0.11000001 926404.89726921 16967.10649212
0.11100001 916714.50707759 20021.04577703
0.11200001 907047.45796650 23061.68270448
0.11300001 897405.11396987 15345.62817137
0.11400001 887790.18557365 16845.81956444
0.11500001 878204.03380960 16808.82599861
0.11600001 868647.73998796 22867.15283203
0.11700001 859124.07798960 15206.49689656
0.11800001 849632.07781011 18199.11996384
0.11900001 840174.71634080 15123.14560646
0.12000001 830753.50562571 15078.17683736
0.12100001 821372.47147681 19540.45201695
0.12200001 812029.97642346 22472.93065625
0.12300001 802728.73641146 19409.98176092
0.12400001 793468.98230044 16365.29853104
0.12500001 784252.36044425 20751.31843517
0.12600001 775082.84363189 14765.32886698
0.12700001 765958.71723830 17647.68967684
0.12800001 756881.96067888 14645.66662938
0.12900001 747854.86849440 17499.80474757
0.13000001 738878.24531926 18874.64566633
0.13100001 729952.01828809 14453.05064339
0.13200001 721078.87107639 15824.07657172
0.13300001 712259.88865544 15748.06688058
0.13400001 703494.80769145 21368.65579107
0.13500001 694786.48412192 19843.10292209
0.13600001 686134.85857947 15510.07920950
0.13700001 677541.33918040 16830.12765884
0.13800001 669005.35826928 15343.63861545
0.13900001 660530.93341209 15258.26528137
0.14000001 652115.92608609 22067.60397947
0.14100001 643763.81666177 13712.16994160
0.14200001 635473.59672632 19083.27300976
0.14300001 627247.54386130 17613.11186239
0.14400001 619082.75692035 14811.55565798
0.14500001 610985.40456905 16056.69718950
0.14600001 602952.73415247 14624.61925677
0.14700001 594987.53191701 14529.59621487
0.14800001 587086.80098308 19682.08593153
0.14900001 579254.57431798 16943.19709819
0.15000001 571489.99769675 15533.09887029
0.15100001 563794.02264349 12854.50432281
0.15200001 556168.11884452 14040.46482276
0.15300001 548611.93239610 17742.11073092
0.15400001 541123.69374621 15097.35176798
0.15500001 533707.63775984 14986.51117555
0.15600001 526360.57721523 17354.10904981
0.15700001 519087.50476831 19683.79910983
0.15800001 511882.97793027 18312.61439979
0.15900001 504752.32023456 12114.05625742
0.16000001 497691.66959957 13221.17982698
0.16100001 490705.42269254 11924.14233430
0.16200001 483791.21129922 14194.43480958
0.16300001 476949.39926189 12906.25135330
0.16400001 470180.94677285 13964.37477841
0.16500001 463484.59269944 15002.99697399
0.16600001 456862.31501473 16022.16214402
0.16700001 450311.99900933 12482.64920190
0.16800001 443835.29611521 14626.59287409
0.16900001 437433.01698349 13385.45095173
0.17000001 431102.45537277 12163.55635270
0.17100001 424845.80860732 10961.02237966
0.17200001 418662.20666698 10864.28477605
0.17300001 412551.63323903 13997.87757684
0.17400001 406514.90015750 16006.52494963
0.17500001 400549.90330542 15861.77692001
0.17600001 394656.47878221 12573.75600785
0.17700001 388838.36880693 11420.18343124
0.17800001 383090.83125167 14400.38502691
0.17900001 377415.02496041 17323.35046393
0.18000001 371812.66680813 10094.71438066
0.18100001 366282.05569102 12999.35077052
0.18200001 360820.89866294 10894.98754978
0.18300001 355431.48236463 12752.88218968
0.18400001 350112.98005665 10687.19922110
0.18500001 344864.84176470 11546.07544774
0.18600001 339687.30839465 13339.52123086
0.18700001 334578.52427420 10378.62631332
0.18800001 329537.85875378 12145.11835818
0.18900001 324569.39751077 11100.27391933
0.19000001 319665.11937021 10990.08732322
0.19100001 314831.85740396 11787.30529816
0.19200001 310064.47729364 9874.00374598
0.19300001 305365.97222002 12440.61029609
0.19400001 300732.24422177 9676.06041507
0.19500001 296165.57904978 10448.72212263
0.19600001 291663.08960051 10342.37364598
0.19700001 287227.48541916 8530.65672009
0.19800001 282855.22666225 10976.19758935
0.19900001 278547.52596520 10027.71140866
0.20000001 274301.55429142 9097.21147802
0.20100001 270120.20561996 10640.03540224
0.20200001 265999.84660747 8909.66528322
0.20300001 261941.61610920 11221.57936450
0.20400001 257944.87621847 8724.98585048
0.20500001 254007.55510401 8633.71720607
0.20600001 250130.08905633 8543.19359554
0.20700001 246312.02695524 13064.39052725
0.20800001 242552.08230439 9124.80976762
0.20900001 238852.27610408 7523.84705294
0.21000001 235206.92073919 8188.72933264
0.21100001 231619.51289219 10311.70120143
0.21200001 228087.27550138 7287.38879678
0.21300001 224610.07656883 8651.98055846
0.21400001 221187.96287083 7846.64335380
0.21500001 217820.87779789 9880.35548403
0.21600001 214505.34206063 7680.36413560
0.21700001 211243.08082713 6907.64906964
0.21800001 208032.97820571 6833.88365717
0.21900001 204873.28899791 7436.90074225
0.22000001 201763.53069982 10032.69203842
0.22100001 198705.20795136 7940.26048518
0.22200001 195695.54030037 8509.82097234
0.22300001 192733.90713046 6475.85958580
0.22400001 189819.51796471 7047.04993767
0.22500001 186954.24910310 7605.29921315
0.22600001 184133.71484878 11285.55591676
0.22700001 181359.63898336 11784.74989843
0.22800001 178630.31954292 7363.14211976
0.22900001 175944.66320761 7891.11851804
0.23000001 173303.40005461 7205.95571505
0.23100001 170706.11204358 6534.63027807
0.23200001 168149.52128406 6464.50865150
0.23300001 165635.69670046 9302.10116664
0.23400001 163161.96541878 6326.60550833
0.23500001 160728.40009701 7396.72132230
0.23600001 158334.84312668 7317.44512119
0.23700001 155980.66202482 7795.91385673
0.23800001 153664.12180971 7161.51673567
0.23900001 151385.80269917 8174.83373242
0.24000001 149143.72030430 5930.70031842
0.24100001 146939.46243885 6934.07356048
0.24200001 144770.87745344 8970.72784574
0.24300001 142636.73638290 5742.55527841
0.24400001 140537.35071170 6197.69745956
0.24500001 138471.31995695 6131.51033774
0.24600001 136439.03681623 8088.10648508
0.24700001 134440.11593372 5001.17254932
0.24800001 132472.89208033 5937.43530392
0.24900001 130536.10045233 5874.12479824
0.25000001 128631.77037838 5327.28502225
0.25100001 126756.82322841 5749.68977365
0.25200001 124913.53387065 5214.51571813
0.25300001 123097.88454817 5628.03554781
0.25400001 121312.21983640 6496.26967959
0.25500001 119552.88005815 5049.91389258
0.25600001 117822.79119508 7267.31010475
0.25700001 116118.92736353 7190.08432254
0.25800001 114441.78171344 5779.88245891
0.25900001 112791.73038174 5718.54100093
0.26000001 111166.40393595 4787.38141202
0.26100001 109565.67397897 6889.48990578
0.26200001 107991.08112599 4686.27318720
0.26300001 106439.25759920 4214.99480037
0.26400001 104911.88991070 4587.27260341
0.26500001 103407.91864417 4125.97614914
0.26600001 101926.26821676 4490.36195877
0.26700001 100467.27951616 4442.66331043
0.26800001 99030.53600313  5194.64701186
0.26900001 97614.54987585  5930.08418558
0.27000001 96220.35245559  5867.03626862
0.27100001 94846.47435981  3869.73633701
0.27200001 93493.59913054  4594.27567869
0.27300001 92160.45600555  4166.57441319
0.27400001 90845.59247480  3747.38086693
0.27500001 89551.88792923  5190.42767002
0.27600001 88274.80237990  5501.72731870
0.27700001 87018.17006774  4354.38943627
0.27800001 85778.62916466  4666.78654057
0.27900001 84557.30615308  3906.54772916
0.28000001 83353.05403234  3864.66453312
0.28100001 82166.20085582  5561.00873712
0.28200001 80996.60706613  4125.96735923
0.28300001 79843.43263568  4421.72950865
0.28400001 78705.82621201  3364.67422982
0.28500001 77584.93396039  5325.43011910
0.28600001 76479.42177892  4280.17104245
0.28700001 75390.15406695  4233.91125280
0.28800001 74314.48382946  5476.60614504
0.28900001 73255.45038712  3823.93469121
0.29000001 72210.31578604  4097.57456323
0.29100001 71180.14449355  4052.99761931
0.29200001 70163.92249136  3700.44544736
0.29300001 69162.04737509  3660.05572034
0.29400001 68173.20452356  3318.33088726
0.29500001 67199.28397422  3878.74285460
0.29600001 66237.39404371  3245.96364877
0.29700001 65289.41388287  3793.96802033
0.29800001 64354.49049303  3463.55884229
0.29900001 63432.99001492  4852.62396586
0.30000001 62523.04336766  5363.53952920
0.30100001 61626.62106960  3350.02327993
0.30200001 60741.74636168  3588.92625368
0.30300001 59869.72501527  4095.08938491
0.30400001 59009.59007247  3509.59553571
0.30500001 58161.83001711  4271.40499867
0.30600001 57324.59285860  3431.73691395
0.30700001 56500.02447653  2610.30125440
0.30800001 55686.56182239  3097.28671520
0.30900001 54884.89647999  4338.65127215
0.31000001 54094.22008105  2775.84503488
0.31100001 53314.55673991  2744.63351092
0.31200001 52546.67742384  2467.06662185
0.31300001 51788.96395067  2439.26031757
0.31400001 51043.57869209  2894.17104887
0.31500001 50307.41059237  2861.48564998
0.31600002 49583.29323425  2829.22284590
0.31700002 48868.92506751  3263.46697053
0.31800002 48164.90296250  3226.56700223
0.31900002 47472.09197769  2962.25867967
0.32000002 46789.66693899  2703.50708374
0.32100002 46117.13665174  3341.18670862
0.32200002 45455.81379737  3303.50142415
0.32300002 44802.98709321  2830.65285858
0.32400002 44161.51918495  2583.44899465
0.32500002 43529.71758703  3192.90493620
0.32600002 42908.17303500  2315.11058573
0.32700002 42296.47784367  2080.98680845
0.32800002 41695.72246527  2469.22080132
0.32900002 41102.82890959  2644.96716558
0.33000002 40521.03285001  2816.61712678
0.33100002 39947.98117897  2387.29146830
0.33200002 39386.10319726  2557.53673223
0.33300002 38833.08653201  2334.64527286
0.33400002 38290.31956351  2501.31524394
0.33500002 37756.80859652  2093.23756772
0.33600002 37232.22474130  2070.29795478
0.33700002 36717.42628185  2047.73096071
0.33800002 36212.80148469  2209.70525124
0.33900002 35716.73749306  2368.01980793
0.34000002 35230.18467666  1802.02403155
0.34100002 34753.04166892  2139.39734646
0.34200002 34286.08738869  2116.82313563
0.34300002 33827.46051514  1920.04674977
0.34400002 33378.89509418  2072.82948352
0.34500002 32938.96683769  1880.48570582
0.34600002 32508.93759565  2199.71736659
0.34700002 32086.93257422  1674.93795970
0.34800002 31674.85633532  1823.99668846
0.34900002 31271.37006596  1805.92170684
0.35000002 30877.24393471  1625.68697016
0.35100002 30492.84527053  1771.02453719
0.35200002 30115.68089745  1594.62537905
0.35300002 29748.82553461  1895.59525285
0.35400002 29390.13565067  2504.03967604
0.35500002 29040.75870502  2171.08722362
0.35600002 28699.59925244  1536.86361276
0.35700002 28367.15756179  1980.31136319
0.35800002 28043.70596059  2265.23045626
0.35900002 27729.50183455  2096.35043799
0.36000002 27423.41269339  1781.97344122
0.36100002 27125.31328744  1767.48549753
0.36200002 26837.25984859  2630.31996235
0.36300002 26556.12400294  1594.96088316
0.36400002 26284.17143702  1726.87014521
0.36500002 26019.54491561  1714.16770024
0.36600002 25764.22390707  1418.32059327
0.36700002 25516.52082536  1549.36321791
0.36800002 25277.92051177  1539.04626326
0.36900002 25047.03797063  1668.13280786
0.37000002 24823.61661966  1934.00806245
0.37100002 24608.14287795  2059.70165645
0.37200002 24401.27295064  1501.77641489
0.37300002 24202.01761161  1357.73325233
0.37400002 24010.32617905  1620.69709386
0.37500002 23826.52795513  2150.10598452
0.37600002 23650.54520735  2006.15759225
0.37700002 23481.81372192  1331.41890110
0.37800002 23320.58280249  1458.35271464
0.37900002 23167.55731044  1452.60591218
0.38000002 23021.17557566  1710.35832042
0.38100002 22881.25525777  1573.31518606
0.38200002 22749.76731656  1306.97419425
0.38300002 22624.61118357  1433.49543250
0.38400002 22506.73117214  1429.74016544
0.38500002 22395.28857953  1426.35599720
0.38600002 22291.61060851  1941.04208569
0.38700002 22193.66080834  1420.83823226
0.38800002 22102.45908478  1805.54996817
0.38900002 22017.87172826  1674.45922426
0.39000002 21940.14951636  1415.46881311
0.39100002 21868.03717133  1671.59284057
0.39200002 21802.77654545  1413.80111207
0.39300002 21743.00178747  1670.51490648
0.39400002 21690.51278679  2056.26070961
0.39500002 21642.83640146  1542.70145179
0.39600002 21600.99468120  1543.60715305
0.39700002 21564.40687899  1802.35321234
0.39800002 21534.57531621  1675.49771186
0.39900002 21509.13594230  1419.60303945
0.40000002 21489.55960592  1551.11648585
0.40100002 21474.94188445  1294.93905699
0.40200002 21465.80458971  1427.36874382
0.40300002 21461.46422667  1430.62127313
0.40400002 21462.08406988  1564.58600282
0.40500002 21466.99124401  1438.07381157
0.40600002 21477.76326530  1573.46101137
0.40700002 21492.21974883  1972.98586642
0.40800002 21511.09705419  1583.64704016
0.40900002 21533.92709067  1456.77023671
0.41000002 21561.80499697  1728.07094336
0.41100002 21593.31934686  1601.36063864
0.41200002 21628.02247163  1607.82726672
0.41300002 21667.89574838  1883.80694562
0.41400002 21710.67138585  1756.93616515
0.41500002 21757.04030451  1493.40331726
0.41600002 21805.98972750  1909.55061092
0.41700002 21859.64902352  1918.84008221
0.41800002 21916.87107033  2479.45574167
0.41900002 21975.28890399  1522.88759321
0.42000002 22037.38230092  1669.99290990
0.42100002 22102.94039981  1958.76267105
0.42200002 22170.90911426  1406.74424996
0.42300002 22240.94080003  1414.52390191
0.42400002 22313.50358686  1564.73451317
0.42500002 22388.98417156  2145.98423453
0.42600002 22465.30311150  1438.90273248
0.42700002 22545.04615748  1736.87043828
0.42800002 22625.87843451  1747.17041551
0.42900002 22709.44403647  1611.23513074
0.43000002 22794.56330544  2063.13602254
0.43100002 22879.81853389  1630.87354238
0.43200002 22967.82669460  2088.46458031
0.43300002 23056.46552377  1951.26876974
0.43400002 23146.94564156  1812.40592962
0.43500002 23237.69469700  1671.71983572
0.43600002 23330.42250960  1835.17112157
0.43700002 23423.21637490  1846.68646651
0.43800002 23516.35974774  1548.55236277
0.43900002 23611.24633828  2805.01619792
0.44000002 23705.88165093  1568.14414552
0.44100002 23801.28968128  1893.63069678
0.44200002 23896.85198864  2064.32965687
0.44300002 23992.83876145  2237.09239213
0.44400002 24088.51173307  1929.48988126
0.44500002 24183.79116973  2426.84355889
0.44600002 24278.94287764  2279.06447593
0.44700002 24374.75760541  2129.37892532
0.44800002 24469.26695949  1812.80572861
0.44900002 24563.89098916  1823.86899238
0.45000002 24658.28500160  1834.94636536
0.45100002 24751.05290165  2181.55790614
0.45200002 24843.66371785  2025.75243556
0.45300002 24935.03765429  2207.49898815
0.45400002 25025.66466677  2049.60203335
0.45500002 25115.72030836  3607.62223607
0.45600002 25204.09366353  1900.51477277
0.45700002 25291.68871097  1911.29300647
0.45800002 25377.55763179  1921.96941833
0.45900002 25462.13706197  2108.26504865
0.46000002 25545.81265574  2649.73954330
0.46100002 25627.02183738  2131.14323700
0.46200002 25707.47373288  1963.92254890
0.46300002 25785.93149806  1974.17100906
0.46400002 25862.24888858  1803.89194547
0.46500002 25937.85702472  2538.27880874
0.46600002 26010.47725118  2368.64422314
0.46700002 26081.29461540  2380.17905941
0.46800002 26150.80129050  1839.70895798
0.46900002 26217.52816693  2033.16940571
0.47000002 26282.27557027  2042.52714275
0.47100002 26345.05527277  2238.27600206
0.47200002 26405.78755081  2435.53793019
0.47300002 26464.06764247  2446.07388813
0.47400002 26519.36633181  1889.50494070
0.47500002 26572.88079400  2845.95566793
0.47600002 26624.61566903  2285.98960969
0.47700002 26672.62744245  2103.67022610
