# SAXS profile: number of points = 501, q_min = 0, q_max = 0.5, delta_q = 0.001
#    q    intensity    error
0.00000000 1664650.74656090 324.60689558
0.00100000 1664569.15906964 699.11906341
0.00200000 1664324.32762544 1273.20815095
0.00300000 1663916.47865406 1797.02986096
0.00400000 1663345.49534525 1372.26008580
0.00500000 1662611.86145006 1945.25595489
0.00600000 1661715.50402991 2093.76162032
0.00700000 1660656.98454298 2192.06731070
0.00800000 1659436.10780122 2464.26272413
0.00900000 1658054.08002125 3481.91371689
0.01000000 1656510.40026080 3006.56650630
0.01100000 1654806.17672063 4170.11174690
0.01200000 1652941.46819666 3867.88320516
0.01300000 1650917.31430610 4160.31181554
0.01400000 1648733.88992362 3709.65141678
0.01500000 1646392.46955984 3951.34210289
0.01600000 1643892.50406339 5449.50389458
0.01700000 1641236.30256819 5317.60585886
0.01800000 1638423.72049009 5603.40937622
0.01900000 1635455.44337679 5887.63986182
0.02000000 1632332.76640642 6170.21813613
0.02100000 1629057.59147819 5375.89029561
0.02200000 1625628.41782853 5608.41829631
0.02300000 1622048.62220477 5839.37530574
0.02400000 1618317.59891527 8496.16778171
0.02500000 1614438.00015611 9444.46273225
0.02600000 1610409.75680265 9131.02373871
0.02700000 1606234.96762623 7420.80589031
0.02800000 1601913.53927925 8361.98905852
0.02900000 1597448.01129250 10063.92293322
0.03000000 1592839.74331949 14072.73977909
0.03100000 1588088.89157918 10671.95784246
0.03200000 1583197.15331977 8620.50889687
0.03300000 1578168.28270095 10463.25619667
0.03400000 1573000.30899879 12387.37800492
0.03500000 1567696.54850996 12698.34262932
0.03600000 1562258.16242152 9537.58652235
0.03700000 1556687.03615960 11535.05147141
0.03800000 1550984.65892582 9980.58674208
0.03900000 1545152.97002473 10198.01007443
0.04000000 1539192.12897442 10412.63523502
0.04100000 1533105.89122621 9658.56756256
0.04200000 1526895.20450184 10833.32197853
0.04300000 1520560.69541236 13046.41137223
0.04400000 1514106.31989256 12264.26176071
0.04500000 1507533.13362476 11442.17701587
0.04600000 1500841.27136606 14813.30403701
0.04700000 1494034.82179435 10757.05121721
0.04800000 1487114.61285467 13116.35149566
0.04900000 1480083.83003910 13320.75509040
0.05000000 1472942.33434137 14648.41219714
0.05100000 1465694.85670994 12575.66245640
0.05200000 1458339.60495964 12753.18043969
0.05300000 1450882.44230272 12927.36316356
0.05400000 1443323.43734593 13098.16080473
0.05500000 1435665.21445661 15677.46487321
0.05600000 1427908.69049169 15871.20583543
0.05700000 1420059.08992523 13589.96612494
0.05800000 1412115.40225163 16246.38846149
0.05900000 1404079.86806869 16427.73522367
0.06000000 1395956.96748925 15327.60821912
0.06100000 1387747.47058877 16777.86770347
0.06200000 1379453.71487992 16946.58967944
0.06300000 1371078.74718797 13162.35658841
0.06400000 1362621.71147483 18599.78723148
0.06500000 1354088.01882036 13405.47201340
0.06600000 1345479.49320781 17578.69040124
0.06700000 1336797.06655882 14998.86378872
0.06800000 1328044.19849668 21992.41295655
0.06900000 1319223.40486542 16622.21567954
0.07000000 1310335.47510866 15350.58080974
0.07100000 1301383.30528394 16865.92842644
0.07200000 1292369.59205879 19812.02677439
0.07300000 1283296.57424326 14244.59264154
0.07400000 1274167.27192912 14334.38248097
0.07500000 1264982.51353097 17304.96159623
0.07600000 1255744.02053738 24656.53499916
0.07700000 1246456.73395922 24792.02560091
0.07800000 1237121.29136653 14659.88799019
0.07900000 1227739.28394770 25045.88256728
0.08000000 1218315.13556297 17763.03550979
0.08100000 1208849.51370986 17842.61965950
0.08200000 1199344.63132511 17918.20963281
0.08300000 1189803.44438077 16490.67651306
0.08400000 1180227.90341570 21067.06906483
0.08500000 1170620.44553649 16611.10490197
0.08600000 1160982.82131463 22726.23979426
0.08700000 1151318.75128579 22796.11234591
0.08800000 1141628.04182147 15240.73507408
0.08900000 1131915.56613109 19865.11911866
0.09000000 1122181.74954903 21444.89424127
0.09100000 1112428.75303822 15351.51751316
0.09200000 1102659.00269325 18458.51257239
0.09300000 1092877.21503071 23114.35418409
0.09400000 1083080.22312126 20064.06207628
0.09500000 1073273.89679344 17000.65932428
0.09600000 1063459.29537325 17020.66682255
0.09700000 1053640.94180672 15488.52257272
0.09800000 1043818.19775590 17050.77106203
0.09900000 1033994.64390383 17060.91242666
0.10000000 1024170.11291835 17067.79573443
0.10100000 1014347.90069273 17071.47597156
0.10200000 1004530.52095762 17071.99700668
0.10300000 994719.01198878 27931.71117057
0.10400000 984916.78122046 20166.17204421
0.10500000 975126.42203852 17054.96192388
0.10600001 965344.89467937 15493.78628864
0.10700001 955579.97083415 21672.55475838
0.10800001 945830.12804921 17010.75565352
0.10900001 936099.19835769 18534.76499983
0.11000001 926387.16845773 16966.78178892
0.11100001 916696.73820580 20020.65770485
0.11200001 907029.60848043 21523.81362252
0.11300001 897387.27724411 18414.38779601
0.11400001 887772.27011907 22971.10857091
0.11500001 878186.11097300 19864.57076559
0.11600001 868629.69668100 18293.34227356
0.11700001 859105.92462577 15206.17558201
0.11800001 849613.99150782 18198.73255523
0.11900001 840156.72017005 19659.66817798
0.12000001 830735.37489067 16585.63254096
0.12100001 821354.31318843 18036.94156730
0.12200001 812011.79333459 22472.42743924
0.12300001 802710.63648067 25381.71152136
0.12400001 793450.85290182 19340.36545075
0.12500001 784234.33474568 22233.04443767
0.12600001 775064.85867877 23623.97800577
0.12700001 765940.66729943 16176.66765571
0.12800001 756863.86931449 16109.84821760
0.12900001 747836.86220790 16041.10145041
0.13000001 738860.33325943 20326.04872603
0.13100001 729934.18411005 17343.23703197
0.13200001 721061.17729496 15823.68828167
0.13300001 712242.23133584 21474.10428713
0.13400001 703477.25670580 17094.49814388
0.13500001 694768.90937795 18425.27234542
0.13600001 686117.39322043 21149.56964324
0.13700001 677524.18050918 19634.65167699
0.13800001 668988.19433809 16738.08541164
0.13900001 660513.88104377 18032.02980285
0.14000001 652098.96824152 17929.46197736
0.14100001 643747.01122780 15082.99318443
0.14200001 635456.87275257 16356.66067612
0.14300001 627231.09691054 14903.01156553
0.14400001 619066.32314855 16157.63179633
0.14500001 610969.18091035 18732.31597035
0.14600001 602936.79306661 14624.23260572
0.14700001 594971.76058057 15850.04844962
0.14800001 587071.09955090 15745.24763279
0.14900001 579239.15061191 16942.74595477
0.15000001 571474.73640056 16827.07440726
0.15100001 563778.98043528 17995.82590463
0.15200001 556153.28913904 16592.83416443
0.15300001 548597.29250758 17741.63727691
0.15400001 541109.11442647 18871.18125617
0.15500001 533693.40011667 14986.11138252
0.15600001 526346.60584967 14874.55578332
0.15700001 519073.83650543 13532.25555638
0.15800001 511869.48916126 12208.08789270
0.15900001 504739.16086852 16959.23660567
0.16000001 497678.58926356 15624.62004745
0.16100001 490692.64291468 14308.59814282
0.16200001 483778.78796226 13011.23111645
0.16300001 476937.19535534 12905.92111558
0.16400001 470168.93233241 13964.01794951
0.16500001 463472.93358903 17310.71488681
0.16600001 456850.90507013 13732.93885478
0.16700001 450300.85886995 14751.85683308
0.16800001 443824.55871518 13501.14371359
0.16900001 437422.60359482 12269.70461019
0.17000001 431092.32983484 12163.27066064
0.17100001 424836.05295409 13152.92482056
0.17200001 418652.73392069 11950.44285410
0.17300001 412542.42860960 12920.82947423
0.17400001 406506.02807729 14939.09723735
0.17500001 400541.25220857 14804.00538079
0.17600001 394648.27269264 13621.28577531
0.17700001 388830.54292442 13496.30878235
0.17800001 383083.30834963 12342.94477801
0.17900001 377407.89923302 11209.01513666
0.18000001 371805.94425226 16151.25098122
0.18100001 366275.62470536 9999.32502679
0.18200001 360814.83366137 10894.80441705
0.18300001 355425.71858097 16676.57550361
0.18400001 350107.45775304 16516.32009974
0.18500001 344859.89267056 11545.90975206
0.18600001 339682.63709425 14292.14763095
0.18700001 334574.25429453 14152.49162529
0.18800001 329533.85307524 12144.97072889
0.18900001 324565.83965459 12025.16492736
0.19000001 319661.96582485 10989.97890432
0.19100001 314828.98139903 9973.78260198
0.19200001 310062.03175026 10771.55549197
0.19300001 305364.00762157 13329.13956252
0.19400001 300730.59074010 8796.37019481
0.19500001 296164.11477571 13060.83807880
0.19600001 291662.19087646 12066.06540676
0.19700001 287227.02912564 11942.90043544
0.19800001 282855.15088528 9287.54931824
0.19900001 278547.74288003 8356.43268133
0.20000001 274302.22744303 11578.29756757
0.20100001 270121.27063918 13095.47981951
0.20200001 266001.23216191 8909.71169237
0.20300001 261943.40083491 8817.01528884
0.20400001 257947.04196425 11897.80787296
0.20500001 254010.15556249 10203.58843124
0.20600001 250133.08472516 8543.29591261
0.20700001 246315.42295570 7685.04155948
0.20800001 242555.78014522 11406.18610050
0.20900001 238856.46931921 8276.37705315
0.21000001 235211.49510088 11166.66625779
0.21100001 231624.53691432 9575.35880870
0.21200001 228092.58854722 10202.58196804
0.21300001 224615.75281160 10094.23240856
0.21400001 221194.03473868 7846.85875333
0.21500001 217827.31211223 8469.12629532
0.21600001 214512.15527305 10473.55647638
0.21700001 211250.19694493 7598.66994337
0.21800001 208040.44505611 7517.54183754
0.21900001 204881.14473908 10141.61714410
0.22000001 201771.62977222 7357.60282753
0.22100001 198713.80124233 8602.32086253
0.22200001 195704.45927533 8510.20881399
0.22300001 192743.16398307 7771.40473927
0.22400001 189829.16741473 8328.75511416
0.22500001 186964.29511574 8239.51687537
0.22600001 184143.99544237 7524.12400958
0.22700001 181370.36689181 9304.30026154
0.22800001 178641.33955442 7363.59636466
0.22900001 175955.99342003 8498.67488410
0.23000001 173315.07430129 7806.97789111
0.23100001 170718.14462153 5940.99171380
0.23200001 168161.80405560 9991.33406049
0.23300001 165648.36709897 6395.68375617
0.23400001 163174.91979823 8052.68267290
0.23500001 160741.64420053 6828.30536859
0.23600001 158348.40242166 6192.21456957
0.23700001 155994.39704436 6682.80028546
0.23800001 153678.29153160 8264.05051799
0.23900001 151400.20484425 5995.44839541
0.24000001 149158.38338928 6470.49097748
0.24100001 146954.40627906 7468.22328036
0.24200001 144786.10615788 7916.18072863
0.24300001 142652.19318572 5221.07051757
0.24400001 140553.03882535 6714.92174752
0.24500001 138487.30553292 6643.23636067
0.24600001 136455.26223746 7077.93478708
0.24700001 134456.53807083 6502.31848870
0.24800001 132489.49387696 5938.17939648
0.24900001 130552.96910829 5385.31023048
0.25000001 128648.73426704 5327.98758173
0.25100001 126774.09132912 5750.47305474
0.25200001 124930.98937855 4741.13127122
0.25300001 123115.49692001 7505.12104731
0.25400001 121330.03468283 4640.87404618
0.25500001 119570.93957795 5968.98158614
0.25600001 117840.98999430 4542.77037921
0.25700001 116137.35993907 5393.41925075
0.25800001 114460.35572650 6670.17754555
0.25900001 112810.42987029 4399.60697311
0.26000001 111185.15212071 6094.05847608
0.26100001 109584.69142905 4737.34643463
0.26200001 108010.20090120 5539.30341532
0.26300001 106458.43045868 5058.90485477
0.26400001 104931.29163023 5422.32475157
0.26500001 103427.29185339 4539.42405425
0.26600001 101945.75776812 4491.22057100
0.26700001 100486.84986774 4847.48586700
0.26800001 99050.18774147  3996.67526449
0.26900001 97634.27550340  5535.86368301
0.27000001 96240.13732594  6650.67500463
0.27100001 94866.31021656  5031.70933200
0.27200001 93513.52254582  3829.37892947
0.27300001 92180.39364231  4167.47579379
0.27400001 90865.65634122  5247.49190204
0.27500001 89571.90872861  4079.10491655
0.27600001 88294.90531320  5502.98023408
0.27700001 87038.31273952  5081.29693821
0.27800001 85798.73741038  3949.74506362
0.27900001 84577.40636960  4262.70148277
0.28000001 83373.09438636  3865.59370418
0.28100001 82186.29396163  4171.77647894
0.28200001 81016.63062323  4814.81858582
0.28300001 79863.39265828  4422.83489475
0.28400001 78725.79324932  6394.50285933
0.28500001 77604.84970965  4328.02267316
0.28600001 76499.31930705  3622.62543725
0.28700001 75409.93370092  3909.25114809
0.28800001 74334.17680214  4189.10273197
0.28900001 73275.11098199  3824.96097431
0.29000001 72229.86001642  3783.40024674
0.29100001 71199.66062726  4054.10886802
0.29200001 70183.25551735  3701.46507120
0.29300001 69181.26972941  3355.98355343
0.29400001 68192.32364206  3621.01255680
0.29500001 67218.29604547  3879.84023140
0.29600001 66256.31049723  5017.92191304
0.29700001 65308.15071407  2919.27447511
0.29800001 64373.15570258  4041.99063791
0.29900001 63451.37408443  5425.09274104
0.30000001 62541.36472782  2823.74275114
0.30100001 61644.79537774  3071.76029909
0.30200001 60759.73685446  3313.83620492
0.30300001 59887.51751048  3003.95802054
0.30400001 59027.20544101  2970.54425445
0.30500001 58179.30849058  2937.47342476
0.30600001 57341.92135601  3168.71472415
0.30700001 56517.10464921  4177.74457346
0.30800001 55703.49687304  3614.60008322
0.30900001 54901.55564614  3063.50695009
0.31000001 54110.73122051  2776.69230404
0.31100001 53330.76700196  2745.46801525
0.31200001 52562.64494261  2961.37955628
0.31300001 51804.71393997  2684.00235631
0.31400001 51059.08922669  2412.54208019
0.31500001 50322.67165813  2385.29474953
0.31600002 49598.33696145  3065.92134444
0.31700002 48883.72760321  3497.63087562
0.31800002 48179.44469534  2305.38653783
0.31900002 47486.31147256  2507.27736447
0.32000002 46803.66704940  3380.39501270
0.32100002 46130.87461820  2450.93348452
0.32200002 45469.29578801  2643.58498229
0.32300002 44816.16930787  3267.09889724
0.32400002 44174.43911590  2368.85440976
0.32500002 43542.33717106  2555.06446618
0.32600002 42920.46751613  2736.82374076
0.32700002 42308.57530569  2497.89840433
0.32800002 41707.42755386  2264.08781197
0.32900002 41114.22376217  2238.66958986
0.33000002 40532.18902295  2213.66560831
0.33100002 39958.78459723  2387.93708061
0.33200002 39396.61567645  2558.21936009
0.33300002 38843.31154184  2529.86500052
0.33400002 38300.19343692  2501.96025475
0.33500002 37766.34337115  2474.45093486
0.33600002 37241.53395061  3200.35137160
0.33700002 36726.30758989  2420.63104788
0.33800002 36221.40258214  1841.85840853
0.33900002 35724.99445108  2732.96220493
0.34000002 35238.13167809  1802.43052069
0.34100002 34760.68340797  1961.54545761
0.34200002 34293.41020195  2293.71484999
0.34300002 33834.44622521  2444.20051107
0.34400002 33385.52799802  1900.47127129
0.34500002 32945.32044383  1880.84843322
0.34600002 32514.94292606  1692.40285945
0.34700002 32092.56553516  2010.27840033
0.34800002 31680.21069847  1824.30501947
0.34900002 31276.36046024  2463.01350290
0.35000002 30881.89064008  1951.11794305
0.35100002 30497.13929907  1771.27393438
0.35200002 30119.65828462  2232.77037439
0.35300002 29752.47386261  2053.81336801
0.35400002 29393.43434236  1878.24054344
0.35500002 29043.72520120  2171.30899888
0.35600002 28702.21230069  1690.70389565
0.35700002 28369.46783717  3046.88099003
0.35800002 28045.67292965  1963.33742643
0.35900002 27731.10346339  1946.72355534
0.36000002 27424.74532385  1633.55503259
0.36100002 27126.31640129  1914.84676547
0.36200002 26837.93125068  1461.32542582
0.36300002 26556.49239565  1884.97991953
0.36400002 26284.18861241  1726.87127363
0.36500002 26019.27482431  1714.14990662
0.36600002 25763.63433439  1560.11695102
0.36700002 25515.59985886  1690.15341471
0.36800002 25276.67660880  1818.78335154
0.36900002 25045.49549467  1529.02757238
0.37000002 24821.77010351  1795.73104320
0.37100002 24606.02722018  1647.61966071
0.37200002 24398.85921738  1365.11623788
0.37300002 24199.23583678  1900.60807265
0.37400002 24007.25777565  1620.48997662
0.37500002 23823.20322392  2015.44308822
0.37600002 23646.91799972  1470.95660385
0.37700002 23477.88536948  1730.55501256
0.37800002 23316.40163629  1855.75249414
0.37900002 23163.11751171  1584.35731286
0.38000002 23016.41584680  1710.00469635
0.38100002 22876.27428558  1441.89163653
0.38200002 22744.53134142  1568.00806496
0.38300002 22619.06806092  1824.00173484
0.38400002 22500.95650610  1689.25938972
0.38500002 22389.22771034  2074.13815335
0.38600002 22285.29895713  1552.39399890
0.38700002 22187.13842907  1291.29151775
0.38800002 22095.69688338  1418.21237165
0.38900002 22010.85866846  1802.68941035
0.39000002 21932.94236420  1286.36713060
0.39100002 21860.57385419  1413.94198388
0.39200002 21795.09711424  1413.30313933
0.39300002 21735.14770809  1413.00201945
0.39400002 21682.45496701  1927.02827649
0.39500002 21634.45793177  1927.63029305
0.39600002 21592.50035117  2057.33353093
0.39700002 21555.68701620  1544.24949100
0.39800002 21525.66505578  1674.80444901
0.39900002 21500.05604582  2451.00650535
0.40000002 21480.28712542  1550.44719817
0.40100002 21465.44083422  1423.80275799
0.40200002 21456.18601402  1426.72915660
0.40300002 21451.70013338  1429.97039864
0.40400002 21452.17313176  1824.50741130
0.40500002 21456.95596998  1437.40154853
0.40600002 21467.51264490  1834.82839269
0.40700002 21481.84296593  1840.56439253
0.40800002 21500.58028290  1846.68492800
0.40900002 21523.31564246  1853.15756462
0.41000002 21551.03973026  1727.20816102
0.41100002 21582.45515397  1733.93452923
0.41200002 21617.06308440  2008.76568230
0.41300002 21656.83922979  1613.86773587
0.41400002 21699.51469287  2161.27176582
0.41500002 21745.75818105  1356.93537479
0.41600002 21794.60746063  1363.25276126
0.41700002 21848.19842619  2054.82315935
0.41800002 21905.30010071  2202.79708250
0.41900002 21963.67618788  1937.19633156
0.42000002 22025.72063363  1947.29405349
0.42100002 22091.21184621  1678.04853135
0.42200002 22159.11243857  2249.59320136
0.42300002 22229.15852741  1837.90691414
0.42400002 22301.68062791  1706.07864888
0.42500002 22377.08648347  1572.88548346
0.42600002 22453.38821747  1725.76750017
0.42700002 22533.03900395  1591.28328986
0.42800002 22613.89073280  1891.76511890
0.42900002 22697.47260053  2049.58187295
0.43000002 22782.57034411  2062.05053956
0.43100002 22867.77545794  2222.74787984
0.43200002 22955.81973174  1789.17667468
0.43300002 23044.46414169  1650.21415539
0.43400002 23134.90274668  1660.50772333
0.43500002 23225.73966712  1670.85979083
0.43600002 23318.49395440  2445.64376183
0.43700002 23411.28150833  1691.93339479
0.43800002 23504.45213917  1857.32189605
0.43900002 23599.36811533  2024.82588025
0.44000002 23694.05293350  1567.36167583
0.44100002 23789.50677734  1577.24437408
0.44200002 23885.13684422  1904.60090222
0.44300002 23981.12263559  1916.57141186
0.44400002 24076.92480378  2249.98872954
0.44500002 24172.25803837  2263.97379517
0.44600002 24267.47290232  1952.56096225
0.44700002 24363.41524987  2292.11021533
0.44800002 24457.94871088  1811.96721612
0.44900002 24552.63544566  1988.76356535
0.45000002 24647.15132530  1834.11785280
0.45100002 24739.99212937  1845.10870045
0.45200002 24832.69090174  2024.85771209
0.45300002 24924.18198683  1867.07056112
0.45400002 25014.93910103  2048.72360947
0.45500002 25105.06205948  2060.62359150
0.45600002 25193.54398588  1727.01752208
0.45700002 25281.25814699  2084.18702042
0.45800002 25367.25820947  2270.49655365
0.45900002 25451.95463200  2283.04043869
0.46000002 25535.71382537  2118.95363366
0.46100002 25617.06254338  2307.84127391
0.46200002 25697.63486591  2677.05123903
0.46300002 25776.23345641  2691.03890039
0.46400002 25852.68561640  1983.54739793
0.46500002 25928.42923397  1993.63701829
0.46600002 26001.22172308  2549.93993524
0.46700002 26072.15933262  2196.31880628
0.46800002 26141.81231728  2022.98424205
0.46900002 26208.66795098  2402.02453155
0.47000002 26273.55851203  2227.47239622
0.47100002 26336.52296082  2051.08850540
0.47200002 26397.38035493  2247.47306994
0.47300002 26455.79474508  2069.10780508
0.47400002 26511.29459529  2077.82281239
0.47500002 26564.97132623  2276.08685111
0.47600002 26616.84701668  2094.87904374
0.47700002 26665.05399111  2676.63824649
