# SAXS profile: number of points = 501, q_min = 0, q_max = 0.5, delta_q = 0.001
#    q    intensity    error
0.00000000 1682732.95097188 302.89193117
0.00100000 1682650.89439789 656.23386440
0.00200000 1682404.65793585 908.49854405
0.00300000 1681994.47078181 1513.79507763
0.00400000 1681420.20329957 1891.59780059
0.00500000 1680682.36491280 2268.92128244
0.00600000 1679780.86016502 1940.14697248
0.00700000 1678716.25150892 2215.90554409
0.00800000 1677488.34865247 3396.91404944
0.00900000 1676098.39932389 3016.97724775
0.01000000 1674545.80737243 3868.20098206
0.01100000 1672831.79847940 4516.64605255
0.01200000 1670956.32755775 4235.87447608
0.01300000 1668920.53090154 4205.67992336
0.01400000 1666724.50925545 3750.13031207
0.01500000 1664369.56819801 4393.93585570
0.01600000 1661855.16159835 5509.05010697
0.01700000 1659183.62771360 4927.77559536
0.01800000 1656354.73299916 6608.85568205
0.01900000 1653369.30744303 4960.10814614
0.02000000 1650228.55071548 8317.15227184
0.02100000 1646934.31372011 5978.37182985
0.02200000 1643485.22620933 6804.02914563
0.02300000 1639884.56339674 8265.01857573
0.02400000 1636131.85578862 6135.49473897
0.02500000 1632229.62834963 7002.26542542
0.02600000 1628177.85439432 7912.94473428
0.02700000 1623978.67910315 9548.99507048
0.02800000 1619631.91523663 8454.47898525
0.02900000 1615140.18882155 7994.94430175
0.03000000 1610504.80778829 12731.04109075
0.03100000 1605726.14991761 10790.48022395
0.03200000 1600805.55673901 8716.38665790
0.03300000 1595747.00118498 11393.63411371
0.03400000 1590548.36490310 13360.60688165
0.03500000 1585213.08635740 8560.15106162
0.03600000 1579742.55072588 15781.62881108
0.03700000 1574138.23588854 13458.88253929
0.03800000 1568401.84916320 10092.66636645
0.03900000 1562535.49545857 14062.82011038
0.04000000 1556538.85394470 10529.98583488
0.04100000 1550416.12258201 14651.43303774
0.04200000 1544168.13171327 9959.88491162
0.04300000 1537795.54322916 10149.45105643
0.04400000 1531302.19475897 13437.17738306
0.04500000 1524689.21387839 12624.42727751
0.04600000 1517956.75162357 10701.59559643
0.04700000 1511108.92965865 13055.98175946
0.04800000 1504146.33315756 11055.47606310
0.04900000 1497072.65888565 13473.65455714
0.05000000 1489887.51921808 14816.93206859
0.05100000 1482595.59803156 16189.94468470
0.05200000 1475194.91736511 11727.80013958
0.05300000 1467691.63529060 11888.30280006
0.05400000 1460085.77800340 15659.42069935
0.05500000 1452379.90282114 17079.98845395
0.05600000 1444575.21218037 18526.67796075
0.05700000 1436676.63740888 13748.99606179
0.05800000 1428682.94184136 15172.61355080
0.05900000 1420597.04230450 14063.91137568
0.06000000 1412422.92641738 12923.67038050
0.06100000 1404161.35254722 18282.18166452
0.06200000 1395814.92329753 13190.45164173
0.06300000 1387386.53852084 15982.69367104
0.06400000 1378875.25572433 16132.84124645
0.06500000 1370287.04864703 17635.59514104
0.06600000 1361622.98926126 16421.17401881
0.06700000 1352884.68715555 13799.42445479
0.06800000 1344074.91223217 13911.17599277
0.06900000 1335196.69657479 14019.56597042
0.07000000 1326250.71912901 19774.39914822
0.07100000 1317239.87562187 21339.28698456
0.07200000 1308166.77943160 15756.86959641
0.07300000 1299033.99476216 14419.27801748
0.07400000 1289844.04008364 15961.82074407
0.07500000 1280598.16571672 18978.46570549
0.07600000 1271297.88330622 17620.18948867
0.07700000 1261948.42790573 17717.75675856
0.07800000 1252549.78679802 22264.07350444
0.07900000 1243104.46934136 19392.43063130
0.08000000 1233616.12935392 23981.49867964
0.08100000 1224086.09579629 19573.13759012
0.08200000 1214516.01938638 15120.72515090
0.08300000 1204909.04524538 16700.04015087
0.08400000 1195267.45707683 24383.45726889
0.08500000 1185593.06709695 21411.81179695
0.08600000 1175888.13129539 19948.94308406
0.08700000 1166156.57349027 16932.59424219
0.08800000 1156397.45412109 20069.27875880
0.08900000 1146616.19448112 21671.04709358
0.09000000 1136813.09308815 18620.99933951
0.09100000 1126990.46009978 17107.71598806
0.09200000 1117150.77470063 15584.25403933
0.09300000 1107298.35396204 20296.77978191
0.09400000 1097430.22379511 21893.73399366
0.09500000 1087552.39961809 17226.83081966
0.09600000 1077665.99964416 18816.04923829
0.09700000 1067775.44114835 21974.81961193
0.09800000 1057880.12547404 18851.42472230
0.09900000 1047983.34099956 20435.67611043
0.10000000 1038085.50626023 18872.39539133
0.10100000 1028189.30656821 15731.29713036
0.10200000 1018297.59487800 20452.50815514
0.10300000 1008411.68918900 23596.83463704
0.10400000 998534.49317991 18872.30280895
0.10500000 988668.89456198 17291.81977946
0.10600001 978811.78157998 15709.92983357
0.10700001 968971.11498482 25115.73248229
0.10800001 959145.02023298 15682.02181883
0.10900001 949337.58094216 17230.47790506
0.11000001 939548.87416288 25029.58318583
0.11100001 929781.52624873 24992.52860205
0.11200001 920037.03194081 17154.09126810
0.11300001 910317.12583857 21792.99301861
0.11400001 900624.31432578 15535.77015361
0.11500001 890960.20501633 17052.97912700
0.11600001 881325.40789608 21654.16629173
0.11700001 871723.25003119 20058.35292786
0.11800001 862152.51979096 24623.07712494
0.11900001 852616.36332522 19951.22384155
0.12000001 843115.74802052 18363.06185688
0.12100001 833655.55534953 18307.07685789
0.12200001 824233.22008207 15207.10362694
0.12300001 814852.85738397 16671.89024756
0.12400001 805513.16130105 15103.37248603
0.12500001 796216.79681110 18058.19780259
0.12600001 786967.11237552 16490.89661694
0.12700001 777762.99699645 16426.35527068
0.12800001 768606.04882806 16359.78052033
0.12900001 759498.59310750 16291.24559000
0.13000001 750441.37722239 16220.79113323
0.13100001 741434.49584122 16148.44408062
0.13200001 732481.04449283 18996.89678444
0.13300001 723581.33602689 15998.38409377
0.13400001 714735.38261751 15920.73139840
0.13500001 705946.43696984 15841.43879250
0.13600001 697214.22718023 17193.30365294
0.13700001 688539.95318505 15678.05547330
0.13800001 679922.92621136 15594.03304801
0.13900001 671367.73724034 14098.72314692
0.14000001 662872.11749250 15421.72054076
0.14100001 654439.15185951 16727.46551045
0.14200001 646068.01042274 20787.23921579
0.14300001 637761.42843300 17908.34175509
0.14400001 629515.69419280 15061.16369400
0.14500001 621337.89901532 14968.03069335
0.14600001 613224.66944101 16225.92551886
0.14700001 605178.90271021 16121.96672878
0.14800001 597197.90606250 17351.58597927
0.14900001 589285.20270630 15910.70122375
0.15000001 581440.35227306 15803.54952044
0.15100001 573664.29168084 13079.54646748
0.15200001 565958.47059447 19483.12126956
0.15300001 558322.29860454 14186.97027701
0.15400001 550754.16099077 16646.54530151
0.15500001 543258.54024301 19068.37566242
0.15600001 535831.91002686 17666.37890735
0.15700001 528479.59971532 13777.46381483
0.15800001 521195.73185697 13673.57067064
0.15900001 513986.06124110 14802.79926244
0.16000001 506846.40732565 14688.40957763
0.16100001 499781.51099906 18217.03693584
0.16200001 492788.80279323 13253.55547677
0.16300001 485868.62014784 11952.36861988
0.16400001 479022.17013806 15412.53905181
0.16500001 472247.95773758 14110.76964339
0.16600001 465548.12437994 11661.98106631
0.16700001 458920.23451863 12721.26950149
0.16800001 452366.25157053 13760.98202252
0.16900001 445887.18480976 17055.18562429
0.17000001 439479.93735032 12399.92701786
0.17100001 433147.13116727 18997.83407010
0.17200001 426887.14258501 13293.26624784
0.17300001 420700.75911127 17568.46453015
0.17400001 414588.22141515 15236.11785655
0.17500001 408547.93143378 14021.36566900
0.17600001 402579.58989181 16032.73292465
0.17700001 396686.78066677 12709.84505286
0.17800001 390864.72836587 17841.02136893
0.17900001 385114.83566195 12477.72126481
0.18000001 379438.75578068 15452.64405907
0.18100001 373834.61716707 11226.25408382
0.18200001 368300.13570205 14153.77488362
0.18300001 362838.05220179 12017.19685661
0.18400001 357446.73455646 9919.14735253
0.18500001 352126.75862081 15718.93924743
0.18600001 346877.28981093 12648.88097053
0.18700001 341696.96538820 14453.78231879
0.18800001 336585.12637814 10496.40766202
0.18900001 331546.04463074 11338.87526210
0.19000001 326571.62397132 9356.27746885
0.19100001 321668.27973631 12043.26096237
0.19200001 316831.21083571 11006.71678451
0.19300001 312063.55476371 9081.04987273
0.19400001 307361.02359232 11687.40347437
0.19500001 302725.86680072 10680.16908542
0.19600001 298155.33947233 9691.53976753
0.19700001 293652.29244431 12210.06289685
0.19800001 289212.86595041 12086.20623925
0.19900001 284838.26452181 8545.14833950
0.20000001 280526.01906470 9303.64586198
0.20100001 276278.73101023 8371.24594525
0.20200001 272092.83411389 13256.36350457
0.20300001 267969.52199193 9839.84131262
0.20400001 263907.83746708 8926.68302425
0.20500001 259906.44629820 9637.33148426
0.20600001 255965.17923779 7947.71919101
0.20700001 252083.76969182 9438.01678339
0.20800001 248260.89994886 8561.27753943
0.20900001 244498.65171267 9242.04947162
0.21000001 240791.26444403 9145.25265590
0.21100001 237142.44093318 8295.24297599
0.21200001 233548.88723952 9700.45349008
0.21300001 230011.19798268 10336.70372601
0.21400001 226528.86403919 8766.66745277
0.21500001 223101.99770847 8674.20608100
0.21600001 219727.31620705 7152.12448068
0.21700001 216406.31000380 11322.37867472
0.21800001 213137.80301863 7701.73487622
0.21900001 209920.09466965 6927.36345164
0.22000001 206753.03737088 10280.79526937
0.22100001 203637.83869804 12206.05262871
0.22200001 200571.80240104 8721.86523982
0.22300001 197554.23990396 10620.51643943
0.22400001 194584.33879472 7223.94391935
0.22500001 191664.22499641 8446.64279501
0.22600001 188789.07196481 8999.57548614
0.22700001 185961.17372618 7631.84693063
0.22800001 183178.11063163 7550.60207730
0.22900001 180439.57399272 8092.71527629
0.23000001 177745.68543046 6774.77712057
0.23100001 175096.39549480 9140.03227709
0.23200001 172488.24026862 6631.31071075
0.23300001 169923.43651909 8350.03806546
0.23400001 167398.96919810 10621.46509797
0.23500001 164915.33163252 7005.60361909
0.23600001 162472.30126332 6931.06869971
0.23700001 160068.73746364 6857.34503728
0.23800001 157703.69096402 5653.67758847
0.23900001 155377.12985773 6152.93463340
0.24000001 153087.45989382 8301.16790539
0.24100001 150835.96247746 6570.41483631
0.24200001 148620.66902611 5958.94600647
0.24300001 146440.38254950 6967.63373129
0.24400001 144295.15933174 5833.13209191
0.24500001 142184.01476761 6295.90847173
0.24600001 140106.85922968 5190.95938002
0.24700001 138063.72104259 5135.97066575
0.24800001 136052.73459339 7622.35481618
0.24900001 134072.57248019 6033.26604703
0.25000001 132125.28579483 5471.96897006
0.25100001 130207.97273083 7874.97856332
0.25200001 128322.91179897 5843.82567979
0.25300001 126465.83777369 6263.85324128
0.25400001 124639.21388803 5720.94018813
0.25500001 122839.42542616 5188.73757549
0.25600001 121069.33906192 5133.94556582
0.25700001 119326.00119588 5541.49975772
0.25800001 117609.71538621 5939.87895662
0.25900001 115921.08944942 5425.10724292
0.26000001 114257.49502447 5815.13548442
0.26100001 112619.37206831 4868.53568487
0.26200001 111007.43662207 4817.16794015
0.26300001 109418.85413432 4766.28551162
0.26400001 107855.14025305 4715.96623072
0.26500001 106315.27187084 6362.96932256
0.26600001 104798.19127076 4616.88453490
0.26700001 103304.32829075 5398.68445194
0.26800001 101833.08605996 4519.86173866
0.26900001 100382.97063797 4472.06155355
0.27000001 98955.00772340  6033.78188147
0.27100001 97548.01176041  4775.95088180
0.27200001 96162.32267081  4725.41675967
0.27300001 94796.83723287  5064.99525305
0.27400001 93449.97311036  3854.81157323
0.27500001 92124.78834253  4576.75970145
0.27600001 90816.69624525  6414.83764287
0.27700001 89529.44184435  4480.05348192
0.27800001 88259.55629639  4432.39512698
0.27900001 87008.39807901  4750.65875995
0.28000001 85774.60161785  4700.01951809
0.28100001 84558.73868006  3576.83481545
0.28200001 83360.50281861  4600.24956577
0.28300001 82179.07806952  4551.07755889
0.28400001 81013.58758445  3809.66413647
0.28500001 79865.26568354  4796.70808399
0.28600001 78732.70162979  4406.27585527
0.28700001 77616.65922717  4358.95178852
0.28800001 76514.62963365  3980.29122194
0.28900001 75429.68395050  3281.19140716
0.29000001 74358.86931989  4868.64719917
0.29100001 73303.50573562  4173.90181416
0.29200001 72262.44204312  3493.52792594
0.29300001 71236.02467067  5026.41413869
0.29400001 70223.06021005  4039.58172980
0.29500001 69225.14239417  3995.67540813
0.29600001 68239.93981191  3040.08946253
0.29700001 67268.75968197  4811.06192020
0.29800001 66311.17010285  4163.67856786
0.29900001 65367.09608100  3823.97530176
0.30000001 64434.97615200  3491.08717318
0.30100001 63516.86842876  3740.50855885
0.30200001 62610.42381814  3414.77267670
0.30300001 61717.28398160  3095.73911107
0.30400001 60836.26782981  4453.21501596
0.30500001 59967.94426816  3853.54028111
0.30600001 59110.48897959  3266.44577565
0.30700001 58265.96189345  3768.64259369
0.30800001 57432.76918585  2928.20987557
0.30900001 56611.76859807  2632.44736444
0.31000001 55802.20135878  3384.12466162
0.31100001 55003.66570846  3089.00601244
0.31200001 54217.24555507  2545.49979933
0.31300001 53441.26360172  2517.08363482
0.31400001 52677.84858284  3733.54269508
0.31500001 51923.84917415  3199.54773760
0.31600002 51182.32784717  2920.46376524
0.31700002 50450.85352121  2647.15640960
0.31800002 49729.88134824  2617.53242870
0.31900002 49020.35676638  2588.27495982
0.32000002 48321.47771804  2326.67926229
0.32100002 47632.74049188  2530.72762216
0.32200002 46955.44923590  2502.49078552
0.32300002 46286.94126426  4049.18181353
0.32400002 45630.01435901  2669.35596640
0.32500002 44982.82839652  2419.62645402
0.32600002 44346.11264942  3480.28308553
0.32700002 43719.69075899  2581.21066464
0.32800002 43104.24240726  2552.63335623
0.32900002 42496.88665481  2524.31518683
0.33000002 41900.80877143  2496.45030482
0.33100002 41313.68587686  2880.39031573
0.33200002 40738.01472800  2238.35032523
0.33300002 40171.37509162  2213.84458614
0.33400002 39614.99765469  2587.84984434
0.33500002 39068.19550615  2362.84457611
0.33600002 38530.55125250  2142.49140386
0.33700002 38002.74386152  2119.41312553
0.33800002 37485.35441403  2477.96947089
0.33900002 36976.64902098  2262.97102725
0.34000002 36477.65783841  1865.83228680
0.34100002 35988.24662903  2215.43656740
0.34200002 35509.11029982  2009.63819259
0.34300002 35038.43664985  2892.77346681
0.34400002 34578.03062403  2147.29580345
0.34500002 34126.46606710  1771.16367277
0.34600002 33684.91578481  2454.61992949
0.34700002 33251.38926740  2430.01164275
0.34800002 32828.01424574  1890.40128987
0.34900002 32413.40004724  2382.38501631
0.35000002 32008.26058276  2190.80549935
0.35100002 31612.83144779  1836.07333745
0.35200002 31224.88570677  1984.02933178
0.35300002 30847.37219821  2129.39420370
0.35400002 30478.03693871  2109.84220701
0.35500002 30118.07450625  1769.13578029
0.35600002 29766.59369180  2869.20210185
0.35700002 29423.90007514  1896.07621065
0.35800002 29090.37703277  2193.12362838
0.35900002 28766.02239639  2019.37486788
0.36000002 28449.96822013  2618.96194855
0.36100002 28141.97523467  1680.92026039
0.36200002 27844.15598523  1516.11436521
0.36300002 27553.26163955  1654.84897246
0.36400002 27271.65248847  1642.43534892
0.36500002 26997.52531792  2371.46273626
0.36600002 26732.72804366  1618.80042336
0.36700002 26475.57578559  1607.59703785
0.36800002 26227.63444440  1596.86959879
0.36900002 25987.48847927  2307.68908627
0.37000002 25754.79565649  1576.57989079
0.37100002 25530.19719960  1994.41909971
0.37200002 25314.32259001  1982.87098240
0.37300002 25105.95724696  1549.28869510
0.37400002 24905.23028924  1541.01119715
0.37500002 24712.53545127  1533.16577202
0.37600002 24527.63367490  1387.03775002
0.37700002 24350.16410106  1380.65436993
0.37800002 24180.06276342  1512.10029654
0.37900002 24018.34180335  1505.95010241
0.38000002 23863.21040358  1772.91730092
0.38100002 23714.68035485  1494.73637358
0.38200002 23574.49851943  1354.35500410
0.38300002 23440.83205701  1485.21118949
0.38400002 23314.40719540  1346.40707932
0.38500002 23194.36746552  2148.72630380
0.38600002 23082.29059730  1339.92703265
0.38700002 22975.90226188  1337.19757499
0.38800002 22876.17857093  1468.30759114
0.38900002 22783.16943453  1865.94166509
0.39000002 22697.08883512  1863.65805254
0.39100002 22616.59905796  2127.76974018
0.39200002 22543.11377067  1328.91661974
0.39300002 22475.02287819  1726.75608954
0.39400002 22414.23137740  1460.84759923
0.39500002 22358.13295530  1328.07316047
0.39600002 22308.13377899  1594.13931537
0.39700002 22263.24509186  1993.67369243
0.39800002 22225.24435577  1862.25331280
0.39900002 22191.59622585  1331.49583664
0.40000002 22163.80246824  1599.78333795
0.40100002 22140.90272416  2136.15439604
0.40200002 22123.62814467  1872.32273859
0.40300002 22111.15674847  1339.93616244
0.40400002 22103.53917369  1342.79006842
0.40500002 22100.43473980  1884.28315519
0.40600002 22102.93997757  1619.26145948
0.40700002 22109.25779553  1623.70396944
0.40800002 22119.94376092  1764.17619824
0.40900002 22134.71012511  1497.41321091
0.41000002 22154.52888387  2321.90550969
0.41100002 22177.93385085  1781.77529000
0.41200002 22204.51877150  1513.12700338
0.41300002 22236.32058854  1518.96313138
0.41400002 22270.99659362  2218.19136583
0.41500002 22309.20973039  1392.09475314
0.41600002 22349.99381263  1817.38983299
0.41700002 22395.64983192  1404.20731100
0.41800002 22444.77938803  1692.78534166
0.41900002 22495.09442148  1558.91011728
0.42000002 22549.09879077  1566.37322172
0.42100002 22606.65972680  1574.10179137
0.42200002 22666.48598328  2013.46404530
0.42300002 22728.53288857  1879.19518827
0.42400002 22793.01934437  1453.05505206
0.42500002 22860.43402876  1606.85998402
0.42600002 22928.75240617  2496.59732405
0.42700002 23000.31470609  2067.26838374
0.42800002 23073.11775021  2078.65727662
0.42900002 23148.69084608  2090.32688245
0.43000002 23225.80580706  1952.01294155
0.43100002 23303.04014799  1812.04448778
0.43200002 23383.04432359  2278.09320118
0.43300002 23463.70540118  1832.98475280
0.43400002 23546.09800746  1997.29785813
0.43500002 23628.95621825  2163.46733387
0.43600002 23713.66678846  1709.87402481
0.43700002 23798.48765533  1876.27285566
0.43800002 23883.69352394  2359.11193962
0.43900002 23970.56593843  1582.05742691
0.44000002 24057.27297464  1909.66641923
0.44100002 24144.75349995  2561.27557265
0.44200002 24232.37798341  1610.24159331
0.44300002 24320.41943200  1943.68801312
0.44400002 24408.22377804  1955.09881727
0.44500002 24495.66100231  2458.13969808
0.44600002 24582.89424562  2142.76807847
0.44700002 24670.94484270  1823.67632920
0.44800002 24757.54516261  2000.90489487
0.44900002 24844.41702146  1844.69805127
0.45000002 24931.00899259  1686.58283828
0.45100002 25016.03486067  2204.91341712
0.45200002 25100.92071670  2387.85070095
0.45300002 25184.56069349  2401.09613031
0.45400002 25267.53358357  1896.96017369
0.45500002 25349.90123459  2254.11332461
0.45600002 25430.61693128  1917.59576058
0.45700002 25510.59836840  2278.35164826
0.45800002 25588.83713005  2114.14982388
0.45900002 25665.86873546  1948.03952935
0.46000002 25741.96334661  2492.07958970
0.46100002 25815.69485366  2325.73605959
0.46200002 25888.61886126  2157.55759815
0.46300002 25959.66834264  2348.83090296
0.46400002 26028.61931678  2360.14516841
0.46500002 26096.83843804  2918.67054924
0.46600002 26162.12641901  2565.71985952
0.46700002 26225.60424108  2761.55625747
0.46800002 26287.92436975  2219.22668048
0.46900002 26347.35920570  2228.98669445
0.47000002 26404.92353450  2611.71111058
0.47100002 26460.59579653  1873.41027119
0.47200002 26514.20580972  1881.18299136
0.47300002 26565.48057262  2077.68633406
0.47400002 26613.74792156  2654.72148100
0.47500002 26660.26187046  1903.54278777
0.47600002 26705.05806068  2101.82169429
0.47700002 26746.28838453  2301.25076168
